time,channel1,channel2,channel3,channel4,channel5,channel6,channel7,channel8,class
41512,3.2851383828444685e-9,6.370380912443021e-9,1.406659117891566e-8,5.4077974091379755e-8,1.361327041498465e-7,5.925996240530477e-8,4.520953208986074e-9,3.18112996959587e-9,0
41513,3.285824760614421e-9,6.361912168697321e-9,1.4019994398662625e-8,5.408225513127546e-8,1.358681098708898e-7,5.926216967436489e-8,4.517184936329316e-9,3.187279745247735e-9,0
41514,3.286511138384373e-9,6.353443424951622e-9,1.397339761840959e-8,5.4086536171171175e-8,1.3560351559193306e-7,5.926437694342501e-8,4.513416663672559e-9,3.1934295208996e-9,0
41515,3.2871975161543253e-9,6.344974681205922e-9,1.3926800838156555e-8,5.409081721106689e-8,1.3533892131297634e-7,5.926658421248512e-8,4.509648391015801e-9,3.1995792965514646e-9,0
41516,3.2878838939242778e-9,6.336505937460223e-9,1.388020405790352e-8,5.4095098250962595e-8,1.350743270340196e-7,5.926879148154524e-8,4.505880118359043e-9,3.2057290722033296e-9,0
41517,3.296303313946109e-9,6.328037193714523e-9,1.380960735604977e-8,5.409100435694537e-8,1.3481256869463218e-7,5.927852129177159e-8,4.505880118359043e-9,3.2063536481951044e-9,0
41518,3.30472273396794e-9,6.319568449968824e-9,1.3739010654196022e-8,5.4086910462928133e-8,1.3455081035524477e-7,5.928825110199794e-8,4.505880118359043e-9,3.206978224186879e-9,0
41519,3.313142153989771e-9,6.311099706223124e-9,1.3668413952342272e-8,5.40828165689109e-8,1.3428905201585735e-7,5.929798091222429e-8,4.505880118359043e-9,3.2076028001786537e-9,0
41520,3.3215615740116022e-9,6.302630962477425e-9,1.3597817250488522e-8,5.407872267489367e-8,1.3402729367646994e-7,5.930771072245064e-8,4.505880118359043e-9,3.2082273761704285e-9,0
41521,3.3299809940334334e-9,6.294162218731725e-9,1.3527220548634774e-8,5.407462878087644e-8,1.3376553533708252e-7,5.931744053267699e-8,4.505880118359043e-9,3.208851952162203e-9,0
41522,3.3384004140552645e-9,6.285693474986026e-9,1.3456623846781024e-8,5.4070534886859204e-8,1.335037769976951e-7,5.9327170342903336e-8,4.505880118359043e-9,3.2094765281539777e-9,0
41523,3.3468198340770956e-9,6.2772247312403265e-9,1.3386027144927275e-8,5.406644099284198e-8,1.332420186583077e-7,5.9336900153129685e-8,4.505880118359043e-9,3.210101104145752e-9,0
41524,3.3552392540989267e-9,6.268755987494627e-9,1.3315430443073527e-8,5.406234709882474e-8,1.3298026031892027e-7,5.934662996335603e-8,4.505880118359043e-9,3.210725680137527e-9,0
41525,3.361416654028497e-9,6.2042828833123e-9,1.2952597185637551e-8,5.3068299370117394e-8,1.3061635888118607e-7,5.854366520857299e-8,4.380693275454904e-9,3.196010193989389e-9,0
41526,3.3573719839904947e-9,6.188105175670519e-9,1.2943333616763405e-8,5.305576410228334e-8,1.2958433274789123e-7,5.853194038587781e-8,4.371050746774705e-9,3.1908968399427514e-9,0
41527,3.3533273139524926e-9,6.171927468028738e-9,1.2934070047889257e-8,5.304322883444928e-8,1.2855230661459638e-7,5.8520215563182634e-8,4.361408218094505e-9,3.185783485896114e-9,0
41528,3.34928264391449e-9,6.155749760386957e-9,1.292480647901511e-8,5.303069356661523e-8,1.2752028048130154e-7,5.850849074048746e-8,4.3517656894143054e-09,3.1806701318494765e-9,0
41529,3.345237973876488e-9,6.139572052745176e-9,1.2915542910140964e-8,5.3018158298781174e-8,1.264882543480067e-7,5.849676591779228e-8,4.3421231607341066e-9,3.175556777802839e-9,0
41530,3.3411933038384857e-9,6.123394345103395e-9,1.2906279341266816e-8,5.300562303094712e-8,1.2545622821471186e-7,5.8485041095097104e-8,4.332480632053907e-9,3.1704434237562015e-9,0
41531,3.3371486338004835e-9,6.1072166374616146e-9,1.289701577239267e-8,5.299308776311307e-8,1.2442420208141701e-07,5.847331627240193e-8,4.322838103373707e-9,3.165330069709564e-9,0
41532,3.3310400925822832e-9,6.090841440422314e-9,1.2887905171896531e-8,5.2980373767848044e-8,1.233897604721031e-7,5.843289252326328e-8,4.309427302036751e-9,3.1631268652434777e-9,0
41533,3.3183883778697047e-9,6.0755675239395974e-9,1.2878641603022383e-8,5.296797979826926e-8,1.2235489839923893e-7,5.842116770056811e-8,4.294631022731215e-9,3.1816241843320136e-9,0
41534,3.305736663157126e-9,6.0602936074568805e-9,1.2869378034148237e-8,5.295558582869048e-8,1.2132003632637477e-7,5.840944287787293e-8,4.279834743425679e-9,3.200121503420549e-9,0
41535,3.2930849484445475e-9,6.045019690974164e-9,1.286011446527409e-8,5.2943191859111694e-8,1.2028517425351063e-7,5.839771805517775e-8,4.265038464120143e-9,3.2186188225090844e-9,0
41536,3.280433233731969e-9,6.029745774491447e-9,1.2850850896399942e-8,5.293079788953291e-8,1.1925031218064646e-7,5.838599323248258e-8,4.250242184814607e-9,3.23711614159762e-9,0
41537,3.2677815190193904e-9,6.0144718580087304e-9,1.2841587327525796e-8,5.291840391995413e-8,1.182154501077823e-7,5.83742684097874e-8,4.235445905509071e-9,3.2556134606861552e-09,0
41538,3.255129804306812e-9,5.9991979415260135e-09,1.283232375865165e-8,5.2906009950375345e-8,1.1718058803491815e-7,5.836254358709222e-8,4.220649626203535e-9,3.274110779774691e-9,0
41539,3.2424780895942333e-9,5.983924025043297e-9,1.2823060189777503e-8,5.289361598079656e-8,1.16145725962054e-7,5.835081876439705e-8,4.205853346897999e-9,3.2926080988632264e-9,0
41540,3.2298263748816547e-9,5.96865010856058e-9,1.2813796620903355e-8,5.288122201121778e-8,1.1511086388918984e-7,5.8339093941701866e-8,4.191057067592463e-9,3.311105417951762e-9,0
41541,3.217174660169076e-9,5.953376192077863e-9,1.2804533052029208e-8,5.2868828041638995e-8,1.1407600181632569e-7,5.832736911900669e-8,4.176260788286927e-9,3.3296027370402973e-9,0
41542,3.204522945456497e-9,5.9381022755951464e-9,1.2795269483155062e-8,5.2856434072060216e-8,1.1304113974346153e-7,5.831564429631152e-8,4.1614645089813914e-9,3.3481000561288327e-9,0
41543,3.1918712307439186e-9,5.92282835911243e-9,1.2786005914280914e-8,5.284404010248143e-8,1.1200627767059736e-7,5.8303919473616336e-8,4.1466682296758555e-9,3.366597375217368e-9,0
41544,3.17921951603134e-9,5.907554442629713e-9,1.2776742345406768e-8,5.2831646132902645e-8,1.1097141559773321e-7,5.829219465092116e-8,4.1318719503703196e-9,3.385094694305904e-9,0
41545,3.1665678013187615e-9,5.892280526146996e-9,1.2767478776532621e-8,5.2819252163323866e-8,1.0993655352486905e-7,5.828046982822599e-8,4.117075671064783e-9,3.4035920133944393e-9,0
41546,3.153916086606183e-9,5.877006609664279e-9,1.2758215207658475e-8,5.280685819374508e-8,1.089016914520049e-7,5.8268745005530806e-8,4.102279391759247e-9,3.4220893324829748e-9,0
41547,3.1412643718936044e-9,5.8617326931815624e-9,1.2748951638784327e-8,5.27944642241663e-8,1.0786682937914075e-7,5.825702018283563e-8,4.087483112453711e-9,3.44058665157151e-9,0
41548,3.135338717457808e-9,5.838415189488642e-9,1.2712296496446981e-8,5.119312234457932e-8,1.057826501505927e-7,5.7740736466591774e-8,4.068475150687029e-9,3.462991626475011e-9,0
41549,3.118884602460319e-9,5.835318896463231e-9,1.2706617395796513e-8,5.102670069396814e-8,1.0519803457914794e-7,5.7414122183149527e-8,4.067255986929123e-9,3.4872268756019588e-9,0
41550,3.1024304874628298e-9,5.83222260343782e-9,1.2700938295146042e-8,5.086027904335695e-8,1.0461341900770318e-7,5.708750789970728e-8,4.066036823171218e-9,3.511462124728906e-9,0
41551,3.0859763724653406e-9,5.829126310412409e-9,1.2695259194495573e-8,5.069385739274576e-8,1.0402880343625841e-7,5.676089361626504e-8,4.064817659413313e-9,3.535697373855854e-9,0
41552,3.0695222574678514e-9,5.826030017386998e-9,1.2689580093845103e-8,5.052743574213457e-8,1.0344418786481365e-7,5.643427933282279e-8,4.063598495655408e-9,3.5599326229828015e-9,0
41553,3.053068142470362e-9,5.822933724361587e-9,1.2683900993194634e-8,5.036101409152339e-8,1.0285957229336887e-7,5.610766504938054e-8,4.062379331897503e-9,3.5841678721097492e-9,0
41554,3.036925155937335e-9,5.8196298826918384e-9,1.2681733088356205e-8,5.0194451142656926e-8,1.022754946198248e-7,5.575297734311175e-8,4.061160168139597e-9,3.586245253701268e-9,0
41555,3.0225301742497025e-9,5.815432309109844e-9,1.2682497930246242e-8,5.003711091723504e-8,1.0169129951193028e-7,5.540315866639694e-8,4.059220593740994e-9,3.5951793560591164e-9,0
41556,3.00813519256207e-9,5.81123473552785e-9,1.2683262772136277e-8,4.9879770691813154e-8,1.0110710440403576e-7,5.505333998968213e-8,4.05728101934239e-9,3.604113458416965e-9,0
41557,2.993740210874438e-9,5.807037161945856e-9,1.2684027614026312e-8,4.972243046639127e-8,1.0052290929614123e-7,5.4703521312967326e-8,4.055341444943787e-9,3.6130475607748134e-9,0
41558,2.979345229186805e-9,5.802839588363862e-9,1.2684792455916346e-8,4.956509024096938e-8,9.993871418824671e-8,5.435370263625251e-8,4.0534018705451835e-9,3.621981663132662e-9,0
41559,2.9649502474991727e-9,5.798642014781868e-9,1.2685557297806381e-8,4.9407750015547496e-8,9.935451908035219e-8,5.400388395953771e-8,4.05146229614658e-9,3.6309157654905104e-9,0
41560,2.9505552658115404e-9,5.7944444411998735e-9,1.2686322139696418e-8,4.925040979012561e-8,9.877032397245767e-8,5.36540652828229e-8,4.049522721747977e-9,3.639849867848359e-9,0
41561,2.936160284123908e-9,5.790246867617879e-9,1.2687086981586453e-8,4.9093069564703724e-8,9.818612886456313e-8,5.330424660610809e-8,4.047583147349373e-9,3.6487839702062074e-9,0
41562,2.937908288969303e-9,5.790049378220361e-9,1.269337795574895e-8,4.8890696505092284e-8,9.803790201253835e-8,5.330862513142649e-8,4.023144339363638e-9,3.646077474241851e-9,0
41563,2.920323688185001e-9,5.734717959950844e-9,1.2620573501073587e-8,4.882922916570123e-8,9.770474368782337e-8,5.3201696205516164e-8,4.002917024324236e-9,3.6529341950081807e-9,0
41564,2.902739087400699e-9,5.6793865416813266e-9,1.2547769046398225e-8,4.876776182631017e-8,9.737158536310838e-8,5.3094767279605836e-8,3.982689709284834e-9,3.659790915774511e-9,0
41565,2.8851544866163967e-9,5.624055123411809e-9,1.2474964591722861e-8,4.8706294486919114e-8,9.703842703839341e-8,5.298783835369551e-8,3.962462394245432e-9,3.666647636540841e-9,0
41566,2.8675698858320945e-9,5.568723705142291e-9,1.24021601370475e-8,4.864482714752806e-8,9.670526871367842e-8,5.288090942778517e-8,3.9422350792060305e-9,3.673504357307171e-9,0
41567,2.849985285047793e-9,5.513392286872774e-9,1.2329355682372136e-8,4.8583359808136993e-8,9.637211038896345e-8,5.277398050187484e-8,3.922007764166629e-9,3.680361078073501e-9,0
41568,2.866992798262835e-9,5.460460919113942e-9,1.2256551227696772e-8,4.851281104355664e-8,9.603849245591474e-8,5.26618022949114e-8,3.901558791603735e-9,3.6801139707054297e-9,0
41569,2.8840003114778776e-9,5.40752955135511e-9,1.218374677302141e-8,4.844226227897628e-8,9.570487452286603e-8,5.254962408794796e-8,3.881109819040842e-9,3.679866863337358e-9,0
41570,2.90100782469292e-9,5.354598183596278e-9,1.2110942318346047e-8,4.837171351439592e-8,9.537125658981733e-8,5.243744588098452e-8,3.860660846477949e-9,3.679619755969286e-9,0
41571,2.9180153379079628e-9,5.3016668158374454e-9,1.2038137863670685e-8,4.830116474981556e-8,9.503763865676863e-8,5.232526767402107e-8,3.840211873915056e-9,3.6793726486012147e-9,0
41572,2.9350228511230054e-9,5.248735448078614e-9,1.1965333408995321e-8,4.82306159852352e-8,9.470402072371991e-8,5.221308946705763e-8,3.819762901352163e-9,3.679125541233143e-9,0
41573,2.9520303643380475e-9,5.195804080319781e-9,1.1892528954319958e-8,4.8160067220654836e-8,9.437040279067121e-8,5.2100911260094184e-8,3.79931392878927e-9,3.678878433865071e-9,0
41574,2.96903787755309e-9,5.142872712560949e-9,1.1819724499644596e-8,4.8089518456074476e-8,9.403678485762251e-8,5.1988733053130745e-8,3.7788649562263765e-9,3.6786313264969998e-9,0
41575,2.9860453907681327e-9,5.089941344802117e-9,1.1746920044969232e-8,4.801896969149412e-8,9.37031669245738e-8,5.1876554846167305e-8,3.758415983663484e-9,3.678384219128928e-9,0
41576,2.967522666720104e-9,5.034807415930118e-9,1.168284698162236e-8,4.795665456257143e-8,9.33768345643658e-8,5.183398981902155e-8,3.73890907926478e-9,3.6781371117608566e-9,0
41577,2.9489999426720756e-9,4.97967348705812e-9,1.1618773918275487e-8,4.7894339433648745e-8,9.305050220415777e-8,5.1791424791875796e-8,3.7194021748660762e-9,3.677890004392785e-9,0
41578,2.9304772186240475e-9,4.924539558186122e-9,1.1554700854928615e-8,4.7832024304726054e-8,9.272416984394976e-8,5.1748859764730045e-8,3.6998952704673726e-9,3.677642897024713e-9,0
41579,2.911954494576019e-9,4.8694056293141236e-9,1.1490627791581742e-8,4.776970917580336e-8,9.239783748374174e-8,5.1706294737584294e-8,3.680388366068669e-9,3.6773957896566417e-9,0
41580,2.8934317705279905e-9,4.814271700442125e-9,1.1426554728234871e-8,4.770739404688068e-8,9.207150512353373e-8,5.1663729710438536e-8,3.6608814616699653e-9,3.67714868228857e-9,0
41581,2.874909046479962e-9,4.7591377715701265e-9,1.1362481664887999e-8,4.7645078917957986e-8,9.174517276332572e-8,5.1621164683292785e-8,3.6413745572712617e-9,3.676901574920498e-9,0
41582,2.8563863224319338e-9,4.704003842698128e-9,1.1298408601541126e-8,4.75827637890353e-8,9.14188404031177e-8,5.1578599656147034e-8,3.621867652872558e-9,3.6766544675524267e-9,0
41583,2.8378635983839053e-9,4.64886991382613e-9,1.1234335538194253e-8,4.752044866011261e-8,9.109250804290969e-8,5.1536034629001277e-8,3.6023607484738544e-9,3.676407360184355e-9,0
41584,2.8081307738745725e-9,4.632692206184349e-9,1.1223981266682464e-8,4.747913542818333e-8,9.108904578680466e-8,5.154021739549165e-8,3.5399059221973462e-9,3.5892857645374503e-9,0
41585,2.8050147513596143e-9,4.6236008165056354e-9,1.1213626995170675e-8,4.747596418204913e-8,9.026962205946022e-8,5.156304153726509e-8,3.5405708947678198e-9,3.5853781087224852e-9,0
41586,2.801898728844656e-9,4.614509426826921e-9,1.1203272723658886e-8,4.747279293591492e-8,8.945019833211578e-8,5.158586567903853e-8,3.5412358673382933e-9,3.5814704529075198e-9,0
41587,2.798782706329698e-9,4.605418037148207e-9,1.1192918452147097e-8,4.746962168978071e-8,8.863077460477134e-8,5.160868982081196e-8,3.5419008399087673e-9,3.5775627970925543e-9,0
41588,2.7956666838147393e-9,4.5963266474694925e-9,1.1182564180635308e-8,4.74664504436465e-8,8.78113508774269e-8,5.16315139625854e-8,3.542565812479241e-9,3.5736551412775892e-9,0
41589,2.792550661299781e-9,4.587235257790779e-9,1.1172209909123519e-8,4.7463279197512287e-8,8.699192715008246e-8,5.165433810435884e-8,3.5432307850497144e-9,3.5697474854626238e-9,0
41590,2.789434638784823e-9,4.578143868112065e-9,1.116185563761173e-8,4.7460107951378076e-8,8.617250342273802e-8,5.167716224613228e-8,3.5438957576201884e-9,3.5658398296476583e-9,0
41591,2.8265394698515674e-9,4.57752122217905e-9,1.114467179083705e-8,4.745041548554448e-8,8.535654195149862e-8,5.163261347267465e-8,3.549991671167121e-9,3.5761009147306834e-9,0
41592,2.8260454546047014e-9,4.568232343102817e-9,1.1119813830943071e-8,4.7439546786045504e-8,8.453029225964721e-8,5.15968135009722e-8,3.55381547665151e-9,3.5702806155695806e-9,0
41593,2.825551439357836e-9,4.558943464026584e-9,1.1094955871049094e-8,4.742867808654653e-8,8.37040425677958e-8,5.1561013529269756e-8,3.5576392821358993e-9,3.564460316408478e-9,0
41594,2.82505742411097e-9,4.549654584950351e-9,1.1070097911155117e-8,4.7417809387047546e-8,8.28777928759444e-8,5.152521355756731e-8,3.5614630876202884e-9,3.558640017247375e-9,0
41595,2.824563408864104e-9,4.5403657058741185e-9,1.104523995126114e-8,4.740694068754857e-8,8.2051543184093e-8,5.1489413585864865e-8,3.565286893104678e-9,3.5528197180862723e-9,0
41596,2.8240693936172386e-9,4.531076826797886e-9,1.1020381991367162e-8,4.7396071988049595e-8,8.122529349224158e-8,5.145361361416242e-8,3.569110698589067e-9,3.5469994189251695e-9,0
41597,2.8235753783703727e-9,4.521787947721653e-9,1.0995524031473185e-8,4.7385203288550613e-8,8.039904380039018e-8,5.141781364245997e-8,3.572934504073456e-9,3.541179119764067e-9,0
41598,2.823081363123507e-9,4.512499068645419e-9,1.0970666071579208e-8,4.737433458905164e-8,7.957279410853878e-8,5.138201367075753e-8,3.576758309557845e-9,3.5353588206029644e-9,0
41599,2.8225873478766413e-9,4.503210189569186e-9,1.094580811168523e-8,4.736346588955266e-8,7.874654441668736e-8,5.134621369905508e-8,3.5805821150422343e-9,3.5295385214418616e-9,0
41600,2.8220933326297758e-9,4.493921310492953e-9,1.0920950151791252e-8,4.735259719005368e-8,7.792029472483596e-8,5.1310413727352635e-8,3.5844059205266234e-9,3.523718222280759e-9,0
41601,2.82159931738291e-9,4.4846324314167204e-9,1.0896092191897275e-8,4.7341728490554705e-8,7.709404503298455e-8,5.127461375565019e-8,3.5882297260110124e-9,3.517897923119656e-9,0
41602,2.821105302136044e-9,4.4753435523404876e-9,1.0871234232003297e-8,4.733085979105573e-8,7.626779534113315e-8,5.123881378394774e-8,3.5920535314954015e-9,3.5120776239585533e-9,0
41603,2.8206112868891784e-9,4.466054673264255e-9,1.084637627210932e-8,4.731999109155675e-8,7.544154564928174e-8,5.12030138122453e-8,3.595877336979791e-9,3.5062573247974506e-9,0
41604,2.8201172716423125e-9,4.456765794188022e-9,1.0821518312215343e-8,4.730912239205777e-8,7.461529595743033e-8,5.116721384054285e-8,3.59970114246418e-9,3.5004370256363482e-9,0
41605,2.819623256395447e-9,4.447476915111788e-9,1.0796660352321366e-8,4.7298253692558797e-8,7.378904626557893e-8,5.1131413868840405e-8,3.6035249479485692e-9,3.4946167264752455e-9,0
41606,2.819129241148581e-9,4.438188036035555e-9,1.0771802392427388e-8,4.7287384993059815e-8,7.296279657372753e-8,5.109561389713796e-8,3.6073487534329583e-9,3.4887964273141427e-9,0
41607,2.8032285243686453e-9,4.413769251786052e-9,1.0693225640698328e-8,4.698522763621694e-8,7.063726462434772e-8,5.072289080416444e-8,3.5621837825332072e-9,3.4879247439542965e-9,0
41608,2.751788094584956e-9,4.3507590473609105e-9,1.0631453526576297e-8,4.6315443384369305e-8,6.780510681316802e-8,4.985893713515016e-8,3.475733084288319e-9,3.415362972972276e-9,0
41609,2.700347664801267e-9,4.28774884293577e-9,1.0569681412454267e-8,4.564565913252167e-8,6.497294900198831e-8,4.899498346613589e-8,3.3892823860434307e-9,3.3428012019902557e-9,0
41610,2.6489072350175775e-9,4.224738638510629e-9,1.0507909298332235e-8,4.497587488067404e-8,6.214079119080861e-8,4.813102979712162e-8,3.302831687798542e-9,3.2702394310082354e-9,0
41611,2.597466805233888e-9,4.161728434085488e-9,1.0446137184210204e-8,4.430609062882641e-8,5.9308633379628895e-8,4.726707612810734e-8,3.216380989553654e-9,3.197677660026215e-9,0
41612,2.546026375450199e-9,4.098718229660347e-9,1.0384365070088174e-8,4.3636306376978776e-8,5.647647556844919e-8,4.640312245909307e-8,3.1299302913087656e-9,3.1251158890441946e-9,0
41613,2.4945859456665097e-9,4.035708025235206e-9,1.0322592955966144e-8,4.296652212513114e-8,5.3644317757269477e-8,4.55391687900788e-8,3.043479593063877e-9,3.0525541180621742e-9,0
41614,2.4431455158828203e-9,3.972697820810065e-9,1.0260820841844113e-8,4.229673787328351e-8,5.081215994608977e-8,4.467521512106453e-8,2.9570288948189887e-9,2.979992347080154e-9,0
41615,2.387962068784908e-9,3.910581348297169e-9,1.0200678031460119e-8,4.162723621794642e-8,4.798269162441351e-8,4.3800272385708446e-8,2.8703564442932025e-9,2.9083022594579797e-9,0
41616,2.332778621686996e-9,3.848464875784273e-9,1.0140535221076122e-8,4.095773456260933e-8,4.5153223302737254e-8,4.2925329650352365e-8,2.783683993767416e-9,2.8366121718358055e-9,0
41617,2.2775951745890833e-9,3.786348403271377e-9,1.0080392410692128e-8,4.028823290727224e-8,4.232375498106099e-8,4.205038691499629e-8,2.6970115432416296e-9,2.7649220842136313e-9,0
41618,2.222411727491171e-9,3.7242319307584806e-9,1.0020249600308133e-8,3.9618731251935156e-8,3.949428665938473e-8,4.117544417964021e-8,2.610339092715843e-9,2.693231996591457e-9,0
41619,2.167228280393259e-9,3.6621154582455845e-9,9.960106789924137e-9,3.8949229596598065e-8,3.6664818337708475e-8,4.0300501444284134e-8,2.5236666421900568e-9,2.6215419089692834e-9,0
41620,2.112044833295347e-9,3.5999989857326884e-9,9.899963979540142e-9,3.8279727941260974e-8,3.3835350016032213e-8,3.942555870892805e-8,2.43699419166427e-9,2.549851821347109e-9,0
41621,2.1118572086426015e-9,3.5943988678744234e-9,9.893001359890836e-9,3.821815673279034e-8,3.3820857159917795e-8,3.942030942787494e-8,2.43699419166427e-9,2.549851821347109e-9,0
41622,2.1116695839898563e-9,3.588798750016158e-9,9.886038740241532e-9,3.8156585524319706e-8,3.380636430380338e-8,3.941506014682183e-8,2.43699419166427e-9,2.549851821347109e-9,0
41623,2.111481959337111e-9,3.583198632157893e-9,9.879076120592228e-9,3.809501431584907e-8,3.379187144768896e-8,3.940981086576872e-8,2.43699419166427e-9,2.549851821347109e-9,0
41624,2.1112943346843657e-9,3.577598514299628e-9,9.872113500942922e-9,3.803344310737844e-8,3.377737859157454e-8,3.940456158471561e-8,2.43699419166427e-9,2.549851821347109e-9,0
41625,2.1111067100316204e-9,3.5719983964413627e-9,9.865150881293618e-9,3.7971871898907805e-8,3.376288573546012e-8,3.93993123036625e-8,2.43699419166427e-9,2.549851821347109e-9,0
41626,2.1117930878015724e-9,3.5663982785830977e-9,9.85588731241947e-9,3.791030069043717e-8,3.376288573546012e-8,3.93993123036625e-8,2.4354425889998317e-9,2.5489801379872626e-9,0
41627,2.112479465571525e-9,3.5607981607248323e-9,9.846623743545323e-9,3.784872948196654e-8,3.376288573546012e-8,3.93993123036625e-8,2.433890986335393e-9,2.5481084546274164e-9,0
41628,2.113165843341477e-9,3.5551980428665674e-9,9.837360174671177e-9,3.7787158273495904e-8,3.376288573546012e-8,3.93993123036625e-8,2.4323393836709544e-9,2.54723677126757e-9,0
41629,2.1138522211114293e-9,3.549597925008302e-9,9.82809660579703e-9,3.772558706502527e-8,3.376288573546012e-8,3.93993123036625e-8,2.4307877810065155e-9,2.546365087907724e-9,0
41630,2.1145385988813817e-9,3.543997807150037e-9,9.818833036922882e-9,3.766401585655464e-8,3.376288573546012e-8,3.93993123036625e-8,2.429236178342077e-9,2.545493404547878e-9,0
41631,2.1152249766513337e-9,3.5383976892917716e-9,9.809569468048736e-9,3.7602444648084003e-08,3.376288573546012e-8,3.93993123036625e-8,2.427684575677638e-9,2.544621721188031e-9,0
41632,2.115911354421286e-9,3.5327975714335067e-9,9.80030589917459e-9,3.754087343961337e-8,3.376288573546012e-8,3.93993123036625e-8,2.4261329730131997e-9,2.543750037828185e-9,0
41633,2.116597732191238e-9,3.5271974535752413e-9,9.791042330300443e-9,3.7479302231142736e-8,3.376288573546012e-8,3.93993123036625e-8,2.4245813703487613e-9,2.5428783544683388e-9,0
41634,2.116410107538493e-9,3.5210048675244194e-9,9.781778761426295e-9,3.7428317125660535e-8,3.375042703659801e-8,3.971246850182178e-8,2.4295134634506066e-9,2.542089040231183e-9,0
41635,2.1162224828857476e-9,3.5148122814735975e-9,9.772515192552149e-9,3.7377332020178334e-8,3.37379683377359e-8,4.002562469998106e-8,2.434445556552452e-9,2.5412997259940273e-9,0
41636,2.1160348582330023e-9,3.5086196954227755e-9,9.763251623678002e-9,3.7326346914696133e-8,3.372550963887379e-8,4.0338780898140345e-8,2.439377649654297e-9,2.5405104117568716e-9,0
41637,2.115847233580257e-9,3.5024271093719536e-9,9.753988054803854e-9,3.727536180921394e-8,3.371305094001169e-8,4.065193709629963e-8,2.444309742756142e-9,2.539721097519716e-9,0
41638,2.1156596089275118e-9,3.4962345233211313e-9,9.744724485929708e-9,3.722437670373174e-8,3.370059224114958e-8,4.096509329445891e-8,2.4492418358579874e-9,2.53893178328256e-9,0
41639,2.1154719842747665e-9,3.4900419372703094e-9,9.735460917055561e-9,3.717339159824954e-8,3.368813354228747e-8,4.127824949261819e-8,2.4541739289598327e-9,2.5381424690454043e-9,0
41640,2.1152843596220212e-9,3.4838493512194875e-9,9.726197348181415e-9,3.7122406492767337e-8,3.367567484342536e-8,4.1591405690777476e-8,2.459106022061678e-9,2.5373531548082486e-9,0
41641,2.115096734969276e-9,3.4776567651686656e-9,9.716933779307267e-9,3.7071421387285136e-8,3.3663216144563256e-8,4.190456188893676e-8,2.4640381151635234e-9,2.536563840571093e-9,0
41642,2.11266709022427e-9,3.4714641791178437e-9,9.700534698414216e-9,3.694120097607091e-8,3.366836025486925e-8,4.202439461917244e-8,2.4667535382730496e-9,2.534733566347646e-9,0
41643,2.11266709022427e-9,3.4708717109252867e-9,9.69127112954007e-9,3.694120097607091e-8,3.3557470354647307e-8,4.2321868965225395e-8,2.4753431226486105e-9,2.5348159354703365e-9,0
41644,2.11266709022427e-9,3.4702792427327298e-9,9.682007560665922e-9,3.694120097607091e-8,3.344658045442536e-8,4.261934331127835e-8,2.4839327070241714e-9,2.534898304593027e-9,0
41645,2.11266709022427e-9,3.4696867745401732e-9,9.672743991791775e-9,3.694120097607091e-8,3.3335690554203416e-8,4.29168176573313e-8,2.4925222913997323e-9,2.5349806737157174e-9,0
41646,2.11266709022427e-9,3.4690943063476163e-9,9.663480422917629e-9,3.694120097607091e-8,3.322480065398147e-8,4.3214292003384253e-8,2.5011118757752933e-9,2.5350630428384083e-9,0
41647,2.116410107538493e-9,3.471983050728689e-9,9.654888499530289e-9,3.69331834970199e-8,3.310930454135421e-8,4.3196488388309386e-8,2.5011118757752933e-9,2.5348548508411497e-9,0
41648,2.1172841099611906e-9,3.471390582536132e-9,9.649747999980212e-9,3.692573121098998e-8,3.299327053082626e-8,4.317642801088465e-8,2.507263227392451e-9,2.5357265342009963e-9,0
41649,2.118158112383888e-9,3.4707981143435756e-9,9.644607500430134e-9,3.691827892496006e-8,3.287723652029832e-8,4.3156367633459917e-8,2.513414579009608e-9,2.5365982175608425e-9,0
41650,2.1190321148065856e-9,3.4702056461510186e-9,9.639467000880058e-9,3.691082663893014e-8,3.276120250977037e-8,4.3136307256035175e-8,2.519565930626765e-9,2.5374699009206887e-9,0
41651,2.1199061172292833e-9,3.4696131779584617e-9,9.634326501329981e-9,3.690337435290022e-8,3.264516849924242e-8,4.311624687861044e-8,2.5257172822439228e-9,2.538341584280535e-9,0
41652,2.1207801196519806e-9,3.4690207097659047e-9,9.629186001779904e-9,3.6895922066870296e-8,3.2529134488714475e-8,4.3096186501185706e-8,2.53186863386108e-9,2.5392132676403815e-9,0
41653,2.1216541220746783e-9,3.468428241573348e-9,9.624045502229828e-9,3.688846978084038e-8,3.241310047818653e-8,4.307612612376097e-8,2.5380199854782375e-9,2.5400849510002277e-9,0
41654,2.1225281244973756e-9,3.4678357733807912e-9,9.61890500267975e-9,3.6881017494810456e-8,3.229706646765858e-8,4.305606574633623e-8,2.5441713370953947e-9,2.540956634360074e-9,0
41655,2.1234021269200733e-9,3.4672433051882343e-9,9.613764503129673e-9,3.687356520878054e-8,3.218103245713064e-8,4.3036005368911496e-8,2.550322688712552e-9,2.54182831771992e-9,0
41656,2.1242761293427706e-9,3.4666508369956778e-9,9.608624003579597e-9,3.6866112922750615e-8,3.206499844660269e-8,4.301594499148676e-8,2.5564740403297094e-9,2.5427000010797663e-9,0
41657,2.1251501317654683e-9,3.466058368803121e-9,9.60348350402952e-9,3.685866063672069e-8,3.194896443607474e-8,4.299588461406203e-8,2.5626253919468666e-9,2.543571684439613e-9,0
41658,2.126024134188166e-9,3.465465900610564e-9,9.598343004479442e-9,3.6851208350690775e-8,3.1832930425546794e-8,4.297582423663729e-8,2.568776743564024e-9,2.544443367799459e-9,0
41659,2.1268981366108633e-9,3.464873432418007e-9,9.593202504929366e-9,3.684375606466085e-8,3.1716896415018846e-8,4.295576385921255e-8,2.5749280951811813e-9,2.5453150511593053e-9,0
41660,2.127772139033561e-9,3.4642809642254504e-9,9.588062005379289e-9,3.6836303778630934e-8,3.16008624044909e-8,4.293570348178782e-8,2.5810794467983385e-9,2.5461867345191515e-9,0
41661,2.1286461414562584e-9,3.4636884960328935e-9,9.582921505829213e-9,3.682885149260101e-8,3.1484828393962957e-8,4.291564310436308e-8,2.587230798415496e-9,2.547058417878998e-9,0
41662,2.129520143878956e-9,3.4630960278403365e-9,9.577781006279136e-9,3.6821399206571094e-8,3.136879438343501e-8,4.289558272693835e-8,2.5933821500326532e-9,2.5479301012388444e-9,0
41663,2.1303941463016534e-9,3.46250355964778e-9,9.572640506729058e-9,3.681394692054117e-8,3.125276037290706e-8,4.2875522349513607e-8,2.599533501649811e-9,2.5488017845986906e-9,0
41664,2.1226611040497747e-9,3.461911091455223e-9,9.565252406374182e-9,3.678146152801884e-8,3.069204580630475e-8,4.269828050023404e-8,2.5934930261731022e-9,2.4771116969765164e-9,0
41665,2.0992149696707054e-9,3.42074224986502e-9,9.534555953896992e-9,3.6737845431767655e-8,3.067780670553857e-8,4.2625368790148614e-8,2.550600163335895e-9,2.4475639785678006e-9,0
41666,2.075768835291636e-9,3.3795734082748175e-9,9.503859501419801e-9,3.6694229335516475e-8,3.06635676047724e-8,4.2552457080063195e-8,2.5077073004986875e-9,2.418016260159085e-9,0
41667,2.0523227009125666e-9,3.3384045666846145e-9,9.473163048942611e-9,3.665061323926529e-8,3.064932850400623e-8,4.247954536997777e-8,2.4648144376614804e-9,2.3884685417503686e-9,0
41668,2.028876566533497e-9,3.2972357250944115e-9,9.44246659646542e-9,3.660699714301411e-8,3.0635089403240055e-8,4.240663365989234e-8,2.4219215748242733e-9,2.358920823341653e-9,0
41669,2.0054304321544277e-9,3.256066883504209e-9,9.411770143988229e-9,3.656338104676292e-8,3.062085030247388e-8,4.2333721949806916e-8,2.3790287119870657e-9,2.3293731049329366e-9,0
41670,1.981984297775358e-9,3.214898041914006e-9,9.38107369151104e-9,3.651976495051174e-8,3.0606611201707704e-8,4.226081023972149e-8,2.3361358491498586e-9,2.299825386524221e-9,0
41671,1.957664160973591e-9,3.1758279871148e-9,9.346081277340179e-9,3.647390867445688e-8,3.059716390819619e-8,4.2233816811945614e-8,2.2871470727657184e-9,2.2730230794506753e-9,0
41672,1.9335316488245695e-9,3.138140358098227e-9,9.311933401025725e-9,3.642715876124719e-8,3.058288566264653e-8,4.216414287268122e-8,2.238158296381578e-9,2.2423954856848548e-9,0
41673,1.909399136675548e-9,3.1004527290816537e-9,9.277785524711271e-9,3.638040884803749e-8,3.0568607417096875e-8,4.209446893341683e-8,2.189169519997438e-9,2.2117678919190342e-9,0
41674,1.885266624526526e-9,3.0627651000650803e-9,9.243637648396817e-9,3.6333658934827796e-8,3.055432917154722e-8,4.202479499415244e-8,2.1401807436132977e-9,2.181140298153214e-9,0
41675,1.8611341123775043e-9,3.025077471048507e-9,9.209489772082364e-9,3.62869090216181e-8,3.0540050925997564e-8,4.195512105488804e-8,2.0911919672291575e-9,2.1505127043873936e-9,0
41676,1.8370016002284826e-9,2.987389842031934e-9,9.175341895767912e-9,3.6240159108408405e-8,3.052577268044791e-8,4.188544711562365e-8,2.0422031908450177e-9,2.119885110621573e-9,0
41677,1.812869088079461e-9,2.9497022130153608e-9,9.141194019453458e-9,3.619340919519871e-8,3.0511494434898254e-8,4.181577317635926e-8,1.9932144144608775e-9,2.0892575168557525e-9,0
41678,1.806513539237828e-9,2.9492871157266843e-9,9.129283716615269e-9,3.60830893056639e-8,2.937795753439408e-8,4.1691153905385846e-8,1.9688310445453668e-9,2.0773263574135984e-9,0
41679,1.8055801538444428e-9,2.953069592020002e-9,9.128113318011254e-9,3.5975736679489796e-8,2.9201838281100397e-8,4.1676538567842254e-8,1.9652289913418756e-9,2.0771181654163402e-9,0
41680,1.7992246050028098e-9,2.9503582185428097e-9,9.122341020957557e-9,3.5735034488204816e-8,2.9000440569451876e-8,4.1611033914580306e-8,1.9645640187714017e-9,2.076909973419082e-9,0
41681,1.7928690561611766e-9,2.947646845065617e-9,9.116568723903858e-9,3.5494332296919836e-8,2.8799042857803354e-8,4.154552926131835e-8,1.963899046200928e-9,2.076701781421824e-9,0
41682,1.7865135073195435e-9,2.944935471588425e-9,9.110796426850161e-9,3.5253630105634856e-8,2.859764514615483e-8,4.14800246080564e-8,1.9632340736304545e-9,2.0764935894245654e-9,0
41683,1.7801579584779105e-9,2.9422240981112326e-9,9.105024129796462e-9,3.5012927914349875e-8,2.8396247434506307e-8,4.141451995479445e-8,1.9625691010599806e-9,2.0762853974273073e-9,0
41684,1.782962852528407e-9,2.9357302483407227e-9,9.099557769498779e-9,3.4775359540023404e-8,2.8195426765541958e-8,4.13576126061431e-8,1.961904128489507e-9,2.076077205430049e-9,0
41685,1.7857677465789037e-9,2.9292363985702123e-9,9.094091409201095e-9,3.4537791165696933e-8,2.7994606096577605e-8,4.130070525749175e-8,1.9612391559190334e-9,2.075869013432791e-9,0
41686,1.7885726406294002e-9,2.9227425487997024e-9,9.088625048903412e-9,3.430022279137047e-8,2.7793785427613253e-8,4.12437979088404e-8,1.9605741833485595e-9,2.075660821435533e-9,0
41687,1.791377534679897e-9,2.9162486990291924e-9,9.083158688605726e-9,3.4062654417044e-8,2.7592964758648903e-8,4.1186890560189046e-8,1.959909210778086e-9,2.0754526294382743e-9,0
41688,1.7941824287303935e-9,2.9097548492586825e-9,9.077692328308043e-9,3.3825086042717534e-8,2.739214408968455e-8,4.11299832115377e-8,1.9592442382076123e-9,2.075244437441016e-9,0
41689,1.79698732278089e-9,2.903260999488172e-9,9.072225968010359e-9,3.358751766839106e-8,2.71913234207202e-8,4.107307586288635e-8,1.9585792656371384e-9,2.075036245443758e-9,0
41690,1.7997922168313869e-9,2.896767149717662e-9,9.066759607712676e-9,3.33499492940646e-8,2.699050275175585e-8,4.1016168514234995e-8,1.9579142930666648e-9,2.0748280534465e-9,0
41691,1.8025971108818834e-9,2.8902732999471523e-9,9.061293247414992e-9,3.311238091973813e-8,2.67896820827915e-8,4.095926116558365e-8,1.9572493204961912e-9,2.0746198614492417e-9,0
41692,1.7963650658519668e-9,2.884880730733225e-9,9.055002273252494e-9,3.28708599496497e-8,2.6595569943983667e-8,4.0889275983148457e-8,1.956307252332002e-9,2.074411669451983e-9,0
41693,1.7901330208220501e-9,2.8794881615192984e-9,9.048711299089997e-9,3.262933897956127e-8,2.6401457805175837e-8,4.081929080071327e-8,1.955365184167812e-9,2.074203477454725e-9,0
41694,1.7839009757921335e-9,2.8740955923053712e-9,9.042420324927497e-9,3.2387818009472846e-8,2.6207345666368008e-8,4.074930561827808e-8,1.9544231160036227e-9,2.073995285457467e-9,0
41695,1.7776689307622167e-9,2.8687030230914445e-9,9.036129350765e-9,3.214629703938441e-8,2.6013233527560175e-8,4.0679320435842893e-8,1.9534810478394333e-9,2.0737870934602088e-9,0
41696,1.7714368857323e-9,2.8633104538775173e-9,9.029838376602502e-9,3.1904776069295985e-8,2.5819121388752346e-8,4.06093352534077e-8,1.952538979675244e-9,2.0735789014629506e-9,0
41697,1.7652048407023834e-9,2.8579178846635906e-9,9.023547402440004e-9,3.166325509920756e-8,2.5625009249944513e-8,4.0539350070972516e-8,1.9515969115110545e-9,2.073370709465692e-9,0
41698,1.7589727956724667e-9,2.8525253154496634e-9,9.017256428277506e-9,3.142173412911913e-8,2.5430897111136683e-8,4.046936488853733e-8,1.950654843346865e-9,2.073162517468434e-9,0
41699,1.75274075064255e-9,2.8471327462357367e-9,9.010965454115009e-9,3.1180213159030704e-8,2.523678497232885e-8,4.039937970610214e-8,1.9497127751826753e-9,2.072954325471176e-9,0
41700,1.7465087056126335e-9,2.8417401770218095e-9,9.004674479952511e-9,3.093869218894228e-8,2.504267283352102e-8,4.032939452366695e-8,1.948770707018486e-9,2.0727461334739177e-9,0
41701,1.7456988240309649e-9,2.8386438839963986e-9,8.992245500005521e-9,3.092629821936349e-8,2.5035680160812054e-8,4.032939452366695e-8,1.94267488822896e-9,2.0724555723539687e-9,0
41702,1.7417729199343378e-9,2.8332513147824714e-9,8.935314372232291e-9,2.9664494925067385e-8,2.461514423586032e-8,4.0305683128395556e-8,1.9387957394317534e-9,2.0703347370105732e-9,0
41703,1.7378470158377108e-9,2.8278587455685447e-9,8.878383244459059e-9,2.8402691630771278e-8,2.4194608310908585e-8,4.028197173312416e-8,1.9349165906345465e-9,2.068213901667178e-9,0
41704,1.7339211117410838e-9,2.8224661763546175e-9,8.821452116685828e-9,2.7140888336475168e-8,2.377407238595685e-8,4.025826033785276e-8,1.9310374418373395e-9,2.066093066323782e-9,0
41705,1.7317432124898518e-9,2.8197548028774253e-9,8.76419512816499e-9,2.587894374392379e-8,2.3346250888164423e-08,4.0268987654313524e-8,1.9281003612043224e-9,2.065052106337491e-9,0
41706,1.7278173083932248e-9,2.8174585266889095e-9,8.706938139644151e-9,2.4617959228431127e-8,2.2918888998705723e-8,4.0276799709281e-8,1.9244983080008313e-9,2.0631394629913536e-9,0
41707,1.7238914042965977e-9,2.8151622505003933e-9,8.649681151123313e-9,2.3356974712938467e-8,2.249152710924702e-8,4.028461176424848e-8,1.92089625479734e-9,2.0612268196452163e-9,0
41708,1.7199655001999707e-9,2.8128659743118775e-9,8.592424162602474e-9,2.2095990197445804e-8,2.2064165219788316e-8,4.029242381921595e-8,1.917294201593849e-9,2.0593141762990786e-9,0
41709,1.7160395961033437e-9,2.8105696981233613e-9,8.535167174081636e-9,2.0835005681953144e-8,2.1636803330329615e-8,4.0300235874183426e-8,1.913692148390358e-9,2.0574015329529413e-9,0
41710,1.7121136920067167e-9,2.8082734219348456e-9,8.477910185560797e-9,1.957402116646048e-8,2.120944144087091e-8,4.0308047929150903e-8,1.910090095186867e-9,2.055488889606804e-9,0
41711,1.7081877879100897e-9,2.8059771457463294e-9,8.420653197039959e-9,1.831303665096782e-8,2.078207955141221e-8,4.0315859984118374e-8,1.9064880419833757e-9,2.0535762462606667e-9,0
41712,1.7042618838134626e-9,2.8036808695578136e-9,8.36339620851912e-9,1.705205213547516e-8,2.0354717661953507e-8,4.032367203908585e-8,1.9028859887798846e-9,2.0516636029145294e-9,0
41713,1.7003359797168356e-9,2.8013845933692974e-9,8.306139219998282e-9,1.5791067619982497e-8,1.9927355772494807e-8,4.033148409405333e-8,1.8992839355763934e-9,2.0497509595683916e-9,0
41714,1.6964100756202086e-9,2.7990883171807816e-9,8.248882231477444e-9,1.4530083104489836e-8,1.9499993883036103e-8,4.03392961490208e-8,1.8956818823729023e-9,2.0478383162222543e-9,0
41715,1.6924841715235816e-9,2.796792040992266e-9,8.191625242956605e-9,1.3269098588997174e-8,1.9072631993577402e-8,4.0347108203988276e-8,1.8920798291694112e-9,2.045925672876117e-9,0
41716,1.6885582674269546e-9,2.7944957648037496e-9,8.134368254435767e-9,1.2008114073504512e-8,1.86452701041187e-8,4.0354920258955754e-8,1.88847777596592e-9,2.0440130295299798e-9,0
41717,1.6846323633303275e-09,2.792199488615234e-9,8.077111265914929e-9,1.074712955801185e-8,1.8217908214659995e-8,4.0362732313923224e-8,1.8848757227624294e-9,2.0421003861838425e-9,0
41718,1.6807064592337005e-9,2.7899032124267176e-9,8.01985427739409e-9,9.486145042519189e-9,1.7790546325201294e-8,4.03705443688907e-8,1.8812736695589383e-9,2.0401877428377047e-9,0
41719,1.6767805551370735e-9,2.787606936238202e-9,7.962597288873252e-9,8.225160527026529e-9,1.736318443574259e-8,4.037835642385817e-8,1.877671616355447e-9,2.0382750994915674e-9,0
41720,1.6728546510404465e-9,2.7853106600496857e-9,7.905340300352413e-9,6.964176011533867e-9,1.693582254628389e-8,4.038616847882565e-8,1.874069563151956e-9,2.03636245614543e-9,0
41721,1.6689287469438195e-9,2.78301438386117e-9,7.848083311831575e-9,5.703191496041205e-9,1.6508460656825186e-8,4.039398053379313e-8,1.870467509948465e-9,2.034449812799293e-9,0
41722,1.6650028428471925e-9,2.7807181076726537e-9,7.790826323310736e-9,4.442206980548544e-9,1.6081098767366486e-8,4.04017925887606e-8,1.866865456744974e-9,2.032537169453155e-9,0
41723,1.6651263466589088e-9,2.7762494481114297e-09,7.782307672335032e-9,4.354663180807451e-9,1.6081519230916726e-8,4.0375366922430255e-8,1.8579986820182904e-9,2.0318302243386903e-9,0
41724,1.6489833601258813e-9,2.7308427959519556e-9,7.751291782664971e-9,4.355801985297137e-9,1.5674567074480028e-8,3.9940520195278773e-8,1.85217995882248e-9,2.0233079675942945e-9,0
41725,1.632840373592854e-9,2.6854361437924816e-9,7.72027589299491e-9,4.356940789786822e-9,1.526761491804333e-8,3.950567346812729e-8,1.8463612356266698e-9,2.0147857108498987e-9,0
41726,1.6166973870598264e-9,2.6400294916330076e-9,7.689260003324848e-9,4.358079594276508e-9,1.486066276160663e-8,3.907082674097581e-8,1.8405425124308596e-9,2.006263454105503e-9,0
41727,1.6005544005267988e-9,2.594622839473534e-9,7.658244113654788e-9,4.359218398766194e-9,1.4453710605169932e-8,3.863598001382432e-8,1.8347237892350494e-9,1.9977411973611066e-9,0
41728,1.5883373180903985e-9,2.5576012752312288e-9,7.627228223984727e-9,4.359218398766194e-9,1.4046758448733232e-8,3.8172222103638085e-8,1.8295700386097128e-9,1.989218940616711e-9,0
41729,1.5730042131390398e-9,2.5090983300463438e-9,7.600508296008336e-9,4.359538424452433e-9,1.3653037757760228e-8,3.771556523871083e-8,1.823695877343678e-9,1.980488491875057e-9,0
41730,1.5576711081876808e-9,2.460595384861459e-9,7.573788368031943e-9,4.359858450138673e-9,1.3259317066787223e-8,3.7258908373783576e-8,1.8178217160776432e-9,1.971758043133403e-9,0
41731,1.542338003236322e-9,2.412092439676574e-9,7.547068440055553e-9,4.360178475824912e-9,1.2865596375814216e-8,3.680225150885632e-8,1.8119475548116085e-9,1.963027594391749e-9,0
41732,1.5270048982849633e-9,2.3635894944916893e-9,7.520348512079162e-9,4.360498501511151e-9,1.2471875684841211e-8,3.634559464392906e-8,1.8060733935455738e-9,1.9542971456500946e-9,0
41733,1.5116717933336046e-9,2.3150865493068043e-9,7.49362858410277e-9,4.360818527197391e-9,1.2078154993868205e-8,3.58889377790018e-8,1.8001992322795389e-9,1.9455666969084407e-9,0
41734,1.4963386883822458e-9,2.2665836041219193e-9,7.466908656126379e-9,4.36113855288363e-9,1.16844343028952e-8,3.5432280914074545e-8,1.7943250710135042e-9,1.9368362481667868e-9,0
41735,1.481005583430887e-9,2.2180806589370343e-9,7.4401887281499875e-9,4.3614585785698695e-9,1.1290713611922194e-8,3.4975624049147294e-8,1.7884509097474695e-9,1.928105799425133e-9,0
41736,1.4656724784795281e-9,2.1695777137521494e-9,7.413468800173597e-9,4.361778604256109e-9,1.0896992920949189e-8,3.4518967184220037e-8,1.7825767484814346e-9,1.9193753506834785e-9,0
41737,1.4503393735281694e-9,2.1210747685672644e-9,7.386748872197205e-9,4.362098629942348e-9,1.0503272229976184e-8,3.406231031929278e-8,1.7767025872154e-9,1.9106449019418245e-9,0
41738,1.4472233510132112e-9,2.091430726760895e-9,7.245568315599179e-9,4.3367745084918795e-9,1.0512132351735461e-8,3.403147313211752e-8,1.768113002839839e-9,1.8987137424996704e-9,0
41739,1.4441073284982528e-9,2.0617866849545255e-9,7.104387759001154e-9,4.311450387041411e-9,1.0520992473494739e-8,3.4000635944942274e-8,1.759523418464278e-9,1.8867825830575163e-9,0
41740,1.4409913059832945e-9,2.032142643148156e-9,6.963207202403128e-9,4.2861262655909426e-9,1.0529852595254016e-8,3.396979875776702e-8,1.7509338340887171e-9,1.874851423615362e-9,0
41741,1.4404972907364286e-9,2.0034860483293814e-9,6.821414772293074e-9,4.262514560098758e-9,1.0535769472161602e-8,3.39337287873019e-8,1.7423442497131562e-9,1.862920264173208e-9,0
41742,1.440003275489563e-9,1.9748294535106068e-9,6.679622342183021e-9,4.238902854606574e-9,1.0541686349069188e-8,3.389765881683679e-8,1.7337546653375953e-9,1.8509891047310537e-9,0
41743,1.4395092602426972e-9,1.946172858691832e-9,6.537829912072967e-9,4.21529114911439e-9,1.0547603225976772e-8,3.3861588846371676e-8,1.7251650809620346e-9,1.8390579452888996e-9,0
41744,1.4390152449958315e-9,1.9175162638730574e-9,6.396037481962913e-9,4.191679443622206e-9,1.0553520102884358e-8,3.3825518875906566e-8,1.7165754965864737e-9,1.8271267858467454e-9,0
41745,1.4385212297489658e-9,1.8888596690542828e-9,6.254245051852859e-9,4.168067738130022e-9,1.0559436979791942e-8,3.378944890544145e-8,1.7079859122109127e-9,1.815195626404591e-9,0
41746,1.4380272145021e-9,1.860203074235508e-9,6.112452621742806e-9,4.1444560326378375e-9,1.0565353856699528e-8,3.3753378934976334e-8,1.6993963278353518e-9,1.803264466962437e-9,0
41747,1.4375331992552344e-9,1.8315464794167332e-9,5.970660191632752e-9,4.120844327145653e-9,1.0571270733607112e-8,3.3717308964511225e-8,1.6908067434597909e-9,1.7913333075202828e-9,0
41748,1.4353553000040024e-9,1.8094673901969992e-9,5.828867761522698e-9,4.095520205695185e-9,1.0571270733607112e-8,3.3682379748543485e-8,1.6819955015607386e-9,1.7803172851898521e-9,0
41749,1.4331774007527703e-9,1.7873883009772651e-9,5.6870753314126444e-9,4.070196084244716e-9,1.0571270733607112e-8,3.364745053257574e-8,1.6731842596616866e-9,1.7693012628594214e-9,0
41750,1.4309995015015383e-9,1.765309211757531e-9,5.545282901302591e-9,4.044871962794248e-9,1.0571270733607112e-8,3.3612521316608e-8,1.6643730177626344e-9,1.7582852405289905e-9,0
41751,1.4288216022503065e-9,1.7432301225377968e-9,5.403490471192537e-9,4.019547841343779e-9,1.0571270733607112e-8,3.357759210064026e-8,1.6555617758635823e-9,1.7472692181985598e-9,0
41752,1.4266437029990745e-9,1.7211510333180628e-9,5.261698041082483e-9,3.99422371989331e-9,1.0571270733607112e-8,3.354266288467252e-8,1.64675053396453e-9,1.736253195868129e-9,0
41753,1.4244658037478425e-9,1.6990719440983288e-9,5.1199056109724294e-9,3.968899598442842e-9,1.0571270733607112e-8,3.350773366870478e-8,1.637939292065478e-9,1.7252371735376984e-9,0
41754,1.4222879044966105e-9,1.6769928548785947e-9,4.9781131808623755e-9,3.943575476992373e-9,1.0571270733607112e-8,3.347280445273704e-8,1.629128050166426e-9,1.7142211512072677e-9,0
41755,1.4201100052453787e-9,1.6549137656588605e-9,4.836320750752322e-9,3.918251355541905e-9,1.0571270733607112e-8,3.34378752367693e-8,1.6203168082673737e-9,1.7032051288768368e-9,0
41756,1.4179321059941467e-9,1.6328346764391264e-9,4.694528320642268e-9,3.892927234091436e-9,1.0571270733607112e-8,3.340294602080156e-8,1.6115055663683217e-9,1.692189106546406e-9,0
41757,1.4157542067429146e-9,1.6107555872193924e-9,4.5527358905322144e-9,3.867603112640968e-9,1.0571270733607112e-8,3.336801680483382e-8,1.6026943244692694e-09,1.6811730842159754e-9,0
41758,1.4135763074916828e-9,1.5886764979996583e-9,4.4109434604221605e-9,3.8422789911904985e-9,1.0571270733607112e-8,3.333308758886608e-8,1.5938830825702174e-9,1.6701570618855446e-9,0
41759,1.4062873732566644e-9,1.595254003598699e-9,4.4109434604221605e-9,3.807536581969466e-9,1.0223990742476406e-8,3.331740573675975e-8,1.5928301382655788e-9,1.6689513636538724e-9,0
41760,1.408158881913776e-9,1.6037227473443984e-9,4.413783010747396e-9,3.7951426123906835e-9,1.0092066164185518e-8,3.329420134348719e-8,1.5918880701013894e-9,1.669575939645647e-9,0
41761,1.408158881913776e-9,1.6103002529434389e-9,4.376316754982093e-9,3.783737730598802e-9,9.907272383981905e-9,3.3256083849988166e-8,1.5918880701013894e-9,1.669575939645647e-9,0
41762,1.408158881913776e-9,1.6168777585424795e-9,4.338850499216791e-9,3.772332848806922e-9,9.722478603778294e-9,3.321796635648915e-8,1.5918880701013894e-9,1.669575939645647e-9,0
41763,1.408158881913776e-9,1.6234552641415201e-9,4.301384243451488e-9,3.7609279670150414e-9,9.537684823574682e-9,3.317984886299013e-8,1.5918880701013894e-9,1.669575939645647e-9,0
41764,1.418751463316498e-9,1.6339491980965053e-9,4.260406791874144e-9,3.749523085223161e-9,9.35577625679193e-9,3.3142957630080066e-8,1.5959889711794944e-9,1.6686608025339236e-9,0
41765,1.4293440447192196e-9,1.6444431320514905e-9,4.2194293402968e-9,3.738118203431281e-9,9.17386769000918e-9,3.3106066397170003e-8,1.6000898722575993e-9,1.6677456654222002e-9,0
41766,1.4399366261219415e-9,1.6549370660064757e-9,4.1784518887194555e-9,3.7267133216394e-9,8.991959123226428e-9,3.3069175164259934e-8,1.604190773335704e-9,1.6668305283104768e-9,0
41767,1.4505292075246634e-9,1.6654309999614608e-9,4.137474437142111e-9,3.7153084398475197e-9,8.810050556443679e-9,3.303228393134987e-8,1.608291674413809e-9,1.6659153911987534e-9,0
41768,1.4611217889273851e-9,1.6759249339164458e-9,4.096496985564767e-9,3.703903558055639e-9,8.628141989660927e-9,3.299539269843981e-8,1.6123925754919138e-9,1.66500025408703e-9,0
41769,1.471714370330107e-9,1.686418867871431e-9,4.055519533987423e-9,3.6924986762637585e-9,8.446233422878176e-9,3.295850146552974e-8,1.6164934765700187e-9,1.6640851169753065e-9,0
41770,1.4823069517328287e-9,1.6969128018264162e-9,4.014542082410078e-9,3.681093794471878e-9,8.264324856095425e-9,3.2921610232619676e-8,1.6205943776481236e-9,1.663169979863583e-9,0
41771,1.4928995331355506e-9,1.7074067357814014e-9,3.9735646308327345e-9,3.6696889126799976e-9,8.082416289312674e-9,3.288471899970961e-8,1.6246952787262286e-9,1.6622548427518597e-9,0
41772,1.5034921145382725e-9,1.7179006697363866e-9,3.93258717925539e-9,3.658284030888117e-9,7.900507722529923e-9,3.284782776679954e-8,1.6287961798043335e-9,1.6613397056401363e-9,0
41773,1.5140846959409942e-9,1.7283946036913715e-9,3.8916097276780455e-9,3.6468791490962364e-9,7.718599155747171e-9,3.281093653388948e-8,1.6328970808824384e-9,1.6604245685284128e-9,0
41774,1.524677277343716e-9,1.7388885376463567e-9,3.850632276100702e-9,3.635474267304356e-9,7.53669058896442e-9,3.277404530097941e-8,1.6369979819605433e-9,1.6595094314166894e-9,0
41775,1.535269858746438e-9,1.749382471601342e-9,3.809654824523357e-9,3.6240693855124755e-9,7.354782022181669e-9,3.273715406806935e-8,1.641098883038648e-9,1.658594294304966e-9,0
41776,1.5458624401491597e-9,1.759876405556327e-9,3.768677372946013e-9,3.6126645037205947e-9,7.172873455398918e-9,3.2700262835159285e-8,1.645199784116753e-9,1.6576791571932426e-9,0
41777,1.5564550215518816e-9,1.7703703395113123e-9,3.727699921368668e-9,3.6012596219287143e-9,6.990964888616167e-9,3.2663371602249215e-8,1.6493006851948578e-9,1.6567640200815192e-9,0
41778,1.5670476029546033e-9,1.7808642734662974e-9,3.686722469791324e-9,3.589854740136834e-9,6.8090563218334154e-9,3.262648036933915e-8,1.6534015862729627e-9,1.6558488829697957e-9,0
41779,1.5776401843573252e-9,1.7913582074212824e-9,3.64574501821398e-9,3.5784498583449534e-9,6.627147755050665e-9,3.258958913642909e-8,1.6575024873510677e-9,1.6549337458580723e-9,0
41780,1.588232765760047e-9,1.8018521413762676e-9,3.604767566636636e-9,3.5670449765530726e-9,6.445239188267914e-9,3.255269790351902e-8,1.6616033884291726e-9,1.654018608746349e-9,0
41781,1.5988253471627688e-9,1.8123460753312528e-9,3.5637901150592914e-9,3.555640094761192e-9,6.263330621485163e-9,3.251580667060896e-8,1.6657042895072775e-9,1.6531034716346255e-9,0
41782,1.6072400293142586e-9,1.8156398577541827e-9,3.481788287039297e-9,3.329401743875213e-9,6.083575017793952e-9,3.089642732464154e-8,1.5803069145966548e-9,1.6285776613877292e-9,0
41783,1.6002480099326784e-9,1.7929349407474576e-9,3.402539889823429e-9,3.321168108217542e-9,6.063429169188261e-9,3.0886333760679314e-8,1.559192969463288e-9,1.5858976236862506e-9,0
41784,1.5932559905510982e-9,1.7702300237407323e-9,3.3232914926075614e-9,3.312934472559871e-9,6.043283320582568e-9,3.087624019671709e-8,1.5380790243299213e-9,1.543217585984772e-9,0
41785,1.574486258879637e-9,1.735836177147089e-9,3.2497221960421634e-9,3.305237019195103e-9,6.026169135463601e-9,3.088546300494461e-8,1.513917122423088e-9,1.5016174236403978e-9,0
41786,1.5548425247854781e-9,1.7005485986412008e-9,3.1706267672043025e-9,3.2978221623408783e-9,5.998884164083081e-9,3.0878235209185916e-8,1.4887022762116163e-9,1.4600172612960238e-9,0
41787,1.5351987906913193e-9,1.6652610201353126e-9,3.0915313383664417e-9,3.2904073054866534e-9,5.971599192702561e-9,3.087100741342723e-8,1.4634874300001446e-9,1.4184170989516498e-9,0
41788,1.5155550565971603e-9,1.6299734416294246e-9,3.012435909528581e-9,3.282992448632429e-9,5.94431422132204e-9,3.0863779617668545e-8,1.4382725837886729e-9,1.3768169366072757e-9,0
41789,1.4959113225030015e-9,1.5946858631235363e-9,2.93334048069072e-9,3.275577591778204e-9,5.9170292499415195e-9,3.085655182190985e-8,1.4130577375772012e-9,1.3352167742629017e-9,0
41790,1.4762675884088427e-9,1.559398284617648e-9,2.8542450518528596e-9,3.2681627349239795e-9,5.889744278560999e-9,3.084932402615117e-8,1.3878428913657295e-9,1.2936166119185277e-9,0
41791,1.456623854314684e-9,1.52411070611176e-9,2.7751496230149987e-9,3.260747878069755e-9,5.862459307180479e-9,3.0842096230392475e-8,1.3626280451542578e-9,1.2520164495741537e-9,0
41792,1.436980120220525e-9,1.4888231276058718e-9,2.696054194177138e-9,3.25333302121553e-9,5.835174335799959e-9,3.083486843463379e-8,1.337413198942786e-9,1.2104162872297794e-9,0
41793,1.4173363861263662e-9,1.4535355490999836e-9,2.616958765339277e-9,3.2459181643613056e-9,5.807889364419439e-9,3.08276406388751e-8,1.3121983527313144e-9,1.1688161248854054e-9,0
41794,1.3976926520322074e-9,1.4182479705940956e-9,2.5378633365014166e-9,3.238503307507081e-9,5.780604393038919e-9,3.082041284311641e-8,1.2869835065198427e-9,1.1272159625410314e-9,0
41795,1.3780489179380486e-9,1.3829603920882074e-9,2.4587679076635557e-9,3.231088450652856e-9,5.753319421658399e-9,3.081318504735772e-8,1.261768660308371e-9,1.0856158001966574e-9,0
41796,1.3738118853769597e-9,1.3820666601759626e-9,2.4505751174354582e-9,3.1771772663712947e-9,5.720509021205119e-9,3.0805957251599035e-8,1.2607157160037324e-9,1.0779652268121078e-9,0
41797,1.3709428704854342e-9,1.3821704344981317e-9,2.4468910292538163e-9,3.129608574358152e-9,5.6973605248281185e-9,3.082404736319982e-8,1.2665898772697673e-9,1.0758054760978989e-9,0
41798,1.3680738555939088e-9,1.3822742088203006e-9,2.4432069410721744e-9,3.0820398823450096e-9,5.6742120284511185e-9,3.0842137474800606e-8,1.272464038535802e-9,1.0736457253836898e-9,0
41799,1.3652048407023833e-9,1.3823779831424697e-9,2.439522852890533e-9,3.0344711903318672e-9,5.651063532074118e-9,3.086022758640139e-8,1.2783381998018367e-9,1.0714859746694807e-9,0
41800,1.3623358258108578e-9,1.3824817574646388e-9,2.435838764708891e-9,2.9869024983187245e-9,5.627915035697118e-9,3.087831769800218e-8,1.2842123610678716e-9,1.0693262239552718e-9,0
41801,1.3594668109193324e-9,1.382585531786808e-9,2.432154676527249e-9,2.939333806305582e-9,5.604766539320117e-9,3.089640780960296e-8,1.2900865223339063e-9,1.0671664732410627e-9,0
41802,1.356597796027807e-9,1.382689306108977e-9,2.4284705883456077e-9,2.8917651142924393e-9,5.581618042943117e-9,3.091449792120375e-8,1.295960683599941e-9,1.0650067225268536e-9,0
41803,1.3537287811362814e-9,1.3827930804311462e-9,2.4247865001639658e-9,2.844196422279297e-9,5.558469546566116e-9,3.093258803280453e-8,1.3018348448659759e-9,1.0628469718126448e-9,0
41804,1.350859766244756e-9,1.3828968547533153e-9,2.421102411982324e-9,2.7966277302661546e-9,5.535321050189116e-9,3.0950678144405314e-8,1.3077090061320106e-9,1.0606872210984357e-9,0
41805,1.3473043735832783e-9,1.3828968547533153e-9,2.417418323800682e-9,2.74891773999774e-9,5.512681435997389e-9,3.097658031097358e-8,1.307764444202235e-9,1.0586098395069173e-9,0
41806,1.3437489809218006e-9,1.3828968547533153e-9,2.4137342356190405e-9,2.701207749729326e-9,5.490041821805662e-9,3.100248247754184e-8,1.3078198822724596e-9,1.0565324579153986e-9,0
41807,1.340193588260323e-9,1.3828968547533153e-9,2.4100501474373986e-9,2.6534977594609114e-9,5.467402207613935e-9,3.10283846441101e-8,1.307875320342684e-9,1.0544550763238802e-9,0
41808,1.3366381955988452e-9,1.3828968547533153e-9,2.4063660592557567e-9,2.6057877691924973e-9,5.444762593422207e-9,3.105428681067836e-8,1.3079307584129085e-9,1.0523776947323618e-9,0
41809,1.3330828029373675e-9,1.3828968547533153e-9,2.4026819710741152e-9,2.558077778924083e-9,5.422122979230481e-9,3.108018897724662e-8,1.3079861964831332e-9,1.0503003131408434e-9,0
41810,1.3295274102758899e-9,1.3828968547533153e-9,2.3989978828924733e-9,2.5103677886556687e-9,5.3994833650387535e-9,3.110609114381488e-8,1.3080416345533577e-9,1.0482229315493247e-9,0
41811,1.325972017614412e-9,1.3828968547533153e-9,2.3953137947108314e-9,2.462657798387254e-9,5.376843750847027e-9,3.113199331038314e-8,1.3080970726235822e-9,1.0461455499578063e-9,0
41812,1.3224166249529343e-9,1.3828968547533153e-9,2.39162970652919e-9,2.41494780811884e-9,5.3542041366552996e-9,3.11578954769514e-8,1.3081525106938067e-9,1.044068168366288e-9,0
41813,1.3188612322914566e-9,1.3828968547533153e-9,2.387945618347548e-9,2.3672378178504256e-9,5.331564522463572e-9,3.118379764351966e-8,1.3082079487640312e-9,1.0419907867747695e-9,0
41814,1.315305839629979e-9,1.3828968547533153e-9,2.384261530165906e-9,2.3195278275820115e-9,5.308924908271846e-9,3.120969981008792e-8,1.3082633868342557e-9,1.0399134051832509e-9,0
41815,1.3117504469685012e-9,1.3828968547533153e-9,2.3805774419842647e-9,2.271817837313597e-9,5.286285294080118e-9,3.123560197665618e-8,1.3083188249044802e-9,1.0378360235917324e-9,0
41816,1.3025900040763714e-9,1.3334901184093662e-9,2.315513295957714e-9,2.214827102144241e-9,5.297033123025843e-9,3.123560197665618e-8,1.3083742629747047e-9,1.0360057493682856e-9,0
41817,1.302466500264655e-9,1.3325863272503022e-9,2.3027584552631186e-9,2.210733208127009e-9,5.302949999933428e-9,3.1255764357935745e-8,1.3086513585684205e-9,1.0341754751448388e-9,0
41818,1.3023429964529387e-9,1.331682536091238e-9,2.290003614568523e-9,2.206639314109777e-9,5.308866876841013e-9,3.127592673921531e-8,1.3089284541621363e-9,1.032345200921392e-9,0
41819,1.3022194926412221e-9,1.3307787449321738e-9,2.277248773873927e-9,2.2025454200925457e-9,5.3147837537485986e-9,3.129608912049488e-8,1.309205549755852e-9,1.030514926697945e-9,0
41820,1.3020959888295057e-9,1.3298749537731097e-9,2.2687898948730013e-9,2.1982727986443463e-9,5.310529844394631e-9,3.1322109788681224e-8,1.3155785588965007e-9,1.0307620340660167e-9,0
41821,1.30421450511005e-9,1.3311737237272118e-9,2.2654715154221523e-9,2.1964565136064856e-9,5.308573976709285e-9,3.131637000339253e-8,1.3158002164199918e-9,1.0288493907198794e-9,0
41822,1.3063330213905944e-9,1.3324724936813137e-9,2.2621531359713037e-9,2.1946402285686253e-9,5.30661810902394e-9,3.131063021810384e-8,1.316021873943483e-9,1.0269367473737418e-9,0
41823,1.3084515376711387e-9,1.3337712636354158e-9,2.2588347565204547e-9,2.192823943530765e-9,5.304662241338594e-9,3.130489043281515e-8,1.3162435314669742e-9,1.0250241040276046e-9,0
41824,1.310570053951683e-9,1.3350700335895178e-9,2.2555163770696057e-09,2.191007658492905e-9,5.302706373653249e-9,3.129915064752645e-8,1.3164651889904655e-9,1.0231114606814673e-9,0
41825,1.3126885702322276e-9,1.3363688035436199e-9,2.2521979976187566e-9,2.1891913734550446e-9,5.300750505967904e-9,3.129341086223776e-8,1.3166868465139567e-9,1.0211988173353297e-9,0
41826,1.314807086512772e-9,1.3376675734977218e-9,2.248879618167908e-9,2.1873750884171843e-9,5.298794638282559e-9,3.1287671076949065e-8,1.316908504037448e-9,1.0192861739891925e-9,0
41827,1.3169256027933163e-9,1.3389663434518239e-9,2.245561238717059e-9,2.1855588033793236e-9,5.2968387705972134e-9,3.128193129166037e-8,1.3171301615609393e-9,1.017373530643055e-9,0
41828,1.3190441190738606e-9,1.3402651134059258e-9,2.24224285926621e-9,2.1837425183414634e-9,5.294882902911868e-9,3.127619150637168e-8,1.3173518190844304e-9,1.0154608872969176e-9,0
41829,1.321162635354405e-9,1.341563883360028e-9,2.2389244798153614e-9,2.181926233303603e-9,5.2929270352265226e-09,3.127045172108298e-8,1.3175734766079218e-9,1.0135482439507801e-9,0
41830,1.3232811516349493e-9,1.3428626533141298e-9,2.2356061003645123e-9,2.180109948265743e-9,5.290971167541177e-9,3.126471193579429e-8,1.3177951341314129e-9,1.0116356006046428e-9,0
41831,1.3253996679154937e-9,1.344161423268232e-9,2.2322877209136633e-9,2.1782936632278826e-9,5.289015299855832e-9,3.12589721505056e-8,1.3180167916549042e-9,1.0097229572585055e-9,0
41832,1.3275181841960382e-9,1.3454601932223338e-9,2.2289693414628143e-9,2.1764773781900223e-9,5.287059432170486e-9,3.1253232365216906e-8,1.3182384491783953e-9,1.007810313912368e-9,0
41833,1.3296367004765825e-9,1.346758963176436e-9,2.2256509620119657e-9,2.174661093152162e-9,5.285103564485141e-9,3.1247492579928214e-8,1.3184601067018866e-9,1.0058976705662307e-9,0
41834,1.3317552167571269e-9,1.3480577331305378e-9,2.2223325825611166e-9,2.1728448081143014e-9,5.283147696799795e-9,3.124175279463952e-8,1.3186817642253778e-9,1.0039850272200932e-9,0
41835,1.3338737330376712e-9,1.34935650308464e-9,2.2190142031102676e-9,2.171028523076441e-9,5.28119182911445e-9,3.1236013009350824e-8,1.318903421748869e-9,1.002072383873956e-9,0
41836,1.3359922493182156e-9,1.3506552730387419e-9,2.215695823659419e-9,2.169212238038581e-9,5.279235961429105e-9,3.123027322406213e-8,1.3191250792723604e-9,1.0001597405278184e-9,0
41837,1.33811076559876e-9,1.351954042992844e-9,2.21237744420857e-9,2.1673959530007206e-9,5.27728009374376e-9,3.122453343877344e-8,1.3193467367958515e-9,9.982470971816811e-10,0
41838,1.3402292818793042e-9,1.3532528129469459e-9,2.209059064757721e-9,2.1655796679628604e-9,5.2753242260584144e-9,3.121879365348475e-8,1.3195683943193429e-9,9.963344538355438e-10,0
41839,1.34153791657818e-9,1.3518703871643133e-9,2.2099768750257635e-9,2.152641097643663e-9,5.250337296346516e-9,3.1217567392895795e-8,1.3176288199207394e-9,9.846114863906478e-10,0
41840,1.3397305287620973e-9,1.3500728640930042e-9,2.2173983998090893e-9,2.1549187066230344e-9,5.251598686997242e-9,3.1135493634029554e-8,1.315689245522136e-9,9.84819678387906e-10,0
41841,1.335681120853754e-9,1.3460727799085292e-9,2.2173983998090893e-9,2.1549187066230344e-9,5.255168248384656e-9,3.104904134984491e-8,1.3144700817642307e-9,9.850278703851643e-10,0
41842,1.3314440882926652e-9,1.3460727799085292e-9,2.288753519998137e-9,2.157196315602406e-9,5.2549725244672424e-9,3.097632539858752e-8,1.3123088498421361e-9,9.85318431505113e-10,0
41843,1.3272070557315763e-9,1.3460727799085292e-9,2.3601086401871854e-9,2.1594739245817773e-9,5.25477680054983e-9,3.090360944733013e-8,1.3101476179200415e-9,9.856089926250617e-10,0
41844,1.3229700231704877e-9,1.3460727799085292e-9,2.431463760376233e-9,2.161751533561149e-9,5.254581076632417e-9,3.083089349607274e-8,1.3079863859979467e-09,9.858995537450105e-10,0
41845,1.318732990609399e-9,1.3460727799085292e-9,2.5028188805652814e-9,2.16402914254052e-9,5.254385352715004e-9,3.075817754481536e-8,1.3058251540758522e-9,9.861901148649593e-10,0
41846,1.3144959580483103e-9,1.3460727799085292e-9,2.5741740007543292e-9,2.1663067515198918e-9,5.254189628797592e-9,3.068546159355797e-8,1.3036639221537576e-9,9.864806759849081e-10,0
41847,1.3102589254872214e-9,1.3460727799085292e-9,2.6455291209433774e-9,2.1685843604992634e-9,5.253993904880179e-9,3.061274564230058e-8,1.3015026902316628e-9,9.867712371048567e-10,0
41848,1.3060218929261328e-9,1.3460727799085292e-9,2.7168842411324252e-9,2.1708619694786347e-9,5.253798180962766e-9,3.0540029691043194e-8,1.2993414583095682e-9,9.870617982248055e-10,0
41849,1.301784860365044e-9,1.3460727799085292e-9,2.7882393613214735e-9,2.1731395784580063e-9,5.253602457045353e-9,3.0467313739785806e-8,1.2971802263874736e-9,9.873523593447543e-10,0
41850,1.2975478278039554e-9,1.3460727799085292e-9,2.8595944815105213e-9,2.1754171874373775e-9,5.2534067331279405e-9,3.039459778852842e-8,1.2950189944653788e-9,9.876429204647031e-10,0
41851,1.2933107952428665e-9,1.3460727799085292e-9,2.9309496016995695e-9,2.177694796416749e-9,5.253211009210527e-9,3.032188183727103e-8,1.2928577625432842e-9,9.87933481584652e-10,0
41852,1.2890737626817778e-9,1.3460727799085292e-9,3.0023047218886173e-9,2.1799724053961204e-9,5.253015285293115e-9,3.024916588601364e-8,1.2906965306211896e-9,9.882240427046005e-10,0
41853,1.2881997602590803e-9,1.3305378366934015e-9,3.0278677516978514e-9,2.1628650827082998e-9,5.14887306001117e-9,2.929793867036977e-8,1.265481684409718e-9,9.861466611130821e-10,0
41854,1.2873257578363828e-9,1.3150028934782735e-9,3.0534307815070855e-9,2.145757760020479e-9,5.044730834729225e-9,2.83467114547259e-8,1.2402668381982462e-9,9.840692795215637e-10,0
41855,1.2864517554136853e-9,1.2994679502631458e-9,3.078993811316319e-9,2.128650437332658e-9,4.940588609447281e-9,2.739548423908203e-8,1.2150519919867745e-9,9.819918979300453e-10,0
41856,1.2855777529909876e-9,1.283933007048018e-9,3.104556841125553e-9,2.1115431146448374e-9,4.836446384165336e-9,2.644425702343816e-8,1.1898371457753028e-9,9.799145163385266e-10,0
41857,1.2847037505682901e-9,1.2683980638328902e-9,3.130119870934787e-9,2.094435791957017e-9,4.732304158883392e-9,2.5493029807794293e-8,1.1646222995638311e-9,9.778371347470082e-10,0
41858,1.2838297481455926e-9,1.2528631206177625e-9,3.155682900744021e-9,2.0773284692691958e-9,4.628161933601448e-9,2.4541802592150422e-8,1.1394074533523594e-9,9.757597531554898e-10,0
41859,1.2829557457228951e-9,1.2373281774026345e-9,3.181245930553255e-9,2.060221146581375e-9,4.524019708319503e-9,2.359057537650655e-8,1.1141926071408877e-9,9.736823715639714e-10,0
41860,1.2820817433001976e-9,1.2217932341875068e-9,3.2068089603624887e-9,2.0431138238935545e-9,4.419877483037559e-9,2.2639348160862684e-8,1.088977760929416e-9,9.716049899724527e-10,0
41861,1.2812077408775001e-9,1.206258290972379e-9,3.2323719901717227e-9,2.0260065012057334e-9,4.315735257755614e-9,2.1688120945218813e-8,1.0637629147179444e-9,9.695276083809343e-10,0
41862,1.2803337384548026e-9,1.1907233477572512e-9,3.257935019980957e-9,2.008899178517913e-9,4.21159303247367e-9,2.0736893729574946e-8,1.0385480685064727e-9,9.67450226789416e-10,0
41863,1.2794597360321049e-9,1.1751884045421235e-9,3.2834980497901905e-9,1.991791855830092e-9,4.1074508071917255e-09,1.9785666513931075e-8,1.013333222295001e-9,9.653728451978975e-10,0
41864,1.2828227661704963e-9,1.1619497375155115e-9,3.245127484193702e-9,1.973367001221618e-9,4.006721564163265e-9,1.8819460207007744e-8,9.92219277161634e-10,9.651257378298257e-10,0
41865,1.2821363884005438e-9,1.1431109526306346e-9,3.1981649952098744e-9,1.953803342123458e-9,3.904036453449459e-9,1.787234976680124e-8,9.69165662872257e-10,9.629659871156168e-10,0
41866,1.2814500106305916e-9,1.1242721677457577e-9,3.151202506226046e-9,1.934239683025298e-9,3.801351342735653e-9,1.6925239326594736e-8,9.4611204858288e-10,9.608062364014077e-10,0
41867,1.2807636328606394e-9,1.1054333828608806e-9,3.1042400172422184e-9,1.9146760239271383e-9,3.698666232021847e-9,1.597812888638823e-8,9.230584342935028e-10,9.586464856871986e-10,0
41868,1.2800772550906872e-9,1.0865945979760037e-9,3.0572775282583902e-9,1.8951123648289785e-9,3.595981121308041e-9,1.5031018446181725e-8,9.000048200041258e-10,9.564867349729898e-10,0
41869,1.279390877320735e-9,1.0677558130911266e-9,3.010315039274562e-9,1.8755487057308187e-9,3.4932960105942347e-9,1.408390800597522e-8,8.769512057147488e-10,9.543269842587807e-10,0
41870,1.2787044995507827e-9,1.0489170282062497e-9,2.9633525502907342e-9,1.8559850466326588e-9,3.3906108998804286e-9,1.3136797565768714e-8,8.538975914253717e-10,9.521672335445716e-10,0
41871,1.2780181217808303e-9,1.0300782433213728e-9,2.916390061306906e-9,1.836421387534499e-9,3.2879257891666225e-9,1.2189687125562208e-8,8.308439771359947e-10,9.500074828303627e-10,0
41872,1.277331744010878e-9,1.0112394584364957e-9,2.8694275723230782e-9,1.816857728436339e-9,3.1852406784528168e-9,1.1242576685355703e-8,8.077903628466176e-10,9.478477321161536e-10,0
41873,1.2766453662409259e-9,9.924006735516188e-10,2.82246508333925e-9,1.7972940693381792e-9,3.0825555677390106e-9,1.0295466245149197e-8,7.847367485572406e-10,9.456879814019445e-10,0
41874,1.270907336457875e-9,9.932944054638635e-10,2.822159146583236e-9,1.7948377329278401e-9,3.0625953139826647e-9,1.0248759695921205e-8,7.744844958619783e-10,9.417414102161658e-10,0
41875,1.2686653163656142e-9,9.917880868654234e-10,2.8226778236920357e-9,1.7536115331831166e-9,2.996974513076106e-9,1.0258142250174932e-8,7.764240702605818e-10,9.398287668700285e-10,0
41876,1.2664232962733533e-9,9.902817682669832e-10,2.8231965008008358e-9,1.7123853334383931e-9,2.9313537121695467e-9,1.026752480442866e-8,7.783636446591851e-10,9.37916123523891e-10,0
41877,1.2641812761810926e-9,9.88775449668543e-10,2.8237151779096355e-9,1.6711591336936695e-9,2.8657329112629875e-9,1.0276907358682387e-8,7.803032190577886e-10,9.360034801777537e-10,0
41878,1.2628726414822169e-9,9.87476679714441e-10,2.8270734053436704e-9,1.6307891419280881e-9,2.8001121103564287e-9,1.0269070557070034e-8,7.803032190577886e-10,9.34173205954307e-10,0
41879,1.2606306213899561e-9,9.850766292037559e-10,2.8267475445960634e-9,1.5898829678696039e-9,2.7344913094498694e-9,1.0272435078390774e-8,7.803586571280131e-10,9.320523706109113e-10,0
41880,1.2583886012976952e-9,9.826765786930708e-10,2.8264216838484564e-9,1.5489767938111198e-9,2.6688705085433102e-9,1.0275799599711515e-8,7.804140951982376e-10,9.299315352675157e-10,0
41881,1.2561465812054345e-9,9.802765281823857e-10,2.8260958231008495e-9,1.5080706197526356e-9,2.6032497076367514e-9,1.0279164121032257e-8,7.804695332684621e-10,9.278106999241201e-10,0
41882,1.2539045611131738e-9,9.778764776717008e-10,2.8257699623532425e-9,1.4671644456941513e-9,2.5376289067301922e-9,1.0282528642352996e-8,7.805249713386867e-10,9.256898645807244e-10,0
41883,1.2516625410209129e-9,9.754764271610157e-10,2.8254441016056355e-9,1.4262582716356673e-9,2.472008105823633e-9,1.0285893163673737e-8,7.805804094089112e-10,9.235690292373289e-10,0
41884,1.2494205209286522e-9,9.730763766503306e-10,2.825118240858028e-9,1.385352097577183e-9,2.406387304917074e-9,1.0289257684994479e-8,7.806358474791357e-10,9.214481938939333e-10,0
41885,1.2471785008363912e-9,9.706763261396455e-10,2.824792380110421e-9,1.3444459235186988e-9,2.340766504010515e-9,1.0292622206315218e-8,7.806912855493602e-10,9.193273585505376e-10,0
41886,1.2449364807441305e-9,9.682762756289604e-10,2.824466519362814e-9,1.3035397494602148e-9,2.2751457031039558e-9,1.029598672763596e-8,7.807467236195847e-10,9.172065232071421e-10,0
41887,1.2426944606518696e-9,9.658762251182753e-10,2.824140658615207e-9,1.2626335754017305e-9,2.209524902197397e-9,1.02993512489567e-8,7.808021616898093e-10,9.150856878637464e-10,0
41888,1.2404524405596089e-9,9.634761746075904e-10,2.8238147978676002e-9,1.2217274013432463e-9,2.1439041012908378e-9,1.030271577027744e-8,7.808575997600338e-10,9.129648525203508e-10,0
41889,1.2382104204673482e-9,9.610761240969053e-10,2.8234889371199932e-9,1.180821227284762e-9,2.078283300384279e-9,1.0306080291598181e-8,7.809130378302583e-10,9.108440171769552e-10,0
41890,1.2359684003750873e-9,9.586760735862202e-10,2.8231630763723863e-9,1.139915053226278e-9,2.0126624994777197e-9,1.0309444812918923e-8,7.809684759004827e-10,9.087231818335596e-10,0
41891,1.2337263802828265e-9,9.56276023075535e-10,2.8228372156247793e-9,1.0990088791677937e-9,1.9470416985711605e-9,1.0312809334239662e-8,7.810239139707072e-10,9.06602346490164e-10,0
41892,1.2314843601905656e-9,9.5387597256485e-10,2.8225113548771723e-9,1.0581027051093095e-9,1.8814208976646017e-9,1.0316173855560404e-8,7.810793520409318e-10,9.044815111467684e-10,0
41893,1.229242340098305e-9,9.514759220541648e-10,2.8221854941295653e-9,1.0171965310508254e-9,1.8158000967580425e-9,1.0319538376881145e-8,7.811347901111563e-10,9.023606758033728e-10,0
41894,1.2270003200060442e-9,9.4907587154348e-10,2.8218596333819584e-9,9.762903569923412e-10,1.7501792958514833e-9,1.0322902898201884e-8,7.811902281813808e-10,9.002398404599771e-10,0
41895,1.2247582999137833e-9,9.466758210327948e-10,2.821533772634351e-9,9.35384182933857e-10,1.6845584949449243e-9,1.0326267419522626e-8,7.812456662516053e-10,8.981190051165816e-10,0
41896,1.2225162798215226e-9,9.442757705221097e-10,2.821207911886744e-9,8.944780088753728e-10,1.6189376940383653e-9,1.0329631940843367e-8,7.813011043218298e-10,8.95998169773186e-10,0
41897,1.2215828944281374e-9,9.377819207515996e-10,2.8191929754263233e-9,8.944780088753728e-10,1.6212357357069873e-9,1.0335862230367641e-8,7.813011043218298e-10,8.936302270617187e-10,0
41898,1.2152273455865044e-9,9.312880709810896e-10,2.8125761405162186e-9,8.927655929170884e-10,1.613362991114057e-9,1.031450135241932e-8,7.815781999155456e-10,8.925503517046142e-10,0
41899,1.2095581745148234e-9,9.289917947925737e-10,2.8059593056061135e-9,8.915893592517068e-10,1.6074461142064718e-9,1.0308888317630335e-8,7.815781999155456e-10,8.914704763475098e-10,0
41900,1.2032026256731903e-9,9.224979450220636e-10,2.8001870085524155e-9,8.915893592517068e-10,1.5972753279449194e-9,1.027569236425038e-8,7.818552955092614e-10,8.927585437018724e-10,0
41901,1.1968470768315573e-9,9.160040952515537e-10,2.7944147114987174e-9,8.915893592517068e-10,1.587104541683367e-9,1.0242496410870427e-8,7.821323911029771e-10,8.940466110562352e-10,0
41902,1.1904915279899241e-9,9.095102454810436e-10,2.7886424144450194e-9,8.915893592517068e-10,1.5769337554218145e-9,1.0209300457490472e-8,7.824094866966929e-10,8.953346784105979e-10,0
41903,1.184135979148291e-9,9.030163957105336e-10,2.7828701173913218e-9,8.915893592517068e-10,1.5667629691602618e-9,1.0176104504110518e-8,7.826865822904086e-10,8.966227457649606e-10,0
41904,1.177780430306658e-9,8.965225459400235e-10,2.7770978203376238e-9,8.915893592517068e-10,1.5565921828987094e-9,1.0142908550730564e-8,7.829636778841243e-10,8.979108131193234e-10,0
41905,1.1714248814650249e-9,8.900286961695135e-10,2.7713255232839257e-9,8.915893592517068e-10,1.546421396637157e-9,1.010971259735061e-8,7.832407734778401e-10,8.99198880473686e-10,0
41906,1.1650693326233918e-9,8.835348463990035e-10,2.7655532262302277e-9,8.915893592517068e-10,1.5362506103756045e-9,1.0076516643970654e-8,7.835178690715559e-10,9.004869478280488e-10,0
41907,1.1587137837817586e-9,8.770409966284934e-10,2.7597809291765297e-9,8.915893592517068e-10,1.526079824114052e-9,1.00433206905907e-8,7.837949646652716e-10,9.017750151824115e-10,0
41908,1.1523582349401256e-9,8.705471468579834e-10,2.7540086321228316e-9,8.915893592517068e-10,1.5159090378524994e-9,1.0010124737210746e-8,7.840720602589873e-10,9.030630825367743e-10,0
41909,1.1460026860984926e-9,8.640532970874734e-10,2.7482363350691336e-9,8.915893592517068e-10,1.505738251590947e-9,9.976928783830792e-9,7.843491558527031e-10,9.04351149891137e-10,0
41910,1.1453163083285402e-9,8.638558076899544e-10,2.724908058955227e-9,8.850681395523202e-10,1.5062761494916366e-9,9.956868406406056e-9,7.822987053136507e-10,9.002787558307906e-10,0
41911,1.144629930558588e-9,8.636583182924355e-10,2.70157978284132e-9,8.785469198529337e-10,1.506814047392326e-9,9.93680802898132e-9,7.802482547745982e-10,8.962063617704442e-10,0
41912,1.1439435527886357e-9,8.634608288949166e-10,2.6782515067274128e-9,8.720257001535471e-10,1.5073519452930155e-9,9.916747651556584e-9,7.781978042355457e-10,8.921339677100978e-10,0
41913,1.1432571750186835e-9,8.632633394973976e-10,2.6549232306135057e-9,8.655044804541604e-10,1.5078898431937052e-9,9.896687274131848e-9,7.761473536964933e-10,8.880615736497513e-10,0
41914,1.1425707972487313e-9,8.630658500998787e-10,2.631594954499599e-9,8.589832607547738e-10,1.5084277410943947e-9,9.876626896707111e-9,7.740969031574408e-10,8.839891795894049e-10,0
41915,1.141884419478779e-9,8.628683607023598e-10,2.608266678385692e-9,8.524620410553872e-10,1.5089656389950844e-9,9.856566519282375e-9,7.720464526183884e-10,8.799167855290586e-10,0
41916,1.1411980417088266e-9,8.626708713048408e-10,2.584938402271785e-9,8.459408213560006e-10,1.5095035368957738e-9,9.836506141857639e-9,7.69996002079336e-10,8.758443914687122e-10,0
41917,1.1405116639388744e-9,8.624733819073218e-10,2.5616101261578778e-09,8.394196016566139e-10,1.5100414347964633e-9,9.816445764432904e-9,7.679455515402836e-10,8.717719974083658e-10,0
41918,1.1320922439170433e-9,8.622758925098029e-10,2.5622817716446847e-9,8.412733158701701e-10,1.5077433931278412e-9,9.788862845841934e-9,7.621268283444733e-10,8.732248030081096e-10,0
41919,1.1236728238952122e-9,8.62078403112284e-10,2.5629534171314916e-9,8.431270300837263e-10,1.5054453514592192e-9,9.761279927250964e-9,7.563081051486631e-10,8.746776086078534e-10,0
41920,1.1153769076850976e-9,8.621821774344531e-10,2.5652543663563338e-9,8.43268328338998e-10,1.503147309790597e-9,9.733697008659996e-9,7.512652306637755e-10,8.739706634933882e-10,0
41921,1.1069574876632665e-9,8.706509211801525e-10,2.5804297002253292e-9,8.516432622519408e-10,1.5034213232749752e-9,9.704871331716821e-9,7.451694118742495e-10,8.733460875016135e-10,0
41922,1.0985380676414354e-9,8.79119664925852e-10,2.5956050340943243e-9,8.600181961648836e-10,1.503695336759353e-9,9.676045654773648e-9,7.390735930847236e-10,8.727215115098389e-10,0
41923,1.0901186476196043e-9,8.875884086715514e-10,2.6107803679633198e-9,8.683931300778263e-10,1.503969350243731e-9,9.647219977830474e-9,7.329777742951976e-10,8.720969355180643e-10,0
41924,1.0816992275977732e-9,8.960571524172509e-10,2.625955701832315e-9,8.767680639907692e-10,1.504243363728109e-9,9.6183943008873e-9,7.268819555056715e-10,8.714723595262895e-10,0
41925,1.073279807575942e-9,9.045258961629503e-10,2.6411310357013103e-9,8.85142997903712e-10,1.504517377212487e-9,9.589568623944126e-9,7.207861367161455e-10,8.708477835345149e-10,0
41926,1.064860387554111e-9,9.129946399086497e-10,2.6563063695703054e-9,8.935179318166547e-10,1.504791390696865e-9,9.560742947000953e-9,7.146903179266195e-10,8.702232075427402e-10,0
41927,1.0564409675322798e-9,9.214633836543492e-10,2.671481703439301e-9,9.018928657295975e-10,1.505065404181243e-9,9.531917270057778e-9,7.085944991370936e-10,8.695986315509656e-10,0
41928,1.0480215475104487e-9,9.299321274000487e-10,2.686657037308296e-9,9.102677996425403e-10,1.5053394176656208e-9,9.503091593114605e-9,7.024986803475676e-10,8.68974055559191e-10,0
41929,1.0396021274886176e-9,9.38400871145748e-10,2.7018323711772914e-9,9.18642733555483e-10,1.505613431149999e-9,9.47426591617143e-9,6.964028615580415e-10,8.683494795674162e-10,0
41930,1.0311827074667865e-9,9.468696148914475e-10,2.7170077050462865e-9,9.270176674684259e-10,1.5058874446343768e-9,9.445440239228256e-9,6.903070427685155e-10,8.677249035756416e-10,0
41931,1.0227632874449554e-9,9.55338358637147e-10,2.732183038915282e-9,9.353926013813687e-10,1.506161458118755e-9,9.416614562285083e-9,6.842112239789896e-10,8.671003275838669e-10,0
41932,1.0143438674231243e-9,9.638071023828465e-10,2.747358372784277e-9,9.437675352943115e-10,1.5064354716031328e-9,9.387788885341908e-9,6.781154051894636e-10,8.664757515920923e-10,0
41933,1.0120377264898346e-9,9.801822994221462e-10,2.783860546743615e-9,9.50355194897578e-10,1.5059758632694084e-9,9.395903934598554e-9,6.757878590566954e-10,8.629410260197663e-10,0
41934,1.0129117289125321e-9,9.877472520087816e-10,2.7990358806126105e-9,9.537425976384511e-10,1.5111199735754085e-9,9.36745026027288e-9,6.748457908925059e-10,8.384152157728699e-10,0
41935,1.0137857313352296e-9,9.95312204595417e-10,2.8142112144816056e-9,9.57130000379324e-10,1.5162640838814086e-9,9.338996585947205e-9,6.739037227283164e-10,8.138894055259734e-10,0
41936,1.0146597337579271e-9,1.0028771571820522e-9,2.829386548350601e-9,9.60517403120197e-10,1.5214081941874087e-9,9.310542911621528e-9,6.72961654564127e-10,7.89363595279077e-10,0
41937,1.0155337361806247e-9,1.0104421097686876e-9,2.8445618822195965e-9,9.6390480586107e-10,1.5265523044934086e-9,9.282089237295854e-9,6.720195863999376e-10,7.648377850321806e-10,0
41938,1.0164077386033224e-9,1.018007062355323e-9,2.8597372160885916e-9,9.67292208601943e-10,1.5316964147994088e-9,9.253635562970179e-9,6.710775182357481e-10,7.403119747852843e-10,0
41939,1.0172817410260199e-9,1.0255720149419582e-9,2.874912549957587e-9,9.706796113428158e-10,1.5368405251054089e-9,9.225181888644503e-9,6.701354500715587e-10,7.157861645383879e-10,0
41940,1.0181557434487174e-9,1.0331369675285936e-9,2.890087883826582e-9,9.740670140836888e-10,1.541984635411409e-9,9.196728214318828e-9,6.691933819073692e-10,6.912603542914915e-10,0
41941,1.0190297458714149e-9,1.040701920115229e-9,2.9052632176955776e-9,9.774544168245618e-10,1.547128745717409e-9,9.168274539993153e-9,6.682513137431798e-10,6.66734544044595e-10,0
41942,1.0199037482941124e-9,1.0482668727018641e-9,2.9204385515645727e-9,9.808418195654346e-10,1.5522728560234092e-9,9.139820865667479e-9,6.673092455789903e-10,6.422087337976986e-10,0
41943,1.0207777507168099e-9,1.0558318252884995e-9,2.935613885433568e-9,9.842292223063076e-10,1.5574169663294093e-9,9.111367191341802e-9,6.663671774148008e-10,6.176829235508022e-10,0
41944,1.0216517531395074e-9,1.063396777875135e-9,2.9507892193025632e-9,9.876166250471806e-10,1.5625610766354094e-9,9.082913517016127e-9,6.654251092506115e-10,5.931571133039058e-10,0
41945,1.0225257555622049e-9,1.0709617304617701e-9,2.9659645531715587e-9,9.910040277880536e-10,1.5677051869414096e-9,9.054459842690453e-9,6.64483041086422e-10,5.686313030570094e-10,0
41946,1.0233997579849026e-9,1.0785266830484055e-9,2.9811398870405538e-9,9.943914305289265e-10,1.5728492972474097e-9,9.026006168364778e-9,6.635409729222325e-10,5.441054928101129e-10,0
41947,1.0242737604076e-9,1.0860916356350409e-9,2.9963152209095492e-9,9.977788332697995e-10,1.5779934075534096e-9,8.997552494039102e-9,6.625989047580431e-10,5.195796825632166e-10,0
41948,1.0251477628302976e-9,1.093656588221676e-9,3.0114905547785443e-9,1.0011662360106725e-9,1.5831375178594097e-9,8.969098819713427e-9,6.616568365938536e-10,4.950538723163202e-10,0
41949,1.026021765252995e-9,1.1012215408083115e-9,3.0266658886475398e-9,1.0045536387515453e-9,1.5882816281654098e-9,8.940645145387752e-9,6.607147684296641e-10,4.705280620694238e-10,0
41950,1.0268957676756926e-9,1.1087864933949469e-9,3.0418412225165353e-9,1.0079410414924183e-9,1.59342573847141e-9,8.912191471062078e-9,6.597727002654747e-10,4.4600225182252736e-10,0
41951,1.02776977009839e-9,1.116351445981582e-9,3.0570165563855303e-9,1.0113284442332913e-9,1.59856984877741e-9,8.883737796736401e-9,6.588306321012853e-10,4.2147644157563094e-10,0
41952,1.0286437725210876e-9,1.1239163985682174e-9,3.072191890254526e-9,1.0147158469741643e-9,1.6037139590834102e-9,8.855284122410727e-9,6.578885639370958e-10,3.969506313287345e-10,0
41953,1.0295177749437853e-9,1.1314813511548528e-9,3.087367224123521e-9,1.0181032497150371e-9,1.6088580693894103e-9,8.826830448085052e-9,6.569464957729064e-10,3.7242482108183815e-10,0
41954,1.0303917773664828e-9,1.1390463037414882e-9,3.1025425579925164e-9,1.0214906524559102e-9,1.6140021796954104e-9,8.798376773759377e-9,6.560044276087169e-10,3.4789901083494173e-10,0
41955,1.0302682735547662e-9,1.1383500612267622e-9,3.1031544315045444e-9,1.0224507295146283e-9,1.6211413024702383e-9,8.848219089953572e-9,6.56115303749166e-10,3.455310681234745e-10,0
41956,1.0283967648976549e-9,1.1392437931390071e-9,3.105056247570144e-9,1.015081720283611e-9,1.6206816941365138e-9,8.843350060399584e-9,6.558936462256747e-10,3.365145966429354e-10,0
41957,1.0265252562405433e-9,1.1401375250512519e-9,3.1069580636357436e-9,1.0077127110525938e-9,1.6202220858027894e-9,8.838481030845597e-9,6.556719887021834e-10,3.2749812516239626e-10,0
41958,1.0246537475834319e-9,1.1410312569634969e-9,3.1088598797013434e-9,1.0003437018215766e-9,1.619762477469065e-9,8.83361200129161e-9,6.554503311786922e-10,3.184816536818572e-10,0
41959,1.0227822389263203e-9,1.1419249888757416e-9,3.110761695766943e-9,9.929746925905594e-10,1.6193028691353406e-9,8.828742971737622e-9,6.55228673655201e-10,3.0946518220131807e-10,0
41960,1.020910730269209e-9,1.1428187207879866e-9,3.1126635118325426e-9,9.856056833595422e-10,1.6188432608016162e-9,8.823873942183635e-9,6.550070161317098e-10,3.00448710720779e-10,0
41961,1.0190392216120973e-9,1.1437124527002314e-9,3.1145653278981423e-9,9.78236674128525e-10,1.6183836524678918e-9,8.819004912629648e-9,6.547853586082186e-10,2.914322392402399e-10,0
41962,1.017167712954986e-9,1.1446061846124763e-9,3.116467143963742e-9,9.708676648975078e-10,1.6179240441341674e-9,8.81413588307566e-9,6.545637010847273e-10,2.824157677597008e-10,0
41963,1.0152962042978744e-9,1.145499916524721e-9,3.1183689600293415e-9,9.634986556664906e-10,1.617464435800443e-9,8.809266853521673e-9,6.543420435612361e-10,2.733992962791617e-10,0
41964,1.0134246956407628e-9,1.146393648436966e-9,3.1202707760949413e-9,9.561296464354734e-10,1.6170048274667185e-9,8.804397823967686e-9,6.541203860377449e-10,2.643828247986226e-10,0
41965,1.0115531869836514e-9,1.1472873803492108e-9,3.122172592160541e-9,9.487606372044562e-10,1.6165452191329941e-9,8.799528794413698e-9,6.538987285142536e-10,2.553663533180835e-10,0
41966,1.0096816783265398e-9,1.1481811122614558e-9,3.1240744082261405e-9,9.41391627973439e-10,1.6160856107992697e-9,8.794659764859711e-9,6.536770709907623e-10,2.463498818375444e-10,0
41967,1.0078101696694284e-9,1.1490748441737006e-9,3.1259762242917403e-9,9.340226187424217e-10,1.6156260024655453e-9,8.789790735305724e-9,6.534554134672711e-10,2.373334103570053e-10,0
41968,1.0059386610123168e-9,1.1499685760859455e-9,3.12787804035734e-9,9.266536095114045e-10,1.6151663941318209e-9,8.784921705751736e-9,6.532337559437799e-10,2.283169388764662e-10,0
41969,9.694750383558607e-10,1.1484622574875052e-9,3.1297798564229395e-9,9.283660254696889e-10,1.6151663941318209e-9,8.78530195725086e-9,6.532337559437799e-10,2.2640429553032883e-10,0
41970,9.330114156994046e-10,1.146955938889065e-9,3.1316816724885392e-9,9.300784414279733e-10,1.6151663941318209e-9,8.785682208749986e-9,6.532337559437799e-10,2.2449165218419142e-10,0
41971,8.965477930429486e-10,1.145449620290625e-9,3.133583488554139e-9,9.317908573862578e-10,1.6151663941318209e-9,8.78606246024911e-9,6.532337559437799e-10,2.2257900883805405e-10,0
41972,8.600841703864925e-10,1.1439433016921846e-9,3.1354853046197384e-9,9.33503273344542e-10,1.6151663941318209e-9,8.786442711748235e-9,6.532337559437799e-10,2.2066636549191667e-10,0
41973,8.236205477300366e-10,1.1424369830937444e-9,3.1373871206853382e-9,9.352156893028266e-10,1.6151663941318209e-9,8.786822963247359e-9,6.532337559437799e-10,2.1875372214577927e-10,0
41974,7.871569250735805e-10,1.1409306644953043e-9,3.139288936750938e-9,9.369281052611109e-10,1.6151663941318209e-9,8.787203214746483e-9,6.532337559437799e-10,2.168410787996419e-10,0
41975,7.506933024171244e-10,1.139424345896864e-9,3.1411907528165374e-9,9.386405212193953e-10,1.6151663941318209e-9,8.787583466245608e-9,6.532337559437799e-10,2.149284354535045e-10,0
41976,7.142296797606683e-10,1.1379180272984238e-9,3.143092568882137e-9,9.403529371776796e-10,1.6151663941318209e-9,8.787963717744732e-9,6.532337559437799e-10,2.1301579210736712e-10,0
41977,7.142296797606683e-10,1.138821818457488e-9,3.1297592791039627e-9,9.33831717478293e-10,1.6130640763806117e-9,8.718730789426167e-9,6.525687833733062e-10,2.108949567639715e-10,0
41978,7.134197981789997e-10,1.138821818457488e-9,3.1155615274777885e-9,9.295506775825821e-10,1.6134946689989199e-9,8.658458919454077e-9,6.519038108028325e-10,2.087741214205759e-10,0
41979,7.12609916597331e-10,1.138821818457488e-9,3.1013637758516144e-9,9.252696376868711e-10,1.6139252616172283e-9,8.598187049481986e-9,6.512388382323588e-10,2.066532860771803e-10,0
41980,7.118000350156623e-10,1.138821818457488e-9,3.08716602422544e-9,9.209885977911602e-10,1.6143558542355365e-9,8.537915179509894e-9,6.505738656618851e-10,2.0453245073378468e-10,0
41981,7.109901534339936e-10,1.138821818457488e-9,3.0729682725992657e-9,9.167075578954492e-10,1.6147864468538447e-9,8.477643309537803e-9,6.499088930914114e-10,2.024116153903891e-10,0
41982,7.101802718523249e-10,1.138821818457488e-9,3.0587705209730916e-9,9.124265179997381e-10,1.6152170394721529e-9,8.417371439565712e-9,6.492439205209377e-10,2.0029078004699347e-10,0
41983,7.093703902706562e-10,1.138821818457488e-9,3.0445727693469174e-9,9.081454781040271e-10,1.6156476320904613e-9,8.357099569593622e-9,6.48578947950464e-10,1.9816994470359788e-10,0
41984,7.085605086889875e-10,1.138821818457488e-9,3.030375017720743e-9,9.038644382083162e-10,1.6160782247087695e-9,8.29682769962153e-9,6.479139753799902e-10,1.9604910936020227e-10,0
41985,7.077506271073188e-10,1.138821818457488e-9,3.0161772660945687e-9,8.995833983126052e-10,1.6165088173270777e-9,8.236555829649439e-9,6.472490028095166e-10,1.9392827401680665e-10,0
41986,7.069407455256501e-10,1.138821818457488e-9,3.0019795144683946e-9,8.953023584168941e-10,1.6169394099453859e-9,8.176283959677348e-9,6.465840302390429e-10,1.9180743867341106e-10,0
41987,7.061308639439814e-10,1.138821818457488e-9,2.9877817628422205e-9,8.910213185211831e-10,1.617370002563694e-9,8.116012089705258e-9,6.459190576685691e-10,1.8968660333001544e-10,0
41988,7.053209823623127e-10,1.138821818457488e-9,2.973584011216046e-9,8.867402786254722e-10,1.6178005951820025e-9,8.055740219733167e-9,6.452540850980955e-10,1.8756576798661985e-10,0
41989,7.084370048772711e-10,1.141024379570654e-9,2.959386259589872e-9,8.783653447125294e-10,1.6121287160433792e-9,8.040025372100334e-9,6.452540850980955e-10,1.8565312464048245e-10,0
41990,7.073159948311406e-10,1.14172062208538e-9,2.9460529698116973e-9,8.706678913477612e-10,1.6053027515364116e-9,7.97128294801735e-9,6.466395630666743e-10,1.8590023200855409e-10,0
41991,7.061949847850103e-10,1.142416864600106e-9,2.932719680033523e-9,8.62970437982993e-10,1.598476787029444e-9,7.902540523934366e-9,6.48025041035253e-10,1.8614733937662572e-10,0
41992,6.648531211571771e-10,1.1346443633691324e-9,2.9262159655182394e-9,8.617942043176115e-10,1.5881885664174439e-9,7.901171015082453e-9,6.439795780273726e-10,1.7222570584670735e-10,0
41993,6.611101038429541e-10,1.1355380952813774e-9,2.9273863641222534e-9,8.617942043176115e-10,1.5881885664174439e-9,7.891052704475354e-9,6.422062230820359e-10,1.7438545656091636e-10,0
41994,6.57367086528731e-10,1.1364318271936221e-9,2.928556762726267e-9,8.617942043176115e-10,1.5881885664174439e-9,7.880934393868254e-9,6.404328681366993e-10,1.7654520727512537e-10,0
41995,6.53624069214508e-10,1.137325559105867e-9,2.929727161330281e-9,8.617942043176115e-10,1.5881885664174439e-9,7.870816083261156e-9,6.386595131913625e-10,1.787049579893344e-10,0
41996,6.498810519002851e-10,1.1382192910181119e-9,2.930897559934295e-9,8.617942043176115e-10,1.5881885664174439e-9,7.860697772654055e-9,6.368861582460258e-10,1.808647087035434e-10,0
41997,6.461380345860621e-10,1.1391130229303568e-9,2.932067958538309e-9,8.617942043176115e-10,1.5881885664174439e-9,7.850579462046957e-9,6.351128033006891e-10,1.8302445941775242e-10,0
41998,6.42395017271839e-10,1.1400067548426016e-9,2.933238357142323e-9,8.617942043176115e-10,1.5881885664174439e-9,7.840461151439858e-9,6.333394483553524e-10,1.8518421013196146e-10,0
41999,6.386519999576161e-10,1.1409004867548466e-9,2.934408755746337e-9,8.617942043176115e-10,1.5881885664174439e-9,7.830342840832758e-9,6.315660934100158e-10,1.8734396084617046e-10,0
42000,6.349089826433931e-10,1.1417942186670913e-9,2.935579154350351e-9,8.617942043176115e-10,1.5881885664174439e-9,7.82022453022566e-9,6.29792738464679e-10,1.895037115603795e-10,0
42001,6.311659653291701e-10,1.1426879505793363e-9,2.9367495529543646e-9,8.617942043176115e-10,1.5881885664174439e-9,7.81010621961856e-9,6.280193835193424e-10,1.916634622745885e-10,0
42002,6.274229480149471e-10,1.143581682491581e-9,2.9379199515583786e-9,8.617942043176115e-10,1.5881885664174439e-9,7.799987909011461e-9,6.262460285740056e-10,1.9382321298879751e-10,0
42003,6.236799307007241e-10,1.144475414403826e-9,2.9390903501623927e-9,8.617942043176115e-10,1.5881885664174439e-9,7.78986959840436e-9,6.244726736286689e-10,1.9598296370300655e-10,0
42004,6.199369133865011e-10,1.1453691463160708e-9,2.9402607487664067e-9,8.617942043176115e-10,1.5881885664174439e-9,7.779751287797262e-9,6.226993186833323e-10,1.9814271441721556e-10,0
42005,6.161938960722782e-10,1.1462628782283158e-9,2.9414311473704203e-9,8.617942043176115e-10,1.5881885664174439e-9,7.769632977190164e-9,6.209259637379955e-10,2.0030246513142457e-10,0
42006,6.124508787580552e-10,1.1471566101405605e-9,2.9426015459744344e-9,8.617942043176115e-10,1.5881885664174439e-9,7.759514666583063e-9,6.191526087926589e-10,2.024622158456336e-10,0
42007,6.087078614438321e-10,1.1480503420528055e-9,2.9437719445784484e-9,8.617942043176115e-10,1.5881885664174439e-9,7.749396355975965e-9,6.173792538473221e-10,2.046219665598426e-10,0
42008,6.049648441296091e-10,1.1489440739650503e-9,2.9449423431824625e-9,8.617942043176115e-10,1.5881885664174439e-9,7.739278045368865e-9,6.156058989019855e-10,2.0678171727405164e-10,0
42009,6.012218268153862e-10,1.1498378058772952e-9,2.946112741786476e-9,8.617942043176115e-10,1.5881885664174439e-9,7.729159734761766e-9,6.138325439566488e-10,2.0894146798826065e-10,0
42010,5.974788095011632e-10,1.15073153778954e-9,2.94728314039049e-9,8.617942043176115e-10,1.5881885664174439e-9,7.719041424154666e-9,6.12059189011312e-10,2.1110121870246966e-10,0
42011,5.937357921869401e-10,1.151625269701785e-9,2.9484535389945042e-09,8.617942043176115e-10,1.5881885664174439e-9,7.708923113547567e-9,6.102858340659754e-10,2.132609694166787e-10,0
42012,5.899927748727172e-10,1.1518227590993039e-9,2.947934861885704e-9,8.611167237694368e-10,1.5877681028672022e-9,7.697688795087972e-9,6.064620285815862e-10,2.132609694166787e-10,0
42013,5.865608860229559e-10,1.154222809609989e-9,2.9513862857229674e-9,8.627168522006337e-10,1.59045759237065e-9,7.690808255301905e-9,6.025827850269726e-10,2.139679145311439e-10,0
42014,5.831289971731947e-10,1.1566228601206739e-9,2.9548377095602303e-9,8.643169806318306e-10,1.5931470818740977e-9,7.683927715515838e-9,5.987035414723589e-10,2.146748596456091e-10,0
42015,5.796971083234333e-10,1.159022910631359e-9,2.958289133397493e-9,8.659171090630275e-10,1.5958365713775454e-9,7.677047175729771e-9,5.948242979177452e-10,2.1538180476007428e-10,0
42016,5.80008236787895e-10,1.1605292292297993e-9,2.960111253496721e-9,8.672346409836808e-10,1.5958365713775454e-9,7.68115570228551e-9,5.911668066440297e-10,2.1521706651469321e-10,0
42017,5.803193652523568e-10,1.1620355478282395e-9,2.961933373595949e-9,8.685521729043341e-10,1.5958365713775454e-9,7.685264228841249e-9,5.875093153703141e-10,2.1505232826931212e-10,0
42018,5.806304937168184e-10,1.1635418664266796e-9,2.963755493695177e-9,8.698697048249874e-10,1.5958365713775454e-9,7.689372755396987e-9,5.838518240965985e-10,2.1488759002393102e-10,0
42019,5.809416221812802e-10,1.16504818502512e-9,2.965577613794405e-9,8.711872367456409e-10,1.5958365713775454e-9,7.693481281952725e-9,5.801943328228829e-10,2.1472285177854995e-10,0
42020,5.812527506457418e-10,1.16655450362356e-9,2.967399733893633e-9,8.725047686662942e-10,1.5958365713775454e-9,7.697589808508463e-9,5.765368415491673e-10,2.1455811353316885e-10,0
42021,5.815638791102036e-10,1.1680608222220002e-9,2.969221853992861e-9,8.738223005869475e-10,1.5958365713775454e-9,7.701698335064201e-9,5.728793502754517e-10,2.1439337528778775e-10,0
42022,5.818750075746653e-10,1.1695671408204405e-9,2.971043974092089e-9,8.751398325076008e-10,1.5958365713775454e-9,7.70580686161994e-9,5.69221859001736e-10,2.1422863704240668e-10,0
42023,5.82186136039127e-10,1.1710734594188807e-9,2.9728660941913168e-9,8.764573644282541e-10,1.5958365713775454e-9,7.709915388175679e-9,5.655643677280205e-10,2.1406389879702558e-10,0
42024,5.824972645035887e-10,1.1725797780173208e-9,2.9746882142905448e-9,8.777748963489076e-10,1.5958365713775454e-9,7.714023914731416e-9,5.619068764543049e-10,2.1389916055164451e-10,0
42025,5.828083929680504e-10,1.1740860966157612e-9,2.9765103343897728e-9,8.790924282695609e-10,1.5958365713775454e-9,7.718132441287154e-9,5.582493851805893e-10,2.1373442230626342e-10,0
42026,5.831195214325121e-10,1.1755924152142013e-9,2.9783324544890008e-9,8.804099601902142e-10,1.5958365713775454e-9,7.722240967842894e-9,5.545918939068737e-10,2.1356968406088232e-10,0
42027,5.825566474742763e-10,1.1770987338126414e-9,2.982455523813071e-9,8.817274921108675e-10,1.5813437152631267e-9,7.72110021334552e-9,5.524860052975967e-10,2.1427662917534752e-10,0
42028,5.819937735160405e-10,1.1786050524110818e-9,2.9865785931371408e-9,8.830450240315208e-10,1.566850859148708e-9,7.719959458848146e-9,5.503801166883198e-10,2.1498357428981273e-10,0
42029,5.814308995578047e-10,1.180111371009522e-9,2.990701662461211e-9,8.843625559521743e-10,1.5523580030342893e-9,7.718818704350773e-9,5.482742280790428e-10,2.1569051940427794e-10,0
42030,5.808680255995688e-10,1.181617689607962e-9,2.9948247317852807e-9,8.856800878728276e-10,1.5378651469198707e-9,7.7176779498534e-9,5.461683394697659e-10,2.1639746451874314e-10,0
42031,5.80305151641333e-10,1.1831240082064024e-9,2.998947801109351e-9,8.869976197934809e-10,1.523372290805452e-9,7.716537195356026e-9,5.440624508604889e-10,2.1710440963320835e-10,0
42032,5.797422776830972e-10,1.1846303268048425e-9,3.0030708704334207e-9,8.883151517141342e-10,1.5088794346910333e-9,7.715396440858651e-9,5.419565622512119e-10,2.1781135474767353e-10,0
42033,5.791794037248614e-10,1.1861366454032826e-9,3.007193939757491e-9,8.896326836347876e-10,1.4943865785766146e-9,7.714255686361278e-9,5.398506736419349e-10,2.1851829986213873e-10,0
42034,5.794264113482942e-10,1.1854404028885568e-9,3.0107051355695326e-9,8.886726065760694e-10,1.4767837694085065e-9,7.709006405308167e-9,5.375231275091668e-10,2.1831010786488052e-10,0
42035,5.803004137709917e-10,1.1893367127508627e-9,3.0105322431999325e-9,8.769476990979496e-10,1.4716005143190236e-9,7.390228923478273e-9,5.296539537743041e-10,2.1831010786488052e-10,0
42036,5.811744161936893e-10,1.1932330226131688e-9,3.0103593508303327e-9,8.652227916198297e-10,1.466417259229541e-9,7.07145144164838e-9,5.217847800394414e-10,2.1831010786488052e-10,0
42037,5.820484186163868e-10,1.1971293324754748e-9,3.0101864584607326e-9,8.534978841417098e-10,1.4612340041400584e-9,6.752673959818487e-9,5.139156063045787e-10,2.1831010786488052e-10,0
42038,5.829224210390843e-10,1.201025642337781e-9,3.010013566091133e-9,8.417729766635899e-10,1.4560507490505757e-9,6.433896477988594e-9,5.06046432569716e-10,2.1831010786488052e-10,0
42039,5.837964234617818e-10,1.2049219522000868e-9,3.0098406737215326e-9,8.3004806918547e-10,1.450867493961093e-9,6.115118996158701e-9,4.981772588348534e-10,2.1831010786488052e-10,0
42040,5.846704258844795e-10,1.208818262062393e-9,3.009667781351933e-9,8.183231617073501e-10,1.4456842388716104e-9,5.796341514328808e-9,4.903080850999906e-10,2.1831010786488052e-10,0
42041,5.85544428307177e-10,1.2127145719246989e-9,3.0094948889823327e-9,8.065982542292302e-10,1.4405009837821278e-9,5.477564032498915e-9,4.82438911365128e-10,2.1831010786488052e-10,0
42042,5.864184307298745e-10,1.216610881787005e-9,3.009321996612733e-9,7.948733467511103e-10,1.4353177286926452e-9,5.158786550669022e-9,4.745697376302653e-10,2.1831010786488052e-10,0
42043,5.872924331525721e-10,1.220507191649311e-9,3.0091491042431328e-9,7.831484392729905e-10,1.4301344736031625e-9,4.840009068839128e-9,4.667005638954025e-10,2.1831010786488052e-10,0
42044,5.881664355752696e-10,1.2244035015116168e-9,3.008976211873533e-9,7.714235317948705e-10,1.4249512185136799e-9,4.521231587009235e-9,4.588313901605399e-10,2.1831010786488052e-10,0
42045,5.890404379979671e-10,1.228299811373923e-9,3.008803319503933e-9,7.596986243167506e-10,1.419767963424197e-9,4.202454105179342e-9,4.509622164256772e-10,2.1831010786488052e-10,0
42046,5.899144404206646e-10,1.232196121236229e-9,3.008630427134333e-9,7.479737168386308e-10,1.4145847083347144e-9,3.883676623349449e-9,4.430930426908145e-10,2.1831010786488052e-10,0
42047,5.907884428433622e-10,1.236092431098535e-9,3.008457534764733e-9,7.362488093605108e-10,1.4094014532452317e-9,3.564899141519556e-9,4.352238689559518e-10,2.1831010786488052e-10,0
42048,5.873565539936009e-10,1.2323099548052173e-9,3.008763471520747e-9,7.325413809333985e-10,1.4102423803457155e-9,3.564899141519556e-9,4.352238689559518e-10,2.1831010786488052e-10,0
42049,5.864825515709034e-10,1.2322061804830482e-9,3.005312047683484e-9,7.284474869161667e-10,1.4118169292643016e-9,3.56402838578485e-9,4.29127955409019e-10,2.1831010786488052e-10,0
42050,5.856085491482058e-10,1.232102406160879e-9,3.0018606238462208e-9,7.24353592898935e-10,1.4133914781828877e-9,3.563157630050144e-9,4.2303204186208616e-10,2.1831010786488052e-10,0
42051,5.847345467255083e-10,1.23199863183871e-9,2.998409200008958e-9,7.202596988817032e-10,1.4149660271014737e-9,3.5622868743154385e-9,4.169361283151534e-10,2.1831010786488052e-10,0
42052,5.838605443028108e-10,1.2318948575165409e-9,2.994957776171695e-9,7.161658048644714e-10,1.4165405760200598e-9,3.5614161185807326e-9,4.1084021476822056e-10,2.1831010786488052e-10,0
42053,5.829865418801133e-10,1.2317910831943718e-9,2.9915063523344317e-9,7.120719108472396e-10,1.418115124938646e-9,3.5605453628460267e-9,4.0474430122128773e-10,2.1831010786488052e-10,0
42054,5.821125394574156e-10,1.2316873088722026e-9,2.988054928497169e-9,7.079780168300078e-10,1.419689673857232e-9,3.559674607111321e-9,3.986483876743549e-10,2.1831010786488052e-10,0
42055,5.812385370347181e-10,1.2315835345500337e-9,2.984603504659906e-9,7.03884122812776e-10,1.421264222775818e-9,3.5588038513766152e-9,3.925524741274221e-10,2.1831010786488052e-10,0
42056,5.803645346120206e-10,1.2314797602278646e-9,2.9811520808226426e-9,6.997902287955442e-10,1.4228387716944041e-9,3.5579330956419093e-9,3.8645656058048925e-10,2.1831010786488052e-10,0
42057,5.79490532189323e-10,1.2313759859056955e-9,2.9777006569853798e-9,6.956963347783125e-10,1.4244133206129902e-9,3.5570623399072038e-9,3.8036064703355643e-10,2.1831010786488052e-10,0
42058,5.786165297666255e-10,1.2312722115835264e-9,2.974249233148117e-9,6.916024407610807e-10,1.4259878695315763e-9,3.556191584172498e-9,3.742647334866236e-10,2.1831010786488052e-10,0
42059,5.77742527343928e-10,1.2311684372613573e-9,2.9707978093108536e-9,6.875085467438489e-10,1.4275624184501624e-9,3.555320828437792e-9,3.681688199396908e-10,2.1831010786488052e-10,0
42060,5.768685249212305e-10,1.2310646629391882e-9,2.9673463854735907e-9,6.834146527266171e-10,1.4291369673687484e-9,3.5544500727030864e-9,3.62072906392758e-10,2.1831010786488052e-10,0
42061,5.759945224985329e-10,1.230960888617019e-9,2.963894961636328e-9,6.793207587093853e-10,1.4307115162873345e-9,3.5535793169683805e-9,3.559769928458252e-10,2.1831010786488052e-10,0
42062,5.751205200758354e-10,1.23085711429485e-9,2.9604435377990645e-9,6.752268646921535e-10,1.4322860652059206e-9,3.5527085612336746e-9,3.4988107929889235e-10,2.1831010786488052e-10,0
42063,5.742465176531379e-10,1.2307533399726808e-9,2.9569921139618016e-9,6.711329706749217e-10,1.4338606141245067e-9,3.551837805498969e-9,3.437851657519595e-10,2.1831010786488052e-10,0
42064,5.733725152304404e-10,1.2306495656505117e-9,2.9535406901245383e-9,6.670390766576899e-10,1.4354351630430927e-9,3.550967049764263e-9,3.376892522050267e-10,2.1831010786488052e-10,0
42065,5.724985128077428e-10,1.2305457913283426e-9,2.9500892662872755e-9,6.629451826404581e-10,1.4370097119616788e-9,3.550096294029557e-9,3.3159333865809387e-10,2.1831010786488052e-10,0
42066,5.716245103850453e-10,1.2304420170061735e-9,2.9466378424500126e-9,6.588512886232264e-10,1.4385842608802649e-9,3.5492255382948517e-9,3.2549742511116105e-10,2.1831010786488052e-10,0
42067,5.707505079623478e-10,1.2303382426840044e-9,2.9431864186127493e-9,6.547573946059946e-10,1.440158809798851e-9,3.5483547825601458e-9,3.194015115642282e-10,2.1831010786488052e-10,0
42068,5.698765055396502e-10,1.2302344683618354e-9,2.9397349947754864e-9,6.506635005887628e-10,1.441733358717437e-9,3.54748402682544e-9,3.133055980172954e-10,2.1831010786488052e-10,0
42069,5.690025031169527e-10,1.2301306940396663e-9,2.9362835709382235e-9,6.46569606571531e-10,1.4433079076360231e-9,3.5466132710907343e-9,3.072096844703626e-10,2.1831010786488052e-10,0
42070,5.681285006942552e-10,1.2300269197174972e-9,2.9328321471009602e-9,6.424757125542993e-10,1.4448824565546094e-9,3.5457425153560284e-9,3.011137709234298e-10,2.1831010786488052e-10,0
42071,5.696841430165637e-10,1.2308269365543922e-9,2.9310100270017322e-9,6.406594275164389e-10,1.445302920104851e-9,3.5916607976655737e-9,2.9568282994697064e-10,2.1743842450503424e-10,0
42072,5.696841430165637e-10,1.2326244596257012e-9,2.9376268619118373e-9,6.386269858719152e-10,1.4410490107508838e-9,3.544626507503532e-9,3.015015531427809e-10,2.1361313781275946e-10,0
42073,5.694965183638184e-10,1.2330395569143775e-9,2.9433991589655353e-9,6.374881813822295e-10,1.4416260534350558e-9,3.540272728830003e-9,3.0732027633859114e-10,2.1361313781275946e-10,0
42074,5.693088937110731e-10,1.233454654203054e-9,2.9491714560192334e-9,6.363493768925437e-10,1.442203096119228e-9,3.535918950156474e-9,3.131389995344014e-10,2.1361313781275946e-10,0
42075,5.691212690583279e-10,1.2338697514917304e-9,2.954943753072931e-9,6.352105724028579e-10,1.4427801388034e-9,3.531565171482945e-9,3.1895772273021164e-10,2.1361313781275946e-10,0
42076,5.689336444055827e-10,1.2342848487804067e-9,2.960716050126629e-9,6.340717679131722e-10,1.4433571814875722e-9,3.527211392809416e-9,3.247764459260219e-10,2.1361313781275946e-10,0
42077,5.687460197528374e-10,1.2346999460690831e-9,2.966488347180327e-9,6.329329634234865e-10,1.4439342241717444e-9,3.5228576141358872e-9,3.3059516912183215e-10,2.1361313781275946e-10,0
42078,5.685583951000921e-10,1.2351150433577596e-9,2.972260644234025e-9,6.317941589338008e-10,1.4445112668559164e-9,3.518503835462358e-9,3.364138923176424e-10,2.1361313781275946e-10,0
42079,5.683707704473468e-10,1.2355301406464358e-9,2.978032941287723e-9,6.30655354444115e-10,1.4450883095400886e-9,3.514150056788829e-9,3.4223261551345265e-10,2.1361313781275946e-10,0
42080,5.681831457946015e-10,1.2359452379351123e-9,2.983805238341421e-9,6.295165499544293e-10,1.4456653522242605e-9,3.5097962781153004e-9,3.480513387092629e-10,2.1361313781275946e-10,0
42081,5.679955211418562e-10,1.2363603352237888e-9,2.989577535395119e-9,6.283777454647436e-10,1.4462423949084327e-9,3.505442499441771e-9,3.5387006190507315e-10,2.1361313781275946e-10,0
42082,5.67807896489111e-10,1.236775432512465e-9,2.995349832448817e-9,6.272389409750578e-10,1.446819437592605e-9,3.5010887207682424e-9,3.5968878510088335e-10,2.1361313781275946e-10,0
42083,5.676202718363657e-10,1.2371905298011415e-9,3.001122129502515e-9,6.261001364853721e-10,1.447396480276777e-9,3.496734942094713e-9,3.655075082966936e-10,2.1361313781275946e-10,0
42084,5.674326471836204e-10,1.237605627089818e-9,3.006894426556213e-9,6.249613319956864e-10,1.4479735229609491e-9,3.4923811634211844e-9,3.7132623149250385e-10,2.1361313781275946e-10,0
42085,5.580845796387454e-10,1.2418032006718119e-9,3.012360786853897e-9,6.20688710547487e-10,1.4479735229609491e-9,3.479430080137054e-9,3.771449546883141e-10,2.1361313781275946e-10,0
42086,5.487365120938705e-10,1.246000774253806e-9,3.017827147151581e-9,6.164160890992876e-10,1.4479735229609491e-9,3.4664789968529243e-9,3.8296367788412436e-10,2.1361313781275946e-10,0
42087,5.393884445489954e-10,1.2501983478358e-9,3.0232935074492644e-9,6.121434676510882e-10,1.4479735229609491e-9,3.453527913568794e-9,3.887824010799346e-10,2.1361313781275946e-10,0
42088,5.300403770041205e-10,1.2543959214177941e-9,3.0287598677469484e-9,6.078708462028888e-10,1.4479735229609491e-9,3.4405768302846637e-9,3.9460112427574486e-10,2.1361313781275946e-10,0
42089,5.206923094592455e-10,1.258593494999788e-9,3.0342262280446324e-9,6.035982247546894e-10,1.4479735229609491e-9,3.4276257470005335e-9,4.004198474715551e-10,2.1361313781275946e-10,0
42090,5.113442419143705e-10,1.2627910685817822e-9,3.0396925883423164e-9,5.9932560330649e-10,1.4479735229609491e-9,3.4146746637164036e-9,4.0623857066736536e-10,2.1361313781275946e-10,0
42091,5.019961743694955e-10,1.2669886421637764e-9,3.04515894864e-9,5.950529818582906e-10,1.4479735229609491e-9,3.4017235804322734e-9,4.120572938631756e-10,2.1361313781275946e-10,0
42092,4.926481068246205e-10,1.2669886421637764e-9,3.047692562209221e-9,5.907803604100913e-10,1.4490101739788457e-9,3.4017235804322734e-9,4.1200185579295107e-10,2.1361313781275946e-10,0
42093,4.923369783601589e-10,1.2658873616071932e-9,3.0510507896432557e-9,5.904603347238518e-10,1.4433382948402225e-9,3.4148014142161116e-9,4.1222351331644234e-10,2.1361313781275946e-10,0
42094,4.922134745484424e-10,1.2650873447702982e-9,3.0510507896432557e-9,5.901403090376125e-10,1.4462916687599818e-9,3.5328018952845045e-9,4.1244517083993356e-10,2.1452827492448288e-10,0
42095,4.920899707367259e-10,1.2642873279334033e-9,3.0510507896432557e-9,5.898202833513731e-10,1.449245042679741e-9,3.650802376352897e-9,4.126668283634248e-10,2.154434120362063e-10,0
42096,4.919664669250095e-10,1.263487311096508e-9,3.0510507896432557e-9,5.895002576651337e-10,1.4521984165995004e-9,3.76880285742129e-9,4.12888485886916e-10,2.1635854914792972e-10,0
42097,4.91842963113293e-10,1.2626872942596131e-9,3.0510507896432557e-9,5.891802319788944e-10,1.4551517905192597e-9,3.886803338489683e-9,4.1311014341040723e-10,2.1727368625965314e-10,0
42098,4.917194593015767e-10,1.2618872774227182e-9,3.0510507896432557e-9,5.88860206292655e-10,1.458105164439019e-9,4.0048038195580756e-9,4.133318009338985e-10,2.1818882337137656e-10,0
42099,4.915959554898602e-10,1.2610872605858232e-9,3.0510507896432557e-9,5.885401806064156e-10,1.4610585383587784e-9,4.122804300626468e-9,4.1355345845738973e-10,2.1910396048309998e-10,0
42100,4.914724516781438e-10,1.260287243748928e-9,3.0510507896432557e-9,5.882201549201763e-10,1.4640119122785377e-9,4.240804781694861e-9,4.1377511598088095e-10,2.200190975948234e-10,0
42101,4.913489478664273e-10,1.259487226912033e-9,3.0510507896432557e-9,5.879001292339368e-10,1.466965286198297e-9,4.358805262763254e-9,4.1399677350437217e-10,2.2093423470654682e-10,0
42102,4.912254440547109e-10,1.258687210075138e-9,3.0510507896432557e-9,5.875801035476975e-10,1.4699186601180563e-9,4.476805743831647e-9,4.1421843102786345e-10,2.2184937181827024e-10,0
42103,4.911019402429945e-10,1.257887193238243e-9,3.0510507896432557e-9,5.872600778614582e-10,1.4728720340378156e-9,4.594806224900039e-9,4.1444008855135467e-10,2.2276450892999366e-10,0
42104,4.90978436431278e-10,1.257087176401348e-9,3.0510507896432557e-9,5.869400521752187e-10,1.475825407957575e-9,4.712806705968432e-9,4.146617460748459e-10,2.2367964604171708e-10,0
42105,4.908549326195616e-10,1.256287159564453e-9,3.0510507896432557e-9,5.866200264889794e-10,1.4787787818773345e-9,4.830807187036824e-9,4.148834035983371e-10,2.245947831534405e-10,0
42106,4.889834239624501e-10,1.2528059469908233e-9,3.0513766503908627e-9,5.864412990580118e-10,1.4890177286377856e-9,4.914368956373059e-9,4.141629929576389e-10,2.2443004490805943e-10,0
42107,4.888599201507337e-10,1.2488058628063483e-9,3.0550607385725046e-9,5.853024945683261e-10,1.489976090088717e-9,4.894206575093491e-9,4.138858973639232e-10,2.242218529108012e-10,0
42108,4.88548791686272e-10,1.2532745223675725e-9,3.0553865993201116e-9,5.843424175096079e-10,1.4895556265384751e-9,4.8645596357053656e-9,4.138858973639232e-10,2.2401366091354298e-10,0
42109,4.882376632218103e-10,1.257743181928797e-9,3.0557124600677186e-9,5.833823404508898e-10,1.4891351629882332e-9,4.834912696317241e-9,4.138858973639232e-10,2.2380546891628476e-10,0
42110,4.879265347573486e-10,1.2622118414900212e-9,3.0560383208153256e-9,5.824222633921716e-10,1.4887146994379915e-9,4.805265756929115e-9,4.138858973639232e-10,2.2359727691902655e-10,0
42111,4.876154062928868e-10,1.2666805010512456e-9,3.0563641815629325e-9,5.814621863334535e-10,1.4882942358877497e-9,4.7756188175409895e-9,4.138858973639232e-10,2.2338908492176833e-10,0
42112,4.873042778284252e-10,1.2711491606124698e-9,3.0566900423105395e-9,5.805021092747354e-10,1.4878737723375078e-9,4.745971878152864e-9,4.138858973639232e-10,2.2318089292451012e-10,0
42113,4.869931493639634e-10,1.2756178201736943e-9,3.0570159030581465e-9,5.795420322160173e-10,1.4874533087872659e-9,4.716324938764738e-9,4.138858973639232e-10,2.2297270092725188e-10,0
42114,4.866820208995018e-10,1.2800864797349185e-9,3.0573417638057535e-9,5.785819551572992e-10,1.487032845237024e-9,4.686677999376613e-9,4.138858973639232e-10,2.2276450892999366e-10,0
42115,4.8637089243504e-10,1.284555139296143e-9,3.0576676245533604e-9,5.77621878098581e-10,1.4866123816867823e-9,4.657031059988487e-9,4.138858973639232e-10,2.2255631693273545e-10,0
42116,4.860597639705783e-10,1.2890237988573672e-9,3.0579934853009674e-9,5.766618010398629e-10,1.4861919181365404e-9,4.627384120600362e-9,4.138858973639232e-10,2.2234812493547723e-10,0
42117,4.857486355061166e-10,1.2934924584185916e-9,3.058319346048575e-9,5.757017239811448e-10,1.4857714545862985e-9,4.597737181212237e-9,4.138858973639232e-10,2.2213993293821902e-10,0
42118,4.854375070416549e-10,1.2979611179798158e-9,3.0586452067961818e-9,5.747416469224267e-10,1.4853509910360567e-9,4.568090241824111e-9,4.138858973639232e-10,2.2193174094096078e-10,0
42119,4.851263785771932e-10,1.3024297775410403e-9,3.0589710675437888e-9,5.737815698637086e-10,1.4849305274858148e-9,4.538443302435985e-9,4.138858973639232e-10,2.2172354894370256e-10,0
42120,4.848152501127315e-10,1.3068984371022645e-9,3.0592969282913957e-9,5.728214928049905e-10,1.4845100639355729e-9,4.50879636304786e-9,4.138858973639232e-10,2.2151535694644435e-10,0
42121,4.845041216482697e-10,1.311367096663489e-9,3.0596227890390027e-9,5.718614157462723e-10,1.4840896003853312e-9,4.479149423659734e-9,4.138858973639232e-10,2.2130716494918613e-10,0
42122,4.841929931838081e-10,1.3158357562247132e-9,3.0599486497866097e-9,5.709013386875542e-10,1.4836691368350893e-9,4.4495024842716085e-9,4.138858973639232e-10,2.2109897295192792e-10,0
42123,4.838818647193463e-10,1.3203044157859376e-9,3.0602745105342167e-9,5.699412616288361e-10,1.4832486732848474e-9,4.419855544883484e-9,4.138858973639232e-10,2.2089078095466968e-10,0
42124,4.835707362548847e-10,1.3247730753471618e-9,3.0606003712818236e-9,5.689811845701179e-10,1.4828282097346055e-9,4.390208605495358e-9,4.138858973639232e-10,2.2068258895741146e-10,0
42125,4.832596077904229e-10,1.3292417349083863e-9,3.0609262320294306e-9,5.680211075113998e-10,1.4824077461843636e-9,4.3605616661072325e-9,4.138858973639232e-10,2.2047439696015325e-10,0
42126,4.829484793259613e-10,1.3337103944696105e-9,3.0612520927770376e-9,5.670610304526817e-10,1.481987282634122e-9,4.330914726719107e-9,4.138858973639232e-10,2.2026620496289504e-10,0
42127,4.826373508614995e-10,1.338179054030835e-9,3.0615779535246446e-9,5.661009533939635e-10,1.48156681908388e-9,4.301267787330981e-9,4.138858973639232e-10,2.2005801296563682e-10,0
42128,4.823262223970378e-10,1.3426477135920592e-9,3.061903814272252e-9,5.651408763352454e-10,1.4811463555336382e-9,4.271620847942856e-9,4.138858973639232e-10,2.198498209683786e-10,0
42129,4.846323633303275e-10,1.3393539311691293e-9,3.064377655866694e-9,5.651408763352454e-10,1.481263789884086e-9,4.269008580738738e-9,4.1322092479344947e-10,2.198498209683786e-10,0
42130,4.877483858452858e-10,1.3384501400100652e-9,3.060081694173024e-9,5.651408763352454e-10,1.469186409788737e-9,4.280598404052582e-9,4.140522115745967e-10,2.2076495808010203e-10,0
42131,4.908644083602441e-10,1.337546348851001e-9,3.055785732479354e-9,5.651408763352454e-10,1.457109029693388e-9,4.2921882273664245e-9,4.1488349835574397e-10,2.2168009519182545e-10,0
42132,4.939804308752024e-10,1.3366425576919368e-9,3.051489770785684e-9,5.651408763352454e-10,1.4450316495980393e-9,4.303778050680268e-9,4.157147851368912e-10,2.2259523230354887e-10,0
42133,4.970964533901607e-10,1.3357387665328728e-9,3.047193809092014e-9,5.651408763352454e-10,1.4329542695026902e-9,4.315367873994111e-9,4.1654607191803843e-10,2.2351036941527229e-10,0
42134,5.002124759051191e-10,1.3348349753738087e-9,3.042897847398344e-9,5.651408763352454e-10,1.4208768894073414e-9,4.326957697307954e-9,4.173773586991857e-10,2.244255065269957e-10,0
42135,5.033284984200774e-10,1.3339311842147446e-9,3.038601885704674e-9,5.651408763352454e-10,1.4087995093119926e-9,4.338547520621797e-9,4.1820864548033293e-10,2.2534064363871913e-10,0
42136,5.064445209350358e-10,1.3330273930556803e-9,3.0343059240110042e-9,5.651408763352454e-10,1.3967221292166437e-9,4.35013734393564e-9,4.190399322614802e-10,2.2625578075044255e-10,0
42137,5.095605434499941e-10,1.3321236018966162e-9,3.0300099623173343e-9,5.651408763352454e-10,1.3846447491212947e-9,4.361727167249483e-9,4.1987121904262744e-10,2.2717091786216597e-10,0
42138,5.126765659649524e-10,1.3312198107375521e-9,3.0257140006236643e-9,5.651408763352454e-10,1.3725673690259458e-9,4.3733169905633265e-9,4.207025058237747e-10,2.2808605497388939e-10,0
42139,5.157925884799108e-10,1.330316019578488e-9,3.0214180389299944e-9,5.651408763352454e-10,1.360489988930597e-9,4.384906813877169e-9,4.2153379260492195e-10,2.290011920856128e-10,0
42140,5.189086109948691e-10,1.329412228419424e-9,3.0171220772363244e-9,5.651408763352454e-10,1.348412608835248e-9,4.396496637191013e-9,4.2236507938606915e-10,2.2991632919733623e-10,0
42141,5.220246335098274e-10,1.3285084372603597e-9,3.0128261155426545e-9,5.651408763352454e-10,1.3363352287398991e-9,4.408086460504855e-9,4.231963661672164e-10,2.3083146630905965e-10,0
42142,5.225186487566931e-10,1.326617199113701e-9,3.0091420273610126e-9,5.63428460376961e-10,1.3272010934962433e-9,4.424909067108559e-9,4.2402765294836365e-10,2.3174660342078307e-10,0
42143,5.230126640035589e-10,1.3247259609670422e-9,3.0054579391793707e-9,5.617160444186767e-10,1.3180669582525872e-9,4.441731673712263e-9,4.248589397295109e-10,2.3266174053250649e-10,0
42144,5.235066792504246e-10,1.3228347228203834e-9,3.001773850997729e-9,5.600036284603923e-10,1.3089328230089312e-9,4.458554280315966e-9,4.2569022651065816e-10,2.3357687764422993e-10,0
42145,5.240006944972903e-10,1.3209434846737245e-9,2.9980897628160873e-9,5.582912125021079e-10,1.2997986877652754e-9,4.4753768869196695e-9,4.265215132918054e-10,2.3449201475595335e-10,0
42146,5.24494709744156e-10,1.3190522465270657e-9,2.9944056746344454e-9,5.565787965438235e-10,1.2906645525216193e-9,4.492199493523373e-9,4.2735280007295267e-10,2.3540715186767677e-10,0
42147,5.249887249910219e-10,1.3171610083804068e-9,2.990721586452804e-9,5.548663805855391e-10,1.2815304172779635e-9,4.509022100127077e-9,4.2818408685409987e-10,2.363222889794002e-10,0
42148,5.254827402378876e-10,1.315269770233748e-9,2.987037498271162e-9,5.531539646272546e-10,1.2723962820343075e-9,4.52584470673078e-9,4.290153736352471e-10,2.372374260911236e-10,0
42149,5.276606394891195e-10,1.3068010264880485e-9,2.98335341008952e-9,5.531539646272546e-10,1.2691790236982366e-9,4.54152655883711e-9,4.300683179398856e-10,2.372374260911236e-10,0
42150,5.298385387403515e-10,1.298332282742349e-9,2.9796693219078782e-09,5.531539646272546e-10,1.2659617653621657e-9,4.55720841094344e-9,4.311212622445241e-10,2.372374260911236e-10,0
42151,5.289004154766251e-10,1.2961598993696408e-9,3.001687731476621e-9,5.552902753513543e-10,1.2611308133240262e-9,4.562948196232133e-9,4.3206333040871356e-10,2.365304809766584e-10,0
42152,5.305842994809913e-10,1.2874936662264224e-9,3.0065222942706836e-9,5.586776780922273e-10,1.256339006069369e-9,4.5573269125615225e-9,4.3206333040871356e-10,2.3561534386493496e-10,0
42153,5.322681834853576e-10,1.278827433083204e-9,3.0113568570647466e-9,5.620650808331002e-10,1.251547198814712e-9,4.551705628890912e-9,4.3206333040871356e-10,2.3470020675321154e-10,0
42154,5.339520674897238e-10,1.2701611999399856e-9,3.016191419858809e-9,5.654524835739732e-10,1.246755391560055e-9,4.546084345220301e-9,4.3206333040871356e-10,2.337850696414881e-10,0
42155,5.3563595149409e-10,1.2614949667967672e-9,3.021025982652872e-9,5.688398863148462e-10,1.241963584305398e-9,4.5404630615496904e-9,4.3206333040871356e-10,2.328699325297647e-10,0
42156,5.373198354984562e-10,1.2528287336535489e-9,3.0258605454469348e-9,5.722272890557192e-10,1.2371717770507411e-9,4.53484177787908e-9,4.3206333040871356e-10,2.3195479541804128e-10,0
42157,5.390037195028224e-10,1.2441625005103305e-9,3.0306951082409978e-9,5.756146917965921e-10,1.2323799697960842e-9,4.529220494208469e-9,4.3206333040871356e-10,2.3103965830631786e-10,0
42158,5.406876035071887e-10,1.2354962673671119e-9,3.0355296710350603e-9,5.79002094537465e-10,1.2275881625414272e-9,4.5235992105378584e-9,4.3206333040871356e-10,2.3012452119459444e-10,0
42159,5.423714875115549e-10,1.2268300342238935e-9,3.0403642338291233e-9,5.82389497278338e-10,1.2227963552867702e-9,4.517977926867248e-9,4.3206333040871356e-10,2.2920938408287102e-10,0
42160,5.440553715159211e-10,1.2181638010806751e-9,3.045198796623186e-9,5.857769000192109e-10,1.2180045480321133e-9,4.512356643196637e-9,4.3206333040871356e-10,2.282942469711476e-10,0
42161,5.457392555202873e-10,1.2094975679374567e-9,3.050033359417249e-9,5.891643027600839e-10,1.213212740777456e-9,4.5067353595260264e-9,4.3206333040871356e-10,2.2737910985942418e-10,0
42162,5.474231395246535e-10,1.2008313347942383e-9,3.0548679222113115e-9,5.925517055009568e-10,1.2084209335227991e-9,4.501114075855416e-9,4.3206333040871356e-10,2.2646397274770076e-10,0
42163,5.491070235290197e-10,1.19216510165102e-9,3.0597024850053745e-9,5.959391082418299e-10,1.2036291262681422e-9,4.495492792184805e-9,4.3206333040871356e-10,2.2554883563597734e-10,0
42164,5.50790907533386e-10,1.1834988685078016e-9,3.064537047799437e-9,5.993265109827028e-10,1.1988373190134852e-9,4.4898715085141944e-9,4.3206333040871356e-10,2.2463369852425392e-10,0
42165,5.383268174735526e-10,1.1711136964061577e-9,3.066379091890258e-9,5.990064852964634e-10,1.1927348472565537e-9,4.485636231458748e-9,4.2818408685409987e-10,2.2463369852425392e-10,0
42166,5.258627274137194e-10,1.1627286084889887e-9,3.067356674133079e-9,5.998252640999097e-10,1.1855957244817256e-9,4.491866520983022e-9,4.243602813697108e-10,2.2571357388135844e-10,0
42167,5.13398637353886e-10,1.15434352057182e-9,3.0683342563759e-9,6.006440429033561e-10,1.1784566017068978e-9,4.498096810507297e-9,4.2053647588532163e-10,2.2679344923846293e-10,0
42168,5.009345472940527e-10,1.1459584326546512e-9,3.0693118386187212e-9,6.014628217068025e-10,1.1713174789320697e-9,4.504327100031571e-9,4.167126704009325e-10,2.2787332459556745e-10,0
42169,4.884704572342194e-10,1.1375733447374822e-9,3.070289420861542e-9,6.022816005102488e-10,1.1641783561572416e-9,4.510557389555846e-9,4.1288886491654334e-10,2.2895319995267196e-10,0
42170,4.76006367174386e-10,1.1291882568203134e-9,3.071267003104363e-9,6.031003793136951e-10,1.1570392333824135e-9,4.51678767908012e-9,4.090650594321542e-10,2.3003307530977645e-10,0
42171,4.6354227711455275e-10,1.1208031689031446e-9,3.0722445853471844e-9,6.039191581171415e-10,1.1499001106075857e-9,4.523017968604395e-9,4.0524125394776504e-10,2.3111295066688097e-10,0
42172,4.510781870547194e-10,1.1124180809859756e-9,3.0732221675900054e-9,6.047379369205879e-10,1.1427609878327576e-9,4.5292482581286684e-9,4.014174484633759e-10,2.321928260239855e-10,0
42173,4.386140969948861e-10,1.1040329930688068e-9,3.0741997498328263e-9,6.055567157240343e-10,1.1356218650579295e-9,4.535478547652943e-9,3.9759364297898675e-10,2.3327270138109e-10,0
