"time" "channel1" "channel2" "channel3" "channel4" "channel5" "channel6" "channel7" "channel8"
"1" 31009 1.30424681340586e-08 2.59140662585499e-09 4.61161974493545e-09 7.42189235893689e-08 3.35528467434931e-07 1.70781449000803e-07 1.70521517875539e-07 8.86000120255533e-08
"2" 31010 1.31052252992139e-08 2.59752661416229e-09 4.60550353116376e-09 7.42424862082716e-08 3.3654248323088e-07 1.70445106183719e-07 1.70591135487432e-07 8.82896345475578e-08
"3" 31011 1.31679824643692e-08 2.60364660246959e-09 4.59938731739207e-09 7.42660488271743e-08 3.3755649902683e-07 1.70108763366634e-07 1.70660753099325e-07 8.79792570695624e-08
"4" 31012 1.32307396295245e-08 2.60976659077689e-09 4.59327110362038e-09 7.4289611446077e-08 3.38570514822779e-07 1.6977242054955e-07 1.70730370711218e-07 8.76688795915669e-08
"5" 31013 1.32934967946798e-08 2.61588657908419e-09 4.58715488984868e-09 7.43131740649797e-08 3.39584530618728e-07 1.69436077732466e-07 1.70799988323111e-07 8.73585021135714e-08
"6" 31014 1.33562539598351e-08 2.62200656739149e-09 4.58103867607699e-09 7.43367366838824e-08 3.40598546414677e-07 1.69099734915381e-07 1.70869605935005e-07 8.70481246355759e-08
"7" 31015 1.34190111249903e-08 2.62812655569879e-09 4.5749224623053e-09 7.43602993027851e-08 3.41612562210627e-07 1.68763392098297e-07 1.70939223546898e-07 8.67377471575804e-08
"8" 31016 1.34817682901456e-08 2.63424654400609e-09 4.56880624853361e-09 7.43838619216878e-08 3.42626578006576e-07 1.68427049281212e-07 1.71008841158791e-07 8.64273696795849e-08
"9" 31017 1.35445254553009e-08 2.64036653231338e-09 4.56269003476191e-09 7.44074245405905e-08 3.43640593802525e-07 1.68090706464128e-07 1.71078458770684e-07 8.61169922015894e-08
"10" 31018 1.36072826204562e-08 2.64648652062068e-09 4.55657382099022e-09 7.44309871594932e-08 3.44654609598474e-07 1.67754363647043e-07 1.71148076382577e-07 8.5806614723594e-08
"11" 31019 1.36700397856115e-08 2.65260650892798e-09 4.55045760721853e-09 7.44545497783958e-08 3.45668625394424e-07 1.67418020829959e-07 1.7121769399447e-07 8.54962372455985e-08
"12" 31020 1.37327969507668e-08 2.65872649723528e-09 4.54434139344684e-09 7.44781123972986e-08 3.46682641190373e-07 1.67081678012874e-07 1.71287311606363e-07 8.5185859767603e-08
"13" 31021 1.36942150238606e-08 2.66756674255566e-09 4.54190023987159e-09 7.45113257899939e-08 3.47212517160547e-07 1.66806614909969e-07 1.72671600973194e-07 8.47021524380207e-08
"14" 31022 1.36556330969544e-08 2.67640698787604e-09 4.53945908629635e-09 7.45445391826892e-08 3.47742393130722e-07 1.66531551807064e-07 1.74055890340025e-07 8.42184451084384e-08
"15" 31023 1.36170511700481e-08 2.68524723319642e-09 4.53701793272111e-09 7.45777525753846e-08 3.48272269100897e-07 1.6625648870416e-07 1.75440179706856e-07 8.37347377788561e-08
"16" 31024 1.36528470910033e-08 2.6879674902095e-09 4.52513530881828e-09 7.46210189131758e-08 3.48408728015495e-07 1.64585406096615e-07 1.74822660987539e-07 8.35765671181478e-08
"17" 31025 1.36938370558828e-08 2.69585599955858e-09 4.52799665115631e-09 7.47098442686927e-08 3.48610624182714e-07 1.64089369809117e-07 1.75473741758614e-07 8.3403237266561e-08
"18" 31026 1.37348270207622e-08 2.70374450890766e-09 4.53085799349434e-09 7.47986696242096e-08 3.48812520349934e-07 1.63593333521619e-07 1.76124822529689e-07 8.32299074149742e-08
"19" 31027 1.37758169856417e-08 2.71163301825674e-09 4.53371933583238e-09 7.48874949797265e-08 3.49014416517153e-07 1.63097297234121e-07 1.76775903300765e-07 8.30565775633874e-08
"20" 31028 1.39562577922426e-08 2.71680127059274e-09 4.55268084084196e-09 7.49022564875911e-08 3.49941699464959e-07 1.62660924857343e-07 1.76022952404836e-07 8.3414729782242e-08
"21" 31029 1.41366985988435e-08 2.72196952292874e-09 4.57164234585155e-09 7.49170179954557e-08 3.50868982412764e-07 1.62224552480565e-07 1.75270001508908e-07 8.37728820010967e-08
"22" 31030 1.43171394054444e-08 2.72713777526474e-09 4.59060385086114e-09 7.49317795033203e-08 3.5179626536057e-07 1.61788180103787e-07 1.7451705061298e-07 8.41310342199513e-08
"23" 31031 1.44975802120453e-08 2.73230602760074e-09 4.60956535587072e-09 7.49465410111849e-08 3.52723548308375e-07 1.61351807727009e-07 1.73764099717052e-07 8.4489186438806e-08
"24" 31032 1.46780210186462e-08 2.73747427993674e-09 4.62852686088031e-09 7.49613025190495e-08 3.53650831256181e-07 1.60915435350231e-07 1.73011148821124e-07 8.48473386576606e-08
"25" 31033 1.48584618252471e-08 2.74264253227275e-09 4.6474883658899e-09 7.49760640269141e-08 3.54578114203987e-07 1.60479062973453e-07 1.72258197925196e-07 8.52054908765152e-08
"26" 31034 1.5038902631848e-08 2.74781078460875e-09 4.66644987089949e-09 7.49908255347787e-08 3.55505397151792e-07 1.60042690596674e-07 1.71505247029267e-07 8.55636430953699e-08
"27" 31035 1.52193434384489e-08 2.75297903694475e-09 4.68541137590907e-09 7.50055870426433e-08 3.56432680099598e-07 1.59606318219896e-07 1.70752296133339e-07 8.59217953142245e-08
"28" 31036 1.53997842450498e-08 2.75814728928075e-09 4.70437288091866e-09 7.50203485505079e-08 3.57359963047403e-07 1.59169945843118e-07 1.69999345237411e-07 8.62799475330792e-08
"29" 31037 1.55802250516507e-08 2.76331554161675e-09 4.72333438592825e-09 7.50351100583725e-08 3.58287245995209e-07 1.5873357346634e-07 1.69246394341483e-07 8.66380997519338e-08
"30" 31038 1.57606658582516e-08 2.76848379395275e-09 4.74229589093783e-09 7.50498715662371e-08 3.59214528943014e-07 1.58297201089562e-07 1.68493443445555e-07 8.69962519707885e-08
"31" 31039 1.59411066648525e-08 2.77365204628875e-09 4.76125739594742e-09 7.50646330741017e-08 3.6014181189082e-07 1.57860828712784e-07 1.67740492549627e-07 8.73544041896431e-08
"32" 31040 1.61215474714534e-08 2.77882029862475e-09 4.78021890095701e-09 7.50793945819663e-08 3.61069094838626e-07 1.57424456336006e-07 1.66987541653699e-07 8.77125564084978e-08
"33" 31041 1.63019882780543e-08 2.78398855096075e-09 4.79918040596659e-09 7.50941560898309e-08 3.61996377786431e-07 1.56988083959228e-07 1.6623459075777e-07 8.80707086273524e-08
"34" 31042 1.64824290846552e-08 2.78915680329675e-09 4.81814191097618e-09 7.51089175976955e-08 3.62923660734237e-07 1.56551711582449e-07 1.65481639861842e-07 8.84288608462071e-08
"35" 31043 1.66147609850367e-08 2.79310105797129e-09 4.80821057408711e-09 7.47169755303226e-08 3.61910992158139e-07 1.53952106815552e-07 1.65337770344259e-07 8.89242215754242e-08
"36" 31044 1.65907636836689e-08 2.79310105797129e-09 4.77931773218845e-09 7.43067047810187e-08 3.59757724059756e-07 1.51302140760651e-07 1.65197537562797e-07 8.88299136780026e-08
"37" 31045 1.65957733090562e-08 2.77949977290588e-09 4.76035622717887e-09 7.41707216250929e-08 3.59075179544349e-07 1.51372723097548e-07 1.65080288989629e-07 8.88364119879494e-08
"38" 31046 1.65880218661484e-08 2.76399501589788e-09 4.74266346768983e-09 7.40719971094777e-08 3.58646250834716e-07 1.51358455250071e-07 1.64974927361468e-07 8.89010968540936e-08
"39" 31047 1.65802704232405e-08 2.74849025888988e-09 4.7249707082008e-09 7.39732725938625e-08 3.58217322125084e-07 1.51344187402594e-07 1.64869565733307e-07 8.89657817202378e-08
"40" 31048 1.65725189803327e-08 2.73298550188188e-09 4.70727794871176e-09 7.38745480782473e-08 3.57788393415452e-07 1.51329919555117e-07 1.64764204105146e-07 8.90304665863819e-08
"41" 31049 1.65647675374248e-08 2.71748074487388e-09 4.68958518922273e-09 7.37758235626321e-08 3.5735946470582e-07 1.51315651707641e-07 1.64658842476985e-07 8.90951514525261e-08
"42" 31050 1.65570160945169e-08 2.70197598786588e-09 4.67189242973369e-09 7.36770990470169e-08 3.56930535996187e-07 1.51301383860164e-07 1.64553480848824e-07 8.91598363186703e-08
"43" 31051 1.65492646516091e-08 2.68647123085788e-09 4.65419967024466e-09 7.35783745314017e-08 3.56501607286555e-07 1.51287116012687e-07 1.64448119220663e-07 8.92245211848144e-08
"44" 31052 1.65415132087012e-08 2.67096647384988e-09 4.63650691075562e-09 7.34796500157865e-08 3.56072678576923e-07 1.5127284816521e-07 1.64342757592502e-07 8.92892060509586e-08
"45" 31053 1.65337617657933e-08 2.65546171684188e-09 4.61881415126659e-09 7.33809255001713e-08 3.55643749867291e-07 1.51258580317733e-07 1.6423739596434e-07 8.93538909171028e-08
"46" 31054 1.65260103228855e-08 2.63995695983388e-09 4.60112139177755e-09 7.32822009845561e-08 3.55214821157659e-07 1.51244312470256e-07 1.64132034336179e-07 8.94185757832469e-08
"47" 31055 1.65182588799776e-08 2.62445220282588e-09 4.58342863228852e-09 7.31834764689409e-08 3.54785892448026e-07 1.51230044622779e-07 1.64026672708018e-07 8.94832606493911e-08
"48" 31056 1.63623712796036e-08 2.60473092945317e-09 4.58183603547104e-09 7.31716089174596e-08 3.55212675048022e-07 1.51186720020819e-07 1.63202358422822e-07 8.80348553103073e-08
"49" 31057 1.62064836792295e-08 2.58500965608047e-09 4.58024343865356e-09 7.31597413659784e-08 3.55639457648017e-07 1.51143395418859e-07 1.62378044137626e-07 8.65864499712234e-08
"50" 31058 1.60505960788555e-08 2.56528838270777e-09 4.57865084183608e-09 7.31478738144971e-08 3.56066240248012e-07 1.51100070816899e-07 1.6155372985243e-07 8.51380446321396e-08
"51" 31059 1.58947084784815e-08 2.54556710933507e-09 4.57705824501859e-09 7.31360062630159e-08 3.56493022848007e-07 1.51056746214939e-07 1.60729415567234e-07 8.36896392930558e-08
"52" 31060 1.57388208781074e-08 2.52584583596236e-09 4.57546564820111e-09 7.31241387115346e-08 3.56919805448003e-07 1.51013421612979e-07 1.59905101282037e-07 8.22412339539719e-08
"53" 31061 1.55829332777334e-08 2.50612456258966e-09 4.57387305138363e-09 7.31122711600534e-08 3.57346588047998e-07 1.50970097011019e-07 1.59080786996841e-07 8.07928286148881e-08
"54" 31062 1.54270456773594e-08 2.48640328921696e-09 4.57228045456615e-09 7.31004036085721e-08 3.57773370647993e-07 1.50926772409059e-07 1.58256472711645e-07 7.93444232758043e-08
"55" 31063 1.52711580769853e-08 2.46668201584426e-09 4.57068785774867e-09 7.30885360570908e-08 3.58200153247989e-07 1.50883447807098e-07 1.57432158426449e-07 7.78960179367204e-08
"56" 31064 1.51152704766113e-08 2.44696074247155e-09 4.56909526093119e-09 7.30766685056096e-08 3.58626935847984e-07 1.50840123205138e-07 1.56607844141253e-07 7.64476125976366e-08
"57" 31065 1.50975725472302e-08 2.44723300416171e-09 4.56909526093119e-09 7.31080919324995e-08 3.58820850319193e-07 1.50450761177532e-07 1.56413309604509e-07 7.65119953080258e-08
"58" 31066 1.50698424037631e-08 2.44954604858382e-09 4.56909526093119e-09 7.33383700096752e-08 3.59101348290397e-07 1.5006753556743e-07 1.56203937168959e-07 7.66205598514916e-08
"59" 31067 1.52646925482693e-08 2.45185909300592e-09 4.57312901132391e-09 7.33523617180429e-08 3.59216659311488e-07 1.50015757716148e-07 1.56126006987965e-07 7.77432452734634e-08
"60" 31068 1.54595426927755e-08 2.45417213742803e-09 4.57716276171664e-09 7.33663534264106e-08 3.59331970332579e-07 1.49963979864866e-07 1.56048076806971e-07 7.88659306954353e-08
"61" 31069 1.56543928372817e-08 2.45648518185013e-09 4.58119651210936e-09 7.33803451347782e-08 3.59447281353669e-07 1.49912202013584e-07 1.55970146625977e-07 7.99886161174071e-08
"62" 31070 1.58492429817879e-08 2.45879822627224e-09 4.58523026250209e-09 7.33943368431459e-08 3.5956259237476e-07 1.49860424162301e-07 1.55892216444984e-07 8.1111301539379e-08
"63" 31071 1.60440931262941e-08 2.46111127069434e-09 4.58926401289481e-09 7.34083285515136e-08 3.59677903395851e-07 1.49808646311019e-07 1.5581428626399e-07 8.22339869613509e-08
"64" 31072 1.62389432708003e-08 2.46342431511645e-09 4.59329776328754e-09 7.34223202598813e-08 3.59793214416942e-07 1.49756868459737e-07 1.55736356082996e-07 8.33566723833227e-08
"65" 31073 1.64337934153065e-08 2.46573735953855e-09 4.59733151368026e-09 7.34363119682489e-08 3.59908525438033e-07 1.49705090608455e-07 1.55658425902002e-07 8.44793578052946e-08
"66" 31074 1.66286435598127e-08 2.46805040396065e-09 4.60136526407299e-09 7.34503036766166e-08 3.60023836459124e-07 1.49653312757172e-07 1.55580495721008e-07 8.56020432272664e-08
"67" 31075 1.68234937043189e-08 2.47036344838276e-09 4.60539901446572e-09 7.34642953849843e-08 3.60139147480215e-07 1.4960153490589e-07 1.55502565540015e-07 8.67247286492383e-08
"68" 31076 1.70183438488251e-08 2.47267649280486e-09 4.60943276485844e-09 7.3478287093352e-08 3.60254458501306e-07 1.49549757054608e-07 1.55424635359021e-07 8.78474140712102e-08
"69" 31077 1.72131939933313e-08 2.47498953722697e-09 4.61346651525117e-09 7.34922788017196e-08 3.60369769522397e-07 1.49497979203326e-07 1.55346705178027e-07 8.8970099493182e-08
"70" 31078 1.74291697056415e-08 2.4649229343566e-09 4.61346651525117e-09 7.34869669819961e-08 3.60700143113971e-07 1.49792238777689e-07 1.54905537340568e-07 9.00623319361579e-08
"71" 31079 1.76451454179517e-08 2.45485633148623e-09 4.61346651525117e-09 7.34816551622725e-08 3.61030516705546e-07 1.50086498352053e-07 1.5446436950311e-07 9.11545643791338e-08
"72" 31080 1.76385408422886e-08 2.44247668419375e-09 4.61102536167592e-09 7.36046441160652e-08 3.61035055369201e-07 1.50086498352053e-07 1.53892985511436e-07 9.11492746922068e-08
"73" 31081 1.76319362666255e-08 2.43009703690128e-09 4.60858420810068e-09 7.37276330698578e-08 3.61039594032855e-07 1.50086498352053e-07 1.53321601519762e-07 9.11439850052798e-08
"74" 31082 1.76253316909623e-08 2.4177173896088e-09 4.60614305452543e-09 7.38506220236504e-08 3.6104413269651e-07 1.50086498352053e-07 1.52750217528089e-07 9.11386953183527e-08
"75" 31083 1.76187271152992e-08 2.40533774231633e-09 4.60370190095019e-09 7.3973610977443e-08 3.61048671360165e-07 1.50086498352053e-07 1.52178833536415e-07 9.11334056314257e-08
"76" 31084 1.76148513938453e-08 2.40506548062617e-09 4.60529449776767e-09 7.41110391310546e-08 3.60985379496997e-07 1.49760085984488e-07 1.51189930722541e-07 9.09648376748024e-08
"77" 31085 1.76109756723914e-08 2.40479321893601e-09 4.60688709458515e-09 7.42484672846663e-08 3.60922087633828e-07 1.49433673616923e-07 1.50201027908666e-07 9.07962697181791e-08
"78" 31086 1.76070999509374e-08 2.40452095724584e-09 4.60847969140263e-09 7.43858954382779e-08 3.60858795770659e-07 1.49107261249358e-07 1.49212125094792e-07 9.06277017615558e-08
"79" 31087 1.76100002603722e-08 2.40833026101957e-09 4.60644095347874e-09 7.436951050715e-08 3.60948970416557e-07 1.49033748548206e-07 1.48221040239244e-07 9.07549603259899e-08
"80" 31088 1.7612900569807e-08 2.4121395647933e-09 4.60440221555484e-09 7.43531255760221e-08 3.61039145062455e-07 1.48960235847055e-07 1.47229955383697e-07 9.08822188904241e-08
"81" 31089 1.76158008792417e-08 2.41594886856702e-09 4.60236347763094e-09 7.43367406448942e-08 3.61129319708353e-07 1.48886723145903e-07 1.4623887052815e-07 9.10094774548582e-08
"82" 31090 1.76187011886765e-08 2.41975817234075e-09 4.60032473970705e-09 7.43203557137663e-08 3.6121949435425e-07 1.48813210444752e-07 1.45247785672603e-07 9.11367360192924e-08
"83" 31091 1.76216014981112e-08 2.42356747611447e-09 4.59828600178315e-09 7.43039707826384e-08 3.61309669000148e-07 1.487396977436e-07 1.44256700817056e-07 9.12639945837265e-08
"84" 31092 1.7624501807546e-08 2.4273767798882e-09 4.59624726385925e-09 7.42875858515105e-08 3.61399843646046e-07 1.48666185042449e-07 1.43265615961509e-07 9.13912531481607e-08
"85" 31093 1.76274021169807e-08 2.43118608366192e-09 4.59420852593535e-09 7.42712009203826e-08 3.61490018291944e-07 1.48592672341297e-07 1.42274531105961e-07 9.15185117125948e-08
"86" 31094 1.76303024264155e-08 2.43499538743565e-09 4.59216978801146e-09 7.42548159892547e-08 3.61580192937841e-07 1.48519159640145e-07 1.41283446250414e-07 9.1645770277029e-08
"87" 31095 1.76332027358503e-08 2.43880469120937e-09 4.59013105008756e-09 7.42384310581267e-08 3.61670367583739e-07 1.48445646938994e-07 1.40292361394867e-07 9.17730288414631e-08
"88" 31096 1.7636103045285e-08 2.4426139949831e-09 4.58809231216366e-09 7.42220461269988e-08 3.61760542229637e-07 1.48372134237842e-07 1.3930127653932e-07 9.19002874058973e-08
"89" 31097 1.76390033547198e-08 2.44642329875682e-09 4.58605357423976e-09 7.42056611958709e-08 3.61850716875535e-07 1.48298621536691e-07 1.38310191683773e-07 9.20275459703314e-08
"90" 31098 1.76419036641545e-08 2.45023260253055e-09 4.58401483631587e-09 7.4189276264743e-08 3.61940891521432e-07 1.48225108835539e-07 1.37319106828226e-07 9.21548045347656e-08
"91" 31099 1.74954637971365e-08 2.44225491254377e-09 4.57816097527459e-09 7.41268089221923e-08 3.61801290431331e-07 1.48503765212749e-07 1.37109983833536e-07 9.18552940669559e-08
"92" 31100 1.73490239301185e-08 2.43427722255699e-09 4.57230711423331e-09 7.40643415796415e-08 3.6166168934123e-07 1.48782421589959e-07 1.36900860838846e-07 9.15557835991463e-08
"93" 31101 1.73490239301185e-08 2.4292439211218e-09 4.53640577635013e-09 7.33332887517042e-08 3.61723934224098e-07 1.49005823138431e-07 1.3641898224926e-07 9.17860478256411e-08
"94" 31102 1.73490239301185e-08 2.42421061968662e-09 4.50050443846695e-09 7.26022359237668e-08 3.61786179106966e-07 1.49229224686904e-07 1.35937103659673e-07 9.20163120521358e-08
"95" 31103 1.7439425511128e-08 2.42121574109484e-09 4.46528564207698e-09 7.18734777562697e-08 3.61848423989833e-07 1.49241252151377e-07 1.35576380538386e-07 9.24973144993467e-08
"96" 31104 1.75298270921376e-08 2.41822086250307e-09 4.430066845687e-09 7.11447195887727e-08 3.61910668872701e-07 1.49253279615849e-07 1.35215657417098e-07 9.29783169465575e-08
"97" 31105 1.75843756004501e-08 2.41128172923676e-09 4.39484804929703e-09 7.04444908917823e-08 3.6198368626733e-07 1.49228818406694e-07 1.34763724784135e-07 9.3226732882634e-08
"98" 31106 1.76389241087627e-08 2.40434259597045e-09 4.35962925290705e-09 6.97442621947918e-08 3.62056703661959e-07 1.49204357197539e-07 1.34311792151172e-07 9.34751488187105e-08
"99" 31107 1.76934726170752e-08 2.39740346270413e-09 4.32441045651708e-09 6.90440334978014e-08 3.62129721056588e-07 1.49179895988383e-07 1.33859859518209e-07 9.37235647547869e-08
"100" 31108 1.77480211253877e-08 2.39046432943782e-09 4.2891916601271e-09 6.83438048008109e-08 3.62202738451218e-07 1.49155434779228e-07 1.33407926885246e-07 9.39719806908634e-08
"101" 31109 1.78025696337003e-08 2.3835251961715e-09 4.25397286373713e-09 6.76435761038205e-08 3.62275755845847e-07 1.49130973570072e-07 1.32955994252283e-07 9.42203966269399e-08
"102" 31110 1.78571181420128e-08 2.37658606290519e-09 4.21875406734715e-09 6.69433474068301e-08 3.62348773240476e-07 1.49106512360917e-07 1.3250406161932e-07 9.44688125630163e-08
"103" 31111 1.79116666503253e-08 2.36964692963888e-09 4.18353527095718e-09 6.62431187098396e-08 3.62421790635105e-07 1.49082051151761e-07 1.32052128986357e-07 9.47172284990928e-08
"104" 31112 1.79662151586379e-08 2.36270779637256e-09 4.1483164745672e-09 6.55428900128492e-08 3.62494808029734e-07 1.49057589942606e-07 1.31600196353394e-07 9.49656444351693e-08
"105" 31113 1.79807491140901e-08 2.3609850455939e-09 4.14904274151548e-09 6.55611447730401e-08 3.62680343880684e-07 1.4863310166225e-07 1.31621040059198e-07 9.53039850490052e-08
"106" 31114 1.79952830695424e-08 2.35926229481523e-09 4.14976900846375e-09 6.55793995332311e-08 3.62865879731635e-07 1.48208613381893e-07 1.31641883765003e-07 9.56423256628412e-08
"107" 31115 1.80098170249946e-08 2.35753954403656e-09 4.15049527541203e-09 6.5597654293422e-08 3.63051415582586e-07 1.47784125101537e-07 1.31662727470807e-07 9.59806662766771e-08
"108" 31116 1.80243509804469e-08 2.3558167932579e-09 4.1512215423603e-09 6.5615909053613e-08 3.63236951433537e-07 1.47359636821181e-07 1.31683571176611e-07 9.63190068905131e-08
"109" 31117 1.80388849358991e-08 2.35409404247923e-09 4.15194780930858e-09 6.5634163813804e-08 3.63422487284487e-07 1.46935148540824e-07 1.31704414882416e-07 9.6657347504349e-08
"110" 31118 1.80534188913514e-08 2.35237129170056e-09 4.15267407625686e-09 6.56524185739949e-08 3.63608023135438e-07 1.46510660260468e-07 1.3172525858822e-07 9.69956881181849e-08
"111" 31119 1.80679528468036e-08 2.3506485409219e-09 4.15340034320513e-09 6.56706733341859e-08 3.63793558986389e-07 1.46086171980112e-07 1.31746102294025e-07 9.73340287320209e-08
"112" 31120 1.80824868022558e-08 2.34892579014323e-09 4.15412661015341e-09 6.56889280943768e-08 3.6397909483734e-07 1.45661683699756e-07 1.31766945999829e-07 9.76723693458568e-08
"113" 31121 1.80970207577081e-08 2.34720303936456e-09 4.15485287710168e-09 6.57071828545678e-08 3.6416463068829e-07 1.45237195419399e-07 1.31787789705633e-07 9.80107099596928e-08
"114" 31122 1.81583452969093e-08 2.34325878469002e-09 4.13580392118196e-09 6.51672136347161e-08 3.64324879889947e-07 1.45271289082668e-07 1.3082665080671e-07 9.82390702126883e-08
"115" 31123 1.82196698361105e-08 2.33931453001548e-09 4.11675496526223e-09 6.46272444148643e-08 3.64485129091604e-07 1.45305382745936e-07 1.29865511907786e-07 9.84674304656837e-08
"116" 31124 1.82809943753118e-08 2.33537027534094e-09 4.09770600934251e-09 6.40872751950126e-08 3.64645378293261e-07 1.45339476409205e-07 1.28904373008862e-07 9.86957907186792e-08
"117" 31125 1.8503574663285e-08 2.32925028703364e-09 4.08382837297085e-09 6.35984538005076e-08 3.64632809899897e-07 1.46041690479773e-07 1.27994460242431e-07 9.87816963326547e-08
"118" 31126 1.87252976751304e-08 2.32408203469764e-09 4.06409687555792e-09 6.33183122946466e-08 3.65608220825937e-07 1.46346726629793e-07 1.27066883266661e-07 9.87794796064078e-08
"119" 31127 1.89470206869757e-08 2.31891378236164e-09 4.04436537814499e-09 6.30381707887857e-08 3.66583631751976e-07 1.46651762779813e-07 1.26139306290891e-07 9.87772628801609e-08
"120" 31128 1.91687436988211e-08 2.31374553002564e-09 4.02463388073205e-09 6.27580292829247e-08 3.67559042678016e-07 1.46956798929833e-07 1.25211729315121e-07 9.8775046153914e-08
"121" 31129 1.93904667106665e-08 2.30857727768964e-09 4.00490238331912e-09 6.24778877770638e-08 3.68534453604055e-07 1.47261835079853e-07 1.24284152339351e-07 9.87728294276672e-08
"122" 31130 1.96121897225118e-08 2.30340902535364e-09 3.98517088590619e-09 6.21977462712028e-08 3.69509864530095e-07 1.47566871229873e-07 1.23356575363581e-07 9.87706127014203e-08
"123" 31131 1.98339127343572e-08 2.29824077301764e-09 3.96543938849326e-09 6.19176047653419e-08 3.70485275456134e-07 1.47871907379893e-07 1.22428998387811e-07 9.87683959751734e-08
"124" 31132 2.00556357462025e-08 2.29307252068164e-09 3.94570789108033e-09 6.16374632594809e-08 3.71460686382174e-07 1.48176943529913e-07 1.21501421412041e-07 9.87661792489265e-08
"125" 31133 2.02773587580479e-08 2.28790426834564e-09 3.92597639366739e-09 6.135732175362e-08 3.72436097308214e-07 1.48481979679933e-07 1.20573844436271e-07 9.87639625226796e-08
"126" 31134 2.04990817698932e-08 2.28273601600964e-09 3.90624489625446e-09 6.1077180247759e-08 3.73411508234253e-07 1.48787015829953e-07 1.19646267460501e-07 9.87617457964327e-08
"127" 31135 2.07208047817386e-08 2.27756776367364e-09 3.88651339884153e-09 6.07970387418981e-08 3.74386919160293e-07 1.49092051979973e-07 1.18718690484731e-07 9.87595290701858e-08
"128" 31136 2.0895737209835e-08 2.27462101523351e-09 3.88678463812767e-09 6.10568664558889e-08 3.74449163528743e-07 1.49054992869202e-07 1.17454787802676e-07 9.86271087415016e-08
"129" 31137 2.10706696379313e-08 2.27167426679339e-09 3.88705587741381e-09 6.13166941698796e-08 3.74511407897194e-07 1.49017933758431e-07 1.16190885120621e-07 9.84946884128173e-08
"130" 31138 2.12456020660277e-08 2.26872751835326e-09 3.88732711669994e-09 6.15765218838704e-08 3.74573652265645e-07 1.4898087464766e-07 1.14926982438565e-07 9.83622680841331e-08
"131" 31139 2.14366180282623e-08 2.26891059940572e-09 3.88828089747929e-09 6.15498129612669e-08 3.73932057243351e-07 1.48665716819987e-07 1.13960461360517e-07 9.81939481280026e-08
"132" 31140 2.16276339904969e-08 2.26909368045818e-09 3.88923467825863e-09 6.15231040386634e-08 3.73290462221056e-07 1.48350558992314e-07 1.12993940282468e-07 9.80256281718721e-08
"133" 31141 2.18429330128086e-08 2.26433500060169e-09 3.87018572233891e-09 6.12582947350183e-08 3.71968965488441e-07 1.47648176000024e-07 1.13185710868895e-07 9.80983986462843e-08
"134" 31142 2.19620142226816e-08 2.23799026602742e-09 3.85500450154735e-09 6.11975454170389e-08 3.71100786997018e-07 1.46964724837307e-07 1.13474177225565e-07 9.7864032161897e-08
"135" 31143 2.20810954325547e-08 2.21164553145315e-09 3.83982328075580e-09 6.11367960990596e-08 3.70232608505595e-07 1.46281273674589e-07 1.13762643582236e-07 9.76296656775098e-08
"136" 31144 2.22001766424277e-08 2.18530079687888e-09 3.82464205996424e-09 6.10760467810802e-08 3.69364430014172e-07 1.45597822511871e-07 1.14051109938906e-07 9.73952991931225e-08
"137" 31145 2.23192578523008e-08 2.15895606230461e-09 3.80946083917268e-09 6.10152974631009e-08 3.68496251522749e-07 1.44914371349154e-07 1.14339576295576e-07 9.71609327087353e-08
"138" 31146 2.23085203723454e-08 2.14090940955893e-09 3.79436706929126e-09 6.12032228844503e-08 3.68306776561295e-07 1.4446880788172e-07 1.14268109109794e-07 9.6986733273591e-08
"139" 31147 2.229778289239e-08 2.12286275681325e-09 3.77927329940985e-09 6.13911483057997e-08 3.68117301599841e-07 1.44023244414286e-07 1.14196641924012e-07 9.68125338384467e-08
"140" 31148 2.22870454124345e-08 2.10481610406756e-09 3.76417952952843e-09 6.15790737271491e-08 3.67927826638387e-07 1.43577680946852e-07 1.1412517473823e-07 9.66383344033024e-08
"141" 31149 2.22763079324791e-08 2.08676945132188e-09 3.74908575964701e-09 6.17669991484985e-08 3.67738351676933e-07 1.43132117479419e-07 1.14053707552448e-07 9.64641349681581e-08
"142" 31150 2.22655704525237e-08 2.0687227985762e-09 3.73399198976559e-09 6.19549245698479e-08 3.67548876715479e-07 1.42686554011985e-07 1.13982240366666e-07 9.62899355330139e-08
"143" 31151 2.22548329725683e-08 2.05067614583052e-09 3.71889821988417e-09 6.21428499911974e-08 3.67359401754025e-07 1.42240990544551e-07 1.13910773180883e-07 9.61157360978696e-08
"144" 31152 2.22440954926129e-08 2.03262949308483e-09 3.70380445000276e-09 6.23307754125468e-08 3.67169926792571e-07 1.41795427077117e-07 1.13839305995101e-07 9.59415366627253e-08
"145" 31153 2.22333580126575e-08 2.01458284033915e-09 3.68871068012134e-09 6.25187008338962e-08 3.66980451831117e-07 1.41349863609684e-07 1.13767838809319e-07 9.5767337227581e-08
"146" 31154 2.2222620532702e-08 1.99653618759347e-09 3.67361691023992e-09 6.27066262552456e-08 3.66790976869663e-07 1.4090430014225e-07 1.13696371623537e-07 9.55931377924367e-08
"147" 31155 2.22118830527466e-08 1.97848953484779e-09 3.6585231403585e-09 6.2894551676595e-08 3.66601501908209e-07 1.40458736674816e-07 1.13624904437755e-07 9.54189383572924e-08
"148" 31156 2.22011455727912e-08 1.96044288210211e-09 3.64342937047709e-09 6.30824770979444e-08 3.66412026946754e-07 1.40013173207382e-07 1.13553437251973e-07 9.52447389221482e-08
"149" 31157 2.22478088897451e-08 1.95282899433172e-09 3.63834550183915e-09 6.33288325362529e-08 3.67388636053146e-07 1.38864232488683e-07 1.12954621735969e-07 9.51045602573667e-08
"150" 31158 2.22944722066989e-08 1.94521510656133e-09 3.63326163320122e-09 6.35751879745614e-08 3.68365245159538e-07 1.37715291769983e-07 1.12355806219966e-07 9.49643815925852e-08
"151" 31159 2.23484232709701e-08 1.95736826242676e-09 3.63199288768067e-09 6.37971537912866e-08 3.67349386374239e-07 1.37296487284368e-07 1.11852709840446e-07 9.46964020519828e-08
"152" 31160 2.22961464029318e-08 1.96625663789878e-09 3.68612057706944e-09 6.4023913975556e-08 3.65450135224099e-07 1.36917893820372e-07 1.11503998307433e-07 9.44171477870469e-08
"153" 31161 2.22438695348936e-08 1.97514501337081e-09 3.74024826645821e-09 6.42506741598253e-08 3.63550884073959e-07 1.36539300356376e-07 1.1115528677442e-07 9.4137893522111e-08
"154" 31162 2.23564955301139e-08 1.97514501337081e-09 3.74011709009301e-09 6.45583003293044e-08 3.62196272047992e-07 1.36230764922489e-07 1.1066008731497e-07 9.38014647266354e-08
"155" 31163 2.24691215253342e-08 1.97514501337081e-09 3.7399859137278e-09 6.48659264987835e-08 3.60841660022026e-07 1.35922229488602e-07 1.10164887855519e-07 9.34650359311599e-08
"156" 31164 2.25817475205545e-08 1.97514501337081e-09 3.73985473736259e-09 6.51735526682626e-08 3.5948704799606e-07 1.35613694054715e-07 1.09669688396069e-07 9.31286071356843e-08
"157" 31165 2.26943735157748e-08 1.97514501337081e-09 3.73972356099738e-09 6.54811788377417e-08 3.58132435970094e-07 1.35305158620828e-07 1.09174488936618e-07 9.27921783402087e-08
"158" 31166 2.28069995109951e-08 1.97514501337081e-09 3.73959238463217e-09 6.57888050072208e-08 3.56777823944127e-07 1.34996623186941e-07 1.08679289477168e-07 9.2455749544733e-08
"159" 31167 2.29196255062154e-08 1.97514501337081e-09 3.73946120826696e-09 6.60964311766999e-08 3.55423211918161e-07 1.34688087753054e-07 1.08184090017717e-07 9.21193207492574e-08
"160" 31168 2.30322515014357e-08 1.97514501337081e-09 3.73933003190176e-09 6.6404057346179e-08 3.54068599892195e-07 1.34379552319167e-07 1.07688890558267e-07 9.17828919537819e-08
"161" 31169 2.31448774966559e-08 1.97514501337081e-09 3.73919885553655e-09 6.67116835156581e-08 3.52713987866229e-07 1.3407101688528e-07 1.07193691098816e-07 9.14464631583063e-08
"162" 31170 2.32575034918762e-08 1.97514501337081e-09 3.73906767917134e-09 6.70193096851372e-08 3.51359375840263e-07 1.33762481451393e-07 1.06698491639366e-07 9.11100343628307e-08
"163" 31171 2.34201476781719e-08 1.96625663789878e-09 3.74124648001617e-09 6.73101054125429e-08 3.51281420697178e-07 1.341581312766e-07 1.06435087607544e-07 9.10201783597565e-08
"164" 31172 2.35827918644675e-08 1.95736826242676e-09 3.74342528086099e-09 6.76009011399486e-08 3.51203465554094e-07 1.34553781101808e-07 1.06171683575723e-07 9.09303223566823e-08
"165" 31173 2.37454360507632e-08 1.94847988695473e-09 3.74560408170582e-09 6.78916968673544e-08 3.51125510411009e-07 1.34949430927015e-07 1.05908279543902e-07 9.08404663536082e-08
"166" 31174 2.39080802370588e-08 1.93959151148271e-09 3.74778288255065e-09 6.81824925947601e-08 3.51047555267925e-07 1.35345080752223e-07 1.0564487551208e-07 9.0750610350534e-08
"167" 31175 2.40707244233545e-08 1.93070313601068e-09 3.74996168339547e-09 6.84732883221659e-08 3.5096960012484e-07 1.3574073057743e-07 1.05381471480259e-07 9.06607543474599e-08
"168" 31176 2.42333686096501e-08 1.92181476053865e-09 3.7521404842403e-09 6.87640840495716e-08 3.50891644981756e-07 1.36136380402638e-07 1.05118067448438e-07 9.05708983443857e-08
"169" 31177 2.43960127959458e-08 1.91292638506663e-09 3.75431928508513e-09 6.90548797769773e-08 3.50813689838671e-07 1.36532030227845e-07 1.04854663416616e-07 9.04810423413116e-08
"170" 31178 2.45586569822414e-08 1.9040380095946e-09 3.75649808592996e-09 6.93456755043831e-08 3.50735734695587e-07 1.36927680053053e-07 1.04591259384795e-07 9.03911863382374e-08
"171" 31179 2.46852766406144e-08 1.9040380095946e-09 3.75255178644737e-09 6.95176694275737e-08 3.5039698145492e-07 1.3725287185026e-07 1.04327855352974e-07 9.01345792355002e-08
"172" 31180 2.48118962989874e-08 1.9040380095946e-09 3.74860548696478e-09 6.96896633507643e-08 3.50058228214253e-07 1.37578063647468e-07 1.04064451321152e-07 8.9877972132763e-08
"173" 31181 2.49385159573605e-08 1.9040380095946e-09 3.7446591874822e-09 6.98616572739548e-08 3.49719474973585e-07 1.37903255444675e-07 1.03801047289331e-07 8.96213650300258e-08
"174" 31182 2.49083050116187e-08 1.90476325413886e-09 3.75060049943361e-09 6.99172179751105e-08 3.4882850195232e-07 1.38189695878838e-07 1.03531097132492e-07 8.93569744747755e-08
"175" 31183 2.4878094065877e-08 1.90548849868311e-09 3.75654181138503e-09 6.99727786762662e-08 3.47937528931054e-07 1.38476136313001e-07 1.03261146975652e-07 8.90925839195253e-08
"176" 31184 2.48478831201353e-08 1.90621374322736e-09 3.76248312333644e-09 7.00283393774218e-08 3.47046555909789e-07 1.38762576747164e-07 1.02991196818813e-07 8.8828193364275e-08
"177" 31185 2.4811715712858e-08 1.90693898777161e-09 3.75853682385385e-09 6.99095375732067e-08 3.46302814932183e-07 1.38728612157581e-07 1.03042880113799e-07 8.85364953878248e-08
"178" 31186 2.47755483055807e-08 1.90766423231587e-09 3.75459052437127e-09 6.97907357689915e-08 3.45559073954577e-07 1.38694647567997e-07 1.03094563408784e-07 8.82447974113745e-08
"179" 31187 2.47393808983034e-08 1.90838947686012e-09 3.75064422488868e-09 6.96719339647764e-08 3.44815332976971e-07 1.38660682978414e-07 1.0314624670377e-07 8.79530994349243e-08
"180" 31188 2.47032134910262e-08 1.90911472140437e-09 3.74669792540609e-09 6.95531321605612e-08 3.44071591999365e-07 1.38626718388831e-07 1.03197929998756e-07 8.7661401458474e-08
"181" 31189 2.46670460837489e-08 1.90983996594862e-09 3.74275162592351e-09 6.94343303563461e-08 3.43327851021759e-07 1.38592753799248e-07 1.03249613293741e-07 8.73697034820238e-08
"182" 31190 2.46308786764716e-08 1.91056521049288e-09 3.73880532644092e-09 6.93155285521309e-08 3.42584110044153e-07 1.38558789209664e-07 1.03301296588727e-07 8.70780055055736e-08
"183" 31191 2.45947112691943e-08 1.91129045503713e-09 3.73485902695834e-09 6.91967267479157e-08 3.41840369066547e-07 1.38524824620081e-07 1.03352979883713e-07 8.67863075291233e-08
"184" 31192 2.4558543861917e-08 1.91201569958138e-09 3.73091272747575e-09 6.90779249437006e-08 3.41096628088941e-07 1.38490860030498e-07 1.03404663178698e-07 8.64946095526731e-08
"185" 31193 2.4408489288691e-08 1.90888587008879e-09 3.73286401448951e-09 6.91257539812866e-08 3.41291790626102e-07 1.37533134501352e-07 1.01665407288205e-07 8.5593053839563e-08
"186" 31194 2.43895717277638e-08 1.90752456163799e-09 3.7327328381243e-09 6.90914365980133e-08 3.40703661855666e-07 1.37528792338607e-07 1.01749052347595e-07 8.5621544767367e-08
"187" 31195 2.43706541668365e-08 1.90616325318718e-09 3.73260166175909e-09 6.905711921474e-08 3.4011553308523e-07 1.37524450175861e-07 1.01832697406985e-07 8.5650035695171e-08
"188" 31196 2.43517366059093e-08 1.90480194473638e-09 3.73247048539388e-09 6.90228018314667e-08 3.39527404314793e-07 1.37520108013115e-07 1.01916342466375e-07 8.5678526622975e-08
"189" 31197 2.50802343240192e-08 1.9063873847257e-09 3.73111428896319e-09 6.90201049997232e-08 3.39201819329291e-07 1.37488379041747e-07 1.01901109713848e-07 8.61362513097625e-08
"190" 31198 2.58087320421292e-08 1.90797282471502e-09 3.7297580925325e-09 6.90174081679796e-08 3.3887623434379e-07 1.37456650070379e-07 1.01885876961322e-07 8.659397599655e-08
"191" 31199 2.65372297602392e-08 1.90955826470434e-09 3.72840189610181e-09 6.90147113362361e-08 3.38550649358288e-07 1.37424921099012e-07 1.01870644208796e-07 8.70517006833375e-08
"192" 31200 2.72657274783491e-08 1.91114370469366e-09 3.72704569967112e-09 6.90120145044925e-08 3.38225064372786e-07 1.37393192127644e-07 1.01855411456269e-07 8.7509425370125e-08
"193" 31201 2.79942251964591e-08 1.91272914468298e-09 3.72568950324043e-09 6.9009317672749e-08 3.37899479387284e-07 1.37361463156276e-07 1.01840178703743e-07 8.79671500569125e-08
"194" 31202 2.87227229145691e-08 1.9143145846723e-09 3.72433330680974e-09 6.90066208410054e-08 3.37573894401783e-07 1.37329734184909e-07 1.01824945951216e-07 8.84248747436999e-08
"195" 31203 2.9451220632679e-08 1.91590002466162e-09 3.72297711037904e-09 6.90039240092619e-08 3.37248309416281e-07 1.37298005213541e-07 1.0180971319869e-07 8.88825994304874e-08
"196" 31204 3.02933769097703e-08 1.91748546465094e-09 3.72162091394835e-09 6.89371383922102e-08 3.36511102834982e-07 1.37261137330904e-07 1.01618586829681e-07 8.98062070094463e-08
"197" 31205 3.11355331868616e-08 1.91907090464026e-09 3.72026471751766e-09 6.88703527751585e-08 3.35773896253684e-07 1.37224269448267e-07 1.01427460460673e-07 9.07298145884051e-08
"198" 31206 3.19776894639529e-08 1.92065634462958e-09 3.71890852108697e-09 6.88035671581068e-08 3.35036689672386e-07 1.37187401565629e-07 1.01236334091664e-07 9.1653422167364e-08
"199" 31207 3.28198457410442e-08 1.92224178461891e-09 3.71755232465628e-09 6.87367815410551e-08 3.34299483091088e-07 1.37150533682992e-07 1.01045207722655e-07 9.25770297463228e-08
"200" 31208 3.36620020181355e-08 1.92382722460823e-09 3.71619612822559e-09 6.86699959240034e-08 3.33562276509789e-07 1.37113665800355e-07 1.00854081353647e-07 9.35006373252817e-08
"201" 31209 3.45041582952268e-08 1.92541266459755e-09 3.7148399317949e-09 6.86032103069517e-08 3.32825069928491e-07 1.37076797917717e-07 1.00662954984638e-07 9.44242449042405e-08
"202" 31210 3.53463145723181e-08 1.92699810458687e-09 3.71348373536421e-09 6.85364246899e-08 3.32087863347193e-07 1.3703993003508e-07 1.0047182861563e-07 9.53478524831994e-08
"203" 31211 3.61884708494094e-08 1.92858354457619e-09 3.71212753893352e-09 6.84696390728483e-08 3.31350656765894e-07 1.37003062152443e-07 1.00280702246621e-07 9.62714600621582e-08
"204" 31212 3.70306271265007e-08 1.93016898456551e-09 3.71077134250282e-09 6.84028534557967e-08 3.30613450184596e-07 1.36966194269806e-07 1.00089575877612e-07 9.71950676411171e-08
"205" 31213 3.7872783403592e-08 1.93175442455483e-09 3.70941514607213e-09 6.8336067838745e-08 3.29876243603298e-07 1.36929326387168e-07 9.98984495086037e-08 9.81186752200759e-08
"206" 31214 3.87397851272751e-08 1.91524744153535e-09 3.68997266105678e-09 6.83305549333698e-08 3.29952851835181e-07 1.36832354747884e-07 9.97225558921215e-08 9.9017920415838e-08
"207" 31215 3.96067868509583e-08 1.89874045851588e-09 3.67053017604143e-09 6.83250420279946e-08 3.30029460067063e-07 1.367353831086e-07 9.95466622756392e-08 9.99171656116001e-08
"208" 31216 4.04021967327311e-08 1.901687206956e-09 3.66917397961074e-09 6.79774564254495e-08 3.28379336047526e-07 1.36527755196533e-07 9.90691062302157e-08 1.002457093186e-07
"209" 31217 4.11976066145039e-08 1.90463395539613e-09 3.66781778318005e-09 6.76298708229044e-08 3.26729212027989e-07 1.36320127284466e-07 9.85915501847921e-08 1.00574253025601e-07
"210" 31218 4.19930164962767e-08 1.90758070383626e-09 3.66646158674936e-09 6.72822852203592e-08 3.25079088008452e-07 1.36112499372399e-07 9.81139941393686e-08 1.00902796732601e-07
"211" 31219 4.19252367424227e-08 1.90690122955512e-09 3.67326034201426e-09 6.71770975937885e-08 3.23372555309721e-07 1.35926273231547e-07 9.76507772139137e-08 1.00309032522632e-07
"212" 31220 4.18574569885687e-08 1.90622175527398e-09 3.68005909727916e-09 6.70719099672178e-08 3.2166602261099e-07 1.35740047090695e-07 9.71875602884588e-08 9.97152683126629e-08
"213" 31221 4.18496990640052e-08 1.90622175527398e-09 3.68659549981364e-09 6.69023772470097e-08 3.19931559634812e-07 1.35590755751718e-07 9.67027099497601e-08 9.91760027897084e-08
"214" 31222 4.18419411394416e-08 1.90622175527398e-09 3.69313190234812e-09 6.67328445268015e-08 3.18197096658633e-07 1.3544146441274e-07 9.62178596110614e-08 9.86367372667539e-08
"215" 31223 4.1834183214878e-08 1.90622175527398e-09 3.6996683048826e-09 6.65633118065934e-08 3.16462633682455e-07 1.35292173073763e-07 9.57330092723628e-08 9.80974717437994e-08
"216" 31224 4.18264252903145e-08 1.90622175527398e-09 3.70620470741708e-09 6.63937790863852e-08 3.14728170706277e-07 1.35142881734785e-07 9.52481589336641e-08 9.75582062208448e-08
"217" 31225 4.18186673657509e-08 1.90622175527398e-09 3.71274110995156e-09 6.62242463661771e-08 3.12993707730099e-07 1.34993590395807e-07 9.47633085949654e-08 9.70189406978903e-08
"218" 31226 4.18109094411874e-08 1.90622175527398e-09 3.71927751248605e-09 6.60547136459689e-08 3.1125924475392e-07 1.3484429905683e-07 9.42784582562668e-08 9.64796751749358e-08
"219" 31227 4.18626589802375e-08 1.8947938439528e-09 3.69770883863666e-09 6.54336329096168e-08 3.10493958547025e-07 1.34900315550843e-07 9.43003202636176e-08 9.64170394765226e-08
"220" 31228 4.19144085192876e-08 1.88336593263163e-09 3.67614016478727e-09 6.48125521732647e-08 3.0972867234013e-07 1.34956332044856e-07 9.43221822709683e-08 9.63544037781094e-08
"221" 31229 4.19661580583377e-08 1.87193802131045e-09 3.65457149093788e-09 6.41914714369127e-08 3.08963386133235e-07 1.3501234853887e-07 9.43440442783191e-08 9.62917680796962e-08
"222" 31230 4.20179075973878e-08 1.86051010998928e-09 3.6330028170885e-09 6.35703907005606e-08 3.08198099926339e-07 1.35068365032883e-07 9.43659062856698e-08 9.62291323812831e-08
"223" 31231 4.20696571364379e-08 1.8490821986681e-09 3.61143414323911e-09 6.29493099642085e-08 3.07432813719444e-07 1.35124381526896e-07 9.43877682930206e-08 9.61664966828699e-08
"224" 31232 4.2121406675488e-08 1.83765428734692e-09 3.58986546938972e-09 6.23282292278564e-08 3.06667527512549e-07 1.35180398020909e-07 9.44096303003714e-08 9.61038609844567e-08
"225" 31233 4.21731562145381e-08 1.82622637602575e-09 3.56829679554034e-09 6.17071484915043e-08 3.05902241305654e-07 1.35236414514923e-07 9.44314923077221e-08 9.60412252860435e-08
"226" 31234 4.22249057535883e-08 1.81479846470457e-09 3.54672812169095e-09 6.10860677551522e-08 3.05136955098759e-07 1.35292431008936e-07 9.44533543150729e-08 9.59785895876303e-08
"227" 31235 4.22799114758357e-08 1.81479846470457e-09 3.54350808915664e-09 6.10103824647425e-08 3.02031168420593e-07 1.32454506712874e-07 9.44794349414683e-08 9.58522704517379e-08
"228" 31236 4.23349171980831e-08 1.81479846470457e-09 3.54028805662233e-09 6.09346971743328e-08 2.98925381742427e-07 1.29616582416812e-07 9.45055155678638e-08 9.57259513158455e-08
"229" 31237 4.23899229203305e-08 1.81479846470457e-09 3.53706802408802e-09 6.08590118839231e-08 2.95819595064262e-07 1.2677865812075e-07 9.45315961942592e-08 9.55996321799531e-08
"230" 31238 4.24449286425779e-08 1.81479846470457e-09 3.53384799155371e-09 6.07833265935134e-08 2.92713808386096e-07 1.23940733824688e-07 9.45576768206546e-08 9.54733130440607e-08
"231" 31239 4.24999343648254e-08 1.81479846470457e-09 3.53062795901940e-09 6.07076413031038e-08 2.89608021707931e-07 1.21102809528626e-07 9.45837574470501e-08 9.53469939081682e-08
"232" 31240 4.25549400870728e-08 1.81479846470457e-09 3.52740792648508e-09 6.06319560126941e-08 2.86502235029765e-07 1.18264885232564e-07 9.46098380734455e-08 9.52206747722758e-08
"233" 31241 4.26099458093202e-08 1.81479846470457e-09 3.52418789395077e-09 6.05562707222844e-08 2.83396448351599e-07 1.15426960936502e-07 9.46359186998409e-08 9.50943556363834e-08
"234" 31242 4.26649515315676e-08 1.81479846470457e-09 3.52096786141646e-09 6.04805854318747e-08 2.80290661673434e-07 1.1258903664044e-07 9.46619993262364e-08 9.4968036500491e-08
"235" 31243 4.27199572538151e-08 1.81479846470457e-09 3.51774782888215e-09 6.0404900141465e-08 2.77184874995268e-07 1.09751112344378e-07 9.46880799526318e-08 9.48417173645986e-08
"236" 31244 4.27749629760625e-08 1.81479846470457e-09 3.51452779634784e-09 6.03292148510553e-08 2.74079088317103e-07 1.06913188048316e-07 9.47141605790273e-08 9.47153982287062e-08
"237" 31245 4.28299686983099e-08 1.81479846470457e-09 3.51130776381353e-09 6.02535295606457e-08 2.70973301638937e-07 1.04075263752254e-07 9.47402412054227e-08 9.45890790928138e-08
"238" 31246 4.28849744205573e-08 1.81479846470457e-09 3.50808773127922e-09 6.0177844270236e-08 2.67867514960771e-07 1.01237339456192e-07 9.47663218318181e-08 9.44627599569213e-08
"239" 31247 4.29399801428047e-08 1.81479846470457e-09 3.50486769874491e-09 6.01021589798263e-08 2.64761728282606e-07 9.83994151601304e-08 9.47924024582136e-08 9.43364408210289e-08
"240" 31248 4.29949858650522e-08 1.81479846470457e-09 3.5016476662106e-09 6.00264736894166e-08 2.6165594160444e-07 9.55614908640685e-08 9.4818483084609e-08 9.42101216851365e-08
"241" 31249 4.30664634034788e-08 1.81407322016032e-09 3.49053503471112e-09 5.99371476002766e-08 2.60013297852827e-07 9.27911165381639e-08 9.4818483084609e-08 9.41357678348337e-08
"242" 31250 4.31309298223936e-08 1.81407322016032e-09 3.48758624146294e-09 6.00542786805744e-08 2.61227512779643e-07 9.28781672575055e-08 9.44344431329179e-08 9.42437425862127e-08
"243" 31251 4.32463002843826e-08 1.80319455199653e-09 3.48417353399691e-09 6.0436177705381e-08 2.63360030011652e-07 9.43144408790573e-08 9.36575727540716e-08 9.48275015246924e-08
"244" 31252 4.33616707463716e-08 1.79231588383273e-09 3.48076082653088e-09 6.08180767301876e-08 2.65492547243661e-07 9.57507145006091e-08 9.28807023752252e-08 9.54112604631721e-08
"245" 31253 4.34770412083606e-08 1.78143721566894e-09 3.47734811906485e-09 6.11999757549942e-08 2.6762506447567e-07 9.71869881221609e-08 9.21038319963789e-08 9.59950194016518e-08
"246" 31254 4.35924116703497e-08 1.77055854750515e-09 3.47393541159882e-09 6.15818747798009e-08 2.69757581707678e-07 9.86232617437127e-08 9.13269616175325e-08 9.65787783401315e-08
"247" 31255 4.35279452514348e-08 1.75446349685371e-09 3.47815295036754e-09 6.16109010229188e-08 2.69733042210668e-07 9.85417689926859e-08 9.05558268866737e-08 9.64679021090188e-08
"248" 31256 4.346347883252e-08 1.73836844620227e-09 3.48237048913627e-09 6.16399272660367e-08 2.69708502713657e-07 9.8460276241659e-08 8.97846921558148e-08 9.63570258779061e-08
"249" 31257 4.33990124136052e-08 1.72227339555083e-09 3.48658802790499e-09 6.16689535091546e-08 2.69683963216647e-07 9.83787834906321e-08 8.90135574249559e-08 9.62461496467934e-08
"250" 31258 4.33345459946904e-08 1.7061783448994e-09 3.49080556667372e-09 6.16979797522725e-08 2.69659423719636e-07 9.82972907396052e-08 8.8242422694097e-08 9.61352734156807e-08
"251" 31259 4.32700795757756e-08 1.69008329424796e-09 3.49502310544244e-09 6.17270059953904e-08 2.69634884222625e-07 9.82157979885784e-08 8.74712879632381e-08 9.6024397184568e-08
"252" 31260 4.32056131568608e-08 1.67398824359652e-09 3.49924064421117e-09 6.17560322385083e-08 2.69610344725615e-07 9.81343052375515e-08 8.67001532323792e-08 9.59135209534553e-08
"253" 31261 4.3141146737946e-08 1.65789319294508e-09 3.50345818297989e-09 6.17850584816262e-08 2.69585805228604e-07 9.80528124865246e-08 8.59290185015203e-08 9.58026447223426e-08
"254" 31262 4.306084100442e-08 1.63885139385352e-09 3.48767298504954e-09 6.17890238659839e-08 2.69344209074592e-07 9.75969872206449e-08 8.51757557530745e-08 9.56834097660533e-08
"255" 31263 4.2980535270894e-08 1.61980959476195e-09 3.4718877871192e-09 6.17929892503415e-08 2.6910261292058e-07 9.71411619547652e-08 8.44224930046287e-08 9.5564174809764e-08
"256" 31264 4.29002295373679e-08 1.60076779567039e-09 3.45610258918885e-09 6.17969546346992e-08 2.68861016766568e-07 9.66853366888855e-08 8.36692302561829e-08 9.54449398534746e-08
"257" 31265 4.28199238038419e-08 1.58172599657882e-09 3.44031739125851e-09 6.18009200190569e-08 2.68619420612556e-07 9.62295114230058e-08 8.29159675077371e-08 9.53257048971853e-08
"258" 31266 4.27396180703159e-08 1.56268419748726e-09 3.42453219332816e-09 6.18048854034146e-08 2.68377824458545e-07 9.57736861571261e-08 8.21627047592914e-08 9.5206469940896e-08
"259" 31267 4.26593123367899e-08 1.54364239839569e-09 3.40874699539782e-09 6.18088507877723e-08 2.68136228304533e-07 9.53178608912464e-08 8.14094420108456e-08 9.50872349846066e-08
"260" 31268 4.25790066032639e-08 1.52460059930412e-09 3.39296179746747e-09 6.18128161721299e-08 2.67894632150521e-07 9.48620356253667e-08 8.06561792623998e-08 9.49680000283173e-08
"261" 31269 4.24987008697379e-08 1.50555880021256e-09 3.37717659953712e-09 6.18167815564876e-08 2.67653035996509e-07 9.4406210359487e-08 7.9902916513954e-08 9.4848765072028e-08
"262" 31270 4.24868165225377e-08 1.5043348025511e-09 3.37717659953712e-09 6.17842620610434e-08 2.67840118609712e-07 9.42780483499886e-08 7.98326961981045e-08 9.48469811763446e-08
"263" 31271 4.24749321753375e-08 1.50311080488964e-09 3.37717659953712e-09 6.17517425655991e-08 2.68027201222915e-07 9.41498863404901e-08 7.97624758822549e-08 9.48451972806611e-08
"264" 31272 4.24749321753375e-08 1.50379027917078e-09 3.3749977986923e-09 6.15187036374695e-08 2.67652138673008e-07 9.4040339106003e-08 7.96111874538494e-08 9.48026686684595e-08
"265" 31273 4.24749321753375e-08 1.50446975345192e-09 3.37281899784747e-09 6.12856647093399e-08 2.67277076123102e-07 9.39307918715158e-08 7.94598990254438e-08 9.47601400562579e-08
"266" 31274 4.24749321753375e-08 1.50514922773305e-09 3.37064019700264e-09 6.10526257812102e-08 2.66902013573195e-07 9.38212446370287e-08 7.93086105970383e-08 9.47176114440562e-08
"267" 31275 4.24749321753375e-08 1.50582870201419e-09 3.36846139615782e-09 6.08195868530806e-08 2.66526951023289e-07 9.37116974025415e-08 7.91573221686327e-08 9.46750828318546e-08
"268" 31276 4.24749321753375e-08 1.50650817629533e-09 3.36628259531299e-09 6.0586547924951e-08 2.66151888473382e-07 9.36021501680544e-08 7.90060337402272e-08 9.46325542196529e-08
"269" 31277 4.24749321753375e-08 1.50718765057646e-09 3.36410379446816e-09 6.03535089968214e-08 2.65776825923476e-07 9.34926029335673e-08 7.88547453118216e-08 9.45900256074513e-08
"270" 31278 4.25387660926843e-08 1.50718765057646e-09 3.36219623290947e-09 6.02385267139899e-08 2.66518969327279e-07 9.34120455343265e-08 7.87159257370671e-08 9.47584511219745e-08
"271" 31279 4.26026000100311e-08 1.50718765057646e-09 3.36028867135078e-09 6.01235444311585e-08 2.67261112731082e-07 9.33314881350856e-08 7.85771061623126e-08 9.49268766364977e-08
"272" 31280 4.26741918519415e-08 1.51099695435019e-09 3.36218734635375e-09 5.99512548210082e-08 2.66696723230387e-07 9.32932801379829e-08 7.84444586284476e-08 9.48843480242961e-08
"273" 31281 4.27457836938518e-08 1.51480625812392e-09 3.36408602135672e-09 5.9778965210858e-08 2.66132333729691e-07 9.325507214088e-08 7.83118110945825e-08 9.48418194120945e-08
"274" 31282 4.28173755357622e-08 1.51861556189764e-09 3.36598469635969e-09 5.96066756007077e-08 2.65567944228996e-07 9.32168641437772e-08 7.81791635607175e-08 9.47992907998928e-08
"275" 31283 4.28889673776725e-08 1.52242486567137e-09 3.36788337136265e-09 5.94343859905574e-08 2.65003554728301e-07 9.31786561466744e-08 7.80465160268524e-08 9.47567621876912e-08
"276" 31284 4.29605592195829e-08 1.52623416944509e-09 3.36978204636562e-09 5.92620963804071e-08 2.64439165227606e-07 9.31404481495716e-08 7.79138684929874e-08 9.47142335754895e-08
"277" 31285 4.30321510614933e-08 1.53004347321882e-09 3.37168072136859e-09 5.90898067702569e-08 2.63874775726911e-07 9.31022401524688e-08 7.77812209591224e-08 9.46717049632879e-08
"278" 31286 4.31037429034036e-08 1.53385277699254e-09 3.37357939637156e-09 5.89175171601066e-08 2.63310386226216e-07 9.3064032155366e-08 7.76485734252573e-08 9.46291763510863e-08
"279" 31287 4.3175334745314e-08 1.53766208076627e-09 3.37547807137452e-09 5.87452275499563e-08 2.6274599672552e-07 9.30258241582632e-08 7.75159258913923e-08 9.45866477388846e-08
"280" 31288 4.32469265872244e-08 1.54147138453999e-09 3.37737674637749e-09 5.85729379398061e-08 2.62181607224825e-07 9.29876161611604e-08 7.73832783575272e-08 9.4544119126683e-08
"281" 31289 4.33185184291347e-08 1.54528068831372e-09 3.37927542138046e-09 5.84006483296558e-08 2.6161721772413e-07 9.29494081640576e-08 7.72506308236622e-08 9.45015905144813e-08
"282" 31290 4.33901102710451e-08 1.54908999208744e-09 3.38117409638343e-09 5.82283587195055e-08 2.61052828223435e-07 9.29112001669548e-08 7.71179832897971e-08 9.44590619022797e-08
"283" 31291 4.34617021129554e-08 1.55289929586117e-09 3.38307277138639e-09 5.80560691093552e-08 2.6048843872274e-07 9.2872992169852e-08 7.69853357559321e-08 9.44165332900781e-08
"284" 31292 4.35031973126078e-08 1.55593758482753e-09 3.37804151475925e-09 5.80198592369448e-08 2.60429935156993e-07 9.29426614613749e-08 7.68897829305025e-08 9.43740046778764e-08
"285" 31293 4.35589498399069e-08 1.54387596948833e-09 3.37301025813212e-09 5.80824291028273e-08 2.60369885137645e-07 9.23712497811999e-08 7.68892010218581e-08 9.43678085236845e-08
"286" 31294 4.36285752452194e-08 1.54387596948833e-09 3.37613395320057e-09 5.81357730262944e-08 2.60219610586798e-07 9.23109452668424e-08 7.68892010218581e-08 9.43034258132953e-08
"287" 31295 4.36982006505319e-08 1.54387596948833e-09 3.37925764826902e-09 5.81891169497614e-08 2.60069336035952e-07 9.2250640752485e-08 7.68892010218581e-08 9.42390431029061e-08
"288" 31296 4.37678260558443e-08 1.54387596948833e-09 3.38238134333747e-09 5.82424608732285e-08 2.59919061485106e-07 9.21903362381275e-08 7.68892010218581e-08 9.41746603925169e-08
"289" 31297 4.38374514611568e-08 1.54387596948833e-09 3.38550503840592e-09 5.82958047966956e-08 2.59768786934259e-07 9.21300317237701e-08 7.68892010218581e-08 9.41102776821277e-08
"290" 31298 4.39070768664693e-08 1.54387596948833e-09 3.38862873347437e-09 5.83491487201627e-08 2.59618512383413e-07 9.20697272094126e-08 7.68892010218581e-08 9.40458949717385e-08
"291" 31299 4.39767022717817e-08 1.54387596948833e-09 3.39175242854282e-09 5.84024926436298e-08 2.59468237832567e-07 9.20094226950552e-08 7.68892010218581e-08 9.39815122613493e-08
"292" 31300 4.40463276770942e-08 1.54387596948833e-09 3.39487612361127e-09 5.84558365670968e-08 2.5931796328172e-07 9.19491181806977e-08 7.68892010218581e-08 9.39171295509601e-08
"293" 31301 4.40451522339785e-08 1.54591439233174e-09 3.40276872257644e-09 5.84919705372614e-08 2.59167688730874e-07 9.21011629501623e-08 7.69510256645215e-08 9.39511397243302e-08
"294" 31302 4.40920285453403e-08 1.54183282686785e-09 3.40399374264192e-09 5.85785278534238e-08 2.59369334749909e-07 9.21472537594446e-08 7.70577796011949e-08 9.40313624566542e-08
"295" 31303 4.41708822079451e-08 1.53870299737527e-09 3.40399374264192e-09 5.85668327860024e-08 2.59314222479016e-07 9.20135926888217e-08 7.70996125542668e-08 9.39687636419484e-08
"296" 31304 4.424973587055e-08 1.53557316788268e-09 3.40399374264192e-09 5.8555137718581e-08 2.59259110208123e-07 9.18799316181988e-08 7.71414455073387e-08 9.39061648272426e-08
"297" 31305 4.43285895331549e-08 1.53244333839009e-09 3.40399374264192e-09 5.85434426511595e-08 2.5920399793723e-07 9.17462705475759e-08 7.71832784604106e-08 9.38435660125368e-08
"298" 31306 4.44074431957597e-08 1.53121934072863e-09 3.39288111114244e-09 5.84132454274944e-08 2.58686291892919e-07 9.15923024496679e-08 7.69847123595471e-08 9.36227965371226e-08
"299" 31307 4.44862968583646e-08 1.52999534306717e-09 3.38176847964296e-09 5.82830482038294e-08 2.58168585848608e-07 9.14383343517599e-08 7.67861462586835e-08 9.34020270617085e-08
"300" 31308 4.45651505209695e-08 1.52877134540571e-09 3.37065584814347e-09 5.81528509801643e-08 2.57650879804297e-07 9.1284366253852e-08 7.658758015782e-08 9.31812575862944e-08
"301" 31309 4.46440041835744e-08 1.52754734774425e-09 3.35954321664399e-09 5.80226537564992e-08 2.57133173759985e-07 9.1130398155944e-08 7.63890140569564e-08 9.29604881108802e-08
"302" 31310 4.47228578461792e-08 1.52632335008279e-09 3.34843058514451e-09 5.78924565328341e-08 2.56615467715674e-07 9.0976430058036e-08 7.61904479560928e-08 9.27397186354661e-08
"303" 31311 4.48017115087841e-08 1.52509935242133e-09 3.33731795364502e-09 5.7762259309169e-08 2.56097761671363e-07 9.0822461960128e-08 7.59918818552292e-08 9.25189491600519e-08
"304" 31312 4.4880565171389e-08 1.52387535475987e-09 3.32620532214554e-09 5.76320620855039e-08 2.55580055627052e-07 9.066849386222e-08 7.57933157543657e-08 9.22981796846378e-08
"305" 31313 4.49493008922951e-08 1.50442162330027e-09 3.23671877344586e-09 5.7029638280646e-08 2.53814271181457e-07 9.02254146307952e-08 7.58748826972015e-08 9.22695106013252e-08
"306" 31314 4.49789403206182e-08 1.48496789184067e-09 3.14845724481167e-09 5.65812020250933e-08 2.52405245077231e-07 8.98191539043945e-08 7.58682118774739e-08 9.2258479955054e-08
"307" 31315 4.50085797489413e-08 1.46551416038106e-09 3.06019571617748e-09 5.61327657695407e-08 2.50996218973006e-07 8.94128931779938e-08 7.58615410577464e-08 9.22474493087828e-08
"308" 31316 4.50382191772644e-08 1.44606042892146e-09 2.97193418754328e-09 5.5684329513988e-08 2.49587192868781e-07 8.90066324515931e-08 7.58548702380189e-08 9.22364186625116e-08
"309" 31317 4.50678586055875e-08 1.42660669746186e-09 2.88367265890909e-09 5.52358932584354e-08 2.48178166764556e-07 8.86003717251924e-08 7.58481994182913e-08 9.22253880162403e-08
"310" 31318 4.50974980339106e-08 1.40715296600225e-09 2.7954111302749e-09 5.47874570028827e-08 2.4676914066033e-07 8.81941109987917e-08 7.58415285985638e-08 9.22143573699691e-08
"311" 31319 4.51271374622337e-08 1.38769923454265e-09 2.70714960164071e-09 5.43390207473301e-08 2.45360114556105e-07 8.7787850272391e-08 7.58348577788363e-08 9.22033267236979e-08
"312" 31320 4.51567768905568e-08 1.36824550308305e-09 2.61888807300651e-09 5.38905844917774e-08 2.4395108845188e-07 8.73815895459903e-08 7.58281869591087e-08 9.21922960774266e-08
"313" 31321 4.51485046003165e-08 1.35015308007425e-09 2.54082023399181e-09 5.34105070051269e-08 2.42097323812372e-07 8.7029973363148e-08 7.63012126872951e-08 9.23187207717118e-08
"314" 31322 4.51402323100762e-08 1.33206065706545e-09 2.4627523949771e-09 5.29304295184763e-08 2.40243559172865e-07 8.66783571803056e-08 7.67742384154815e-08 9.24451454659969e-08
"315" 31323 4.51319600198359e-08 1.31396823405665e-09 2.38468455596239e-09 5.24503520318258e-08 2.38389794533358e-07 8.63267409974633e-08 7.72472641436678e-08 9.2571570160282e-08
"316" 31324 4.51236877295956e-08 1.29587581104786e-09 2.30661671694769e-09 5.19702745451752e-08 2.3653602989385e-07 8.59751248146209e-08 7.77202898718542e-08 9.26979948545671e-08
"317" 31325 4.51154154393553e-08 1.27778338803906e-09 2.22854887793298e-09 5.14901970585247e-08 2.34682265254343e-07 8.56235086317785e-08 7.81933156000406e-08 9.28244195488523e-08
"318" 31326 4.5107143149115e-08 1.25969096503026e-09 2.15048103891828e-09 5.10101195718741e-08 2.32828500614835e-07 8.52718924489362e-08 7.86663413282269e-08 9.29508442431374e-08
"319" 31327 4.50988708588747e-08 1.24159854202146e-09 2.07241319990357e-09 5.05300420852235e-08 2.30974735975328e-07 8.49202762660938e-08 7.91393670564133e-08 9.30772689374225e-08
"320" 31328 4.50940262070572e-08 1.24391158644357e-09 2.08383190958854e-09 5.06522139388652e-08 2.30752092954187e-07 8.49202762660938e-08 7.95408217251409e-08 9.32333457018314e-08
"321" 31329 4.50891815552398e-08 1.24622463086567e-09 2.09525061927351e-09 5.07743857925068e-08 2.30529449933046e-07 8.49202762660938e-08 7.99422763938685e-08 9.33894224662403e-08
"322" 31330 4.50870657576316e-08 1.23647841983711e-09 2.08762037303875e-09 5.0730101268913e-08 2.30503714210468e-07 8.49823973416217e-08 8.01990926071643e-08 9.35428233871241e-08
"323" 31331 4.50849499600233e-08 1.22673220880855e-09 2.079990126804e-09 5.06858167453192e-08 2.3047797848789e-07 8.50445184171496e-08 8.04559088204602e-08 9.36962243080079e-08
"324" 31332 4.50828341624151e-08 1.21698599777998e-09 2.07235988056924e-09 5.06415322217254e-08 2.30452242765312e-07 8.51066394926774e-08 8.0712725033756e-08 9.38496252288917e-08
"325" 31333 4.50807183648068e-08 1.20723978675142e-09 2.06472963433449e-09 5.05972476981316e-08 2.30426507042734e-07 8.51687605682053e-08 8.09695412470519e-08 9.40030261497756e-08
"326" 31334 4.50786025671986e-08 1.19749357572286e-09 2.05709938809973e-09 5.05529631745378e-08 2.30400771320156e-07 8.52308816437332e-08 8.12263574603478e-08 9.41564270706594e-08
"327" 31335 4.50764867695904e-08 1.1877473646943e-09 2.04946914186497e-09 5.0508678650944e-08 2.30375035597579e-07 8.52930027192611e-08 8.14831736736436e-08 9.43098279915432e-08
"328" 31336 4.50743709719821e-08 1.17800115366573e-09 2.04183889563022e-09 5.04643941273502e-08 2.30349299875001e-07 8.5355123794789e-08 8.17399898869395e-08 9.4463228912427e-08
"329" 31337 4.50722551743739e-08 1.17002346367895e-09 2.03420864939546e-09 5.03990121488479e-08 2.31415234234605e-07 8.61120653522459e-08 8.15505883456686e-08 9.45925841252921e-08
"330" 31338 4.50701393767656e-08 1.16204577369217e-09 2.0265784031607e-09 5.03336301703457e-08 2.32481168594209e-07 8.68690069097029e-08 8.13611868043978e-08 9.47219393381573e-08
"331" 31339 4.50800508057122e-08 1.1561065065488e-09 2.02236086439198e-09 5.02038084968979e-08 2.32666106435259e-07 8.78883610435782e-08 8.19193331331764e-08 9.47241309479884e-08
"332" 31340 4.50899622346588e-08 1.15016723940543e-09 2.01814332562326e-09 5.00739868234502e-08 2.3285104427631e-07 8.89077151774534e-08 8.2477479461955e-08 9.47263225578194e-08
"333" 31341 4.50998736636054e-08 1.14422797226207e-09 2.01392578685453e-09 4.99441651500024e-08 2.3303598211736e-07 8.99270693113287e-08 8.30356257907337e-08 9.47285141676505e-08
"334" 31342 4.5109785092552e-08 1.1382887051187e-09 2.00970824808581e-09 4.98143434765547e-08 2.33220919958411e-07 9.09464234452039e-08 8.35937721195123e-08 9.47307057774816e-08
"335" 31343 4.51196965214986e-08 1.13234943797533e-09 2.00549070931708e-09 4.96845218031069e-08 2.33405857799461e-07 9.19657775790792e-08 8.4151918448291e-08 9.47328973873127e-08
"336" 31344 4.51296079504451e-08 1.12641017083196e-09 2.00127317054836e-09 4.95547001296592e-08 2.33590795640512e-07 9.29851317129545e-08 8.47100647770696e-08 9.47350889971438e-08
"337" 31345 4.51395193793917e-08 1.12047090368859e-09 1.99705563177963e-09 4.94248784562114e-08 2.33775733481562e-07 9.40044858468297e-08 8.52682111058483e-08 9.47372806069748e-08
"338" 31346 4.51494308083383e-08 1.11453163654522e-09 1.99283809301091e-09 4.92950567827636e-08 2.33960671322613e-07 9.5023839980705e-08 8.58263574346269e-08 9.47394722168059e-08
"339" 31347 4.51593422372849e-08 1.10859236940186e-09 1.98862055424218e-09 4.91652351093159e-08 2.34145609163663e-07 9.60431941145802e-08 8.63845037634055e-08 9.4741663826637e-08
"340" 31348 4.51692536662315e-08 1.10265310225849e-09 1.98440301547346e-09 4.90354134358681e-08 2.34330547004714e-07 9.70625482484555e-08 8.69426500921842e-08 9.47438554364681e-08
"341" 31349 4.51791650951781e-08 1.09671383511512e-09 1.98018547670473e-09 4.89055917624204e-08 2.34515484845764e-07 9.80819023823307e-08 8.75007964209628e-08 9.47460470462991e-08
"342" 31350 4.51652221021115e-08 1.09671383511512e-09 1.99379187379025e-09 4.89381112578646e-08 2.32604862659546e-07 9.8344314958749e-08 8.77104390926859e-08 9.45140028465515e-08
"343" 31351 4.51812965053459e-08 1.10283382342242e-09 2.00853584003111e-09 4.89690605722173e-08 2.32604862659546e-07 9.91708428643987e-08 8.84815738235448e-08 9.43627935354988e-08
"344" 31352 4.51812965053459e-08 1.10895381172972e-09 2.02214223711663e-09 4.90000098865701e-08 2.32309352209226e-07 1.0010797441796e-07 8.69685232798766e-08 9.29620624716108e-08
"345" 31353 4.51812965053459e-08 1.11507380003702e-09 2.03574863420215e-09 4.90309592009228e-08 2.32013841758907e-07 1.01045105971522e-07 8.54554727362084e-08 9.15613314077229e-08
"346" 31354 4.51812965053459e-08 1.12119378834431e-09 2.04935503128767e-09 4.90619085152755e-08 2.31718331308587e-07 1.01982237525083e-07 8.39424221925403e-08 9.0160600343835e-08
"347" 31355 4.51812965053459e-08 1.12731377665161e-09 2.06296142837319e-09 4.90928578296282e-08 2.31422820858268e-07 1.02919369078645e-07 8.24293716488721e-08 8.87598692799471e-08
"348" 31356 4.51812965053459e-08 1.13343376495891e-09 2.07656782545871e-09 4.91238071439809e-08 2.31127310407948e-07 1.03856500632207e-07 8.0916321105204e-08 8.73591382160592e-08
"349" 31357 4.51812965053459e-08 1.13955375326621e-09 2.09017422254422e-09 4.91547564583336e-08 2.30831799957629e-07 1.04793632185768e-07 7.94032705615358e-08 8.59584071521713e-08
"350" 31358 4.51812965053459e-08 1.14567374157351e-09 2.10378061962974e-09 4.91857057726863e-08 2.30536289507309e-07 1.0573076373933e-07 7.78902200178676e-08 8.45576760882834e-08
"351" 31359 4.52555185105412e-08 1.1497553070374e-09 2.11397430924923e-09 4.93252847042703e-08 2.30962424006038e-07 1.05627722601778e-07 7.60541643805698e-08 8.33479635458553e-08
"352" 31360 4.52595150171346e-08 1.15587529534469e-09 2.11202302223547e-09 4.93844638411581e-08 2.31081875326167e-07 1.06063473434073e-07 7.38214130116094e-08 8.1941261963984e-08
"353" 31361 4.5247373487096e-08 1.16199528365199e-09 2.12562941932099e-09 4.95088012108225e-08 2.30571102762964e-07 1.05956201665838e-07 7.17798503204311e-08 8.10829525778393e-08
"354" 31362 4.52352319570575e-08 1.16811527195929e-09 2.13923581640651e-09 4.96331385804869e-08 2.30060330199761e-07 1.05848929897602e-07 6.97382876292528e-08 8.02246431916945e-08
"355" 31363 4.52230904270189e-08 1.17423526026659e-09 2.15284221349203e-09 4.97574759501512e-08 2.29549557636558e-07 1.05741658129367e-07 6.76967249380745e-08 7.93663338055497e-08
"356" 31364 4.51634115081797e-08 1.18035524857389e-09 2.16862741142237e-09 4.98566745783037e-08 2.29552300830145e-07 1.05737427498682e-07 6.71400124569905e-08 7.97065309121849e-08
"357" 31365 4.51316056121621e-08 1.18543196038366e-09 2.18210263214268e-09 4.98414330163841e-08 2.28422675625455e-07 1.04747176249645e-07 6.72744679741206e-08 8.01819560361369e-08
"358" 31366 4.50997997161446e-08 1.19050867219343e-09 2.19557785286299e-09 4.98261914544646e-08 2.27293050420765e-07 1.03756925000608e-07 6.74089234912506e-08 8.0657381160089e-08
"359" 31367 4.50679938201271e-08 1.1955853840032e-09 2.2090530735833e-09 4.9810949892545e-08 2.26163425216075e-07 1.02766673751571e-07 6.75433790083806e-08 8.1132806284041e-08
"360" 31368 4.50361879241096e-08 1.20066209581297e-09 2.22252829430361e-09 4.97957083306255e-08 2.25033800011385e-07 1.01776422502535e-07 6.76778345255106e-08 8.1608231407993e-08
"361" 31369 4.5004382028092e-08 1.20573880762274e-09 2.23600351502392e-09 4.97804667687059e-08 2.23904174806696e-07 1.00786171253498e-07 6.78122900426407e-08 8.2083656531945e-08
"362" 31370 4.49725761320745e-08 1.21081551943251e-09 2.24947873574423e-09 4.97652252067864e-08 2.22774549602006e-07 9.97959200044607e-08 6.79467455597707e-08 8.2559081655897e-08
"363" 31371 4.4940770236057e-08 1.21589223124228e-09 2.26295395646454e-09 4.97499836448668e-08 2.21644924397316e-07 9.88056687554238e-08 6.80812010769007e-08 8.30345067798491e-08
"364" 31372 4.49089643400395e-08 1.22096894305205e-09 2.27642917718485e-09 4.97347420829472e-08 2.20515299192626e-07 9.78154175063869e-08 6.82156565940308e-08 8.35099319038011e-08
"365" 31373 4.49629790377082e-08 1.22019792824468e-09 2.27434671380589e-09 4.97083534878834e-08 2.19615948579936e-07 9.76844875598387e-08 6.80963714949328e-08 8.39174355648434e-08
"366" 31374 4.50169937353769e-08 1.21942691343731e-09 2.27226425042692e-09 4.96819648928196e-08 2.18716597967246e-07 9.75535576132905e-08 6.79770863958348e-08 8.43249392258858e-08
"367" 31375 4.50710084330456e-08 1.21865589862994e-09 2.27018178704795e-09 4.96555762977557e-08 2.17817247354556e-07 9.74226276667423e-08 6.78578012967369e-08 8.47324428869281e-08
"368" 31376 4.51250231307143e-08 1.21788488382257e-09 2.26809932366899e-09 4.96291877026919e-08 2.16917896741866e-07 9.72916977201941e-08 6.77385161976389e-08 8.51399465479704e-08
"369" 31377 4.5179037828383e-08 1.21711386901521e-09 2.26601686029002e-09 4.96027991076281e-08 2.16018546129176e-07 9.71607677736459e-08 6.7619231098541e-08 8.55474502090127e-08
"370" 31378 4.52330525260517e-08 1.21634285420784e-09 2.26393439691105e-09 4.95764105125643e-08 2.15119195516486e-07 9.70298378270977e-08 6.7499945999443e-08 8.59549538700551e-08
"371" 31379 4.52870672237204e-08 1.21557183940047e-09 2.26185193353208e-09 4.95500219175004e-08 2.14219844903796e-07 9.68989078805495e-08 6.73806609003451e-08 8.63624575310974e-08
"372" 31380 4.53410819213891e-08 1.2148008245931e-09 2.25976947015312e-09 4.95236333224366e-08 2.13320494291106e-07 9.67679779340013e-08 6.72613758012471e-08 8.67699611921397e-08
"373" 31381 4.53956395606054e-08 1.21783911355946e-09 2.27359449451398e-09 4.96863027408919e-08 2.12220045989447e-07 9.57771211645742e-08 6.7204642640595e-08 8.67616789865095e-08
"374" 31382 4.54496542582742e-08 1.21783911355946e-09 2.28039324977888e-09 4.97342776414518e-08 2.11263637978995e-07 9.48711639571338e-08 6.71748214044018e-08 8.7105749962697e-08
"375" 31383 4.55036689559429e-08 1.21783911355946e-09 2.28719200504378e-09 4.97822525420118e-08 2.10307229968544e-07 9.39652067496935e-08 6.71450001682086e-08 8.74498209388845e-08
"376" 31384 4.55576836536115e-08 1.21783911355946e-09 2.29399076030868e-09 4.98302274425718e-08 2.09350821958092e-07 9.30592495422531e-08 6.71151789320154e-08 8.7793891915072e-08
"377" 31385 4.56116983512802e-08 1.21783911355946e-09 2.30078951557358e-09 4.98782023431317e-08 2.0839441394764e-07 9.21532923348127e-08 6.70853576958222e-08 8.81379628912595e-08
"378" 31386 4.56209109960131e-08 1.21783911355946e-09 2.29376324647761e-09 4.9989469608417e-08 2.0736977653133e-07 9.21597187356766e-08 6.65282089761614e-08 8.81173174160917e-08
"379" 31387 4.5630123640746e-08 1.21783911355946e-09 2.28673697738164e-09 5.01007368737023e-08 2.06345139115021e-07 9.21661451365405e-08 6.59710602565006e-08 8.8096671940924e-08
"380" 31388 4.57108138239055e-08 1.21861012836683e-09 2.29194313582906e-09 4.98146536700771e-08 2.03687781683475e-07 9.17531504842923e-08 6.55777726154104e-08 8.84507140570251e-08
"381" 31389 4.5791504007065e-08 1.2193811431742e-09 2.29714929427648e-09 4.95285704664519e-08 2.01030424251929e-07 9.13401558320441e-08 6.51844849743203e-08 8.88047561731262e-08
"382" 31390 4.58721941902245e-08 1.22015215798156e-09 2.30235545272389e-09 4.92424872628267e-08 1.98373066820383e-07 9.09271611797958e-08 6.47911973332301e-08 8.91587982892273e-08
"383" 31391 4.5952884373384e-08 1.22092317278893e-09 2.30756161117131e-09 4.89564040592015e-08 1.95715709388837e-07 9.05141665275476e-08 6.439790969214e-08 8.95128404053285e-08
"384" 31392 4.60335745565435e-08 1.2216941875963e-09 2.31276776961873e-09 4.86703208555763e-08 1.9305835195729e-07 9.01011718752993e-08 6.40046220510499e-08 8.98668825214296e-08
"385" 31393 4.6114264739703e-08 1.22246520240367e-09 2.31797392806615e-09 4.83842376519511e-08 1.90400994525744e-07 8.96881772230511e-08 6.36113344099597e-08 9.02209246375307e-08
"386" 31394 4.61949549228625e-08 1.22323621721104e-09 2.32318008651356e-09 4.80981544483259e-08 1.87743637094198e-07 8.92751825708029e-08 6.32180467688696e-08 9.05749667536318e-08
"387" 31395 4.6275645106022e-08 1.2240072320184e-09 2.32838624496098e-09 4.78120712447007e-08 1.85086279662652e-07 8.88621879185546e-08 6.28247591277794e-08 9.09290088697329e-08
"388" 31396 4.64098798096039e-08 1.23579422577891e-09 2.33060877126088e-09 4.73345940079797e-08 1.82257749934937e-07 8.83899484126317e-08 6.24412179549264e-08 9.10742080269633e-08
"389" 31397 4.65441145131858e-08 1.24758121953942e-09 2.33283129756077e-09 4.68571167712587e-08 1.79429220207221e-07 8.79177089067088e-08 6.20576767820734e-08 9.12194071841938e-08
"390" 31398 4.67309625136015e-08 1.25642382474833e-09 2.33300619938105e-09 4.63971451747999e-08 1.76670914692066e-07 8.74418219840793e-08 6.16635994078229e-08 9.14464850467547e-08
"391" 31399 4.69178105140171e-08 1.26526642995724e-09 2.33318110120133e-09 4.59371735783411e-08 1.7391260917691e-07 8.69659350614498e-08 6.12695220335725e-08 9.16735629093155e-08
"392" 31400 4.71046585144328e-08 1.27410903516615e-09 2.33335600302161e-09 4.54772019818823e-08 1.71154303661754e-07 8.64900481388203e-08 6.08754446593221e-08 9.19006407718764e-08
"393" 31401 4.72915065148484e-08 1.28295164037506e-09 2.33353090484188e-09 4.50172303854235e-08 1.68395998146598e-07 8.60141612161908e-08 6.04813672850717e-08 9.21277186344372e-08
"394" 31402 4.74783545152641e-08 1.29179424558397e-09 2.33370580666216e-09 4.45572587889647e-08 1.65637692631442e-07 8.55382742935614e-08 6.00872899108213e-08 9.23547964969981e-08
"395" 31403 4.76652025156797e-08 1.30063685079288e-09 2.33388070848244e-09 4.40972871925059e-08 1.62879387116286e-07 8.50623873709319e-08 5.96932125365709e-08 9.2581874359559e-08
"396" 31404 4.78520505160954e-08 1.30947945600179e-09 2.33405561030272e-09 4.36373155960471e-08 1.6012108160113e-07 8.45865004483024e-08 5.92991351623205e-08 9.28089522221198e-08
"397" 31405 4.8038898516511e-08 1.3183220612107e-09 2.334230512123e-09 4.31773439995883e-08 1.57362776085974e-07 8.41106135256729e-08 5.890505778807e-08 9.30360300846807e-08
"398" 31406 4.82257465169267e-08 1.32716466641961e-09 2.33440541394327e-09 4.27173724031295e-08 1.54604470570818e-07 8.36347266030434e-08 5.85109804138196e-08 9.32631079472416e-08
"399" 31407 4.84125945173423e-08 1.33600727162852e-09 2.33458031576355e-09 4.22574008066707e-08 1.51846165055662e-07 8.3158839680414e-08 5.81169030395692e-08 9.34901858098024e-08
"400" 31408 4.8599442517758e-08 1.34484987683743e-09 2.33475521758383e-09 4.17974292102119e-08 1.49087859540506e-07 8.26829527577845e-08 5.77228256653188e-08 9.37172636723633e-08
"401" 31409 4.8765022071015e-08 1.3516516993144e-09 2.33475521758383e-09 4.17974292102119e-08 1.48791799113985e-07 8.26958980324196e-08 5.78124557363945e-08 9.38624298683169e-08
"402" 31410 4.89546275015108e-08 1.35845352179137e-09 2.33787891265228e-09 4.17801453351694e-08 1.47560128856901e-07 8.16630567754979e-08 5.78932329460701e-08 9.4150100936122e-08
"403" 31411 4.90072407983445e-08 1.36144840038314e-09 2.34172887466901e-09 4.17110690186892e-08 1.46562472142619e-07 8.16678706201602e-08 5.78932329460701e-08 9.42021600128128e-08
"404" 31412 4.90598540951782e-08 1.36444327897491e-09 2.34557883668573e-09 4.1641992702209e-08 1.45564815428338e-07 8.16726844648224e-08 5.78932329460701e-08 9.42542190895035e-08
"405" 31413 4.91124673920119e-08 1.36743815756669e-09 2.34942879870246e-09 4.15729163857288e-08 1.44567158714056e-07 8.16774983094846e-08 5.78932329460701e-08 9.43062781661942e-08
"406" 31414 4.91650806888456e-08 1.37043303615846e-09 2.35327876071918e-09 4.15038400692486e-08 1.43569501999775e-07 8.16823121541469e-08 5.78932329460701e-08 9.43583372428849e-08
"407" 31415 4.92176939856794e-08 1.37342791475023e-09 2.35712872273591e-09 4.14347637527684e-08 1.42571845285493e-07 8.16871259988091e-08 5.78932329460701e-08 9.44103963195756e-08
"408" 31416 4.92703072825131e-08 1.376422793342e-09 2.36097868475264e-09 4.13656874362882e-08 1.41574188571212e-07 8.16919398434713e-08 5.78932329460701e-08 9.44624553962664e-08
"409" 31417 4.93229205793468e-08 1.37941767193378e-09 2.36482864676936e-09 4.12966111198079e-08 1.4057653185693e-07 8.16967536881336e-08 5.78932329460701e-08 9.45145144729571e-08
"410" 31418 4.92355179986962e-08 1.38213792894686e-09 2.37344751268281e-09 4.12233703138243e-08 1.40642965792719e-07 8.19288124908972e-08 5.78600243374539e-08 9.43476723343245e-08
"411" 31419 4.91122909212194e-08 1.37696967661086e-09 2.37426123054123e-09 4.11367883570819e-08 1.39580022408567e-07 8.19104032383851e-08 5.7806055101398e-08 9.43997314110152e-08
"412" 31420 4.89780562176375e-08 1.3710761797306e-09 2.37403371671016e-09 4.10598818147122e-08 1.38575583001695e-07 8.1968958110809e-08 5.79886819235439e-08 9.42328892723826e-08
"413" 31421 4.88438215140556e-08 1.36518268285035e-09 2.37380620287909e-09 4.09829752723424e-08 1.37571143594823e-07 8.20275129832329e-08 5.81713087456897e-08 9.406604713375e-08
"414" 31422 4.88109259025352e-08 1.35656892895702e-09 2.36990362885157e-09 4.089641795618e-08 1.37050844013726e-07 8.20247881414773e-08 5.70392638128976e-08 9.40725348467043e-08
"415" 31423 4.87780302910147e-08 1.34795517506368e-09 2.36600105482405e-09 4.08098606400175e-08 1.36530544432628e-07 8.20220632997216e-08 5.59072188801056e-08 9.40790225596585e-08
"416" 31424 4.87451346794943e-08 1.33934142117035e-09 2.36209848079654e-09 4.07233033238551e-08 1.36010244851531e-07 8.2019338457966e-08 5.47751739473135e-08 9.40855102726127e-08
"417" 31425 4.87122390679739e-08 1.33072766727702e-09 2.35819590676902e-09 4.06367460076927e-08 1.35489945270434e-07 8.20166136162103e-08 5.36431290145215e-08 9.40919979855669e-08
"418" 31426 4.86793434564535e-08 1.32211391338368e-09 2.3542933327415e-09 4.05501886915302e-08 1.34969645689336e-07 8.20138887744547e-08 5.25110840817294e-08 9.40984856985211e-08
"419" 31427 4.86464478449331e-08 1.31350015949035e-09 2.35039075871399e-09 4.04636313753678e-08 1.34449346108239e-07 8.2011163932699e-08 5.13790391489374e-08 9.41049734114754e-08
"420" 31428 4.86135522334126e-08 1.30488640559702e-09 2.34648818468647e-09 4.03770740592054e-08 1.33929046527142e-07 8.20084390909434e-08 5.02469942161453e-08 9.41114611244296e-08
"421" 31429 4.84412057801708e-08 1.29899290871676e-09 2.3264854479874e-09 4.03645805906952e-08 1.32683360165459e-07 8.19460503384679e-08 5.05189809503567e-08 9.35864667669423e-08
"422" 31430 4.82688593269289e-08 1.29309941183651e-09 2.30648271128833e-09 4.03520871221851e-08 1.31437673803775e-07 8.18836615859924e-08 5.0790967684568e-08 9.30614724094551e-08
"423" 31431 4.80995690257878e-08 1.28697942352921e-09 2.29260507491667e-09 4.03690693687501e-08 1.30191987442092e-07 8.20990607781775e-08 5.0959816422915e-08 9.24664085374966e-08
"424" 31432 4.81582530876408e-08 1.28108592664896e-09 2.27282985204867e-09 4.03460281630387e-08 1.2898136304388e-07 8.20458232683216e-08 5.10919444597926e-08 9.19921009975949e-08
"425" 31433 4.82169371494938e-08 1.2751924297687e-09 2.25305462918067e-09 4.03229869573272e-08 1.27770738645667e-07 8.19925857584657e-08 5.12240724966701e-08 9.15177934576932e-08
"426" 31434 4.82756212113468e-08 1.26929893288845e-09 2.23327940631267e-09 4.02999457516158e-08 1.26560114247455e-07 8.19393482486098e-08 5.13562005335476e-08 9.10434859177914e-08
"427" 31435 4.83343052731998e-08 1.2634054360082e-09 2.21350418344467e-09 4.02769045459044e-08 1.25349489849242e-07 8.18861107387539e-08 5.14883285704252e-08 9.05691783778897e-08
"428" 31436 4.83929893350528e-08 1.25751193912794e-09 2.19372896057666e-09 4.0253863340193e-08 1.2413886545103e-07 8.1832873228898e-08 5.16204566073027e-08 9.0094870837988e-08
"429" 31437 4.84516733969058e-08 1.25161844224769e-09 2.17395373770866e-09 4.02308221344816e-08 1.22928241052818e-07 8.17796357190421e-08 5.17525846441802e-08 8.96205632980863e-08
"430" 31438 4.85103574587588e-08 1.24572494536744e-09 2.15417851484066e-09 4.02077809287701e-08 1.21717616654605e-07 8.17263982091862e-08 5.18847126810578e-08 8.91462557581845e-08
"431" 31439 4.85690415206118e-08 1.23983144848719e-09 2.13440329197266e-09 4.01847397230587e-08 1.20506992256393e-07 8.16731606993302e-08 5.20168407179353e-08 8.86719482182828e-08
"432" 31440 4.84435271903013e-08 1.23602450460199e-09 2.11671053248363e-09 4.01642415640933e-08 1.19474124024724e-07 8.21263806675624e-08 5.26389728328546e-08 8.81239201784345e-08
"433" 31441 4.82744369202567e-08 1.22990451629469e-09 2.09774902747404e-09 4.02736962034991e-08 1.18273923556373e-07 8.204960777076e-08 5.26743635088642e-08 8.77109737913724e-08
"434" 31442 4.81053466502122e-08 1.22378452798739e-09 2.07878752246445e-09 4.03831508429049e-08 1.17073723088022e-07 8.19728348739576e-08 5.27097541848739e-08 8.72980274043103e-08
"435" 31443 4.79362563801676e-08 1.21766453968009e-09 2.05982601745486e-09 4.04926054823107e-08 1.15873522619671e-07 8.18960619771552e-08 5.27451448608836e-08 8.68850810172482e-08
"436" 31444 4.77671661101231e-08 1.2115445513728e-09 2.04086451244528e-09 4.06020601217166e-08 1.1467332215132e-07 8.18192890803528e-08 5.27805355368933e-08 8.64721346301861e-08
"437" 31445 4.77544050418279e-08 1.20936881774004e-09 2.04086451244528e-09 4.07298434430532e-08 1.14613721205255e-07 8.17928774715532e-08 5.28122894767818e-08 8.66488568697627e-08
"438" 31446 4.77416439735327e-08 1.20719308410728e-09 2.04086451244528e-09 4.08576267643899e-08 1.1455412025919e-07 8.17664658627535e-08 5.28440434166704e-08 8.68255791093394e-08
"439" 31447 4.77416439735327e-08 1.20692082241712e-09 2.03959576692473e-09 4.0948151445416e-08 1.14240903507351e-07 8.18249044383273e-08 5.28639104115523e-08 8.69441147927188e-08
"440" 31448 4.77416439735327e-08 1.20664856072696e-09 2.03832702140417e-09 4.1038676126442e-08 1.13927686755512e-07 8.18833430139012e-08 5.28837774064343e-08 8.70626504760981e-08
"441" 31449 4.77416439735327e-08 1.2063762990368e-09 2.03705827588362e-09 4.1129200807468e-08 1.13614470003673e-07 8.1941781589475e-08 5.29036444013162e-08 8.71811861594775e-08
"442" 31450 4.77416439735327e-08 1.20610403734663e-09 2.03578953036307e-09 4.1219725488494e-08 1.13301253251834e-07 8.20002201650489e-08 5.29235113961981e-08 8.72997218428568e-08
"443" 31451 4.77416439735327e-08 1.20583177565647e-09 2.03452078484252e-09 4.131025016952e-08 1.12988036499995e-07 8.20586587406228e-08 5.29433783910801e-08 8.74182575262362e-08
"444" 31452 4.77416439735327e-08 1.20555951396631e-09 2.03325203932197e-09 4.14007748505461e-08 1.12674819748156e-07 8.21170973161966e-08 5.2963245385962e-08 8.75367932096155e-08
"445" 31453 4.77416439735327e-08 1.20528725227615e-09 2.03198329380141e-09 4.14912995315721e-08 1.12361602996317e-07 8.21755358917705e-08 5.2983112380844e-08 8.76553288929949e-08
"446" 31454 4.78726224939173e-08 1.21113497889329e-09 2.02967331659138e-09 4.14506501622668e-08 1.12095069495095e-07 8.21783547239639e-08 5.2967318540706e-08 8.75993049077823e-08
"447" 31455 4.80285100942913e-08 1.22663973590129e-09 2.03620971912586e-09 4.1448702450452e-08 1.11686092453402e-07 8.25878405627679e-08 5.29939395108427e-08 8.78211048507077e-08
"448" 31456 4.84779022654544e-08 1.24677294164203e-09 2.04627223238014e-09 4.14970322216611e-08 1.13434121843595e-07 8.32594777955588e-08 5.33374556881679e-08 8.90892005466954e-08
"449" 31457 4.89272944366174e-08 1.26690614738277e-09 2.05633474563442e-09 4.15453619928702e-08 1.15182151233788e-07 8.39311150283496e-08 5.36809718654932e-08 9.03572962426831e-08
"450" 31458 4.93766866077805e-08 1.28703935312351e-09 2.06639725888869e-09 4.15936917640794e-08 1.16930180623982e-07 8.46027522611405e-08 5.40244880428184e-08 9.16253919386709e-08
"451" 31459 4.98260787789435e-08 1.30717255886425e-09 2.07645977214297e-09 4.16420215352885e-08 1.18678210014175e-07 8.52743894939313e-08 5.43680042201436e-08 9.28934876346586e-08
"452" 31460 5.02754709501065e-08 1.32730576460499e-09 2.08652228539725e-09 4.16903513064976e-08 1.20426239404368e-07 8.59460267267222e-08 5.47115203974689e-08 9.41615833306463e-08
"453" 31461 5.07248631212696e-08 1.34743897034573e-09 2.09658479865153e-09 4.17386810777068e-08 1.22174268794561e-07 8.6617663959513e-08 5.50550365747941e-08 9.5429679026634e-08
"454" 31462 5.11742552924326e-08 1.36757217608647e-09 2.10664731190581e-09 4.17870108489159e-08 1.23922298184755e-07 8.72893011923039e-08 5.53985527521194e-08 9.66977747226217e-08
"455" 31463 5.16236474635956e-08 1.38770538182721e-09 2.11670982516009e-09 4.1835340620125e-08 1.25670327574948e-07 8.79609384250947e-08 5.57420689294446e-08 9.79658704186094e-08
"456" 31464 5.20730396347587e-08 1.40783858756796e-09 2.12677233841437e-09 4.18836703913341e-08 1.27418356965141e-07 8.86325756578856e-08 5.60855851067698e-08 9.92339661145971e-08
"457" 31465 5.25224318059217e-08 1.4279717933087e-09 2.13683485166864e-09 4.19320001625433e-08 1.29166386355334e-07 8.93042128906764e-08 5.64291012840951e-08 1.00502061810585e-07
"458" 31466 5.29718239770848e-08 1.44810499904944e-09 2.14689736492292e-09 4.19803299337524e-08 1.30914415745527e-07 8.99758501234673e-08 5.67726174614203e-08 1.01770157506573e-07
"459" 31467 5.34312483623338e-08 1.46619742205823e-09 2.1569598781772e-09 4.18298050546758e-08 1.32575861635727e-07 9.06413509387541e-08 5.71309715375523e-08 1.02994071369484e-07
"460" 31468 5.36680924596096e-08 1.48428984506703e-09 2.16298864103876e-09 4.18955665444072e-08 1.34402494476039e-07 9.09754039952213e-08 5.73578833591277e-08 1.03203864353889e-07
"461" 31469 5.39049365568853e-08 1.50238226807583e-09 2.16901740390031e-09 4.19613280341386e-08 1.3622912731635e-07 9.13094570516885e-08 5.75847951807032e-08 1.03413657338294e-07
"462" 31470 5.41417806541611e-08 1.52047469108463e-09 2.17504616676186e-09 4.202708952387e-08 1.38055760156662e-07 9.16435101081557e-08 5.78117070022786e-08 1.03623450322699e-07
"463" 31471 5.43786247514368e-08 1.53856711409342e-09 2.18107492962341e-09 4.20928510136014e-08 1.39882392996974e-07 9.19775631646228e-08 5.80386188238541e-08 1.03833243307104e-07
"464" 31472 5.46154688487126e-08 1.55665953710222e-09 2.18710369248497e-09 4.21586125033328e-08 1.41709025837285e-07 9.231161622109e-08 5.82655306454295e-08 1.04043036291509e-07
"465" 31473 5.48523129459884e-08 1.57475196011102e-09 2.19313245534652e-09 4.22243739930642e-08 1.43535658677597e-07 9.26456692775572e-08 5.8492442467005e-08 1.04252829275914e-07
"466" 31474 5.50891570432641e-08 1.59284438311982e-09 2.19916121820807e-09 4.22901354827956e-08 1.45362291517909e-07 9.29797223340244e-08 5.87193542885804e-08 1.04462622260319e-07
"467" 31475 5.53260011405399e-08 1.61093680612861e-09 2.20518998106963e-09 4.2355896972527e-08 1.4718892435822e-07 9.33137753904916e-08 5.89462661101559e-08 1.04672415244724e-07
"468" 31476 5.55628452378157e-08 1.62902922913741e-09 2.21121874393118e-09 4.24216584622584e-08 1.49015557198532e-07 9.36478284469587e-08 5.91731779317313e-08 1.04882208229129e-07
"469" 31477 5.53402649498424e-08 1.62698844640547e-09 2.20582879710776e-09 4.23979913395181e-08 1.48742240696069e-07 9.35944841698299e-08 5.90496325972438e-08 1.0376032371603e-07
"470" 31478 5.51156610735293e-08 1.62857388639479e-09 2.199485069505e-09 4.23789135376584e-08 1.48626929674979e-07 9.36266369630313e-08 5.95170058586908e-08 1.0283136954275e-07
"471" 31479 5.4894726405918e-08 1.62626084197268e-09 2.19926644222966e-09 4.24834239855344e-08 1.49163938154244e-07 9.3353223017106e-08 5.93885145579344e-08 1.0175121273298e-07
"472" 31480 5.46737917383067e-08 1.62394779755058e-09 2.19904781495431e-09 4.25879344334104e-08 1.4970094663351e-07 9.30798090711808e-08 5.92600232571779e-08 1.0067105592321e-07
"473" 31481 5.46754373586687e-08 1.62394779755058e-09 2.20127034125421e-09 4.25641441077702e-08 1.50563790040696e-07 9.31006546996191e-08 5.92617481106366e-08 1.00688421243342e-07
"474" 31482 5.46770829790307e-08 1.62394779755058e-09 2.2034928675541e-09 4.254035378213e-08 1.51426633447881e-07 9.31215003280574e-08 5.92634729640952e-08 1.00705786563475e-07
"475" 31483 5.46787285993926e-08 1.62394779755058e-09 2.205715393854e-09 4.25165634564898e-08 1.52289476855066e-07 9.31423459564957e-08 5.92651978175539e-08 1.00723151883608e-07
"476" 31484 5.46803742197546e-08 1.62394779755058e-09 2.2079379201539e-09 4.24927731308496e-08 1.53152320262251e-07 9.3163191584934e-08 5.92669226710125e-08 1.0074051720374e-07
"477" 31485 5.46820198401166e-08 1.62394779755058e-09 2.21016044645379e-09 4.24689828052095e-08 1.54015163669436e-07 9.31840372133723e-08 5.92686475244711e-08 1.00757882523873e-07
"478" 31486 5.46836654604785e-08 1.62394779755058e-09 2.21238297275369e-09 4.24451924795693e-08 1.54878007076622e-07 9.32048828418107e-08 5.92703723779298e-08 1.00775247844006e-07
"479" 31487 5.46853110808405e-08 1.62394779755058e-09 2.21460549905359e-09 4.24214021539291e-08 1.55740850483807e-07 9.3225728470249e-08 5.92720972313884e-08 1.00792613164138e-07
"480" 31488 5.46801806703138e-08 1.61986623208669e-09 2.22045936009486e-09 4.25514249130285e-08 1.56450227381926e-07 9.29936744322739e-08 5.92760041265197e-08 1.00514151963214e-07
"481" 31489 5.46750502597871e-08 1.61578466662281e-09 2.22631322113614e-09 4.26814476721278e-08 1.57159604280044e-07 9.27616203942989e-08 5.9279911021651e-08 1.00235690762289e-07
"482" 31490 5.46699198492603e-08 1.61170310115892e-09 2.23216708217741e-09 4.28114704312272e-08 1.57868981178163e-07 9.25295663563238e-08 5.92838179167824e-08 9.99572295613642e-08
"483" 31491 5.46631438183716e-08 1.60993458011714e-09 2.23420582010131e-09 4.28114704312272e-08 1.58491425377088e-07 9.22698578327794e-08 5.92926707781826e-08 9.96712144665654e-08
"484" 31492 5.46563677874829e-08 1.60816605907536e-09 2.23624455802521e-09 4.28114704312272e-08 1.59113869576012e-07 9.2010149309235e-08 5.93015236395828e-08 9.93851993717667e-08
"485" 31493 5.46495917565943e-08 1.60639753803357e-09 2.2382832959491e-09 4.28114704312272e-08 1.59736313774937e-07 9.17504407856906e-08 5.9310376500983e-08 9.9099184276968e-08
"486" 31494 5.46428157257056e-08 1.60462901699179e-09 2.240322033873e-09 4.28114704312272e-08 1.60358757973862e-07 9.14907322621462e-08 5.93192293623832e-08 9.88131691821693e-08
"487" 31495 5.46360396948169e-08 1.60286049595001e-09 2.2423607717969e-09 4.28114704312272e-08 1.60981202172786e-07 9.12310237386017e-08 5.93280822237834e-08 9.85271540873706e-08
"488" 31496 5.46292636639282e-08 1.60109197490823e-09 2.2443995097208e-09 4.28114704312272e-08 1.61603646371711e-07 9.09713152150573e-08 5.93369350851836e-08 9.82411389925719e-08
"489" 31497 5.46224876330395e-08 1.59932345386645e-09 2.24643824764469e-09 4.28114704312272e-08 1.62226090570635e-07 9.07116066915129e-08 5.93457879465838e-08 9.79551238977731e-08
"490" 31498 5.46157116021508e-08 1.59755493282466e-09 2.24847698556859e-09 4.28114704312272e-08 1.6284853476956e-07 9.04518981679685e-08 5.9354640807984e-08 9.76691088029744e-08
"491" 31499 5.47169234274172e-08 1.59578641178288e-09 2.24924697797194e-09 4.28133156197103e-08 1.63099506638531e-07 9.02503254598028e-08 5.96608544780788e-08 9.73478168340931e-08
"492" 31500 5.47637555503485e-08 1.59170484631899e-09 2.25115453953063e-09 4.28131411551445e-08 1.63048184438642e-07 9.10287770732786e-08 6.03624547011301e-08 9.70330231751586e-08
"493" 31501 5.48105876732798e-08 1.58762328085511e-09 2.25306210108931e-09 4.28129666905788e-08 1.62996862238752e-07 9.18072286867543e-08 6.10640549241814e-08 9.67182295162241e-08
"494" 31502 5.48574197962111e-08 1.58354171539122e-09 2.254969662648e-09 4.28127922260131e-08 1.62945540038863e-07 9.258568030023e-08 6.17656551472326e-08 9.64034358572896e-08
"495" 31503 5.49042519191424e-08 1.57946014992733e-09 2.25687722420669e-09 4.28126177614474e-08 1.62894217838974e-07 9.33641319137057e-08 6.24672553702839e-08 9.6088642198355e-08
"496" 31504 5.48606824610641e-08 1.57334016162004e-09 2.25810224427218e-09 4.28101486364413e-08 1.62842895639084e-07 9.43539576111814e-08 6.30477001250362e-08 9.55231103187045e-08
"497" 31505 5.48171130029858e-08 1.56722017331274e-09 2.25932726433766e-09 4.28076795114352e-08 1.62791573439195e-07 9.53437833086571e-08 6.36281448797884e-08 9.49575784390539e-08
"498" 31506 5.48093966176045e-08 1.56504443967998e-09 2.26055228440314e-09 4.27766809159226e-08 1.62729478727544e-07 9.63700976797609e-08 6.42997991462161e-08 9.46246330705377e-08
"499" 31507 5.48016802322233e-08 1.56286870604722e-09 2.26177730446862e-09 4.27456823204099e-08 1.62667384015894e-07 9.73964120508648e-08 6.49714534126438e-08 9.42916877020215e-08
"500" 31508 5.47939638468421e-08 1.56069297241446e-09 2.26300232453411e-09 4.27146837248972e-08 1.62605289304243e-07 9.84227264219686e-08 6.56431076790715e-08 9.39587423335053e-08
"501" 31509 5.47862474614608e-08 1.5585172387817e-09 2.26422734459959e-09 4.26836851293846e-08 1.62543194592593e-07 9.94490407930725e-08 6.63147619454992e-08 9.36257969649891e-08
"502" 31510 5.47785310760796e-08 1.55634150514895e-09 2.26545236466507e-09 4.26526865338719e-08 1.62481099880942e-07 1.00475355164176e-07 6.69864162119269e-08 9.32928515964729e-08
"503" 31511 5.47708146906983e-08 1.55416577151619e-09 2.26667738473055e-09 4.26216879383593e-08 1.62419005169292e-07 1.0150166953528e-07 6.76580704783545e-08 9.29599062279567e-08
"504" 31512 5.47630983053171e-08 1.55199003788343e-09 2.26790240479604e-09 4.25906893428466e-08 1.62356910457641e-07 1.02527983906384e-07 6.83297247447822e-08 9.26269608594405e-08
"505" 31513 5.47553819199358e-08 1.54981430425067e-09 2.26912742486152e-09 4.25596907473339e-08 1.6229481574599e-07 1.03554298277488e-07 6.90013790112099e-08 9.22940154909242e-08
"506" 31514 5.47476655345546e-08 1.54763857061791e-09 2.270352444927e-09 4.25286921518213e-08 1.6223272103434e-07 1.04580612648592e-07 6.96730332776376e-08 9.1961070122408e-08
"507" 31515 5.47399491491734e-08 1.54546283698515e-09 2.27157746499249e-09 4.24976935563086e-08 1.62170626322689e-07 1.05606927019696e-07 7.03446875440653e-08 9.16281247538918e-08
"508" 31516 5.47322327637921e-08 1.54328710335239e-09 2.27280248505797e-09 4.2466694960796e-08 1.62108531611039e-07 1.06633241390799e-07 7.1016341810493e-08 9.12951793853756e-08
"509" 31517 5.47245163784109e-08 1.54111136971964e-09 2.27402750512345e-09 4.24356963652833e-08 1.62046436899388e-07 1.07659555761903e-07 7.16879960769207e-08 9.09622340168594e-08
"510" 31518 5.47167999930296e-08 1.53893563608688e-09 2.27525252518893e-09 4.24046977697706e-08 1.61984342187738e-07 1.08685870133007e-07 7.23596503433483e-08 9.06292886483432e-08
"511" 31519 5.47090836076484e-08 1.53675990245412e-09 2.27647754525442e-09 4.2373699174258e-08 1.61922247476087e-07 1.09712184504111e-07 7.3031304609776e-08 9.0296343279827e-08
"512" 31520 5.47013672222671e-08 1.53458416882136e-09 2.2777025653199e-09 4.23427005787453e-08 1.61860152764437e-07 1.10738498875215e-07 7.37029588762037e-08 8.99633979113108e-08
"513" 31521 5.46578263400598e-08 1.53263492661565e-09 2.28881519681938e-09 4.23120262717841e-08 1.61690527024753e-07 1.10817185570884e-07 7.36933994628913e-08 8.96654127416991e-08
"514" 31522 5.46361734432677e-08 1.53435767739432e-09 2.29670779578455e-09 4.23792800598553e-08 1.61514168272312e-07 1.11293373736178e-07 7.36675266610117e-08 8.94805099324544e-08
"515" 31523 5.46443885817661e-08 1.53435767739432e-09 2.29806399221525e-09 4.23850906326961e-08 1.61344542532629e-07 1.11238573047733e-07 7.3673241539408e-08 8.91412628513536e-08
"516" 31524 5.46526037202646e-08 1.53435767739432e-09 2.29942018864594e-09 4.23909012055368e-08 1.61174916792945e-07 1.11183772359289e-07 7.36789564178043e-08 8.88020157702528e-08
"517" 31525 5.4660818858763e-08 1.53435767739432e-09 2.30077638507663e-09 4.23967117783776e-08 1.61005291053261e-07 1.11128971670844e-07 7.36846712962006e-08 8.84627686891519e-08
"518" 31526 5.45077782484894e-08 1.53653341102707e-09 2.29696126195925e-09 4.23513745258717e-08 1.61008482908598e-07 1.104060505751e-07 7.36391600421044e-08 8.82659762470711e-08
"519" 31527 5.43555949143437e-08 1.53775740868853e-09 2.29899999988315e-09 4.20973573847217e-08 1.60023695444532e-07 1.10080307399904e-07 7.36113129973472e-08 8.81573061452127e-08
"520" 31528 5.42034115801981e-08 1.53898140634999e-09 2.30103873780705e-09 4.18433402435717e-08 1.59038907980465e-07 1.09754564224708e-07 7.35834659525899e-08 8.80486360433542e-08
"521" 31529 5.40512282460524e-08 1.54020540401145e-09 2.30307747573094e-09 4.15893231024217e-08 1.58054120516399e-07 1.09428821049512e-07 7.35556189078327e-08 8.79399659414958e-08
"522" 31530 5.38990449119067e-08 1.54142940167291e-09 2.30511621365484e-09 4.13353059612717e-08 1.57069333052333e-07 1.09103077874316e-07 7.35277718630754e-08 8.78312958396373e-08
"523" 31531 5.3746861577761e-08 1.54265339933437e-09 2.30715495157874e-09 4.10812888201216e-08 1.56084545588266e-07 1.0877733469912e-07 7.34999248183182e-08 8.77226257377789e-08
"524" 31532 5.35946782436153e-08 1.54387739699583e-09 2.30919368950263e-09 4.08272716789716e-08 1.550997581242e-07 1.08451591523924e-07 7.34720777735609e-08 8.76139556359204e-08
"525" 31533 5.34424949094696e-08 1.54510139465729e-09 2.31123242742653e-09 4.05732545378216e-08 1.54114970660134e-07 1.08125848348728e-07 7.34442307288037e-08 8.7505285534062e-08
"526" 31534 5.3290311575324e-08 1.54632539231875e-09 2.31327116535043e-09 4.03192373966716e-08 1.53130183196067e-07 1.07800105173532e-07 7.34163836840464e-08 8.73966154322035e-08
"527" 31535 5.31381282411783e-08 1.54754938998021e-09 2.31530990327433e-09 4.00652202555216e-08 1.52145395732001e-07 1.07474361998336e-07 7.33885366392892e-08 8.72879453303451e-08
"528" 31536 5.29341888863268e-08 1.55049613842034e-09 2.31607989567767e-09 3.97743939460182e-08 1.51196169601823e-07 1.07177787109685e-07 7.33674435697867e-08 8.73336195003427e-08
"529" 31537 5.27302495314753e-08 1.55344288686046e-09 2.31684988808102e-09 3.94835676365147e-08 1.50246943471646e-07 1.06881212221034e-07 7.33463505002842e-08 8.73792936703403e-08
"530" 31538 5.25062392667961e-08 1.55344288686046e-09 2.31753242957422e-09 3.91993503009408e-08 1.49276968944295e-07 1.06797292623658e-07 7.3298636460645e-08 8.73792936703403e-08
"531" 31539 5.22822290021169e-08 1.55344288686046e-09 2.31821497106743e-09 3.89151329653668e-08 1.48306994416945e-07 1.06713373026282e-07 7.32509224210058e-08 8.73792936703403e-08
"532" 31540 5.20421352032996e-08 1.55031305736788e-09 2.31821497106743e-09 3.89174522663871e-08 1.4804085928034e-07 1.06907552145808e-07 7.290582677736e-08 8.74151932977866e-08
"533" 31541 5.18020414044822e-08 1.54718322787529e-09 2.31821497106743e-09 3.89197715674074e-08 1.47774724143734e-07 1.07101731265334e-07 7.25607311337142e-08 8.74510929252329e-08
"534" 31542 5.15619476056648e-08 1.5440533983827e-09 2.31821497106743e-09 3.89220908684277e-08 1.47508589007129e-07 1.07295910384861e-07 7.22156354900685e-08 8.74869925526791e-08
"535" 31543 5.13218538068474e-08 1.54092356889011e-09 2.31821497106743e-09 3.8924410169448e-08 1.47242453870523e-07 1.07490089504387e-07 7.18705398464227e-08 8.75228921801254e-08
"536" 31544 5.108176000803e-08 1.53779373939753e-09 2.31821497106743e-09 3.89267294704683e-08 1.46976318733918e-07 1.07684268623913e-07 7.15254442027769e-08 8.75587918075716e-08
"537" 31545 5.08416662092127e-08 1.53466390990494e-09 2.31821497106743e-09 3.89290487714887e-08 1.46710183597313e-07 1.07878447743439e-07 7.11803485591312e-08 8.75946914350179e-08
"538" 31546 5.06015724103953e-08 1.53153408041235e-09 2.31821497106743e-09 3.8931368072509e-08 1.46444048460707e-07 1.08072626862966e-07 7.08352529154854e-08 8.76305910624642e-08
"539" 31547 5.04912973014064e-08 1.52010616909117e-09 2.31812752015729e-09 3.86850126342005e-08 1.45499209794133e-07 1.08028918287208e-07 7.08500908142921e-08 8.76063236406675e-08
"540" 31548 5.03810221924174e-08 1.50867825777e-09 2.31804006924715e-09 3.8438657195892e-08 1.44554371127559e-07 1.0798520971145e-07 7.08649287130988e-08 8.75820562188708e-08
"541" 31549 5.03198249200113e-08 1.49734188697505e-09 2.31727007684381e-09 3.82406788294467e-08 1.43621901517715e-07 1.077426324804e-07 7.0935689295527e-08 8.74743875456773e-08
"542" 31550 5.02586276476052e-08 1.48600551618011e-09 2.31650008444046e-09 3.80427004630014e-08 1.4268943190787e-07 1.07500055249351e-07 7.10064498779552e-08 8.73667188724838e-08
"543" 31551 5.01974303751991e-08 1.47466914538516e-09 2.31573009203712e-09 3.78447220965562e-08 1.41756962298026e-07 1.07257478018301e-07 7.10772104603834e-08 8.72590501992903e-08
"544" 31552 5.0136233102793e-08 1.46333277459021e-09 2.31496009963377e-09 3.76467437301109e-08 1.40824492688182e-07 1.07014900787252e-07 7.11479710428116e-08 8.71513815260967e-08
"545" 31553 5.00750358303869e-08 1.45199640379527e-09 2.31419010723043e-09 3.74487653636656e-08 1.39892023078338e-07 1.06772323556202e-07 7.12187316252398e-08 8.70437128529033e-08
"546" 31554 5.00138385579808e-08 1.44066003300032e-09 2.31342011482708e-09 3.72507869972203e-08 1.38959553468494e-07 1.06529746325153e-07 7.1289492207668e-08 8.69360441797097e-08
"547" 31555 4.99526412855747e-08 1.42932366220538e-09 2.31265012242374e-09 3.7052808630775e-08 1.38027083858649e-07 1.06287169094103e-07 7.13602527900962e-08 8.68283755065162e-08
"548" 31556 4.99141931071192e-08 1.41911974854566e-09 2.31183640456532e-09 3.68429627128484e-08 1.37052719089843e-07 1.06014212535729e-07 7.14586318231747e-08 8.66961333333405e-08
"549" 31557 4.98757449286638e-08 1.40891583488595e-09 2.31102268670691e-09 3.66331167949219e-08 1.36078354321037e-07 1.05741255977354e-07 7.15570108562531e-08 8.65638911601648e-08
"550" 31558 4.98372967502084e-08 1.39871192122623e-09 2.31020896884849e-09 3.64232708769953e-08 1.35103989552231e-07 1.05468299418979e-07 7.16553898893315e-08 8.64316489869892e-08
"551" 31559 4.9798848571753e-08 1.38850800756651e-09 2.30939525099008e-09 3.62134249590688e-08 1.34129624783425e-07 1.05195342860605e-07 7.175376892241e-08 8.62994068138135e-08
"552" 31560 4.97604003932976e-08 1.3783040939068e-09 2.30858153313166e-09 3.60035790411422e-08 1.33155260014619e-07 1.0492238630223e-07 7.18521479554884e-08 8.61671646406378e-08
"553" 31561 4.98281801471516e-08 1.37136496064048e-09 2.25237138036392e-09 3.57889387556716e-08 1.33064287610653e-07 1.04609218722237e-07 7.17961421420605e-08 8.60461971917956e-08
"554" 31562 4.98959599010056e-08 1.36442582737417e-09 2.19616122759619e-09 3.5574298470201e-08 1.32973315206688e-07 1.04296051142245e-07 7.17401363286327e-08 8.59252297429534e-08
"555" 31563 4.9798836791601e-08 1.36637506957988e-09 2.19420994058243e-09 3.52787921995206e-08 1.32337703678549e-07 1.03912825532143e-07 7.18306184416422e-08 8.58614368246509e-08
"556" 31564 4.97017136821964e-08 1.36832431178559e-09 2.19225865356867e-09 3.49832859288402e-08 1.3170209215041e-07 1.03529599922041e-07 7.19211005546516e-08 8.57976439063485e-08
"557" 31565 4.96045905727919e-08 1.37027355399131e-09 2.19030736655491e-09 3.46877796581599e-08 1.31066480622271e-07 1.03146374311939e-07 7.20115826676611e-08 8.5733850988046e-08
"558" 31566 4.95074674633873e-08 1.37222279619702e-09 2.18835607954115e-09 3.43922733874795e-08 1.30430869094132e-07 1.02763148701837e-07 7.21020647806705e-08 8.56700580697436e-08
"559" 31567 4.94103443539827e-08 1.37417203840273e-09 2.18640479252739e-09 3.40967671167991e-08 1.29795257565993e-07 1.02379923091735e-07 7.219254689368e-08 8.56062651514411e-08
"560" 31568 4.93132212445782e-08 1.37612128060845e-09 2.18445350551364e-09 3.38012608461187e-08 1.29159646037854e-07 1.01996697481633e-07 7.22830290066895e-08 8.55424722331386e-08
"561" 31569 4.92160981351736e-08 1.37807052281416e-09 2.18250221849988e-09 3.35057545754384e-08 1.28524034509715e-07 1.01613471871531e-07 7.23735111196989e-08 8.54786793148362e-08
"562" 31570 4.91189750257691e-08 1.38001976501987e-09 2.18055093148612e-09 3.3210248304758e-08 1.27888422981576e-07 1.01230246261429e-07 7.24639932327084e-08 8.54148863965337e-08
"563" 31571 4.90603000948199e-08 1.3861421132157e-09 2.17864336992743e-09 3.29215501131528e-08 1.27580342285991e-07 1.00859965925962e-07 7.24561794424458e-08 8.56072520606829e-08
"564" 31572 4.90016251638708e-08 1.39226446141153e-09 2.17673580836874e-09 3.26328519215476e-08 1.27272261590407e-07 1.00489685590496e-07 7.24483656521832e-08 8.5799617724832e-08
"565" 31573 4.88487495271671e-08 1.39611953544837e-09 2.17686698473395e-09 3.22944016211216e-08 1.26810216455706e-07 1.00148685073635e-07 7.24642426221274e-08 8.57556073727019e-08
"566" 31574 4.86958738904633e-08 1.39997460948521e-09 2.17699816109916e-09 3.19559513206955e-08 1.26348171321005e-07 9.98076845567745e-08 7.24801195920717e-08 8.57115970205719e-08
"567" 31575 4.85429982537596e-08 1.40382968352205e-09 2.17712933746437e-09 3.16175010202695e-08 1.25886126186304e-07 9.94666840399139e-08 7.2495996562016e-08 8.56675866684418e-08
"568" 31576 4.83901226170559e-08 1.40768475755889e-09 2.17726051382957e-09 3.12790507198435e-08 1.25424081051604e-07 9.91256835230533e-08 7.25118735319603e-08 8.56235763163117e-08
"569" 31577 4.82372469803522e-08 1.41153983159573e-09 2.17739169019478e-09 3.09406004194175e-08 1.24962035916903e-07 9.87846830061927e-08 7.25277505019046e-08 8.55795659641816e-08
"570" 31578 4.80843713436485e-08 1.41539490563257e-09 2.17752286655999e-09 3.06021501189914e-08 1.24499990782202e-07 9.84436824893321e-08 7.25436274718488e-08 8.55355556120515e-08
"571" 31579 4.79314957069448e-08 1.41924997966942e-09 2.1776540429252e-09 3.02636998185654e-08 1.24037945647501e-07 9.81026819724715e-08 7.25595044417931e-08 8.54915452599214e-08
"572" 31580 4.77786200702411e-08 1.42310505370626e-09 2.17778521929041e-09 2.99252495181394e-08 1.23575900512801e-07 9.77616814556109e-08 7.25753814117374e-08 8.54475349077913e-08
"573" 31581 4.76257444335374e-08 1.4269601277431e-09 2.17791639565562e-09 2.95867992177133e-08 1.231138553781e-07 9.74206809387503e-08 7.25912583816817e-08 8.54035245556612e-08
"574" 31582 4.74728687968336e-08 1.43081520177994e-09 2.17804757202083e-09 2.92483489172873e-08 1.22651810243399e-07 9.70796804218897e-08 7.2607135351626e-08 8.53595142035311e-08
"575" 31583 4.74768237642447e-08 1.43394503127253e-09 2.16829113695203e-09 2.90263318388962e-08 1.22741984889297e-07 9.67774312680737e-08 7.26295584465883e-08 8.53232873039141e-08
"576" 31584 4.74807787316557e-08 1.43707486076511e-09 2.15853470188324e-09 2.88043147605051e-08 1.22832159535195e-07 9.64751821142577e-08 7.26519815415506e-08 8.52870604042971e-08
"577" 31585 4.74847336990667e-08 1.4402046902577e-09 2.14877826681445e-09 2.85822976821139e-08 1.22922334181092e-07 9.61729329604417e-08 7.26744046365129e-08 8.525083350468e-08
"578" 31586 4.74946451280133e-08 1.44333451975029e-09 2.14890944317966e-09 2.85346431090937e-08 1.22865276783331e-07 9.61910888303718e-08 7.23751942796501e-08 8.5241914026263e-08
"579" 31587 4.75045565569599e-08 1.44646434924288e-09 2.14904061954486e-09 2.84869885360734e-08 1.22808219385569e-07 9.6209244700302e-08 7.20759839227874e-08 8.52329945478459e-08
"580" 31588 4.75144679859065e-08 1.44959417873547e-09 2.14917179591007e-09 2.84393339630531e-08 1.22751161987807e-07 9.62274005702321e-08 7.17767735659247e-08 8.52240750694289e-08
"581" 31589 4.75243794148531e-08 1.45272400822805e-09 2.14930297227528e-09 2.83916793900328e-08 1.22694104590045e-07 9.62455564401623e-08 7.14775632090619e-08 8.52151555910118e-08
"582" 31590 4.75342908437997e-08 1.45585383772064e-09 2.14943414864049e-09 2.83440248170125e-08 1.22637047192283e-07 9.62637123100924e-08 7.11783528521992e-08 8.52062361125948e-08
"583" 31591 4.75442022727462e-08 1.45898366721323e-09 2.1495653250057e-09 2.82963702439922e-08 1.22579989794521e-07 9.62818681800226e-08 7.08791424953365e-08 8.51973166341777e-08
"584" 31592 4.75541137016928e-08 1.46211349670582e-09 2.14969650137091e-09 2.82487156709719e-08 1.22522932396759e-07 9.63000240499527e-08 7.05799321384738e-08 8.51883971557607e-08
"585" 31593 4.75640251306394e-08 1.4652433261984e-09 2.14982767773611e-09 2.82010610979516e-08 1.22465874998998e-07 9.63181799198829e-08 7.0280721781611e-08 8.51794776773436e-08
"586" 31594 4.77268121962897e-08 1.47340645712618e-09 2.15675760936622e-09 2.81590919143663e-08 1.22309615513628e-07 9.62850486796013e-08 6.99924424284237e-08 8.52830178059299e-08
"587" 31595 4.78528980440189e-08 1.47857470946218e-09 2.16070390884881e-09 2.8127822272474e-08 1.2212088688139e-07 9.62850486796013e-08 6.96888887835276e-08 8.52593943314821e-08
"588" 31596 4.79789838917481e-08 1.48374296179818e-09 2.16465020833139e-09 2.80965526305816e-08 1.21932158249152e-07 9.62850486796013e-08 6.93853351386316e-08 8.52357708570343e-08
"589" 31597 4.81050697394773e-08 1.48891121413418e-09 2.16859650781398e-09 2.80652829886892e-08 1.21743429616914e-07 9.62850486796013e-08 6.90817814937355e-08 8.52121473825865e-08
"590" 31598 4.74837403081693e-08 1.49113271803005e-09 2.17376782736205e-09 2.80023927952671e-08 1.21292157199741e-07 9.63124354882231e-08 6.88771056607559e-08 8.47592901491552e-08
"591" 31599 4.68624108768613e-08 1.49335422192593e-09 2.17893914691012e-09 2.79395026018449e-08 1.20840884782568e-07 9.63398222968449e-08 6.86724298277764e-08 8.43064329157239e-08
"592" 31600 4.62410814455532e-08 1.4955757258218e-09 2.18411046645819e-09 2.78766124084228e-08 1.20389612365395e-07 9.63672091054667e-08 6.84677539947968e-08 8.38535756822926e-08
"593" 31601 4.56197520142452e-08 1.49779722971767e-09 2.18928178600626e-09 2.78137222150007e-08 1.19938339948223e-07 9.63945959140885e-08 6.82630781618172e-08 8.34007184488613e-08
"594" 31602 4.49984225829372e-08 1.50001873361355e-09 2.19445310555433e-09 2.77508320215786e-08 1.1948706753105e-07 9.64219827227102e-08 6.80584023288377e-08 8.294786121543e-08
"595" 31603 4.43770931516292e-08 1.50224023750942e-09 2.1996244251024e-09 2.76879418281565e-08 1.19035795113877e-07 9.6449369531332e-08 6.78537264958581e-08 8.24950039819987e-08
"596" 31604 4.37557637203212e-08 1.5044617414053e-09 2.20479574465046e-09 2.76250516347343e-08 1.18584522696705e-07 9.64767563399538e-08 6.76490506628785e-08 8.20421467485674e-08
"597" 31605 4.30207757300318e-08 1.50668324530117e-09 2.20996706419853e-09 2.76262502266204e-08 1.18544871875328e-07 9.65092820598452e-08 6.76202684463812e-08 8.11234066229647e-08
"598" 31606 4.24246384881744e-08 1.50301125231679e-09 2.21132326062922e-09 2.76133585478188e-08 1.18871505898799e-07 9.66504467336385e-08 6.75799525479729e-08 8.08446326692923e-08
"599" 31607 4.15576653403621e-08 1.50015604440289e-09 2.21141071153936e-09 2.76992466073101e-08 1.18819486020693e-07 9.6708783306728e-08 6.75428577623749e-08 8.00530561467238e-08
"600" 31608 4.06906921925499e-08 1.497300836489e-09 2.2114981624495e-09 2.77851346668014e-08 1.18767466142587e-07 9.67671198798175e-08 6.75057629767769e-08 7.92614796241552e-08
"601" 31609 3.98237190447377e-08 1.4944456285751e-09 2.21158561335964e-09 2.78710227262927e-08 1.1871544626448e-07 9.6825456452907e-08 6.74686681911789e-08 7.84699031015866e-08
"602" 31610 3.89567458969254e-08 1.49159042066121e-09 2.21167306426978e-09 2.7956910785784e-08 1.18663426386374e-07 9.68837930259964e-08 6.74315734055809e-08 7.76783265790181e-08
"603" 31611 3.80897727491132e-08 1.48873521274731e-09 2.21176051517992e-09 2.80427988452754e-08 1.18611406508268e-07 9.69421295990859e-08 6.73944786199828e-08 7.68867500564495e-08
"604" 31612 3.7222799601301e-08 1.48588000483341e-09 2.21184796609006e-09 2.81286869047667e-08 1.18559386630162e-07 9.70004661721754e-08 6.73573838343848e-08 7.60951735338809e-08
"605" 31613 3.63558264534888e-08 1.48302479691952e-09 2.2119354170002e-09 2.8214574964258e-08 1.18507366752055e-07 9.70588027452649e-08 6.73202890487868e-08 7.53035970113123e-08
"606" 31614 3.54888533056765e-08 1.48016958900562e-09 2.21202286791034e-09 2.83004630237493e-08 1.18455346873949e-07 9.71171393183543e-08 6.72831942631888e-08 7.45120204887438e-08
"607" 31615 3.4677511900024e-08 1.4762711045942e-09 2.21134032641713e-09 2.83144527516111e-08 1.19034898716327e-07 9.80667572414698e-08 6.72904469658399e-08 7.40899223124939e-08
"608" 31616 3.38661704943715e-08 1.47237262018277e-09 2.21065778492392e-09 2.83284424794728e-08 1.19614450558706e-07 9.90163751645853e-08 6.7297699668491e-08 7.36678241362441e-08
"609" 31617 3.30548290887191e-08 1.46847413577135e-09 2.20997524343072e-09 2.83424322073346e-08 1.20194002401084e-07 9.99659930877008e-08 6.7304952371142e-08 7.32457259599942e-08
"610" 31618 3.22434876830666e-08 1.46457565135992e-09 2.20929270193751e-09 2.83564219351964e-08 1.20773554243463e-07 1.00915611010816e-07 6.73122050737931e-08 7.28236277837444e-08
"611" 31619 3.14321462774141e-08 1.4606771669485e-09 2.2086101604443e-09 2.83704116630581e-08 1.21353106085841e-07 1.01865228933932e-07 6.73194577764442e-08 7.24015296074945e-08
"612" 31620 3.14839945073884e-08 1.46040490525834e-09 2.19977266725551e-09 2.81420034149455e-08 1.21989066607414e-07 1.02793445085832e-07 6.73123713591267e-08 7.29017393482141e-08
"613" 31621 3.15358427373626e-08 1.46013264356817e-09 2.19093517406671e-09 2.79135951668329e-08 1.22625027128987e-07 1.03721661237732e-07 6.73052849418091e-08 7.34019490889338e-08
"614" 31622 3.15276691380465e-08 1.45918090759688e-09 2.18236003360833e-09 2.77495320123576e-08 1.23288917928006e-07 1.04612942587758e-07 6.73198319377353e-08 7.38476601426388e-08
"615" 31623 3.15194955387304e-08 1.45822917162558e-09 2.17378489314996e-09 2.75854688578824e-08 1.23952808727026e-07 1.05504223937784e-07 6.73343789336615e-08 7.42933711963438e-08
"616" 31624 3.15113219394142e-08 1.45727743565428e-09 2.16520975269158e-09 2.74214057034072e-08 1.24616699526046e-07 1.0639550528781e-07 6.73489259295878e-08 7.47390822500488e-08
"617" 31625 3.15031483400981e-08 1.45632569968298e-09 2.1566346122332e-09 2.7257342548932e-08 1.25280590325065e-07 1.07286786637836e-07 6.73634729255139e-08 7.51847933037538e-08
"618" 31626 3.1494974740782e-08 1.45537396371168e-09 2.14805947177482e-09 2.70932793944568e-08 1.25944481124085e-07 1.08178067987862e-07 6.73780199214401e-08 7.56305043574589e-08
"619" 31627 3.14868011414658e-08 1.45442222774038e-09 2.13948433131644e-09 2.69292162399816e-08 1.26608371923105e-07 1.09069349337888e-07 6.73925669173664e-08 7.60762154111639e-08
"620" 31628 3.14786275421497e-08 1.45347049176908e-09 2.13090919085806e-09 2.67651530855063e-08 1.27272262722124e-07 1.09960630687914e-07 6.74071139132926e-08 7.65219264648689e-08
"621" 31629 3.14704539428336e-08 1.45251875579779e-09 2.12233405039968e-09 2.66010899310311e-08 1.27936153521144e-07 1.1085191203794e-07 6.74216609092188e-08 7.69676375185739e-08
"622" 31630 3.14152767653606e-08 1.45261029632402e-09 2.11452890234465e-09 2.64135360988872e-08 1.27975654891487e-07 1.11547809722176e-07 6.75000274831146e-08 7.69521946137942e-08
"623" 31631 3.13600995878876e-08 1.45270183685025e-09 2.10672375428961e-09 2.62259822667433e-08 1.2801515626183e-07 1.12243707406411e-07 6.75783940570104e-08 7.69367517090145e-08
"624" 31632 3.1297056664023e-08 1.45787008918625e-09 2.10672375428961e-09 2.60491279762924e-08 1.28017949238133e-07 1.12466783888277e-07 6.75526459498403e-08 7.68822530219999e-08
"625" 31633 3.12340137401584e-08 1.46303834152225e-09 2.10672375428961e-09 2.58722736858414e-08 1.28020742214436e-07 1.12689860370142e-07 6.75268978426703e-08 7.68277543349853e-08
"626" 31634 3.11709708162938e-08 1.46820659385825e-09 2.10672375428961e-09 2.56954193953904e-08 1.28023535190739e-07 1.12912936852007e-07 6.75011497355002e-08 7.67732556479707e-08
"627" 31635 3.11079278924292e-08 1.47337484619425e-09 2.10672375428961e-09 2.55185651049395e-08 1.28026328167042e-07 1.13136013333873e-07 6.74754016283302e-08 7.6718756960956e-08
"628" 31636 3.10448849685646e-08 1.47854309853025e-09 2.10672375428961e-09 2.53417108144885e-08 1.28029121143345e-07 1.13359089815738e-07 6.74496535211601e-08 7.66642582739414e-08
"629" 31637 3.09818420447e-08 1.48371135086625e-09 2.10672375428961e-09 2.51648565240376e-08 1.28031914119648e-07 1.13582166297603e-07 6.742390541399e-08 7.66097595869268e-08
"630" 31638 3.09187991208354e-08 1.48887960320225e-09 2.10672375428961e-09 2.49880022335866e-08 1.28034707095951e-07 1.13805242779468e-07 6.739815730682e-08 7.65552608999122e-08
"631" 31639 3.08557561969708e-08 1.49404785553825e-09 2.10672375428961e-09 2.48111479431356e-08 1.28037500072254e-07 1.14028319261334e-07 6.73724091996499e-08 7.65007622128976e-08
"632" 31640 3.07927132731062e-08 1.49921610787425e-09 2.10672375428961e-09 2.46342936526847e-08 1.28040293048557e-07 1.14251395743199e-07 6.73466610924799e-08 7.6446263525883e-08
"633" 31641 3.07296703492416e-08 1.50438436021025e-09 2.10672375428961e-09 2.44574393622337e-08 1.2804308602486e-07 1.14474472225064e-07 6.73209129853098e-08 7.63917648388684e-08
"634" 31642 3.0666627425377e-08 1.50955261254625e-09 2.10672375428961e-09 2.42805850717827e-08 1.28045879001163e-07 1.1469754870693e-07 6.72951648781397e-08 7.63372661518538e-08
"635" 31643 3.06035845015124e-08 1.51472086488225e-09 2.10672375428961e-09 2.41037307813318e-08 1.28048671977466e-07 1.14920625188795e-07 6.72694167709697e-08 7.62827674648392e-08
"636" 31644 3.05405415776478e-08 1.51988911721825e-09 2.10672375428961e-09 2.39268764908808e-08 1.28051464953769e-07 1.1514370167066e-07 6.72436686637996e-08 7.62282687778246e-08
"637" 31645 3.04774986537832e-08 1.52505736955425e-09 2.10672375428961e-09 2.37500222004298e-08 1.28054257930072e-07 1.15366778152526e-07 6.72179205566296e-08 7.617377009081e-08
"638" 31646 3.04144557299186e-08 1.53022562189025e-09 2.10672375428961e-09 2.35731679099789e-08 1.28057050906375e-07 1.15589854634391e-07 6.71921724494595e-08 7.61192714037954e-08
"639" 31647 3.03514128060541e-08 1.53539387422625e-09 2.10672375428961e-09 2.33963136195279e-08 1.28059843882678e-07 1.15812931116256e-07 6.71664243422894e-08 7.60647727167808e-08
"640" 31648 3.02883698821895e-08 1.54056212656225e-09 2.10672375428961e-09 2.32194593290769e-08 1.28062636858981e-07 1.16036007598122e-07 6.71406762351194e-08 7.60102740297662e-08
"641" 31649 3.02253269583249e-08 1.54573037889825e-09 2.10672375428961e-09 2.3042605038626e-08 1.28065429835284e-07 1.16259084079987e-07 6.71149281279493e-08 7.59557753427516e-08
"642" 31650 3.01458122182811e-08 1.55162387577851e-09 2.11461635325479e-09 2.28793915469053e-08 1.26605079885034e-07 1.16414610591695e-07 6.71152606471747e-08 7.58493113701473e-08
"643" 31651 3.01013530757964e-08 1.55371042877356e-09 2.11470380416492e-09 2.27364278278445e-08 1.25141936958482e-07 1.16292954679132e-07 6.71118317355694e-08 7.61618106129896e-08
"644" 31652 2.9911604765946e-08 1.54554729784579e-09 2.10233131370061e-09 2.24192435053749e-08 1.22856052371306e-07 1.14424533029168e-07 6.71258799526576e-08 7.54585145624657e-08
"645" 31653 2.97218564560956e-08 1.53738416691802e-09 2.0899588232363e-09 2.21020591829053e-08 1.2057016778413e-07 1.12556111379203e-07 6.71399281697457e-08 7.47552185119417e-08
"646" 31654 2.95321081462452e-08 1.52922103599024e-09 2.07758633277198e-09 2.17848748604357e-08 1.18284283196955e-07 1.10687689729239e-07 6.71539763868338e-08 7.40519224614177e-08
"647" 31655 2.93423598363948e-08 1.52105790506247e-09 2.06521384230767e-09 2.14676905379662e-08 1.15998398609779e-07 1.08819268079274e-07 6.7168024603922e-08 7.33486264108937e-08
"648" 31656 2.93324484074482e-08 1.51811115662235e-09 2.0452111056086e-09 2.15033789971853e-08 1.15869570751623e-07 1.08468612801888e-07 6.71763371730227e-08 7.33399655299621e-08
"649" 31657 2.93225369785016e-08 1.51516440818222e-09 2.02520836890953e-09 2.15390674564044e-08 1.15740742893467e-07 1.08117957524502e-07 6.71846497421234e-08 7.33313046490305e-08
"650" 31658 2.9312625549555e-08 1.51221765974209e-09 2.00520563221046e-09 2.15747559156236e-08 1.1561191503531e-07 1.07767302247116e-07 6.7192962311224e-08 7.33226437680989e-08
"651" 31659 2.93027141206084e-08 1.50927091130197e-09 1.98520289551139e-09 2.16104443748427e-08 1.15483087177154e-07 1.0741664696973e-07 6.72012748803247e-08 7.33139828871673e-08
"652" 31660 2.92928026916618e-08 1.50632416286184e-09 1.96520015881232e-09 2.16461328340618e-08 1.15354259318998e-07 1.07065991692344e-07 6.72095874494254e-08 7.33053220062357e-08
"653" 31661 2.92828912627152e-08 1.50337741442171e-09 1.94519742211325e-09 2.1681821293281e-08 1.15225431460842e-07 1.06715336414958e-07 6.72179000185261e-08 7.32966611253041e-08
"654" 31662 2.92729798337687e-08 1.50043066598159e-09 1.92519468541418e-09 2.17175097525001e-08 1.15096603602686e-07 1.06364681137572e-07 6.72262125876268e-08 7.32880002443725e-08
"655" 31663 2.92789077194333e-08 1.50043066598159e-09 1.92519468541418e-09 2.17782590704795e-08 1.15184832401531e-07 1.06388358375039e-07 6.72166531743144e-08 7.32876980886175e-08
"656" 31664 2.92848356050979e-08 1.50043066598159e-09 1.92519468541418e-09 2.18390083884588e-08 1.15273061200376e-07 1.06412035612506e-07 6.72070937610019e-08 7.32873959328626e-08
"657" 31665 2.92907634907625e-08 1.50043066598159e-09 1.92519468541418e-09 2.18997577064382e-08 1.15361289999221e-07 1.06435712849973e-07 6.71975343476895e-08 7.32870937771076e-08
"658" 31666 2.92966913764272e-08 1.50043066598159e-09 1.92519468541418e-09 2.19605070244175e-08 1.15449518798066e-07 1.0645939008744e-07 6.71879749343771e-08 7.32867916213527e-08
"659" 31667 2.93026192620918e-08 1.50043066598159e-09 1.92519468541418e-09 2.20212563423969e-08 1.15537747596911e-07 1.06483067324907e-07 6.71784155210647e-08 7.32864894655977e-08
"660" 31668 2.93085471477564e-08 1.50043066598159e-09 1.92519468541418e-09 2.20820056603762e-08 1.15625976395756e-07 1.06506744562374e-07 6.71688561077523e-08 7.32861873098427e-08
"661" 31669 2.9314475033421e-08 1.50043066598159e-09 1.92519468541418e-09 2.21427549783556e-08 1.15714205194601e-07 1.06530421799841e-07 6.71592966944398e-08 7.32858851540878e-08
"662" 31670 2.93204029190856e-08 1.50043066598159e-09 1.92519468541418e-09 2.22035042963349e-08 1.15802433993446e-07 1.06554099037308e-07 6.71497372811274e-08 7.32855829983328e-08
"663" 31671 2.93263308047503e-08 1.50043066598159e-09 1.92519468541418e-09 2.22642536143143e-08 1.15890662792291e-07 1.06577776274775e-07 6.7140177867815e-08 7.32852808425779e-08
"664" 31672 2.93322586904149e-08 1.50043066598159e-09 1.92519468541418e-09 2.23250029322936e-08 1.15978891591136e-07 1.06601453512241e-07 6.71306184545026e-08 7.32849786868229e-08
"665" 31673 2.97725239444579e-08 1.50559891831759e-09 1.93131978574159e-09 2.2321037547936e-08 1.15990063084814e-07 1.06603728978493e-07 6.71164663380169e-08 7.35417270613613e-08
"666" 31674 3.02127891985008e-08 1.51076717065359e-09 1.937444886069e-09 2.23170721635783e-08 1.16001234578493e-07 1.06606004444745e-07 6.71023142215313e-08 7.37984754358996e-08
"667" 31675 3.0322229125577e-08 1.51389700014617e-09 1.94655361854394e-09 2.24013841004603e-08 1.15857394035453e-07 1.06653924592033e-07 6.7073324206239e-08 7.3804143798128e-08
"668" 31676 3.04316690526533e-08 1.51702682963876e-09 1.95566235101887e-09 2.24856960373424e-08 1.15713553492414e-07 1.06701844739321e-07 6.70443341909466e-08 7.38098121603563e-08
"669" 31677 3.05411089797295e-08 1.52015665913135e-09 1.96477108349381e-09 2.25700079742244e-08 1.15569712949375e-07 1.06749764886608e-07 6.70153441756543e-08 7.38154805225847e-08
