"time" "channel1" "channel2" "channel3" "channel4" "channel5" "channel6" "channel7" "channel8"
"2153" 40875 3.08048421227628e-08 7.56979274760132e-09 8.84760140297098e-08 2.33316401337935e-07 7.20868699434348e-08 2.07691204940746e-07 1.41861124482764e-07 2.0006837242773e-07
"2154" 40876 3.0802818534423e-08 7.57586932553404e-09 8.8355062309171e-08 2.33398422575388e-07 7.22217325188307e-08 2.07412236273764e-07 1.41991028938786e-07 1.99914017558881e-07
"2155" 40877 3.08007949460833e-08 7.58194590346675e-09 8.82341105886323e-08 2.33480443812842e-07 7.23565950942265e-08 2.07133267606782e-07 1.42120933394809e-07 1.99759662690032e-07
"2156" 40878 3.07987713577435e-08 7.58802248139946e-09 8.81131588680935e-08 2.33562465050296e-07 7.24914576696224e-08 2.068542989398e-07 1.42250837850832e-07 1.99605307821184e-07
"2157" 40879 3.07967477694038e-08 7.59409905933218e-09 8.79922071475547e-08 2.33644486287749e-07 7.26263202450183e-08 2.06575330272818e-07 1.42380742306854e-07 1.99450952952335e-07
"2158" 40880 3.0794724181064e-08 7.60017563726489e-09 8.78712554270159e-08 2.33726507525203e-07 7.27611828204141e-08 2.06296361605836e-07 1.42510646762877e-07 1.99296598083486e-07
"2159" 40881 3.07927005927242e-08 7.60625221519761e-09 8.77503037064771e-08 2.33808528762656e-07 7.289604539581e-08 2.06017392938854e-07 1.42640551218899e-07 1.99142243214638e-07
"2160" 40882 3.07906770043845e-08 7.61232879313032e-09 8.76293519859383e-08 2.3389055000011e-07 7.30309079712059e-08 2.05738424271872e-07 1.42770455674922e-07 1.98987888345789e-07
"2161" 40883 3.07886534160447e-08 7.61840537106304e-09 8.75084002653995e-08 2.33972571237563e-07 7.31657705466017e-08 2.0545945560489e-07 1.42900360130944e-07 1.9883353347694e-07
"2162" 40884 3.07170901500053e-08 7.62257847705315e-09 8.72210918102212e-08 2.33539784656751e-07 7.31881146656759e-08 2.05559963128819e-07 1.42409088284775e-07 1.98636762228845e-07
"2163" 40885 3.05851049924824e-08 7.62257847705315e-09 8.68791138944053e-08 2.32404043945613e-07 7.323838854778e-08 2.03779882935049e-07 1.4253824457254e-07 1.98140310202292e-07
"2164" 40886 3.04531198349595e-08 7.62257847705315e-09 8.65371359785894e-08 2.31268303234475e-07 7.32886624298841e-08 2.01999802741278e-07 1.42667400860305e-07 1.97643858175739e-07
"2165" 40887 3.03211346774367e-08 7.62257847705315e-09 8.61951580627735e-08 2.30132562523337e-07 7.33389363119882e-08 2.00219722547508e-07 1.42796557148071e-07 1.97147406149187e-07
"2166" 40888 3.01891495199138e-08 7.62257847705315e-09 8.58531801469576e-08 2.28996821812199e-07 7.33892101940923e-08 1.98439642353737e-07 1.42925713435836e-07 1.96650954122634e-07
"2167" 40889 3.00571643623909e-08 7.62257847705315e-09 8.55112022311417e-08 2.27861081101061e-07 7.34394840761963e-08 1.96659562159966e-07 1.43054869723602e-07 1.96154502096081e-07
"2168" 40890 2.9925179204868e-08 7.62257847705315e-09 8.51692243153258e-08 2.26725340389923e-07 7.34897579583004e-08 1.94879481966196e-07 1.43184026011367e-07 1.95658050069529e-07
"2169" 40891 2.97931940473451e-08 7.62257847705315e-09 8.48272463995099e-08 2.25589599678785e-07 7.35400318404045e-08 1.93099401772425e-07 1.43313182299133e-07 1.95161598042976e-07
"2170" 40892 2.96612088898222e-08 7.62257847705315e-09 8.4485268483694e-08 2.24453858967647e-07 7.35903057225086e-08 1.91319321578654e-07 1.43442338586898e-07 1.94665146016423e-07
"2171" 40893 2.96605516447908e-08 7.62828889288094e-09 8.42423764229377e-08 2.23384403139938e-07 7.36649187361557e-08 1.89526946243463e-07 1.435043086167e-07 1.94528830624201e-07
"2172" 40894 2.95533833579889e-08 7.63399930870874e-09 8.40096869383567e-08 2.22314947312229e-07 7.40483594947872e-08 1.87946336978117e-07 1.43472305287392e-07 1.94030795221758e-07
"2173" 40895 2.94462150711869e-08 7.63970972453653e-09 8.37769974537756e-08 2.21245491484519e-07 7.44318002534187e-08 1.8636572771277e-07 1.43440301958084e-07 1.93532759819315e-07
"2174" 40896 2.9339046784385e-08 7.64542014036432e-09 8.35443079691946e-08 2.2017603565681e-07 7.48152410120502e-08 1.84785118447423e-07 1.43408298628777e-07 1.93034724416871e-07
"2175" 40897 2.92318784975831e-08 7.65113055619211e-09 8.33116184846135e-08 2.19106579829101e-07 7.51986817706817e-08 1.83204509182076e-07 1.43376295299469e-07 1.92536689014428e-07
"2176" 40898 2.92569590327981e-08 7.66101407801002e-09 8.33407299537875e-08 2.18827559032374e-07 7.56547412506754e-08 1.83339564509566e-07 1.43400318578901e-07 1.92470147655485e-07
"2177" 40899 2.92781066948173e-08 7.67307333346069e-09 8.33606363530207e-08 2.17837268989856e-07 7.58084062733079e-08 1.83693100773594e-07 1.43443356837003e-07 1.92268415162932e-07
"2178" 40900 2.92992543568365e-08 7.68513258891136e-09 8.33805427522539e-08 2.16846978947338e-07 7.59620712959403e-08 1.84046637037622e-07 1.43486395095104e-07 1.92066682670379e-07
"2179" 40901 2.93204020188557e-08 7.69719184436202e-09 8.34004491514872e-08 2.1585668890482e-07 7.61157363185727e-08 1.84400173301649e-07 1.43529433353205e-07 1.91864950177826e-07
"2180" 40902 2.93415496808749e-08 7.70925109981269e-09 8.34203555507204e-08 2.14866398862303e-07 7.62694013412051e-08 1.84753709565677e-07 1.43572471611307e-07 1.91663217685273e-07
"2181" 40903 2.93626973428941e-08 7.72131035526336e-09 8.34402619499536e-08 2.13876108819785e-07 7.64230663638376e-08 1.85107245829705e-07 1.43615509869408e-07 1.91461485192721e-07
"2182" 40904 2.93838450049133e-08 7.73336961071402e-09 8.34601683491868e-08 2.12885818777267e-07 7.657673138647e-08 1.85460782093732e-07 1.43658548127509e-07 1.91259752700168e-07
"2183" 40905 2.94049926669325e-08 7.74542886616469e-09 8.348007474842e-08 2.11895528734749e-07 7.67303964091024e-08 1.8581431835776e-07 1.43701586385611e-07 1.91058020207615e-07
"2184" 40906 2.94261403289517e-08 7.75748812161536e-09 8.34999811476532e-08 2.10905238692231e-07 7.68840614317348e-08 1.86167854621788e-07 1.43744624643712e-07 1.90856287715062e-07
"2185" 40907 2.94472879909709e-08 7.76954737706603e-09 8.35198875468864e-08 2.09914948649713e-07 7.70377264543673e-08 1.86521390885815e-07 1.43787662901813e-07 1.90654555222509e-07
"2186" 40908 2.94684356529901e-08 7.78160663251670e-09 8.35397939461196e-08 2.08924658607195e-07 7.71913914769997e-08 1.86874927149843e-07 1.43830701159915e-07 1.90452822729956e-07
"2187" 40909 2.94895833150093e-08 7.79366588796736e-09 8.35597003453528e-08 2.07934368564678e-07 7.73450564996321e-08 1.87228463413871e-07 1.43873739418016e-07 1.90251090237403e-07
"2188" 40910 2.95107309770286e-08 7.80572514341803e-09 8.3579606744586e-08 2.0694407852216e-07 7.74987215222645e-08 1.87581999677898e-07 1.43916777676117e-07 1.90049357744851e-07
"2189" 40911 2.95318786390478e-08 7.8177843988687e-09 8.35995131438192e-08 2.05953788479642e-07 7.7652386544897e-08 1.87935535941926e-07 1.43959815934219e-07 1.89847625252298e-07
"2190" 40912 2.9553026301067e-08 7.82984365431936e-09 8.36194195430525e-08 2.04963498437124e-07 7.78060515675294e-08 1.88289072205954e-07 1.4400285419232e-07 1.89645892759745e-07
"2191" 40913 2.95741739630862e-08 7.84190290977003e-09 8.36393259422857e-08 2.03973208394606e-07 7.79597165901618e-08 1.88642608469982e-07 1.44045892450421e-07 1.89444160267192e-07
"2192" 40914 2.95953216251054e-08 7.8539621652207e-09 8.36592323415189e-08 2.02982918352088e-07 7.81133816127942e-08 1.88996144734009e-07 1.44088930708523e-07 1.89242427774639e-07
"2193" 40915 2.96164692871246e-08 7.86602142067137e-09 8.36791387407521e-08 2.0199262830957e-07 7.82670466354267e-08 1.89349680998037e-07 1.44131968966624e-07 1.89040695282086e-07
"2194" 40916 2.96135624960341e-08 7.88216460147445e-09 8.39317346245663e-08 2.00879616398628e-07 7.79654004620663e-08 1.89351849697016e-07 1.44137912439127e-07 1.89021659469524e-07
"2195" 40917 2.96655250294922e-08 7.88624616693834e-09 8.38672813618693e-08 1.99953784750118e-07 7.81454005546614e-08 1.9275302240729e-07 1.45001087902563e-07 1.89847409801548e-07
"2196" 40918 2.97174875629502e-08 7.89032773240222e-09 8.38028280991723e-08 1.99027953101608e-07 7.83254006472564e-08 1.96154195117565e-07 1.45864263365998e-07 1.90673160133572e-07
"2197" 40919 2.97694500964082e-08 7.89440929786611e-09 8.37383748364753e-08 1.98102121453098e-07 7.85054007398515e-08 1.9955536782784e-07 1.46727438829433e-07 1.91498910465596e-07
"2198" 40920 2.98005507265563e-08 7.89821860163984e-09 8.37544223871361e-08 1.98261671188938e-07 7.87859002543061e-08 2.02603004274087e-07 1.47596516200468e-07 1.92483016288399e-07
"2199" 40921 2.98502831589223e-08 7.89998712268162e-09 8.37153884676287e-08 1.98477253757965e-07 7.90329328070071e-08 2.05388207355034e-07 1.48003831263334e-07 1.9301742495499e-07
"2200" 40922 2.99000155912884e-08 7.9017556437234e-09 8.36763545481214e-08 1.98692836326993e-07 7.92799653597082e-08 2.08173410435981e-07 1.48411146326201e-07 1.93551833621581e-07
"2201" 40923 2.99497480236544e-08 7.90352416476518e-09 8.3637320628614e-08 1.9890841889602e-07 7.95269979124093e-08 2.10958613516928e-07 1.48818461389067e-07 1.94086242288172e-07
"2202" 40924 2.99994804560205e-08 7.90529268580696e-09 8.35982867091067e-08 1.99124001465047e-07 7.97740304651103e-08 2.13743816597875e-07 1.49225776451933e-07 1.94620650954763e-07
"2203" 40925 3.00492128883865e-08 7.90706120684875e-09 8.35592527895993e-08 1.99339584034075e-07 8.00210630178114e-08 2.16529019678822e-07 1.496330915148e-07 1.95155059621354e-07
"2204" 40926 3.00989453207526e-08 7.90882972789053e-09 8.3520218870092e-08 1.99555166603102e-07 8.02680955705125e-08 2.19314222759769e-07 1.50040406577666e-07 1.95689468287945e-07
"2205" 40927 3.01486777531186e-08 7.91059824893231e-09 8.34811849505846e-08 1.9977074917213e-07 8.05151281232136e-08 2.22099425840716e-07 1.50447721640532e-07 1.96223876954536e-07
"2206" 40928 3.01984101854846e-08 7.91236676997409e-09 8.34421510310773e-08 1.99986331741157e-07 8.07621606759146e-08 2.24884628921663e-07 1.50855036703398e-07 1.96758285621127e-07
"2207" 40929 3.02481426178507e-08 7.91413529101587e-09 8.34031171115699e-08 2.00201914310184e-07 8.10091932286157e-08 2.2766983200261e-07 1.51262351766265e-07 1.97292694287718e-07
"2208" 40930 3.02978750502167e-08 7.91590381205766e-09 8.33640831920626e-08 2.00417496879212e-07 8.12562257813168e-08 2.30455035083557e-07 1.51669666829131e-07 1.97827102954309e-07
"2209" 40931 3.0381465542811e-08 7.94351359477944e-09 8.3303795563447e-08 2.01254135544011e-07 8.13197163638183e-08 2.33930852051888e-07 1.51830078200784e-07 1.97435890587619e-07
"2210" 40932 3.03843658522457e-08 7.9611940854202e-09 8.35104549631145e-08 2.0124837425233e-07 8.10707883640817e-08 2.33313666616992e-07 1.5209414709101e-07 1.96903880725214e-07
"2211" 40933 3.03872661616805e-08 7.97887457606096e-09 8.37171143627821e-08 2.0124261296065e-07 8.0821860364345e-08 2.32696481182095e-07 1.52358215981237e-07 1.96371870862809e-07
"2212" 40934 3.03901664711153e-08 7.99655506670172e-09 8.39237737624496e-08 2.01236851668969e-07 8.05729323646084e-08 2.32079295747199e-07 1.52622284871463e-07 1.95839861000404e-07
"2213" 40935 3.039306678055e-08 8.01423555734248e-09 8.41304331621171e-08 2.01231090377288e-07 8.03240043648718e-08 2.31462110312302e-07 1.52886353761689e-07 1.95307851137999e-07
"2214" 40936 3.03959670899848e-08 8.03191604798324e-09 8.43370925617846e-08 2.01225329085607e-07 8.00750763651352e-08 2.30844924877406e-07 1.53150422651915e-07 1.94775841275594e-07
"2215" 40937 3.03988673994195e-08 8.049596538624e-09 8.45437519614521e-08 2.01219567793926e-07 7.98261483653986e-08 2.30227739442509e-07 1.53414491542141e-07 1.94243831413189e-07
"2216" 40938 3.04017677088543e-08 8.06727702926475e-09 8.47504113611196e-08 2.01213806502246e-07 7.95772203656619e-08 2.29610554007612e-07 1.53678560432367e-07 1.93711821550784e-07
"2217" 40939 3.0404668018289e-08 8.08495751990551e-09 8.49570707607871e-08 2.01208045210565e-07 7.93282923659253e-08 2.28993368572716e-07 1.53942629322593e-07 1.93179811688379e-07
"2218" 40940 3.04075683277238e-08 8.10263801054627e-09 8.51637301604546e-08 2.01202283918884e-07 7.90793643661887e-08 2.28376183137819e-07 1.54206698212819e-07 1.92647801825974e-07
"2219" 40941 3.04104686371586e-08 8.12031850118703e-09 8.53703895601221e-08 2.01196522627203e-07 7.88304363664521e-08 2.27758997702923e-07 1.54470767103045e-07 1.92115791963569e-07
"2220" 40942 3.04133689465933e-08 8.13799899182779e-09 8.55770489597896e-08 2.01190761335522e-07 7.85815083667155e-08 2.27141812268026e-07 1.54734835993271e-07 1.91583782101164e-07
"2221" 40943 3.0373354393733e-08 8.15694925039313e-09 8.58358321498213e-08 2.01120812696213e-07 7.85284408910079e-08 2.26906979245894e-07 1.55264802655184e-07 1.91575754570588e-07
"2222" 40944 3.00587112918287e-08 8.16079960465291e-09 8.59386716294318e-08 1.99973637186995e-07 7.83520815212666e-08 2.26908301818735e-07 1.55343293923789e-07 1.91128770141609e-07
"2223" 40945 2.97440681899243e-08 8.16464995891268e-09 8.60415111090423e-08 1.98826461677777e-07 7.81757221515253e-08 2.26909624391577e-07 1.55421785192395e-07 1.90681785712629e-07
"2224" 40946 2.942942508802e-08 8.16850031317246e-09 8.61443505886528e-08 1.97679286168559e-07 7.7999362781784e-08 2.26910946964419e-07 1.55500276461e-07 1.90234801283649e-07
"2225" 40947 2.91147819861156e-08 8.17235066743224e-09 8.62471900682633e-08 1.9653211065934e-07 7.78230034120427e-08 2.26912269537261e-07 1.55578767729605e-07 1.8978781685467e-07
"2226" 40948 2.88001388842112e-08 8.17620102169202e-09 8.63500295478738e-08 1.95384935150122e-07 7.76466440423014e-08 2.26913592110102e-07 1.55657258998211e-07 1.8934083242569e-07
"2227" 40949 2.84854957823069e-08 8.1800513759518e-09 8.64528690274843e-08 1.94237759640904e-07 7.74702846725601e-08 2.26914914682944e-07 1.55735750266816e-07 1.8889384799671e-07
"2228" 40950 2.81778637999144e-08 8.16622123957082e-09 8.63752992342633e-08 1.93301634583016e-07 7.73208079826645e-08 2.26929120375973e-07 1.55297304737609e-07 1.88446863567731e-07
"2229" 40951 2.79974554015919e-08 8.18626290478533e-09 8.64034124898793e-08 1.92299050177133e-07 7.7155221741985e-08 2.28778869861266e-07 1.54873551642907e-07 1.89201747398842e-07
"2230" 40952 2.78170470032695e-08 8.20630456999984e-09 8.64315257454954e-08 1.91296465771251e-07 7.69896355013054e-08 2.3062861934656e-07 1.54449798548206e-07 1.89956631229953e-07
"2231" 40953 2.76366386049471e-08 8.22634623521435e-09 8.64596390011114e-08 1.90293881365369e-07 7.68240492606258e-08 2.32478368831853e-07 1.54026045453505e-07 1.90711515061064e-07
"2232" 40954 2.74562302066246e-08 8.24638790042886e-09 8.64877522567275e-08 1.89291296959487e-07 7.66584630199462e-08 2.34328118317147e-07 1.53602292358804e-07 1.91466398892176e-07
"2233" 40955 2.72758218083022e-08 8.26642956564337e-09 8.65158655123436e-08 1.88288712553604e-07 7.64928767792667e-08 2.3617786780244e-07 1.53178539264103e-07 1.92221282723287e-07
"2234" 40956 2.70954134099797e-08 8.28647123085788e-09 8.65439787679596e-08 1.87286128147722e-07 7.63272905385871e-08 2.38027617287734e-07 1.52754786169401e-07 1.92976166554398e-07
"2235" 40957 2.71963810157192e-08 8.32265607687547e-09 8.66296679666533e-08 1.86804379937154e-07 7.62343731106367e-08 2.39796355233494e-07 1.52953456118221e-07 1.93869325076791e-07
"2236" 40958 2.72973486214586e-08 8.35884092289307e-09 8.67153571653471e-08 1.86322631726586e-07 7.61414556826863e-08 2.41565093179254e-07 1.5315212606704e-07 1.94762483599185e-07
"2237" 40959 2.7398316227198e-08 8.39502576891066e-09 8.68010463640408e-08 1.85840883516018e-07 7.60485382547359e-08 2.43333831125014e-07 1.53350796015859e-07 1.95655642121578e-07
"2238" 40960 2.74992838329374e-08 8.43121061492826e-09 8.68867355627346e-08 1.8535913530545e-07 7.59556208267855e-08 2.45102569070774e-07 1.53549465964679e-07 1.96548800643972e-07
"2239" 40961 2.76002514386768e-08 8.46739546094585e-09 8.69724247614283e-08 1.84877387094882e-07 7.5862703398835e-08 2.46871307016535e-07 1.53748135913498e-07 1.97441959166365e-07
"2240" 40962 2.77012190444162e-08 8.50358030696345e-09 8.7058113960122e-08 1.84395638884314e-07 7.57697859708846e-08 2.48640044962295e-07 1.53946805862317e-07 1.98335117688759e-07
"2241" 40963 2.78021866501556e-08 8.53976515298104e-09 8.71438031588158e-08 1.83913890673747e-07 7.56768685429342e-08 2.50408782908055e-07 1.54145475811137e-07 1.99228276211152e-07
"2242" 40964 2.7903154255895e-08 8.57594999899864e-09 8.72294923575095e-08 1.83432142463179e-07 7.55839511149838e-08 2.52177520853815e-07 1.54344145759956e-07 2.00121434733545e-07
"2243" 40965 2.80041218616344e-08 8.61213484501623e-09 8.73151815562033e-08 1.82950394252611e-07 7.54910336870334e-08 2.53946258799575e-07 1.54542815708775e-07 2.01014593255939e-07
"2244" 40966 2.81050894673738e-08 8.64831969103383e-09 8.7400870754897e-08 1.82468646042043e-07 7.5398116259083e-08 2.55714996745335e-07 1.54741485657595e-07 2.01907751778332e-07
"2245" 40967 2.82060570731132e-08 8.68450453705142e-09 8.74865599535908e-08 1.81986897831475e-07 7.53051988311325e-08 2.57483734691095e-07 1.54940155606414e-07 2.02800910300726e-07
"2246" 40968 2.83070246788526e-08 8.72068938306902e-09 8.75722491522845e-08 1.81505149620907e-07 7.52122814031821e-08 2.59252472636855e-07 1.55138825555234e-07 2.03694068823119e-07
"2247" 40969 2.8407992284592e-08 8.75687422908661e-09 8.76579383509782e-08 1.81023401410339e-07 7.51193639752317e-08 2.61021210582615e-07 1.55337495504053e-07 2.04587227345512e-07
"2248" 40970 2.85089598903314e-08 8.79305907510421e-09 8.7743627549672e-08 1.80541653199771e-07 7.50264465472813e-08 2.62789948528376e-07 1.55536165452872e-07 2.05480385867906e-07
"2249" 40971 2.86099274960708e-08 8.8292439211218e-09 8.78293167483657e-08 1.80059904989203e-07 7.49335291193309e-08 2.64558686474136e-07 1.55734835401692e-07 2.06373544390299e-07
"2250" 40972 2.87108951018102e-08 8.8654287671394e-09 8.79150059470595e-08 1.79578156778635e-07 7.48406116913804e-08 2.66327424419896e-07 1.55933505350511e-07 2.07266702912693e-07
"2251" 40973 2.87895773091895e-08 8.89059527431532e-09 8.78770132592416e-08 1.79042418048003e-07 7.58696885145615e-08 2.66847725923627e-07 1.56180616763356e-07 2.07934711492141e-07
"2252" 40974 2.87561387561214e-08 8.95406951121289e-09 8.79756707463063e-08 1.78608644737995e-07 7.58617088762199e-08 2.67091482359467e-07 1.56159544437724e-07 2.07609619421122e-07
"2253" 40975 2.87227002030533e-08 9.01754374811046e-09 8.80743282333709e-08 1.78174871427988e-07 7.58537292378783e-08 2.67335238795308e-07 1.56138472112092e-07 2.07284527350104e-07
"2254" 40976 2.86892616499852e-08 9.08101798500804e-09 8.81729857204356e-08 1.7774109811798e-07 7.58457495995367e-08 2.67578995231148e-07 1.5611739978646e-07 2.06959435279085e-07
"2255" 40977 2.86558230969171e-08 9.14449222190561e-09 8.82716432075002e-08 1.77307324807972e-07 7.58377699611951e-08 2.67822751666989e-07 1.56096327460827e-07 2.06634343208066e-07
"2256" 40978 2.8622384543849e-08 9.20796645880318e-09 8.83703006945649e-08 1.76873551497964e-07 7.58297903228534e-08 2.68066508102829e-07 1.56075255135195e-07 2.06309251137047e-07
"2257" 40979 2.8589317477103e-08 9.19975991750082e-09 8.81404103464318e-08 1.76690585006195e-07 7.55730320329251e-08 2.67912962309224e-07 1.55946930094052e-07 2.06267792628196e-07
"2258" 40980 2.85920463313121e-08 9.25085450710592e-09 8.829306434652e-08 1.76626239912557e-07 7.54950275186577e-08 2.68209537197876e-07 1.55740674871914e-07 2.06237037493445e-07
"2259" 40981 2.85947751855213e-08 9.30194909671101e-09 8.84457183466083e-08 1.7656189481892e-07 7.54170230043903e-08 2.68506112086527e-07 1.55534419649776e-07 2.06206282358694e-07
"2260" 40982 2.85975040397305e-08 9.35304368631611e-09 8.85983723466965e-08 1.76497549725282e-07 7.53390184901229e-08 2.68802686975178e-07 1.55328164427639e-07 2.06175527223943e-07
"2261" 40983 2.86002328939396e-08 9.4041382759212e-09 8.87510263467847e-08 1.76433204631645e-07 7.52610139758554e-08 2.69099261863829e-07 1.55121909205501e-07 2.06144772089192e-07
"2262" 40984 2.86029617481488e-08 9.4552328655263e-09 8.89036803468729e-08 1.76368859538007e-07 7.5183009461588e-08 2.6939583675248e-07 1.54915653983364e-07 2.06114016954441e-07
"2263" 40985 2.8605690602358e-08 9.5063274551314e-09 8.90563343469612e-08 1.7630451444437e-07 7.51050049473206e-08 2.69692411641132e-07 1.54709398761226e-07 2.0608326181969e-07
"2264" 40986 2.86084194565672e-08 9.55742204473649e-09 8.92089883470494e-08 1.76240169350733e-07 7.50270004330532e-08 2.69988986529783e-07 1.54503143539089e-07 2.06052506684939e-07
"2265" 40987 2.86111483107763e-08 9.60851663434159e-09 8.93616423471376e-08 1.76175824257095e-07 7.49489959187857e-08 2.70285561418434e-07 1.54296888316951e-07 2.06021751550188e-07
"2266" 40988 2.86772980568279e-08 9.61654245448002e-09 8.94376277227733e-08 1.75953076757838e-07 7.49936847742347e-08 2.71304915552309e-07 1.54375545845169e-07 2.06298329971599e-07
"2267" 40989 2.87434478028795e-08 9.62456827461844e-09 8.95136130984091e-08 1.7573032925858e-07 7.50383736296836e-08 2.72324269686184e-07 1.54454203373387e-07 2.0657490839301e-07
"2268" 40990 2.8809597548931e-08 9.63259409475687e-09 8.95895984740448e-08 1.75507581759322e-07 7.50830624851325e-08 2.7334362382006e-07 1.54532860901605e-07 2.0685148681442e-07
"2269" 40991 2.88757472949826e-08 9.6406199148953e-09 8.96655838496806e-08 1.75284834260065e-07 7.51277513405814e-08 2.74362977953935e-07 1.54611518429823e-07 2.07128065235831e-07
"2270" 40992 2.89418970410341e-08 9.64864573503372e-09 8.97415692253163e-08 1.75062086760807e-07 7.51724401960303e-08 2.7538233208781e-07 1.54690175958041e-07 2.07404643657242e-07
"2271" 40993 2.90080467870857e-08 9.65667155517215e-09 8.9817554600952e-08 1.74839339261549e-07 7.52171290514792e-08 2.76401686221685e-07 1.54768833486259e-07 2.07681222078653e-07
"2272" 40994 2.90741965331372e-08 9.66469737531058e-09 8.98935399765878e-08 1.74616591762292e-07 7.52618179069282e-08 2.77421040355561e-07 1.54847491014477e-07 2.07957800500064e-07
"2273" 40995 2.91403462791888e-08 9.672723195449e-09 8.99695253522235e-08 1.74393844263034e-07 7.53065067623771e-08 2.78440394489436e-07 1.54926148542696e-07 2.08234378921474e-07
"2274" 40996 2.92064960252404e-08 9.68074901558743e-09 9.00455107278593e-08 1.74171096763776e-07 7.5351195617826e-08 2.79459748623311e-07 1.55004806070914e-07 2.08510957342885e-07
"2275" 40997 2.92726457712919e-08 9.68877483572586e-09 9.0121496103495e-08 1.73948349264519e-07 7.53958844732749e-08 2.80479102757186e-07 1.55083463599132e-07 2.08787535764296e-07
"2276" 40998 2.93387955173435e-08 9.69680065586429e-09 9.01974814791307e-08 1.73725601765261e-07 7.54405733287238e-08 2.81498456891062e-07 1.5516212112735e-07 2.09064114185707e-07
"2277" 40999 2.9404945263395e-08 9.70482647600271e-09 9.02734668547665e-08 1.73502854266004e-07 7.54852621841728e-08 2.82517811024937e-07 1.55240778655568e-07 2.09340692607117e-07
"2278" 41000 2.94710950094466e-08 9.71285229614114e-09 9.03494522304022e-08 1.73280106766746e-07 7.55299510396217e-08 2.83537165158812e-07 1.55319436183786e-07 2.09617271028528e-07
"2279" 41001 2.94947299553962e-08 9.72713777526474e-09 9.04730288928922e-08 1.73148487205469e-07 7.54143898703464e-08 2.84544700597972e-07 1.55559253329077e-07 2.09730571180243e-07
"2280" 41002 2.93121382936604e-08 9.61614940122023e-09 8.95532570523168e-08 1.73142327703497e-07 7.56220210296716e-08 2.84330915479519e-07 1.54921576789159e-07 2.09557434003587e-07
"2281" 41003 2.91295466319246e-08 9.50516102717571e-09 8.86334852117413e-08 1.73136168201525e-07 7.58296521889967e-08 2.84117130361066e-07 1.54283900249242e-07 2.09384296826932e-07
"2282" 41004 2.89469549701889e-08 9.39417265313119e-09 8.77137133711659e-08 1.73130008699553e-07 7.60372833483218e-08 2.83903345242613e-07 1.53646223709325e-07 2.09211159650277e-07
"2283" 41005 2.87643633084531e-08 9.28318427908667e-09 8.67939415305905e-08 1.7312384919758e-07 7.6244914507647e-08 2.8368956012416e-07 1.53008547169408e-07 2.09038022473622e-07
"2284" 41006 2.85817716467173e-08 9.17219590504215e-09 8.5874169690015e-08 1.73117689695608e-07 7.64525456669721e-08 2.83475775005708e-07 1.5237087062949e-07 2.08864885296967e-07
"2285" 41007 2.83991799849816e-08 9.06120753099763e-09 8.49543978494395e-08 1.73111530193636e-07 7.66601768262973e-08 2.83261989887255e-07 1.51733194089573e-07 2.08691748120312e-07
"2286" 41008 2.81442756029065e-08 8.95021915695312e-09 8.39513868503013e-08 1.73617711365429e-07 7.66494036972355e-08 2.82415607364885e-07 1.50831261475901e-07 2.0867010513891e-07
"2287" 41009 2.79313301160743e-08 8.83460233417586e-09 8.2919588233286e-08 1.74571035599581e-07 7.66902513614796e-08 2.81365046836702e-07 1.50036041233999e-07 2.08193413314245e-07
"2288" 41010 2.77183846292422e-08 8.7189855113986e-09 8.18877896162707e-08 1.75524359833733e-07 7.67310990257237e-08 2.80314486308519e-07 1.49240820992096e-07 2.07716721489581e-07
"2289" 41011 2.75054391424101e-08 8.60336868862134e-09 8.08559909992554e-08 1.76477684067885e-07 7.67719466899677e-08 2.79263925780336e-07 1.48445600750194e-07 2.07240029664916e-07
"2290" 41012 2.72924936555779e-08 8.48775186584408e-09 7.98241923822401e-08 1.77431008302037e-07 7.68127943542118e-08 2.78213365252153e-07 1.47650380508292e-07 2.06763337840252e-07
"2291" 41013 2.70795481687458e-08 8.37213504306682e-09 7.87923937652248e-08 1.78384332536189e-07 7.68536420184559e-08 2.7716280472397e-07 1.4685516026639e-07 2.06286646015587e-07
"2292" 41014 2.68666026819136e-08 8.25651822028957e-09 7.77605951482095e-08 1.7933765677034e-07 7.68944896826999e-08 2.76112244195787e-07 1.46059940024488e-07 2.05809954190923e-07
"2293" 41015 2.68666026819136e-08 8.25991559169525e-09 7.76118444294724e-08 1.79545911827607e-07 7.69078562456644e-08 2.76303284181301e-07 1.46023344017728e-07 2.05241702909478e-07
"2294" 41016 2.68666026819136e-08 8.26331296310094e-09 7.74630937107352e-08 1.79754166884874e-07 7.69212228086288e-08 2.76494324166815e-07 1.45986748010968e-07 2.04673451628032e-07
"2295" 41017 2.68666026819136e-08 8.26671033450663e-09 7.7314342991998e-08 1.79962421942141e-07 7.69345893715933e-08 2.76685364152329e-07 1.45950152004208e-07 2.04105200346587e-07
"2296" 41018 2.68666026819136e-08 8.27010770591231e-09 7.71655922732609e-08 1.80170676999408e-07 7.69479559345578e-08 2.76876404137843e-07 1.45913555997448e-07 2.03536949065142e-07
"2297" 41019 2.68666026819136e-08 8.273505077318e-09 7.70168415545237e-08 1.80378932056675e-07 7.69613224975222e-08 2.77067444123357e-07 1.45876959990688e-07 2.02968697783697e-07
"2298" 41020 2.68666026819136e-08 8.27690244872369e-09 7.68680908357865e-08 1.80587187113942e-07 7.69746890604867e-08 2.77258484108871e-07 1.45840363983928e-07 2.02400446502252e-07
"2299" 41021 2.68666026819136e-08 8.28029982012938e-09 7.67193401170494e-08 1.80795442171208e-07 7.69880556234512e-08 2.77449524094386e-07 1.45803767977168e-07 2.01832195220806e-07
"2300" 41022 2.68666026819136e-08 8.28369719153506e-09 7.65705893983122e-08 1.81003697228475e-07 7.70014221864156e-08 2.776405640799e-07 1.45767171970409e-07 2.01263943939361e-07
"2301" 41023 2.68837668006509e-08 8.29063396491285e-09 7.63520125358425e-08 1.81818419357709e-07 7.7019576532385e-08 2.77630316575819e-07 1.45808194369287e-07 2.01212404809773e-07
"2302" 41024 2.69009309193881e-08 8.29757073829063e-09 7.61334356733728e-08 1.82633141486944e-07 7.70377308783545e-08 2.77620069071739e-07 1.45849216768166e-07 2.01160865680185e-07
"2303" 41025 2.69180950381254e-08 8.30450751166841e-09 7.59148588109031e-08 1.83447863616178e-07 7.70558852243239e-08 2.77609821567659e-07 1.45890239167045e-07 2.01109326550597e-07
"2304" 41026 2.69352591568626e-08 8.31144428504619e-09 7.56962819484335e-08 1.84262585745412e-07 7.70740395702933e-08 2.77599574063578e-07 1.45931261565924e-07 2.01057787421008e-07
"2305" 41027 2.69524232755998e-08 8.31838105842397e-09 7.54777050859638e-08 1.85077307874646e-07 7.70921939162628e-08 2.77589326559498e-07 1.45972283964802e-07 2.0100624829142e-07
"2306" 41028 2.69695873943371e-08 8.32531783180176e-09 7.52591282234941e-08 1.8589203000388e-07 7.71103482622322e-08 2.77579079055418e-07 1.46013306363681e-07 2.00954709161832e-07
"2307" 41029 2.69867515130743e-08 8.33225460517954e-09 7.50405513610244e-08 1.86706752133114e-07 7.71285026082016e-08 2.77568831551337e-07 1.4605432876256e-07 2.00903170032244e-07
"2308" 41030 2.70182807812864e-08 8.32976319948204e-09 7.48139507232244e-08 1.86649325563908e-07 7.76318436573631e-08 2.77554194024429e-07 1.46173031953014e-07 2.01449191292331e-07
"2309" 41031 2.72335798035981e-08 8.33330260145413e-09 7.45907627928903e-08 1.86484913480301e-07 7.75987761919438e-08 2.77657942684854e-07 1.46214054351892e-07 2.03509452132676e-07
"2310" 41032 2.74488788259098e-08 8.33684200342623e-09 7.43675748625563e-08 1.86320501396694e-07 7.75657087265245e-08 2.7776169134528e-07 1.46255076750771e-07 2.0556971297302e-07
"2311" 41033 2.76641778482215e-08 8.34038140539832e-09 7.41443869322223e-08 1.86156089313088e-07 7.75326412611053e-08 2.77865440005706e-07 1.4629609914965e-07 2.07629973813364e-07
"2312" 41034 2.78794768705331e-08 8.34392080737042e-09 7.39211990018882e-08 1.85991677229481e-07 7.7499573795686e-08 2.77969188666131e-07 1.46337121548529e-07 2.09690234653708e-07
"2313" 41035 2.80947758928448e-08 8.34746020934251e-09 7.36980110715542e-08 1.85827265145874e-07 7.74665063302667e-08 2.78072937326557e-07 1.46378143947407e-07 2.11750495494052e-07
"2314" 41036 2.83100749151565e-08 8.35099961131461e-09 7.34748231412202e-08 1.85662853062268e-07 7.74334388648474e-08 2.78176685986983e-07 1.46419166346286e-07 2.13810756334396e-07
"2315" 41037 2.85253739374682e-08 8.3545390132867e-09 7.32516352108861e-08 1.85498440978661e-07 7.74003713994282e-08 2.78280434647408e-07 1.46460188745165e-07 2.1587101717474e-07
"2316" 41038 2.87091436915678e-08 8.36664639888902e-09 7.31472031344581e-08 1.85316193024723e-07 7.71549851744126e-08 2.78532994952849e-07 1.45944062424383e-07 2.17803375503301e-07
"2317" 41039 2.89241569551702e-08 8.36324902748333e-09 7.31568632320611e-08 1.85314994432837e-07 7.71452595400688e-08 2.78760674992088e-07 1.45453102353568e-07 2.19411591786378e-07
"2318" 41040 2.8901363672789e-08 8.3485152852827e-09 7.31570818593364e-08 1.85298609501709e-07 7.72308458424784e-08 2.7866276323623e-07 1.4485108662295e-07 2.18928639055266e-07
"2319" 41041 2.88884025733973e-08 8.33273826658453e-09 7.32511446370011e-08 1.85465868241045e-07 7.72737887019251e-08 2.78573049829581e-07 1.44253414180365e-07 2.18615309864706e-07
"2320" 41042 2.88754414740056e-08 8.31696124788637e-09 7.33452074146658e-08 1.85633126980381e-07 7.73167315613718e-08 2.78483336422932e-07 1.4365574173778e-07 2.18301980674145e-07
"2321" 41043 2.8862480374614e-08 8.30118422918821e-09 7.34392701923305e-08 1.85800385719717e-07 7.73596744208185e-08 2.78393623016283e-07 1.43058069295195e-07 2.17988651483584e-07
"2322" 41044 2.88495192752223e-08 8.28540721049005e-09 7.35333329699951e-08 1.85967644459053e-07 7.74026172802652e-08 2.78303909609634e-07 1.4246039685261e-07 2.17675322293023e-07
"2323" 41045 2.88365581758306e-08 8.26963019179189e-09 7.36273957476598e-08 1.86134903198389e-07 7.74455601397119e-08 2.78214196202985e-07 1.41862724410025e-07 2.17361993102462e-07
"2324" 41046 2.88235970764389e-08 8.25385317309372e-09 7.37214585253245e-08 1.86302161937725e-07 7.74885029991587e-08 2.78124482796336e-07 1.4126505196744e-07 2.17048663911902e-07
"2325" 41047 2.88106359770472e-08 8.23807615439556e-09 7.38155213029892e-08 1.86469420677061e-07 7.75314458586054e-08 2.78034769389687e-07 1.40667379524855e-07 2.16735334721341e-07
"2326" 41048 2.87976748776555e-08 8.2222991356974e-09 7.39095840806538e-08 1.86636679416397e-07 7.75743887180521e-08 2.77945055983038e-07 1.4006970708227e-07 2.1642200553078e-07
"2327" 41049 2.87789001960829e-08 8.20747385297054e-09 7.39034589803264e-08 1.86846806283232e-07 7.76486030584324e-08 2.78204042689343e-07 1.39579703004229e-07 2.15935317449786e-07
"2328" 41050 2.99747646425425e-08 8.24746328298480e-09 7.40404500722938e-08 1.87267000833215e-07 7.76432165453432e-08 2.78247630203462e-07 1.38959607466682e-07 2.1796651443026e-07
"2329" 41051 3.1170629089002e-08 8.28745271299905e-09 7.41774411642612e-08 1.87687195383197e-07 7.76378300322541e-08 2.78291217717581e-07 1.38339511929134e-07 2.19997711410735e-07
"2330" 41052 3.23664935354615e-08 8.32744214301331e-09 7.43144322562285e-08 1.88107389933179e-07 7.76324435191649e-08 2.783348052317e-07 1.37719416391587e-07 2.22028908391209e-07
"2331" 41053 3.3562357981921e-08 8.36743157302757e-09 7.44514233481959e-08 1.88527584483161e-07 7.76270570060758e-08 2.78378392745819e-07 1.3709932085404e-07 2.24060105371684e-07
"2332" 41054 3.47582224283806e-08 8.40742100304183e-09 7.45884144401633e-08 1.88947779033143e-07 7.76216704929866e-08 2.78421980259938e-07 1.36479225316493e-07 2.26091302352158e-07
"2333" 41055 3.59540868748401e-08 8.44741043305609e-09 7.47254055321306e-08 1.89367973583125e-07 7.76162839798975e-08 2.78465567774057e-07 1.35859129778945e-07 2.28122499332632e-07
"2334" 41056 3.71499513212996e-08 8.48739986307034e-09 7.4862396624098e-08 1.89788168133107e-07 7.76108974668083e-08 2.78509155288177e-07 1.35239034241398e-07 2.30153696313107e-07
"2335" 41057 3.83458157677592e-08 8.5273892930846e-09 7.49993877160653e-08 1.90208362683089e-07 7.76055109537192e-08 2.78552742802296e-07 1.34618938703851e-07 2.32184893293581e-07
"2336" 41058 3.95416802142187e-08 8.56737872309886e-09 7.51363788080327e-08 1.90628557233072e-07 7.760012444063e-08 2.78596330316415e-07 1.33998843166304e-07 2.34216090274056e-07
"2337" 41059 4.07375446606782e-08 8.60736815311312e-09 7.52733699000001e-08 1.91048751783054e-07 7.75947379275409e-08 2.78639917830534e-07 1.33378747628756e-07 2.3624728725453e-07
"2338" 41060 4.18861769220134e-08 8.66209132532801e-09 7.53522958896518e-08 1.91122559322377e-07 7.71721447920001e-08 2.78507673323191e-07 1.33224674454722e-07 2.38528796299719e-07
"2339" 41061 4.31068868150648e-08 8.71690603806913e-09 7.54706930533616e-08 1.91251205064012e-07 7.71386286648305e-08 2.78634143080415e-07 1.32072450777414e-07 2.40900149580691e-07
"2340" 41062 4.43275967081162e-08 8.77172075081026e-09 7.55890902170713e-08 1.91379850805648e-07 7.71051125376609e-08 2.7876061283764e-07 1.30920227100105e-07 2.43271502861663e-07
"2341" 41063 4.55483066011676e-08 8.82653546355138e-09 7.57074873807811e-08 1.91508496547284e-07 7.70715964104913e-08 2.78887082594865e-07 1.29768003422797e-07 2.45642856142634e-07
"2342" 41064 4.55483351770386e-08 8.87414114122456e-09 7.64635889272347e-08 1.91354375892549e-07 7.7223217769656e-08 2.78994091450941e-07 1.29802188793777e-07 2.45496324362137e-07
"2343" 41065 4.55684281810815e-08 8.94564827792615e-09 7.67111624409776e-08 1.91212898530311e-07 7.72711482631582e-08 2.79021865480619e-07 1.29223219528786e-07 2.45437984766847e-07
"2344" 41066 4.55885211851244e-08 9.01715541462774e-09 7.69587359547204e-08 1.91071421168072e-07 7.73190787566604e-08 2.79049639510296e-07 1.28644250263794e-07 2.45379645171557e-07
"2345" 41067 4.56086141891674e-08 9.08866255132933e-09 7.72063094684633e-08 1.90929943805833e-07 7.73670092501626e-08 2.79077413539974e-07 1.28065280998802e-07 2.45321305576267e-07
"2346" 41068 4.56287071932103e-08 9.16016968803092e-09 7.74538829822061e-08 1.90788466443594e-07 7.74149397436648e-08 2.79105187569651e-07 1.2748631173381e-07 2.45262965980977e-07
"2347" 41069 4.56488001972532e-08 9.23167682473251e-09 7.77014564959489e-08 1.90646989081356e-07 7.7462870237167e-08 2.79132961599329e-07 1.26907342468818e-07 2.45204626385687e-07
"2348" 41070 4.56688932012962e-08 9.3031839614341e-09 7.79490300096918e-08 1.90505511719117e-07 7.75108007306692e-08 2.79160735629006e-07 1.26328373203826e-07 2.45146286790397e-07
"2349" 41071 4.56889862053391e-08 9.37469109813569e-09 7.81966035234346e-08 1.90364034356878e-07 7.75587312241714e-08 2.79188509658684e-07 1.25749403938835e-07 2.45087947195107e-07
"2350" 41072 4.5709079209382e-08 9.44619823483728e-09 7.84441770371775e-08 1.90222556994639e-07 7.76066617176736e-08 2.79216283688361e-07 1.25170434673843e-07 2.45029607599817e-07
"2351" 41073 4.5729172213425e-08 9.51770537153887e-09 7.86917505509203e-08 1.900810796324e-07 7.76545922111758e-08 2.79244057718039e-07 1.24591465408851e-07 2.44971268004527e-07
"2352" 41074 4.57004224695082e-08 9.58132399889138e-09 7.81832225182096e-08 1.89469860658022e-07 7.77232707932004e-08 2.76981665718305e-07 1.24270517893672e-07 2.43357798918231e-07
"2353" 41075 4.56716727255915e-08 9.64494262624389e-09 7.76746944854988e-08 1.88858641683644e-07 7.77919493752251e-08 2.74719273718572e-07 1.23949570378493e-07 2.41744329831935e-07
"2354" 41076 4.56429229816748e-08 9.7085612535964e-09 7.71661664527881e-08 1.88247422709266e-07 7.78606279572497e-08 2.72456881718838e-07 1.23628622863314e-07 2.40130860745639e-07
"2355" 41077 4.5614173237758e-08 9.77217988094891e-09 7.66576384200773e-08 1.87636203734887e-07 7.79293065392744e-08 2.70194489719105e-07 1.23307675348136e-07 2.38517391659342e-07
"2356" 41078 4.55854234938413e-08 9.83579850830142e-09 7.61491103873666e-08 1.87024984760509e-07 7.7997985121299e-08 2.67932097719371e-07 1.22986727832957e-07 2.36903922573046e-07
"2357" 41079 4.55566737499246e-08 9.89941713565393e-09 7.56405823546558e-08 1.86413765786131e-07 7.80666637033237e-08 2.65669705719638e-07 1.22665780317778e-07 2.3529045348675e-07
"2358" 41080 4.55279240060079e-08 9.96303576300644e-09 7.5132054321945e-08 1.85802546811752e-07 7.81353422853483e-08 2.63407313719904e-07 1.22344832802599e-07 2.33676984400454e-07
"2359" 41081 4.55361326628506e-08 1.00263797687803e-08 7.50241924722631e-08 1.85956433818232e-07 7.81820256388489e-08 2.6190006274055e-07 1.22680098822481e-07 2.33305380366858e-07
"2360" 41082 4.55443413196934e-08 1.00897237745541e-08 7.49163306225812e-08 1.86110320824711e-07 7.82287089923496e-08 2.60392811761196e-07 1.23015364842362e-07 2.32933776333262e-07
"2361" 41083 4.56316867486021e-08 1.00845073920664e-08 7.45665912841654e-08 1.86109272056811e-07 7.82422750977143e-08 2.58897406547759e-07 1.22884608344406e-07 2.32739790409515e-07
"2362" 41084 4.57190321775109e-08 1.00792910095788e-08 7.42168519457495e-08 1.86108223288911e-07 7.8255841203079e-08 2.57402001334322e-07 1.22753851846449e-07 2.32545804485767e-07
"2363" 41085 4.58063776064197e-08 1.00740746270911e-08 7.38671126073336e-08 1.8610717452101e-07 7.82694073084437e-08 2.55906596120884e-07 1.22623095348493e-07 2.3235181856202e-07
"2364" 41086 4.58937230353285e-08 1.00688582446035e-08 7.35173732689178e-08 1.8610612575311e-07 7.82829734138084e-08 2.54411190907447e-07 1.22492338850537e-07 2.32157832638273e-07
"2365" 41087 4.59810684642373e-08 1.00636418621158e-08 7.31676339305019e-08 1.8610507698521e-07 7.82965395191731e-08 2.52915785694009e-07 1.22361582352581e-07 2.31963846714526e-07
"2366" 41088 4.6068413893146e-08 1.00584254796282e-08 7.28178945920861e-08 1.8610402821731e-07 7.83101056245379e-08 2.51420380480572e-07 1.22230825854624e-07 2.31769860790779e-07
"2367" 41089 4.61465908657524e-08 1.00985088100572e-08 7.27439916798293e-08 1.86317970644517e-07 7.82849185406772e-08 2.5006339279276e-07 1.22718835023081e-07 2.31459340870683e-07
"2368" 41090 4.62247678383588e-08 1.01385921404862e-08 7.26700887675725e-08 1.86531913071725e-07 7.82597314568165e-08 2.48706405104948e-07 1.23206844191537e-07 2.31148820950587e-07
"2369" 41091 4.63029448109652e-08 1.01786754709153e-08 7.25961858553157e-08 1.86745855498933e-07 7.82345443729559e-08 2.47349417417136e-07 1.23694853359993e-07 2.30838301030492e-07
"2370" 41092 4.63811217835716e-08 1.02187588013443e-08 7.2522282943059e-08 1.86959797926141e-07 7.82093572890952e-08 2.45992429729323e-07 1.2418286252845e-07 2.30527781110396e-07
"2371" 41093 4.6459298756178e-08 1.02588421317733e-08 7.24483800308022e-08 1.87173740353348e-07 7.81841702052345e-08 2.44635442041511e-07 1.24670871696906e-07 2.30217261190301e-07
"2372" 41094 4.65374757287844e-08 1.02989254622023e-08 7.23744771185454e-08 1.87387682780556e-07 7.81589831213739e-08 2.43278454353699e-07 1.25158880865362e-07 2.29906741270205e-07
"2373" 41095 4.66156527013907e-08 1.03390087926313e-08 7.23005742062887e-08 1.87601625207764e-07 7.81337960375132e-08 2.41921466665887e-07 1.25646890033818e-07 2.2959622135011e-07
"2374" 41096 4.70221494552258e-08 1.08116799974001e-08 7.40752444359797e-08 1.87588881372442e-07 7.86783839386026e-08 2.40613084341825e-07 1.25935231695779e-07 2.30369110526272e-07
"2375" 41097 4.71818647562158e-08 1.08064202045379e-08 7.40752444359797e-08 1.87746760384365e-07 7.87565887154543e-08 2.39458383167372e-07 1.25664242519244e-07 2.29135818067665e-07
"2376" 41098 4.73415800572057e-08 1.08011604116756e-08 7.40752444359797e-08 1.87904639396288e-07 7.88347934923059e-08 2.3830368199292e-07 1.25393253342709e-07 2.27902525609059e-07
"2377" 41099 4.75012953581957e-08 1.07959006188134e-08 7.40752444359797e-08 1.88062518408211e-07 7.89129982691575e-08 2.37148980818467e-07 1.25122264166174e-07 2.26669233150452e-07
"2378" 41100 4.76610106591857e-08 1.07906408259512e-08 7.40752444359797e-08 1.88220397420134e-07 7.89912030460092e-08 2.35994279644014e-07 1.24851274989638e-07 2.25435940691846e-07
"2379" 41101 4.78207259601756e-08 1.07853810330889e-08 7.40752444359797e-08 1.88378276432057e-07 7.90694078228608e-08 2.34839578469561e-07 1.24580285813103e-07 2.24202648233239e-07
"2380" 41102 4.79804412611656e-08 1.07801212402267e-08 7.40752444359797e-08 1.8853615544398e-07 7.91476125997125e-08 2.33684877295108e-07 1.24309296636568e-07 2.22969355774633e-07
"2381" 41103 4.81401565621555e-08 1.07748614473645e-08 7.40752444359797e-08 1.88694034455903e-07 7.92258173765641e-08 2.32530176120655e-07 1.24038307460033e-07 2.21736063316027e-07
"2382" 41104 4.82998718631455e-08 1.07696016545022e-08 7.40752444359797e-08 1.88851913467826e-07 7.93040221534158e-08 2.31375474946202e-07 1.23767318283497e-07 2.2050277085742e-07
"2383" 41105 4.79784527303524e-08 1.07394018458911e-08 7.40652256481805e-08 1.88789023274404e-07 7.93000820140782e-08 2.30224861034383e-07 1.2334830335627e-07 2.18291638575187e-07
"2384" 41106 4.78109638922394e-08 1.07901854832085e-08 7.48180797951091e-08 1.8870989797384e-07 7.97565414019398e-08 2.29783622188071e-07 1.23533756488948e-07 2.15420041010386e-07
"2385" 41107 4.76434750541263e-08 1.0840969120526e-08 7.55709339420377e-08 1.88630772673276e-07 8.02130007898014e-08 2.2934238334176e-07 1.23719209621626e-07 2.12548443445585e-07
"2386" 41108 4.74759862160132e-08 1.08917527578434e-08 7.63237880889663e-08 1.88551647372711e-07 8.06694601776631e-08 2.28901144495448e-07 1.23904662754304e-07 2.09676845880784e-07
"2387" 41109 4.73084973779002e-08 1.09425363951608e-08 7.70766422358949e-08 1.88472522072147e-07 8.11259195655247e-08 2.28459905649137e-07 1.24090115886982e-07 2.06805248315983e-07
"2388" 41110 4.71410085397871e-08 1.09933200324782e-08 7.78294963828235e-08 1.88393396771583e-07 8.15823789533863e-08 2.28018666802825e-07 1.24275569019661e-07 2.03933650751183e-07
"2389" 41111 4.69735197016741e-08 1.10441036697956e-08 7.85823505297521e-08 1.88314271471019e-07 8.2038838341248e-08 2.27577427956513e-07 1.24461022152339e-07 2.01062053186382e-07
"2390" 41112 4.6806030863561e-08 1.1094887307113e-08 7.93352046766807e-08 1.88235146170454e-07 8.24952977291096e-08 2.27136189110202e-07 1.24646475285017e-07 1.98190455621581e-07
"2391" 41113 4.66385420254479e-08 1.11456709444304e-08 8.00880588236093e-08 1.8815602086989e-07 8.29517571169712e-08 2.2669495026389e-07 1.24831928417695e-07 1.9531885805678e-07
"2392" 41114 4.64710531873349e-08 1.11964545817478e-08 8.08409129705378e-08 1.88076895569326e-07 8.34082165048329e-08 2.26253711417579e-07 1.25017381550373e-07 1.92447260491979e-07
"2393" 41115 4.63035643492218e-08 1.12472382190653e-08 8.15937671174664e-08 1.87997770268761e-07 8.38646758926945e-08 2.25812472571267e-07 1.25202834683051e-07 1.89575662927179e-07
"2394" 41116 4.61360755111088e-08 1.12980218563827e-08 8.2346621264395e-08 1.87918644968197e-07 8.43211352805561e-08 2.25371233724956e-07 1.25388287815729e-07 1.86704065362378e-07
"2395" 41117 4.59685866729957e-08 1.13488054937001e-08 8.30994754113236e-08 1.87839519667633e-07 8.47775946684178e-08 2.24929994878644e-07 1.25573740948407e-07 1.83832467797577e-07
"2396" 41118 4.6123835290146e-08 1.13808172337276e-08 8.37503215696116e-08 1.87784857910392e-07 8.4840587217986e-08 2.25821191767809e-07 1.26126504943736e-07 1.83279131628948e-07
"2397" 41119 4.62738898633721e-08 1.1459714126661e-08 8.44240748250681e-08 1.86388057456264e-07 8.50990917096834e-08 2.25955878933398e-07 1.25349801004548e-07 1.83321962396905e-07
"2398" 41120 4.64491366260487e-08 1.14773946173018e-08 8.50953794550408e-08 1.85027741881939e-07 8.51140044175996e-08 2.25203207854661e-07 1.2408101474216e-07 1.85119221801125e-07
"2399" 41121 4.64439425821244e-08 1.14773946173018e-08 8.50670550440581e-08 1.83651490848443e-07 8.5059341117107e-08 2.24448973597336e-07 1.23379227567067e-07 1.85405706610194e-07
"2400" 41122 4.65188347956626e-08 1.14791631383436e-08 8.49636641993196e-08 1.82260975079693e-07 8.48510620622816e-08 2.26092876648486e-07 1.22282802007276e-07 1.85646993638099e-07
"2401" 41123 4.65937270092007e-08 1.14809316593853e-08 8.48602733545811e-08 1.80870459310944e-07 8.46427830074562e-08 2.27736779699635e-07 1.21186376447484e-07 1.85888280666004e-07
"2402" 41124 4.66686192227389e-08 1.14827001804271e-08 8.47568825098426e-08 1.79479943542194e-07 8.44345039526308e-08 2.29380682750785e-07 1.20089950887692e-07 1.86129567693909e-07
"2403" 41125 4.6743511436277e-08 1.14844687014689e-08 8.46534916651041e-08 1.78089427773445e-07 8.42262248978054e-08 2.31024585801934e-07 1.189935253279e-07 1.86370854721814e-07
"2404" 41126 4.68184036498152e-08 1.14862372225107e-08 8.45501008203656e-08 1.76698912004695e-07 8.401794584298e-08 2.32668488853083e-07 1.17897099768108e-07 1.86612141749719e-07
"2405" 41127 4.68932958633533e-08 1.14880057435525e-08 8.44467099756271e-08 1.75308396235946e-07 8.38096667881545e-08 2.34312391904233e-07 1.16800674208316e-07 1.86853428777624e-07
"2406" 41128 4.69681880768914e-08 1.14897742645943e-08 8.43433191308886e-08 1.73917880467197e-07 8.36013877333291e-08 2.35956294955382e-07 1.15704248648524e-07 1.87094715805529e-07
"2407" 41129 4.70430802904296e-08 1.1491542785636e-08 8.42399282861501e-08 1.72527364698447e-07 8.33931086785037e-08 2.37600198006532e-07 1.14607823088732e-07 1.87336002833434e-07
"2408" 41130 4.71179725039677e-08 1.14933113066778e-08 8.41365374414116e-08 1.71136848929698e-07 8.31848296236783e-08 2.39244101057681e-07 1.1351139752894e-07 1.87577289861339e-07
"2409" 41131 4.71928647175059e-08 1.14950798277196e-08 8.40331465966731e-08 1.69746333160948e-07 8.29765505688528e-08 2.4088800410883e-07 1.12414971969148e-07 1.87818576889244e-07
"2410" 41132 4.72538489955041e-08 1.14952629087721e-08 8.40351942211527e-08 1.6949997772264e-07 8.27682715140274e-08 2.43264739646089e-07 1.12119959410297e-07 1.88055662775426e-07
"2411" 41133 4.73148332735023e-08 1.14954459898245e-08 8.40372418456324e-08 1.69253622284331e-07 8.2559992459202e-08 2.45641475183349e-07 1.11824946851446e-07 1.88292748661607e-07
"2412" 41134 4.73758175515005e-08 1.1495629070877e-08 8.4039289470112e-08 1.69007266846023e-07 8.23517134043766e-08 2.48018210720608e-07 1.11529934292595e-07 1.88529834547789e-07
"2413" 41135 4.74368018294987e-08 1.14958121519294e-08 8.40413370945916e-08 1.68760911407714e-07 8.21434343495512e-08 2.50394946257867e-07 1.11234921733745e-07 1.88766920433971e-07
"2414" 41136 4.7497786107497e-08 1.14959952329819e-08 8.40433847190712e-08 1.68514555969406e-07 8.19351552947258e-08 2.52771681795126e-07 1.10939909174894e-07 1.89004006320153e-07
"2415" 41137 4.75587703854952e-08 1.14961783140344e-08 8.40454323435508e-08 1.68268200531097e-07 8.17268762399003e-08 2.55148417332385e-07 1.10644896616043e-07 1.89241092206335e-07
"2416" 41138 4.76197546634934e-08 1.14963613950868e-08 8.40474799680304e-08 1.68021845092789e-07 8.15185971850749e-08 2.57525152869644e-07 1.10349884057192e-07 1.89478178092517e-07
"2417" 41139 4.76807389414916e-08 1.14965444761393e-08 8.40495275925101e-08 1.6777548965448e-07 8.13103181302495e-08 2.59901888406904e-07 1.10054871498341e-07 1.89715263978699e-07
"2418" 41140 4.76110563844373e-08 1.14700166605126e-08 8.35461989536616e-08 1.66740480354462e-07 8.08297189474783e-08 2.598190603062e-07 1.1032014579648e-07 1.89290817231094e-07
"2419" 41141 4.75215380061784e-08 1.14395903604744e-08 8.30146948533071e-08 1.65244031800225e-07 8.03509655319093e-08 2.60378113172976e-07 1.10188724362956e-07 1.89069203288539e-07
"2420" 41142 4.74804623136861e-08 1.14447996632965e-08 8.31103079169812e-08 1.64209022500206e-07 7.98376481858027e-08 2.60303438808657e-07 1.10591529826735e-07 1.88550448643513e-07
"2421" 41143 4.74393866211939e-08 1.14500089661185e-08 8.32059209806554e-08 1.63174013200188e-07 7.9324330839696e-08 2.60228764444338e-07 1.10994335290513e-07 1.88031693998487e-07
"2422" 41144 4.73983109287016e-08 1.14552182689406e-08 8.33015340443296e-08 1.62139003900169e-07 7.88110134935894e-08 2.6015409008002e-07 1.11397140754292e-07 1.87512939353461e-07
"2423" 41145 4.73572352362094e-08 1.14604275717626e-08 8.33971471080037e-08 1.61103994600151e-07 7.82976961474827e-08 2.60079415715701e-07 1.1179994621807e-07 1.86994184708435e-07
"2424" 41146 4.73161595437171e-08 1.14656368745847e-08 8.34927601716779e-08 1.60068985300132e-07 7.77843788013761e-08 2.60004741351382e-07 1.12202751681849e-07 1.8647543006341e-07
"2425" 41147 4.72750838512249e-08 1.14708461774067e-08 8.35883732353521e-08 1.59033976000114e-07 7.72710614552694e-08 2.59930066987064e-07 1.12605557145627e-07 1.85956675418384e-07
"2426" 41148 4.72340081587326e-08 1.14760554802288e-08 8.36839862990262e-08 1.57998966700096e-07 7.67577441091628e-08 2.59855392622745e-07 1.13008362609406e-07 1.85437920773358e-07
"2427" 41149 4.71929324662404e-08 1.14812647830508e-08 8.37795993627004e-08 1.56963957400077e-07 7.62444267630561e-08 2.59780718258426e-07 1.13411168073184e-07 1.84919166128332e-07
"2428" 41150 4.71518567737481e-08 1.14864740858729e-08 8.38752124263746e-08 1.55928948100059e-07 7.57311094169495e-08 2.59706043894107e-07 1.13813973536963e-07 1.84400411483306e-07
"2429" 41151 4.71107810812559e-08 1.14916833886949e-08 8.39708254900487e-08 1.5489393880004e-07 7.52177920708428e-08 2.59631369529789e-07 1.14216779000742e-07 1.8388165683828e-07
"2430" 41152 4.70697053887636e-08 1.1496892691517e-08 8.40664385537229e-08 1.53858929500022e-07 7.47044747247362e-08 2.5955669516547e-07 1.1461958446452e-07 1.83362902193255e-07
"2431" 41153 4.70286296962714e-08 1.1502101994339e-08 8.4162051617397e-08 1.52823920200003e-07 7.41911573786295e-08 2.59482020801151e-07 1.15022389928299e-07 1.82844147548229e-07
"2432" 41154 4.70493772960976e-08 1.15045934000366e-08 8.40217797016524e-08 1.53620806458906e-07 7.3955745701541e-08 2.59917392424437e-07 1.16791488133227e-07 1.82996285690831e-07
"2433" 41155 4.69301882643965e-08 1.14648762317125e-08 8.31414708559028e-08 1.52903564058744e-07 7.37203340244524e-08 2.60466409591951e-07 1.18660440835274e-07 1.82860752765627e-07
"2434" 41156 4.68109992326954e-08 1.14251590633884e-08 8.22611620101532e-08 1.52186321658581e-07 7.34849223473639e-08 2.61015426759465e-07 1.20529393537321e-07 1.82725219840424e-07
"2435" 41157 4.66918102009943e-08 1.13854418950643e-08 8.13808531644036e-08 1.51469079258419e-07 7.32495106702753e-08 2.61564443926979e-07 1.22398346239367e-07 1.8258968691522e-07
"2436" 41158 4.65726211692932e-08 1.13457247267402e-08 8.05005443186541e-08 1.50751836858257e-07 7.30140989931868e-08 2.62113461094493e-07 1.24267298941414e-07 1.82454153990017e-07
"2437" 41159 4.64534321375922e-08 1.13060075584161e-08 7.96202354729045e-08 1.50034594458095e-07 7.27786873160982e-08 2.62662478262006e-07 1.2613625164346e-07 1.82318621064814e-07
"2438" 41160 4.63342431058911e-08 1.1266290390092e-08 7.87399266271549e-08 1.49317352057932e-07 7.25432756390097e-08 2.6321149542952e-07 1.28005204345507e-07 1.8218308813961e-07
"2439" 41161 4.6280555706114e-08 1.12180052381377e-08 7.80114929025345e-08 1.47799028327266e-07 7.22801831124745e-08 2.6356378556952e-07 1.2828957670068e-07 1.82294128006808e-07
"2440" 41162 4.62268683063369e-08 1.11697200861833e-08 7.7283059177914e-08 1.462807045966e-07 7.20170905859392e-08 2.6391607570952e-07 1.28573949055852e-07 1.82405167874007e-07
"2441" 41163 4.61731809065598e-08 1.1121434934229e-08 7.65546254532936e-08 1.44762380865934e-07 7.1753998059404e-08 2.6426836584952e-07 1.28858321411025e-07 1.82516207741205e-07
"2442" 41164 4.61194935067828e-08 1.10731497822747e-08 7.58261917286732e-08 1.43244057135268e-07 7.14909055328687e-08 2.6462065598952e-07 1.29142693766198e-07 1.82627247608403e-07
"2443" 41165 4.60658061070057e-08 1.10248646303204e-08 7.50977580040528e-08 1.41725733404602e-07 7.12278130063335e-08 2.6497294612952e-07 1.2942706612137e-07 1.82738287475601e-07
"2444" 41166 4.60121187072286e-08 1.09765794783661e-08 7.43693242794323e-08 1.40207409673936e-07 7.09647204797982e-08 2.6532523626952e-07 1.29711438476543e-07 1.82849327342799e-07
"2445" 41167 4.59584313074515e-08 1.09282943264118e-08 7.36408905548119e-08 1.3868908594327e-07 7.0701627953263e-08 2.6567752640952e-07 1.29995810831715e-07 1.82960367209997e-07
"2446" 41168 4.59047439076745e-08 1.08800091744574e-08 7.29124568301915e-08 1.37170762212604e-07 7.04385354267278e-08 2.6602981654952e-07 1.30280183186888e-07 1.83071407077195e-07
"2447" 41169 4.58510565078974e-08 1.08317240225031e-08 7.2184023105571e-08 1.35652438481937e-07 7.01754429001925e-08 2.6638210668952e-07 1.30564555542061e-07 1.83182446944393e-07
"2448" 41170 4.57973691081203e-08 1.07834388705488e-08 7.14555893809506e-08 1.34134114751271e-07 6.99123503736573e-08 2.66734396829519e-07 1.30848927897233e-07 1.83293486811591e-07
"2449" 41171 4.57436817083432e-08 1.07351537185945e-08 7.07271556563302e-08 1.32615791020605e-07 6.9649257847122e-08 2.67086686969519e-07 1.31133300252406e-07 1.83404526678789e-07
"2450" 41172 4.56899943085661e-08 1.06868685666402e-08 6.99987219317098e-08 1.31097467289939e-07 6.93861653205868e-08 2.67438977109519e-07 1.31417672607578e-07 1.83515566545987e-07
"2451" 41173 4.56363069087891e-08 1.06385834146859e-08 6.92702882070893e-08 1.29579143559273e-07 6.91230727940516e-08 2.67791267249519e-07 1.31702044962751e-07 1.83626606413185e-07
"2452" 41174 4.5582619509012e-08 1.05902982627315e-08 6.85418544824689e-08 1.28060819828607e-07 6.88599802675163e-08 2.68143557389519e-07 1.31986417317924e-07 1.83737646280383e-07
"2453" 41175 4.5440922953639e-08 1.05440538935092e-08 6.76542570148929e-08 1.27709124959236e-07 6.8741875447055e-08 2.68307753932353e-07 1.3286253943849e-07 1.83477166478393e-07
"2454" 41176 4.52969391454323e-08 1.04976722134975e-08 6.68069970512442e-08 1.26599811347283e-07 6.87554408322357e-08 2.68018531266775e-07 1.32931782966254e-07 1.83199681589717e-07
"2455" 41177 4.52328701394623e-08 1.04959494627188e-08 6.6831461906331e-08 1.26975548889612e-07 6.88465623785838e-08 2.68047811085381e-07 1.31690968237566e-07 1.83147585629319e-07
"2456" 41178 4.51124862196785e-08 1.04624895934913e-08 6.68507117164146e-08 1.26486744213663e-07 6.90553897634763e-08 2.6792303358043e-07 1.30789513453095e-07 1.81568386895711e-07
"2457" 41179 4.49921022998946e-08 1.04290297242639e-08 6.68699615264983e-08 1.25997939537714e-07 6.92642171483687e-08 2.67798256075479e-07 1.29888058668624e-07 1.79989188162103e-07
"2458" 41180 4.48717183801108e-08 1.03955698550364e-08 6.68892113365819e-08 1.25509134861766e-07 6.94730445332611e-08 2.67673478570528e-07 1.28986603884152e-07 1.78409989428495e-07
"2459" 41181 4.47513344603269e-08 1.0362109985809e-08 6.69084611466655e-08 1.25020330185817e-07 6.96818719181535e-08 2.67548701065577e-07 1.28085149099681e-07 1.76830790694887e-07
"2460" 41182 4.46309505405431e-08 1.03286501165815e-08 6.69277109567491e-08 1.24531525509868e-07 6.98906993030459e-08 2.67423923560626e-07 1.27183694315209e-07 1.75251591961279e-07
"2461" 41183 4.45105666207592e-08 1.02951902473541e-08 6.69469607668328e-08 1.24042720833919e-07 7.00995266879384e-08 2.67299146055675e-07 1.26282239530738e-07 1.73672393227672e-07
"2462" 41184 4.43901827009754e-08 1.02617303781266e-08 6.69662105769164e-08 1.23553916157971e-07 7.03083540728308e-08 2.67174368550724e-07 1.25380784746266e-07 1.72093194494064e-07
"2463" 41185 4.42697987811915e-08 1.02282705088992e-08 6.6985460387e-08 1.23065111482022e-07 7.05171814577232e-08 2.67049591045773e-07 1.24479329961795e-07 1.70513995760456e-07
"2464" 41186 4.41494148614076e-08 1.01948106396717e-08 6.70047101970837e-08 1.22576306806073e-07 7.07260088426156e-08 2.66924813540822e-07 1.23577875177323e-07 1.68934797026848e-07
"2465" 41187 4.40290309416238e-08 1.01613507704443e-08 6.70239600071673e-08 1.22087502130124e-07 7.0934836227508e-08 2.66800036035872e-07 1.22676420392852e-07 1.6735559829324e-07
"2466" 41188 4.39086470218399e-08 1.01278909012168e-08 6.70432098172509e-08 1.21598697454176e-07 7.11436636124005e-08 2.66675258530921e-07 1.21774965608381e-07 1.65776399559632e-07
"2467" 41189 4.37882631020561e-08 1.00944310319894e-08 6.70624596273346e-08 1.21109892778227e-07 7.13524909972929e-08 2.6655048102597e-07 1.20873510823909e-07 1.64197200826024e-07
"2468" 41190 4.36678791822722e-08 1.00609711627619e-08 6.70817094374182e-08 1.20621088102278e-07 7.15613183821853e-08 2.66425703521019e-07 1.19972056039438e-07 1.62618002092416e-07
"2469" 41191 4.36430844057665e-08 1.00066938937355e-08 6.69485075162246e-08 1.21208151103329e-07 7.18334376302464e-08 2.66358314460536e-07 1.20052833249113e-07 1.62272496857e-07
"2470" 41192 4.36182896292608e-08 9.95241662470913e-09 6.6815305595031e-08 1.21795214104379e-07 7.21055568783074e-08 2.66290925400053e-07 1.20133610458789e-07 1.61926991621584e-07
"2471" 41193 4.35934948527552e-08 9.89813935568274e-09 6.66821036738373e-08 1.22382277105429e-07 7.23776761263685e-08 2.66223536339571e-07 1.20214387668464e-07 1.61581486386168e-07
"2472" 41194 4.35687000762495e-08 9.84386208665634e-09 6.65489017526437e-08 1.2296934010648e-07 7.26497953744295e-08 2.66156147279088e-07 1.2029516487814e-07 1.61235981150752e-07
"2473" 41195 4.35439052997438e-08 9.78958481762995e-09 6.64156998314501e-08 1.2355640310753e-07 7.29219146224906e-08 2.66088758218605e-07 1.20375942087815e-07 1.60890475915336e-07
"2474" 41196 4.35191105232381e-08 9.73530754860356e-09 6.62824979102565e-08 1.2414346610858e-07 7.31940338705517e-08 2.66021369158122e-07 1.20456719297491e-07 1.6054497067992e-07
"2475" 41197 4.34943157467324e-08 9.68103027957717e-09 6.61492959890629e-08 1.2473052910963e-07 7.34661531186127e-08 2.6595398009764e-07 1.20537496507166e-07 1.60199465444505e-07
"2476" 41198 4.36055792310518e-08 9.67468143995429e-09 6.61905524348701e-08 1.24322493837077e-07 7.30293956620402e-08 2.64079635564717e-07 1.20133090884639e-07 1.61040979278917e-07
"2477" 41199 4.36955262473747e-08 9.6724141657953e-09 6.64637735129573e-08 1.23990995498195e-07 7.25158799052509e-08 2.62602704793301e-07 1.19715302083474e-07 1.61451012418954e-07
"2478" 41200 4.37055298855898e-08 9.76535824698267e-09 6.77785578223606e-08 1.23597875518504e-07 7.20610173710084e-08 2.60672554053653e-07 1.19263951333434e-07 1.62973759841049e-07
"2479" 41201 4.37155335238048e-08 9.85830232817004e-09 6.9093342131764e-08 1.23204755538813e-07 7.16061548367659e-08 2.58742403314004e-07 1.18812600583395e-07 1.64496507263144e-07
"2480" 41202 4.37255371620199e-08 9.9512464093574e-09 7.04081264411674e-08 1.22811635559122e-07 7.11512923025234e-08 2.56812252574356e-07 1.18361249833355e-07 1.66019254685239e-07
"2481" 41203 4.3735540800235e-08 1.00441904905448e-08 7.17229107505708e-08 1.22418515579431e-07 7.06964297682809e-08 2.54882101834708e-07 1.17909899083316e-07 1.67542002107334e-07
"2482" 41204 4.374554443845e-08 1.01371345717321e-08 7.30376950599741e-08 1.22025395599741e-07 7.02415672340384e-08 2.5295195109506e-07 1.17458548333276e-07 1.69064749529429e-07
"2483" 41205 4.37555480766651e-08 1.02300786529195e-08 7.43524793693775e-08 1.2163227562005e-07 6.97867046997959e-08 2.51021800355412e-07 1.17007197583237e-07 1.70587496951524e-07
"2484" 41206 4.37655517148802e-08 1.03230227341069e-08 7.56672636787809e-08 1.21239155640359e-07 6.93318421655534e-08 2.49091649615763e-07 1.16555846833197e-07 1.72110244373619e-07
"2485" 41207 4.37755553530952e-08 1.04159668152942e-08 7.69820479881843e-08 1.20846035660668e-07 6.88769796313109e-08 2.47161498876115e-07 1.16104496083158e-07 1.73632991795714e-07
"2486" 41208 4.37855589913103e-08 1.05089108964816e-08 7.82968322975877e-08 1.20452915680977e-07 6.84221170970684e-08 2.45231348136467e-07 1.15653145333119e-07 1.75155739217809e-07
"2487" 41209 4.37955626295254e-08 1.0601854977669e-08 7.9611616606991e-08 1.20059795701287e-07 6.79672545628259e-08 2.43301197396819e-07 1.15201794583079e-07 1.76678486639904e-07
"2488" 41210 4.38055662677405e-08 1.06947990588563e-08 8.09264009163944e-08 1.19666675721596e-07 6.75123920285834e-08 2.4137104665717e-07 1.1475044383304e-07 1.78201234062e-07
"2489" 41211 4.38155699059555e-08 1.07877431400437e-08 8.22411852257978e-08 1.19273555741905e-07 6.7057529494341e-08 2.39440895917522e-07 1.14299093083e-07 1.79723981484095e-07
"2490" 41212 4.38255735441706e-08 1.08806872212311e-08 8.35559695352012e-08 1.18880435762214e-07 6.66026669600984e-08 2.37510745177874e-07 1.13847742332961e-07 1.8124672890619e-07
"2491" 41213 4.36455080562993e-08 1.08473599430159e-08 8.3161333529681e-08 1.18765297713879e-07 6.67905970112019e-08 2.36827126823163e-07 1.13848469680185e-07 1.81033558053218e-07
"2492" 41214 4.36591523273452e-08 1.08555230739437e-08 8.33119043590667e-08 1.1785060517649e-07 6.64805722175829e-08 2.3722069565751e-07 1.13728270153217e-07 1.81130669716842e-07
"2493" 41215 4.36727965983911e-08 1.08636862048715e-08 8.34624751884524e-08 1.169359126391e-07 6.61705474239638e-08 2.37614264491858e-07 1.13608070626249e-07 1.81227781380465e-07
"2494" 41216 4.36864408694369e-08 1.08718493357992e-08 8.36130460178381e-08 1.16021220101711e-07 6.58605226303447e-08 2.38007833326205e-07 1.13487871099282e-07 1.81324893044089e-07
"2495" 41217 4.37000851404828e-08 1.0880012466727e-08 8.37636168472238e-08 1.15106527564321e-07 6.55504978367257e-08 2.38401402160553e-07 1.13367671572314e-07 1.81422004707713e-07
"2496" 41218 4.38533867660023e-08 1.09146963336159e-08 8.35554359431846e-08 1.14130213386124e-07 6.48969323280848e-08 2.38542539763145e-07 1.13247472045346e-07 1.8242683644766e-07
"2497" 41219 4.40066883915218e-08 1.09493802005048e-08 8.33472550391454e-08 1.13153899207927e-07 6.4243366819444e-08 2.38683677365738e-07 1.13127272518379e-07 1.83431668187608e-07
"2498" 41220 4.41599900170413e-08 1.09840640673937e-08 8.31390741351062e-08 1.12177585029729e-07 6.35898013108031e-08 2.3882481496833e-07 1.13007072991411e-07 1.84436499927556e-07
"2499" 41221 4.43132916425608e-08 1.10187479342827e-08 8.2930893231067e-08 1.11201270851532e-07 6.29362358021622e-08 2.38965952570922e-07 1.12886873464443e-07 1.85441331667504e-07
"2500" 41222 4.44665932680804e-08 1.10534318011716e-08 8.27227123270278e-08 1.10224956673334e-07 6.22826702935214e-08 2.39107090173515e-07 1.12766673937475e-07 1.86446163407451e-07
"2501" 41223 4.46198948935999e-08 1.10881156680605e-08 8.25145314229885e-08 1.09248642495137e-07 6.16291047848805e-08 2.39248227776107e-07 1.12646474410508e-07 1.87450995147399e-07
"2502" 41224 4.47731965191194e-08 1.11227995349494e-08 8.23063505189493e-08 1.08272328316939e-07 6.09755392762397e-08 2.393893653787e-07 1.1252627488354e-07 1.88455826887347e-07
"2503" 41225 4.49264981446389e-08 1.11574834018383e-08 8.20981696149101e-08 1.07296014138742e-07 6.03219737675988e-08 2.39530502981292e-07 1.12406075356572e-07 1.89460658627295e-07
"2504" 41226 4.50797997701584e-08 1.11921672687272e-08 8.18899887108709e-08 1.06319699960545e-07 5.96684082589579e-08 2.39671640583885e-07 1.12285875829604e-07 1.90465490367242e-07
"2505" 41227 4.52331013956779e-08 1.12268511356161e-08 8.16818078068317e-08 1.05343385782347e-07 5.90148427503171e-08 2.39812778186477e-07 1.12165676302637e-07 1.9147032210719e-07
"2506" 41228 4.53864030211974e-08 1.1261535002505e-08 8.14736269027924e-08 1.0436707160415e-07 5.83612772416762e-08 2.3995391578907e-07 1.12045476775669e-07 1.92475153847138e-07
"2507" 41229 4.55397046467169e-08 1.12962188693939e-08 8.12654459987532e-08 1.03390757425952e-07 5.77077117330354e-08 2.40095053391662e-07 1.11925277248701e-07 1.93479985587086e-07
"2508" 41230 4.56930062722365e-08 1.13309027362829e-08 8.1057265094714e-08 1.02414443247755e-07 5.70541462243945e-08 2.40236190994255e-07 1.11805077721733e-07 1.94484817327033e-07
"2509" 41231 4.5846307897756e-08 1.13457280190097e-08 8.09783227465979e-08 1.01450844303287e-07 5.65437724373419e-08 2.41289930504486e-07 1.11756345380548e-07 1.94770625227477e-07
"2510" 41232 4.58529982010319e-08 1.13605533017366e-08 8.10069361699783e-08 1.01230558007012e-07 5.5918486302465e-08 2.42401206592025e-07 1.12446598950892e-07 1.95584252445595e-07
"2511" 41233 4.58596885043078e-08 1.13753785844634e-08 8.10355495933586e-08 1.01010271710737e-07 5.52932001675882e-08 2.43512482679564e-07 1.13136852521236e-07 1.96397879663714e-07
"2512" 41234 4.58663788075837e-08 1.13902038671903e-08 8.10641630167389e-08 1.00789985414462e-07 5.46679140327114e-08 2.44623758767102e-07 1.1382710609158e-07 1.97211506881832e-07
"2513" 41235 4.58730691108596e-08 1.14050291499172e-08 8.10927764401193e-08 1.00569699118186e-07 5.40426278978346e-08 2.45735034854641e-07 1.14517359661924e-07 1.98025134099951e-07
"2514" 41236 4.58396305577915e-08 1.1411965923295e-08 8.13156145668127e-08 1.01373184448489e-07 5.40653212161092e-08 2.46867156570618e-07 1.15208527660138e-07 1.98949844743537e-07
"2515" 41237 4.57674671984625e-08 1.14236613765292e-08 8.15535464633876e-08 1.02087690638278e-07 5.39623290574979e-08 2.48037526131734e-07 1.15956428819004e-07 1.99792807356601e-07
"2516" 41238 4.56953038391335e-08 1.14353568297635e-08 8.17914783599625e-08 1.02802196828066e-07 5.38593368988867e-08 2.49207895692851e-07 1.1670432997787e-07 2.00635769969665e-07
"2517" 41239 4.56231404798045e-08 1.14470522829978e-08 8.20294102565374e-08 1.03516703017854e-07 5.37563447402754e-08 2.50378265253967e-07 1.17452231136736e-07 2.01478732582729e-07
"2518" 41240 4.55509771204756e-08 1.14587477362321e-08 8.22673421531123e-08 1.04231209207642e-07 5.36533525816642e-08 2.51548634815083e-07 1.18200132295602e-07 2.02321695195793e-07
"2519" 41241 4.54788137611466e-08 1.14704431894663e-08 8.25052740496872e-08 1.04945715397431e-07 5.35503604230529e-08 2.52719004376199e-07 1.18948033454468e-07 2.03164657808857e-07
"2520" 41242 4.54066504018176e-08 1.14821386427006e-08 8.27432059462621e-08 1.05660221587219e-07 5.34473682644416e-08 2.53889373937315e-07 1.19695934613335e-07 2.04007620421921e-07
"2521" 41243 4.53344870424886e-08 1.14938340959349e-08 8.2981137842837e-08 1.06374727777007e-07 5.33443761058304e-08 2.55059743498431e-07 1.20443835772201e-07 2.04850583034985e-07
"2522" 41244 4.52623236831597e-08 1.15055295491692e-08 8.32190697394119e-08 1.07089233966795e-07 5.32413839472191e-08 2.56230113059547e-07 1.21191736931067e-07 2.05693545648049e-07
"2523" 41245 4.51901603238307e-08 1.15172250024034e-08 8.34570016359868e-08 1.07803740156584e-07 5.31383917886079e-08 2.57400482620663e-07 1.21939638089933e-07 2.06536508261113e-07
"2524" 41246 4.51179969645017e-08 1.15289204556377e-08 8.36949335325617e-08 1.08518246346372e-07 5.30353996299966e-08 2.58570852181779e-07 1.22687539248799e-07 2.07379470874177e-07
"2525" 41247 4.50458336051727e-08 1.1540615908872e-08 8.39328654291366e-08 1.0923275253616e-07 5.29324074713853e-08 2.59741221742895e-07 1.23435440407665e-07 2.08222433487241e-07
"2526" 41248 4.49736702458438e-08 1.15523113621063e-08 8.41707973257115e-08 1.09947258725949e-07 5.28294153127741e-08 2.60911591304011e-07 1.24183341566531e-07 2.09065396100305e-07
"2527" 41249 4.49667162780738e-08 1.1559248135484e-08 8.43104570850852e-08 1.09694727941621e-07 5.27874704739789e-08 2.60759197431799e-07 1.24970020773829e-07 2.09418076554294e-07
"2528" 41250 4.49597623103038e-08 1.15661849088618e-08 8.44501168444588e-08 1.09442197157293e-07 5.27455256351837e-08 2.60606803559587e-07 1.25756699981128e-07 2.09770757008282e-07
"2529" 41251 4.49528083425339e-08 1.15731216822396e-08 8.45897766038325e-08 1.09189666372965e-07 5.27035807963885e-08 2.60454409687375e-07 1.26543379188427e-07 2.10123437462271e-07
"2530" 41252 4.49458543747639e-08 1.15800584556174e-08 8.47294363632062e-08 1.08937135588637e-07 5.26616359575934e-08 2.60302015815163e-07 1.27330058395725e-07 2.1047611791626e-07
"2531" 41253 4.49500794883247e-08 1.1571218210297e-08 8.46303942336016e-08 1.08742310341919e-07 5.26045788684818e-08 2.58967562760805e-07 1.27500257877682e-07 2.09904389882417e-07
"2532" 41254 4.49364352172788e-08 1.15875444721526e-08 8.4595271067354e-08 1.08163321992052e-07 5.25475217793702e-08 2.57668111650301e-07 1.27595769086766e-07 2.09405326764594e-07
"2533" 41255 4.4922790946233e-08 1.16038707340081e-08 8.45601479011063e-08 1.07584333642185e-07 5.24904646902586e-08 2.56368660539797e-07 1.27691280295851e-07 2.08906263646771e-07
"2534" 41256 4.49091466751871e-08 1.16201969958637e-08 8.45250247348587e-08 1.07005345292318e-07 5.24334076011471e-08 2.55069209429292e-07 1.27786791504936e-07 2.08407200528948e-07
"2535" 41257 4.47012081644941e-08 1.15811569419322e-08 8.43331537342106e-08 1.07480552509179e-07 5.2451761798167e-08 2.55104211373146e-07 1.27904850503692e-07 2.08254145322089e-07
"2536" 41258 4.44932696538011e-08 1.15421168880007e-08 8.41412827335626e-08 1.0795575972604e-07 5.2470115995187e-08 2.55139213317e-07 1.28022909502449e-07 2.08101090115229e-07
"2537" 41259 4.42853311431081e-08 1.15030768340692e-08 8.39494117329146e-08 1.084309669429e-07 5.24884701922069e-08 2.55174215260853e-07 1.28140968501205e-07 2.0794803490837e-07
"2538" 41260 4.40773926324151e-08 1.14640367801377e-08 8.37575407322665e-08 1.08906174159761e-07 5.25068243892269e-08 2.55209217204707e-07 1.28259027499962e-07 2.07794979701511e-07
"2539" 41261 4.38694541217221e-08 1.14249967262062e-08 8.35656697316185e-08 1.09381381376622e-07 5.25251785862468e-08 2.55244219148561e-07 1.28377086498718e-07 2.07641924494651e-07
"2540" 41262 4.36615156110291e-08 1.13859566722747e-08 8.33737987309705e-08 1.09856588593482e-07 5.25435327832668e-08 2.55279221092414e-07 1.28495145497475e-07 2.07488869287792e-07
"2541" 41263 4.34535771003361e-08 1.13469166183432e-08 8.31819277303224e-08 1.10331795810343e-07 5.25618869802867e-08 2.55314223036268e-07 1.28613204496231e-07 2.07335814080933e-07
"2542" 41264 4.32456385896431e-08 1.13078765644117e-08 8.29900567296744e-08 1.10807003027204e-07 5.25802411773067e-08 2.55349224980122e-07 1.28731263494988e-07 2.07182758874073e-07
"2543" 41265 4.30377000789501e-08 1.12688365104802e-08 8.27981857290263e-08 1.11282210244064e-07 5.25985953743267e-08 2.55384226923975e-07 1.28849322493744e-07 2.07029703667214e-07
"2544" 41266 4.28297615682572e-08 1.12297964565487e-08 8.26063147283783e-08 1.11757417460925e-07 5.26169495713466e-08 2.55419228867829e-07 1.28967381492501e-07 2.06876648460355e-07
"2545" 41267 4.26557032120076e-08 1.11719387350642e-08 8.24314450591704e-08 1.12261486358867e-07 5.32503156301823e-08 2.57130901706001e-07 1.29014368210637e-07 2.06687169756516e-07
"2546" 41268 4.24816448557581e-08 1.11140810135797e-08 8.22565753899624e-08 1.1276555525681e-07 5.3883681689018e-08 2.58842574544173e-07 1.29061354928773e-07 2.06497691052677e-07
"2547" 41269 4.23075864995085e-08 1.10562232920951e-08 8.20817057207545e-08 1.13269624154752e-07 5.45170477478537e-08 2.60554247382344e-07 1.29108341646908e-07 2.06308212348839e-07
"2548" 41270 4.2133528143259e-08 1.09983655706106e-08 8.19068360515466e-08 1.13773693052694e-07 5.51504138066894e-08 2.62265920220516e-07 1.29155328365044e-07 2.06118733645e-07
"2549" 41271 4.19594697870094e-08 1.0940507849126e-08 8.17319663823386e-08 1.14277761950637e-07 5.57837798655251e-08 2.63977593058688e-07 1.2920231508318e-07 2.05929254941162e-07
"2550" 41272 4.19512832243819e-08 1.09491216030194e-08 8.18015731914723e-08 1.14472560576268e-07 5.61249263803941e-08 2.62981735981253e-07 1.28994293494122e-07 2.0592706333133e-07
"2551" 41273 4.19549524330836e-08 1.09516130087169e-08 8.18909552234739e-08 1.15195606733245e-07 5.6415799013159e-08 2.63162579357831e-07 1.28799758957379e-07 2.05873940825852e-07
"2552" 41274 4.19586216417854e-08 1.09541044144144e-08 8.19803372554755e-08 1.15918652890221e-07 5.6706671645924e-08 2.63343422734408e-07 1.28605224420635e-07 2.05820818320373e-07
"2553" 41275 4.19622908504871e-08 1.09565958201119e-08 8.20697192874772e-08 1.16641699047197e-07 5.69975442786889e-08 2.63524266110985e-07 1.28410689883892e-07 2.05767695814894e-07
"2554" 41276 4.19659600591888e-08 1.09590872258094e-08 8.21591013194788e-08 1.17364745204173e-07 5.72884169114539e-08 2.63705109487563e-07 1.28216155347148e-07 2.05714573309415e-07
"2555" 41277 4.19696292678905e-08 1.09615786315069e-08 8.22484833514804e-08 1.18087791361149e-07 5.75792895442188e-08 2.6388595286414e-07 1.28021620810404e-07 2.05661450803936e-07
"2556" 41278 4.19732984765923e-08 1.09640700372044e-08 8.23378653834821e-08 1.18810837518125e-07 5.78701621769838e-08 2.64066796240718e-07 1.27827086273661e-07 2.05608328298457e-07
"2557" 41279 4.1976967685294e-08 1.09665614429019e-08 8.24272474154837e-08 1.19533883675102e-07 5.81610348097487e-08 2.64247639617295e-07 1.27632551736917e-07 2.05555205792978e-07
"2558" 41280 4.19806368939957e-08 1.09690528485994e-08 8.25166294474853e-08 1.20256929832078e-07 5.84519074425137e-08 2.64428482993872e-07 1.27438017200174e-07 2.055020832875e-07
"2559" 41281 4.19843061026974e-08 1.09715442542969e-08 8.2606011479487e-08 1.20979975989054e-07 5.87427800752786e-08 2.6460932637045e-07 1.2724348266343e-07 2.05448960782021e-07
"2560" 41282 4.19879753113992e-08 1.09740356599944e-08 8.26953935114886e-08 1.2170302214603e-07 5.90336527080436e-08 2.64790169747027e-07 1.27048948126686e-07 2.05395838276542e-07
"2561" 41283 4.19916445201009e-08 1.09765270656919e-08 8.27847755434902e-08 1.22426068303006e-07 5.93245253408085e-08 2.64971013123604e-07 1.26854413589943e-07 2.05342715771063e-07
"2562" 41284 4.19953137288026e-08 1.09790184713894e-08 8.28741575754919e-08 1.23149114459983e-07 5.96153979735735e-08 2.65151856500182e-07 1.26659879053199e-07 2.05289593265584e-07
"2563" 41285 4.19989829375043e-08 1.09815098770869e-08 8.29635396074935e-08 1.23872160616959e-07 5.99062706063384e-08 2.65332699876759e-07 1.26465344516456e-07 2.05236470760105e-07
"2564" 41286 4.20026521462061e-08 1.09840012827844e-08 8.30529216394951e-08 1.24595206773935e-07 6.01971432391034e-08 2.65513543253337e-07 1.26270809979712e-07 2.05183348254626e-07
"2565" 41287 4.2092141948594e-08 1.10132880460218e-08 8.30883419973725e-08 1.24847926760879e-07 6.02240265362496e-08 2.6554918255357e-07 1.26332738496052e-07 2.06639537046223e-07
"2566" 41288 4.2181631750982e-08 1.10425748092591e-08 8.312376235525e-08 1.25100646747823e-07 6.02509098333958e-08 2.65584821853803e-07 1.26394667012392e-07 2.0809572583782e-07
"2567" 41289 4.22449798785229e-08 1.10425748092591e-08 8.33638634587904e-08 1.25017726566455e-07 6.01319573692671e-08 2.65809322910995e-07 1.2636557302054e-07 2.08261679951042e-07
"2568" 41290 4.23083280060639e-08 1.10425748092591e-08 8.36039645623309e-08 1.24934806385087e-07 6.00130049051384e-08 2.66033823968186e-07 1.26336479028687e-07 2.08427634064263e-07
"2569" 41291 4.23716761336049e-08 1.10425748092591e-08 8.38440656658713e-08 1.24851886203719e-07 5.98940524410096e-08 2.66258325025378e-07 1.26307385036835e-07 2.08593588177484e-07
"2570" 41292 4.24350242611459e-08 1.10425748092591e-08 8.40841667694118e-08 1.24768966022351e-07 5.97750999768809e-08 2.66482826082569e-07 1.26278291044982e-07 2.08759542290706e-07
"2571" 41293 4.24983723886869e-08 1.10425748092591e-08 8.43242678729523e-08 1.24686045840983e-07 5.96561475127522e-08 2.66707327139761e-07 1.2624919705313e-07 2.08925496403927e-07
"2572" 41294 4.24303926037364e-08 1.10368643934313e-08 8.44652831214331e-08 1.24536840776186e-07 5.95128559170804e-08 2.66944123338372e-07 1.26287289319242e-07 2.08731313882818e-07
"2573" 41295 4.24689238605564e-08 1.10311539776035e-08 8.45960957937387e-08 1.2438763571139e-07 5.90607365764243e-08 2.6696915346714e-07 1.26419354944462e-07 2.0889885137193e-07
"2574" 41296 4.25074551173765e-08 1.10254435617757e-08 8.47269084660443e-08 1.24238430646593e-07 5.86086172357682e-08 2.66994183595908e-07 1.26551420569683e-07 2.09066388861042e-07
"2575" 41297 4.25459863741965e-08 1.10197331459479e-08 8.485772113835e-08 1.24089225581796e-07 5.8156497895112e-08 2.67019213724675e-07 1.26683486194904e-07 2.09233926350154e-07
"2576" 41298 4.25845176310166e-08 1.10140227301201e-08 8.49885338106556e-08 1.23940020517e-07 5.77043785544559e-08 2.67044243853443e-07 1.26815551820124e-07 2.09401463839266e-07
"2577" 41299 4.26230488878366e-08 1.10083123142923e-08 8.51193464829612e-08 1.23790815452203e-07 5.72522592137997e-08 2.6706927398221e-07 1.26947617445345e-07 2.09569001328378e-07
"2578" 41300 4.26615801446566e-08 1.10026018984646e-08 8.52501591552668e-08 1.23641610387407e-07 5.68001398731436e-08 2.67094304110978e-07 1.27079683070565e-07 2.0973653881749e-07
"2579" 41301 4.27001114014767e-08 1.09968914826368e-08 8.53809718275724e-08 1.2349240532261e-07 5.63480205324874e-08 2.67119334239746e-07 1.27211748695786e-07 2.09904076306602e-07
"2580" 41302 4.27386426582967e-08 1.0991181066809e-08 8.55117844998781e-08 1.23343200257813e-07 5.58959011918313e-08 2.67144364368513e-07 1.27343814321007e-07 2.10071613795714e-07
"2581" 41303 4.27771739151168e-08 1.09854706509812e-08 8.56425971721837e-08 1.23193995193017e-07 5.54437818511751e-08 2.67169394497281e-07 1.27475879946227e-07 2.10239151284826e-07
"2582" 41304 4.28157051719368e-08 1.09797602351534e-08 8.57734098444893e-08 1.2304479012822e-07 5.4991662510519e-08 2.67194424626048e-07 1.27607945571448e-07 2.10406688773938e-07
"2583" 41305 4.28542364287569e-08 1.09740498193256e-08 8.59042225167949e-08 1.22895585063423e-07 5.45395431698628e-08 2.67219454754816e-07 1.27740011196669e-07 2.1057422626305e-07
"2584" 41306 4.28927676855769e-08 1.09683394034978e-08 8.60350351891006e-08 1.22746379998627e-07 5.40874238292067e-08 2.67244484883584e-07 1.27872076821889e-07 2.10741763752162e-07
"2585" 41307 4.2931298942397e-08 1.096262898767e-08 8.61658478614062e-08 1.2259717493383e-07 5.36353044885505e-08 2.67269515012351e-07 1.2800414244711e-07 2.10909301241274e-07
"2586" 41308 4.2969830199217e-08 1.09569185718422e-08 8.62966605337118e-08 1.22447969869034e-07 5.31831851478944e-08 2.67294545141119e-07 1.28136208072331e-07 2.11076838730386e-07
"2587" 41309 4.30083614560371e-08 1.09512081560144e-08 8.64274732060174e-08 1.22298764804237e-07 5.27310658072382e-08 2.67319575269886e-07 1.28268273697551e-07 2.11244376219498e-07
"2588" 41310 4.30929559365214e-08 1.09414619449859e-08 8.63991487950347e-08 1.22206070646176e-07 5.22883230046089e-08 2.67231425041826e-07 1.2821933353185e-07 2.11201647087504e-07
"2589" 41311 4.30879463111341e-08 1.09451797082334e-08 8.64327490422635e-08 1.22096166534813e-07 5.21490213309914e-08 2.67552451610056e-07 1.28241881295801e-07 2.11584012572893e-07
"2590" 41312 4.30631008645422e-08 1.09455001000752e-08 8.64234209751897e-08 1.22191397798102e-07 5.2292812811498e-08 2.67226235235413e-07 1.28375069173407e-07 2.11709065008073e-07
"2591" 41313 4.30382554179504e-08 1.0945820491917e-08 8.64140929081159e-08 1.22286629061391e-07 5.24366042920046e-08 2.6690001886077e-07 1.28508257051013e-07 2.11834117443253e-07
"2592" 41314 4.30134099713585e-08 1.09461408837588e-08 8.64047648410421e-08 1.2238186032468e-07 5.25803957725112e-08 2.66573802486127e-07 1.28641444928619e-07 2.11959169878433e-07
"2593" 41315 4.29885645247667e-08 1.09464612756006e-08 8.63954367739683e-08 1.22477091587969e-07 5.27241872530178e-08 2.66247586111484e-07 1.28774632806226e-07 2.12084222313613e-07
"2594" 41316 4.29637190781748e-08 1.09467816674424e-08 8.63861087068944e-08 1.22572322851257e-07 5.28679787335245e-08 2.65921369736842e-07 1.28907820683832e-07 2.12209274748793e-07
"2595" 41317 4.29629280846926e-08 1.09430181339318e-08 8.61440911552396e-08 1.22790275982971e-07 5.34670814100239e-08 2.65946520927248e-07 1.29078103347036e-07 2.12151630503982e-07
"2596" 41318 4.29072677666619e-08 1.09513162157604e-08 8.6219122750096e-08 1.22821048852252e-07 5.35845378205678e-08 2.62572668106358e-07 1.28391154019309e-07 2.11249200114585e-07
"2597" 41319 4.28516074486312e-08 1.0959614297589e-08 8.62941543449524e-08 1.22851821721533e-07 5.37019942311118e-08 2.59198815285468e-07 1.27704204691581e-07 2.10346769725188e-07
"2598" 41320 4.27959471306006e-08 1.09679123794176e-08 8.63691859398088e-08 1.22882594590814e-07 5.38194506416557e-08 2.55824962464578e-07 1.27017255363854e-07 2.09444339335791e-07
"2599" 41321 4.27402868125699e-08 1.09762104612461e-08 8.64442175346652e-08 1.22913367460095e-07 5.39369070521997e-08 2.52451109643688e-07 1.26330306036126e-07 2.08541908946394e-07
"2600" 41322 4.26905543802039e-08 1.09782488840896e-08 8.64254049791322e-08 1.23127929862814e-07 5.41308223464765e-08 2.49046423355181e-07 1.2548614555136e-07 2.07459410239831e-07
"2601" 41323 4.26408219478378e-08 1.0980287306933e-08 8.64065924235993e-08 1.23342492265533e-07 5.43247376407533e-08 2.45641737066673e-07 1.24641985066594e-07 2.06376911533269e-07
"2602" 41324 4.25910895154718e-08 1.09823257297764e-08 8.63877798680663e-08 1.23557054668252e-07 5.45186529350301e-08 2.42237050778166e-07 1.23797824581828e-07 2.05294412826707e-07
"2603" 41325 4.25413570831057e-08 1.09843641526198e-08 8.63689673125334e-08 1.23771617070971e-07 5.47125682293069e-08 2.38832364489658e-07 1.22953664097062e-07 2.04211914120144e-07
"2604" 41326 4.24916246507397e-08 1.09864025754632e-08 8.63501547570005e-08 1.2398617947369e-07 5.49064835235838e-08 2.35427678201151e-07 1.22109503612296e-07 2.03129415413582e-07
"2605" 41327 4.24418922183736e-08 1.09884409983066e-08 8.63313422014675e-08 1.24200741876409e-07 5.51003988178606e-08 2.32022991912643e-07 1.21265343127529e-07 2.02046916707019e-07
"2606" 41328 4.23921597860076e-08 1.099047942115e-08 8.63125296459346e-08 1.24415304279128e-07 5.52943141121374e-08 2.28618305624136e-07 1.20421182642763e-07 2.00964418000457e-07
"2607" 41329 4.24080913098873e-08 1.10866061817587e-08 8.77676104087792e-08 1.24315459054378e-07 5.48011465360027e-08 2.26085991162495e-07 1.19581822634245e-07 2.00477784074725e-07
"2608" 41330 4.2424022833767e-08 1.11827329423674e-08 8.92226911716238e-08 1.24215613829629e-07 5.4307978959868e-08 2.23553676700853e-07 1.18742462625726e-07 1.99991150148993e-07
"2609" 41331 4.24399543576467e-08 1.1278859702976e-08 9.06777719344683e-08 1.24115768604879e-07 5.38148113837333e-08 2.21021362239212e-07 1.17903102617207e-07 1.99504516223261e-07
"2610" 41332 4.24220278212982e-08 1.13491452019047e-08 9.21541064064211e-08 1.23394867284358e-07 5.35051857777982e-08 2.17798433890186e-07 1.17310646299901e-07 1.99943503330811e-07
"2611" 41333 4.24847914681091e-08 1.14293599929144e-08 9.33634938500908e-08 1.23516365920316e-07 5.35079787541011e-08 2.18668507944389e-07 1.16614532464023e-07 2.00523287934075e-07
"2612" 41334 4.25475551149201e-08 1.15095747839241e-08 9.45728812937605e-08 1.23637864556275e-07 5.35107717304041e-08 2.19538581998591e-07 1.15918418628144e-07 2.01103072537339e-07
"2613" 41335 4.26103187617311e-08 1.15897895749337e-08 9.57822687374302e-08 1.23759363192234e-07 5.35135647067071e-08 2.20408656052793e-07 1.15222304792266e-07 2.01682857140603e-07
"2614" 41336 4.26730824085421e-08 1.16700043659434e-08 9.69916561811e-08 1.23880861828192e-07 5.35163576830101e-08 2.21278730106996e-07 1.14526190956387e-07 2.02262641743868e-07
"2615" 41337 4.27358460553531e-08 1.17502191569531e-08 9.82010436247697e-08 1.24002360464151e-07 5.35191506593131e-08 2.22148804161198e-07 1.13830077120508e-07 2.02842426347132e-07
"2616" 41338 4.2798609702164e-08 1.18304339479628e-08 9.94104310684394e-08 1.2412385910011e-07 5.35219436356161e-08 2.230188782154e-07 1.1313396328463e-07 2.03422210950396e-07
"2617" 41339 4.2861373348975e-08 1.19106487389725e-08 1.00619818512109e-07 1.24245357736069e-07 5.35247366119191e-08 2.23888952269603e-07 1.12437849448751e-07 2.0400199555366e-07
"2618" 41340 4.2924136995786e-08 1.19908635299822e-08 1.01829205955779e-07 1.24366856372027e-07 5.35275295882221e-08 2.24759026323805e-07 1.11741735612873e-07 2.04581780156924e-07
"2619" 41341 4.2986900642597e-08 1.20710783209919e-08 1.03038593399449e-07 1.24488355007986e-07 5.35303225645251e-08 2.25629100378007e-07 1.11045621776994e-07 2.05161564760188e-07
"2620" 41342 4.3049664289408e-08 1.21512931120015e-08 1.04247980843118e-07 1.24609853643945e-07 5.3533115540828e-08 2.2649917443221e-07 1.10349507941116e-07 2.05741349363452e-07
"2621" 41343 4.32964198156303e-08 1.21669351797989e-08 1.05162904508119e-07 1.26404384078212e-07 5.39645872843458e-08 2.2733121569335e-07 1.09755846344501e-07 2.09322322977584e-07
"2622" 41344 4.33173739282087e-08 1.21590009001867e-08 1.04892054905808e-07 1.2641296342403e-07 5.40315696530849e-08 2.27334600197897e-07 1.0957968259473e-07 2.10003642099973e-07
"2623" 41345 4.33383280407871e-08 1.21510666205745e-08 1.04621205303498e-07 1.26421542769848e-07 5.4098552021824e-08 2.27337984702445e-07 1.09403518844958e-07 2.10684961222362e-07
"2624" 41346 4.33592821533655e-08 1.21431323409623e-08 1.04350355701187e-07 1.26430122115667e-07 5.41655343905631e-08 2.27341369206992e-07 1.09227355095186e-07 2.11366280344751e-07
"2625" 41347 4.33802362659439e-08 1.21351980613501e-08 1.04079506098877e-07 1.26438701461485e-07 5.42325167593022e-08 2.2734475371154e-07 1.09051191345415e-07 2.1204759946714e-07
"2626" 41348 4.34011903785222e-08 1.21272637817379e-08 1.03808656496566e-07 1.26447280807303e-07 5.42994991280412e-08 2.27348138216087e-07 1.08875027595643e-07 2.12728918589529e-07
"2627" 41349 4.34221444911006e-08 1.21193295021257e-08 1.03537806894256e-07 1.26455860153122e-07 5.43664814967803e-08 2.27351522720635e-07 1.08698863845872e-07 2.13410237711918e-07
"2628" 41350 4.3443098603679e-08 1.21113952225135e-08 1.03266957291945e-07 1.2646443949894e-07 5.44334638655194e-08 2.27354907225182e-07 1.085227000961e-07 2.14091556834307e-07
"2629" 41351 4.34570415967456e-08 1.21211414335421e-08 1.03176516962466e-07 1.26261968393428e-07 5.44735635544128e-08 2.27345408609543e-07 1.08863473144141e-07 2.14772875956696e-07
"2630" 41352 4.36197299714717e-08 1.21096653920693e-08 1.03089909529216e-07 1.26189872937159e-07 5.47967558830132e-08 2.25509864817278e-07 1.08695455703858e-07 2.16205697530732e-07
"2631" 41353 4.37824183461978e-08 1.20981893505964e-08 1.03003302095966e-07 1.26117777480889e-07 5.51199482116136e-08 2.23674321025013e-07 1.08527438263574e-07 2.17638519104769e-07
"2632" 41354 4.39451067209239e-08 1.20867133091236e-08 1.02916694662716e-07 1.2604568202462e-07 5.5443140540214e-08 2.21838777232748e-07 1.08359420823291e-07 2.19071340678805e-07
"2633" 41355 4.41077950956501e-08 1.20752372676508e-08 1.02830087229465e-07 1.25973586568351e-07 5.57663328688144e-08 2.20003233440483e-07 1.08191403383007e-07 2.20504162252842e-07
"2634" 41356 4.42704834703762e-08 1.2063761226178e-08 1.02743479796215e-07 1.25901491112081e-07 5.60895251974148e-08 2.18167689648218e-07 1.08023385942723e-07 2.21936983826879e-07
"2635" 41357 4.44331718451023e-08 1.20522851847051e-08 1.02656872362965e-07 1.25829395655812e-07 5.64127175260152e-08 2.16332145855953e-07 1.0785536850244e-07 2.23369805400915e-07
"2636" 41358 4.45958602198284e-08 1.20408091432323e-08 1.02570264929715e-07 1.25757300199543e-07 5.67359098546155e-08 2.14496602063688e-07 1.07687351062156e-07 2.24802626974952e-07
"2637" 41359 4.47585485945545e-08 1.20293331017595e-08 1.02483657496465e-07 1.25685204743273e-07 5.70591021832159e-08 2.12661058271423e-07 1.07519333621873e-07 2.26235448548989e-07
"2638" 41360 4.49212369692807e-08 1.20178570602867e-08 1.02397050063214e-07 1.25613109287004e-07 5.73822945118163e-08 2.10825514479158e-07 1.07351316181589e-07 2.27668270123025e-07
"2639" 41361 4.50839253440068e-08 1.20063810188139e-08 1.02310442629964e-07 1.25541013830735e-07 5.77054868404167e-08 2.08989970686893e-07 1.07183298741306e-07 2.29101091697062e-07
"2640" 41362 4.52466137187329e-08 1.1994904977341e-08 1.02223835196714e-07 1.25468918374465e-07 5.80286791690171e-08 2.07154426894628e-07 1.07015281301022e-07 2.30533913271099e-07
"2641" 41363 4.5409302093459e-08 1.19834289358682e-08 1.02137227763464e-07 1.25396822918196e-07 5.83518714976175e-08 2.05318883102363e-07 1.06847263860738e-07 2.31966734845135e-07
"2642" 41364 4.55719904681851e-08 1.19719528943954e-08 1.02050620330214e-07 1.25324727461927e-07 5.86750638262179e-08 2.03483339310098e-07 1.06679246420455e-07 2.33399556419172e-07
"2643" 41365 4.57346788429113e-08 1.19604768529226e-08 1.01964012896963e-07 1.25252632005657e-07 5.89982561548183e-08 2.01647795517833e-07 1.06511228980171e-07 2.34832377993209e-07
"2644" 41366 4.56404586921896e-08 1.19266050513271e-08 1.01779955930926e-07 1.25205445603657e-07 5.92524210108439e-08 1.99827904300335e-07 1.06816050341754e-07 2.34805050959856e-07
"2645" 41367 4.5641144513092e-08 1.19155867124854e-08 1.01590176280213e-07 1.25139456407188e-07 5.93924710713458e-08 1.98006347901764e-07 1.06747575700396e-07 2.34993501948315e-07
"2646" 41368 4.55229270610025e-08 1.18955450472709e-08 1.01396362879107e-07 1.25023368153272e-07 5.9384490918587e-08 1.96297273866724e-07 1.06524716212531e-07 2.33897110751586e-07
"2647" 41369 4.54047096089131e-08 1.18755033820564e-08 1.01202549478001e-07 1.24907279899357e-07 5.93765107658283e-08 1.94588199831683e-07 1.06301856724667e-07 2.32800719554858e-07
"2648" 41370 4.52864921568236e-08 1.18554617168419e-08 1.01008736076894e-07 1.24791191645442e-07 5.93685306130696e-08 1.92879125796643e-07 1.06078997236803e-07 2.3170432835813e-07
"2649" 41371 4.51682747047342e-08 1.18354200516274e-08 1.00814922675788e-07 1.24675103391527e-07 5.93605504603108e-08 1.91170051761603e-07 1.05856137748938e-07 2.30607937161401e-07
"2650" 41372 4.50500572526448e-08 1.18153783864129e-08 1.00621109274682e-07 1.24559015137611e-07 5.93525703075521e-08 1.89460977726563e-07 1.05633278261074e-07 2.29511545964673e-07
"2651" 41373 4.49318398005553e-08 1.17953367211983e-08 1.00427295873576e-07 1.24442926883696e-07 5.93445901547934e-08 1.87751903691522e-07 1.0541041877321e-07 2.28415154767944e-07
"2652" 41374 4.4835907746826e-08 1.17863133948255e-08 1.00357164358982e-07 1.24380829149845e-07 5.82146157509031e-08 1.87291266098511e-07 1.05139117821319e-07 2.27543913514161e-07
"2653" 41375 4.48520964535441e-08 1.1738982338731e-08 1.00150382669505e-07 1.2421676599537e-07 5.81216978085356e-08 1.8710717357339e-07 1.05136000607907e-07 2.27665772910845e-07
"2654" 41376 4.48682851602621e-08 1.16916512826365e-08 9.99436009800278e-08 1.24052702840895e-07 5.80287798661681e-08 1.8692308104827e-07 1.05132883394494e-07 2.27787632307529e-07
"2655" 41377 4.48844738669802e-08 1.1644320226542e-08 9.97368192905508e-08 1.23888639686419e-07 5.79358619238005e-08 1.86738988523149e-07 1.05129766181081e-07 2.27909491704212e-07
"2656" 41378 4.49006625736983e-08 1.15969891704476e-08 9.95300376010738e-08 1.23724576531944e-07 5.7842943981433e-08 1.86554895998028e-07 1.05126648967668e-07 2.28031351100896e-07
"2657" 41379 4.49168512804163e-08 1.15496581143531e-08 9.93232559115968e-08 1.23560513377469e-07 5.77500260390655e-08 1.86370803472908e-07 1.05123531754256e-07 2.2815321049758e-07
"2658" 41380 4.49642834966372e-08 1.1498563524748e-08 9.91152054765993e-08 1.2336727415589e-07 5.77073825961026e-08 1.86044886611202e-07 1.05144604079888e-07 2.28196041265537e-07
"2659" 41381 4.5011715712858e-08 1.14474689351429e-08 9.89071550416017e-08 1.23174034934311e-07 5.76647391531396e-08 1.85718969749496e-07 1.0516567640552e-07 2.28238872033493e-07
"2660" 41382 4.50591479290788e-08 1.13963743455378e-08 9.86991046066042e-08 1.22980795712732e-07 5.76220957101767e-08 1.85393052887791e-07 1.05186748731152e-07 2.2828170280145e-07
"2661" 41383 4.51065801452997e-08 1.13452797559327e-08 9.84910541716067e-08 1.22787556491153e-07 5.75794522672138e-08 1.85067136026085e-07 1.05207821056784e-07 2.28324533569407e-07
"2662" 41384 4.51540123615205e-08 1.12941851663276e-08 9.82830037366091e-08 1.22594317269575e-07 5.75368088242509e-08 1.84741219164379e-07 1.05228893382417e-07 2.28367364337363e-07
"2663" 41385 4.52014445777413e-08 1.12430905767225e-08 9.80749533016116e-08 1.22401078047996e-07 5.7494165381288e-08 1.84415302302673e-07 1.05249965708049e-07 2.2841019510532e-07
"2664" 41386 4.52488767939622e-08 1.11919959871174e-08 9.7866902866614e-08 1.22207838826417e-07 5.74515219383251e-08 1.84089385440967e-07 1.05271038033681e-07 2.28453025873276e-07
"2665" 41387 4.5296309010183e-08 1.11409013975123e-08 9.76588524316165e-08 1.22014599604838e-07 5.74088784953622e-08 1.83763468579262e-07 1.05292110359313e-07 2.28495856641233e-07
"2666" 41388 4.54688269186504e-08 1.1078378896586e-08 9.75061984315282e-08 1.22033084052272e-07 5.73147636072434e-08 1.83478712385326e-07 1.06157343169712e-07 2.29749216550212e-07
"2667" 41389 4.55287630203281e-08 1.10579734291551e-08 9.74037094628818e-08 1.22047999345134e-07 5.71242895963036e-08 1.8260056277328e-07 1.06418253307343e-07 2.30774663556182e-07
"2668" 41390 4.55886991220057e-08 1.10375679617242e-08 9.73012204942354e-08 1.22062914637997e-07 5.69338155853637e-08 1.81722413161234e-07 1.06679163444974e-07 2.31800110562152e-07
"2669" 41391 4.56486352236833e-08 1.10171624942933e-08 9.7198731525589e-08 1.22077829930859e-07 5.67433415744239e-08 1.80844263549188e-07 1.06940073582605e-07 2.32825557568123e-07
"2670" 41392 4.5708571325361e-08 1.09967570268624e-08 9.70962425569426e-08 1.22092745223721e-07 5.6552867563484e-08 1.79966113937142e-07 1.07200983720236e-07 2.33851004574093e-07
"2671" 41393 4.57685074270386e-08 1.09763515594315e-08 9.69937535882962e-08 1.22107660516583e-07 5.63623935525442e-08 1.79087964325096e-07 1.07461893857867e-07 2.34876451580063e-07
"2672" 41394 4.58284435287162e-08 1.09559460920006e-08 9.68912646196498e-08 1.22122575809445e-07 5.61719195416043e-08 1.78209814713051e-07 1.07722803995498e-07 2.35901898586033e-07
"2673" 41395 4.58883796303939e-08 1.09355406245697e-08 9.67887756510034e-08 1.22137491102307e-07 5.59814455306645e-08 1.77331665101005e-07 1.07983714133129e-07 2.36927345592003e-07
"2674" 41396 4.59483157320715e-08 1.09151351571388e-08 9.6686286682357e-08 1.2215240639517e-07 5.57909715197246e-08 1.76453515488959e-07 1.0824462427076e-07 2.37952792597974e-07
"2675" 41397 4.60082518337491e-08 1.08947296897079e-08 9.65837977137106e-08 1.22167321688032e-07 5.56004975087848e-08 1.75575365876913e-07 1.08505534408391e-07 2.38978239603944e-07
"2676" 41398 4.60681879354267e-08 1.0874324222277e-08 9.64813087450642e-08 1.22182236980894e-07 5.54100234978449e-08 1.74697216264867e-07 1.08766444546022e-07 2.40003686609914e-07
"2677" 41399 4.61281240371044e-08 1.08539187548461e-08 9.63788197764178e-08 1.22197152273756e-07 5.52195494869051e-08 1.73819066652821e-07 1.09027354683653e-07 2.41029133615884e-07
"2678" 41400 4.6188060138782e-08 1.08335132874152e-08 9.62763308077714e-08 1.22212067566618e-07 5.50290754759652e-08 1.72940917040775e-07 1.09288264821284e-07 2.42054580621854e-07
"2679" 41401 4.62479962404596e-08 1.08131078199843e-08 9.6173841839125e-08 1.2222698285948e-07 5.48386014650253e-08 1.72062767428729e-07 1.09549174958915e-07 2.43080027627825e-07
"2680" 41402 4.63079323421373e-08 1.07927023525534e-08 9.60713528704786e-08 1.22241898152343e-07 5.46481274540855e-08 1.71184617816683e-07 1.09810085096546e-07 2.44105474633795e-07
"2681" 41403 4.63678684438149e-08 1.07722968851225e-08 9.59688639018322e-08 1.22256813445205e-07 5.44576534431456e-08 1.70306468204637e-07 1.10070995234177e-07 2.45130921639765e-07
"2682" 41404 4.62957908120987e-08 1.07521636793818e-08 9.58374820912871e-08 1.22224271289686e-07 5.43780523839094e-08 1.69578239275902e-07 1.09903164797376e-07 2.4530405881642e-07
"2683" 41405 4.62237131803825e-08 1.0732030473641e-08 9.5706100280742e-08 1.22191729134168e-07 5.42984513246731e-08 1.68850010347167e-07 1.09735334360576e-07 2.45477195993075e-07
"2684" 41406 4.61536019852642e-08 1.07920110788296e-08 9.69010089401955e-08 1.22186068385313e-07 5.42284258314467e-08 1.67838132745261e-07 1.09671410831767e-07 2.4542353509864e-07
"2685" 41407 4.6083490790146e-08 1.08519916840182e-08 9.80959175996489e-08 1.22180407636458e-07 5.41584003382204e-08 1.66826255143355e-07 1.09607487302958e-07 2.45369874204205e-07
"2686" 41408 4.60133795950277e-08 1.09119722892068e-08 9.92908262591023e-08 1.22174746887603e-07 5.4088374844994e-08 1.6581437754145e-07 1.09543563774149e-07 2.4531621330977e-07
"2687" 41409 4.60155811202487e-08 1.09719528943954e-08 1.00568974077119e-07 1.21656745464983e-07 5.42367536401545e-08 1.65435097343461e-07 1.09743896319095e-07 2.45111058220082e-07
"2688" 41410 4.59758237502268e-08 1.10365619483167e-08 1.01875909513012e-07 1.20691600980003e-07 5.43335116420093e-08 1.65259995151285e-07 1.09837516492271e-07 2.45360951973656e-07
"2689" 41411 4.59360663802049e-08 1.11011710022381e-08 1.03182844948905e-07 1.19726456495024e-07 5.4430269643864e-08 1.65084892959109e-07 1.09931136665447e-07 2.45610845727231e-07
"2690" 41412 4.5896309010183e-08 1.11657800561594e-08 1.04489780384798e-07 1.18761312010045e-07 5.45270276457187e-08 1.64909790766934e-07 1.10024756838623e-07 2.45860739480805e-07
"2691" 41413 4.58565516401611e-08 1.12303891100807e-08 1.05796715820692e-07 1.17796167525066e-07 5.46237856475735e-08 1.64734688574758e-07 1.10118377011799e-07 2.4611063323438e-07
"2692" 41414 4.58167942701392e-08 1.1294998164002e-08 1.07103651256585e-07 1.16831023040087e-07 5.47205436494282e-08 1.64559586382582e-07 1.10211997184975e-07 2.46360526987954e-07
"2693" 41415 4.57770369001173e-08 1.13596072179234e-08 1.08410586692478e-07 1.15865878555108e-07 5.48173016512829e-08 1.64384484190407e-07 1.10305617358151e-07 2.46610420741528e-07
"2694" 41416 4.57372795300954e-08 1.14242162718447e-08 1.09717522128371e-07 1.14900734070129e-07 5.49140596531377e-08 1.64209381998231e-07 1.10399237531327e-07 2.46860314495103e-07
"2695" 41417 4.56975221600735e-08 1.1488825325766e-08 1.11024457564265e-07 1.1393558958515e-07 5.50108176549924e-08 1.64034279806055e-07 1.10492857704503e-07 2.47110208248677e-07
"2696" 41418 4.56577647900516e-08 1.15534343796874e-08 1.12331393000158e-07 1.12970445100171e-07 5.51075756568471e-08 1.6385917761388e-07 1.10586477877679e-07 2.47360102002252e-07
"2697" 41419 4.56180074200297e-08 1.16180434336087e-08 1.13638328436051e-07 1.12005300615192e-07 5.52043336587018e-08 1.63684075421704e-07 1.10680098050855e-07 2.47609995755826e-07
"2698" 41420 4.55782500500078e-08 1.168265248753e-08 1.14945263871945e-07 1.11040156130213e-07 5.53010916605566e-08 1.63508973229528e-07 1.10773718224031e-07 2.478598895094e-07
"2699" 41421 4.55384926799858e-08 1.17472615414514e-08 1.16252199307838e-07 1.10075011645234e-07 5.53978496624113e-08 1.63333871037352e-07 1.10867338397207e-07 2.48109783262975e-07
"2700" 41422 4.54987353099639e-08 1.18118705953727e-08 1.17559134743731e-07 1.09109867160254e-07 5.5494607664266e-08 1.63158768845177e-07 1.10960958570383e-07 2.48359677016549e-07
"2701" 41423 4.5458977939942e-08 1.1876479649294e-08 1.18866070179624e-07 1.08144722675275e-07 5.55913656661208e-08 1.62983666653001e-07 1.11054578743559e-07 2.48609570770123e-07
"2702" 41424 4.54192205699201e-08 1.19410887032154e-08 1.20173005615518e-07 1.07179578190296e-07 5.56881236679755e-08 1.62808564460825e-07 1.11148198916735e-07 2.48859464523698e-07
"2703" 41425 4.53863249583997e-08 1.19276247289393e-08 1.20153563130502e-07 1.06216081769161e-07 5.61061283571447e-08 1.63105037346992e-07 1.11032550553758e-07 2.49553387071256e-07
"2704" 41426 4.53482989363526e-08 1.1941770537385e-08 1.20372139992972e-07 1.05617592766563e-07 5.63162029849222e-08 1.63130421131099e-07 1.11525588869731e-07 2.49907702304266e-07
"2705" 41427 4.53102729143054e-08 1.19559163458307e-08 1.20590716855442e-07 1.05019103763965e-07 5.65262776126996e-08 1.63155804915205e-07 1.12018627185704e-07 2.50262017537276e-07
"2706" 41428 4.52722468922583e-08 1.19700621542765e-08 1.20809293717911e-07 1.04420614761367e-07 5.6736352240477e-08 1.63181188699311e-07 1.12511665501678e-07 2.50616332770285e-07
"2707" 41429 4.52342208702111e-08 1.19842079627222e-08 1.21027870580381e-07 1.03822125758769e-07 5.69464268682544e-08 1.63206572483418e-07 1.13004703817651e-07 2.50970648003295e-07
"2708" 41430 4.5196194848164e-08 1.19983537711679e-08 1.21246447442851e-07 1.03223636756171e-07 5.71565014960318e-08 1.63231956267524e-07 1.13497742133624e-07 2.51324963236305e-07
"2709" 41431 4.5143803676642e-08 1.20219277586889e-08 1.21473048080651e-07 1.03497296452014e-07 5.68813894206173e-08 1.63261730074459e-07 1.13913099658023e-07 2.51081718079638e-07
"2710" 41432 4.49076427510204e-08 1.20394709385404e-08 1.21696236010985e-07 1.03877941662257e-07 5.71426858597834e-08 1.63173117694059e-07 1.14406137973996e-07 2.49324233342716e-07
"2711" 41433 4.46714818253988e-08 1.20570141183918e-08 1.21919423941319e-07 1.042585868725e-07 5.74039822989495e-08 1.6308450531366e-07 1.14899176289969e-07 2.47566748605793e-07
"2712" 41434 4.44353208997772e-08 1.20745572982432e-08 1.22142611871653e-07 1.04639232082743e-07 5.76652787381156e-08 1.6299589293326e-07 1.15392214605942e-07 2.45809263868871e-07
"2713" 41435 4.41991599741557e-08 1.20921004780946e-08 1.22365799801987e-07 1.05019877292986e-07 5.79265751772818e-08 1.6290728055286e-07 1.15885252921916e-07 2.44051779131948e-07
"2714" 41436 4.39629990485341e-08 1.2109643657946e-08 1.22588987732321e-07 1.05400522503229e-07 5.81878716164479e-08 1.62818668172461e-07 1.16378291237889e-07 2.42294294395025e-07
"2715" 41437 4.37268381229125e-08 1.21271868377974e-08 1.22812175662655e-07 1.05781167713472e-07 5.8449168055614e-08 1.62730055792061e-07 1.16871329553862e-07 2.40536809658103e-07
"2716" 41438 4.36960556597522e-08 1.21209271788122e-08 1.22796390464725e-07 1.05830845900552e-07 5.84487690736969e-08 1.62694991693759e-07 1.16804060268975e-07 2.38476548817759e-07
"2717" 41439 4.34569307912983e-08 1.21088197932099e-08 1.22891039446417e-07 1.06301574241888e-07 5.84497166943313e-08 1.62378506528456e-07 1.16672846659967e-07 2.36647454748744e-07
"2718" 41440 4.32178059228444e-08 1.20967124076076e-08 1.22985688428109e-07 1.06772302583223e-07 5.84506643149656e-08 1.62062021363152e-07 1.1654163305096e-07 2.34818360679729e-07
"2719" 41441 4.3216487600374e-08 1.20959413928002e-08 1.23089778880128e-07 1.072582172638e-07 5.83562999988465e-08 1.62071127992947e-07 1.16521475101756e-07 2.35080435624902e-07
"2720" 41442 4.32053370949142e-08 1.20962136544904e-08 1.23100025181759e-07 1.07560488273914e-07 5.83045791256904e-08 1.62072036273532e-07 1.16496973864518e-07 2.35172887029524e-07
"2721" 41443 4.31941865894544e-08 1.20964859161806e-08 1.23110271483389e-07 1.07862759284027e-07 5.82528582525342e-08 1.62072944554117e-07 1.16472472627281e-07 2.35265338434146e-07
"2722" 41444 4.31830360839945e-08 1.20967581778707e-08 1.23120517785019e-07 1.0816503029414e-07 5.8201137379378e-08 1.62073852834703e-07 1.16447971390043e-07 2.35357789838769e-07
"2723" 41445 4.31718855785347e-08 1.20970304395609e-08 1.23130764086649e-07 1.08467301304253e-07 5.81494165062218e-08 1.62074761115288e-07 1.16423470152806e-07 2.35450241243391e-07
"2724" 41446 4.31607350730749e-08 1.20973027012511e-08 1.2314101038828e-07 1.08769572314367e-07 5.80976956330656e-08 1.62075669395873e-07 1.16398968915568e-07 2.35542692648013e-07
"2725" 41447 4.31972934116413e-08 1.21061429465714e-08 1.23328358479297e-07 1.08622563347691e-07 5.80893162926229e-08 1.62146581564166e-07 1.16383341335043e-07 2.35349762308193e-07
"2726" 41448 4.31892211524975e-08 1.21124917861943e-08 1.23552149679446e-07 1.0865064334624e-07 5.81727074228629e-08 1.62646451731715e-07 1.16394272338718e-07 2.3527526601579e-07
"2727" 41449 4.31811488933537e-08 1.21188406258172e-08 1.23775940879596e-07 1.08678723344789e-07 5.82560985531029e-08 1.63146321899265e-07 1.16405203342394e-07 2.35200769723388e-07
"2728" 41450 4.31788902163908e-08 1.21242377294688e-08 1.24099919957737e-07 1.08663935215839e-07 5.83082182024094e-08 1.63297491953861e-07 1.16308465981526e-07 2.35299632321418e-07
"2729" 41451 4.19619924113958e-08 1.20748201203792e-08 1.24280782843584e-07 1.08439079403742e-07 5.84399387051852e-08 1.63664061200643e-07 1.16341820080164e-07 2.3288060985798e-07
"2730" 41452 4.07450946064008e-08 1.20254025112897e-08 1.2446164572943e-07 1.08214223591645e-07 5.85716592079611e-08 1.64030630447424e-07 1.16375174178801e-07 2.30461587394542e-07
"2731" 41453 3.95281968014058e-08 1.19759849022001e-08 1.24642508615277e-07 1.07989367779548e-07 5.87033797107369e-08 1.64397199694205e-07 1.16408528277439e-07 2.28042564931103e-07
"2732" 41454 3.83112989964108e-08 1.19265672931106e-08 1.24823371501123e-07 1.07764511967452e-07 5.88351002135128e-08 1.64763768940987e-07 1.16441882376077e-07 2.25623542467665e-07
"2733" 41455 3.70944011914157e-08 1.1877149684021e-08 1.2500423438697e-07 1.07539656155355e-07 5.89668207162887e-08 1.65130338187768e-07 1.16475236474714e-07 2.23204520004227e-07
"2734" 41456 3.58775033864207e-08 1.18277320749315e-08 1.25185097272817e-07 1.07314800343258e-07 5.90985412190645e-08 1.6549690743455e-07 1.16508590573352e-07 2.20785497540789e-07
"2735" 41457 3.46606055814257e-08 1.17783144658419e-08 1.25365960158663e-07 1.07089944531161e-07 5.92302617218404e-08 1.65863476681331e-07 1.1654194467199e-07 2.18366475077351e-07
"2736" 41458 3.34437077764307e-08 1.17288968567524e-08 1.2554682304451e-07 1.06865088719064e-07 5.93619822246162e-08 1.66230045928113e-07 1.16575298770627e-07 2.15947452613913e-07
"2737" 41459 3.22268099714357e-08 1.16794792476629e-08 1.25727685930356e-07 1.06640232906968e-07 5.94937027273921e-08 1.66596615174894e-07 1.16608652869265e-07 2.13528430150475e-07
"2738" 41460 3.10099121664407e-08 1.16300616385733e-08 1.25908548816203e-07 1.06415377094871e-07 5.96254232301679e-08 1.66963184421676e-07 1.16642006967903e-07 2.11109407687037e-07
"2739" 41461 2.97930143614456e-08 1.15806440294838e-08 1.2608941170205e-07 1.06190521282774e-07 5.97571437329438e-08 1.67329753668457e-07 1.1667536106654e-07 2.08690385223598e-07
"2740" 41462 2.85782323540589e-08 1.15289591462352e-08 1.25950198083782e-07 1.06111020431992e-07 5.98385903536156e-08 1.67367681211777e-07 1.16805452526046e-07 2.06959041672827e-07
"2741" 41463 2.74296000927237e-08 1.14731926975228e-08 1.25813206991815e-07 1.06221618440607e-07 6.00237278399498e-08 1.67845513769262e-07 1.16874862313423e-07 2.05681336652205e-07
"2742" 41464 2.62809678313884e-08 1.14174262488104e-08 1.25676215899848e-07 1.06332216449221e-07 6.0208865326284e-08 1.68323346326747e-07 1.169442721008e-07 2.04403631631584e-07
"2743" 41465 2.63530168872337e-08 1.13688688351659e-08 1.24901520425136e-07 1.06725580854205e-07 6.0208865326284e-08 1.68820639785381e-07 1.15827272839889e-07 2.05643811672432e-07
"2744" 41466 2.64050015149069e-08 1.1296409962493e-08 1.24635352983136e-07 1.07106301966694e-07 6.03125561919464e-08 1.69397168070413e-07 1.1532342821495e-07 2.06795799528072e-07
"2745" 41467 2.6384908510864e-08 1.12327913351405e-08 1.24462373809699e-07 1.07058721315414e-07 6.02371445971646e-08 1.70800190907575e-07 1.14789741532785e-07 2.06687129426214e-07
"2746" 41468 2.63685132913937e-08 1.11613757389652e-08 1.24479103901853e-07 1.06892938155861e-07 6.01904612436639e-08 1.70757387365145e-07 1.14220518710309e-07 2.06868336521415e-07
"2747" 41469 2.63521180719235e-08 1.10899601427898e-08 1.24495833994007e-07 1.06727154996309e-07 6.01437778901633e-08 1.70714583822714e-07 1.13651295887834e-07 2.07049543616616e-07
"2748" 41470 2.63357228524532e-08 1.10185445466144e-08 1.24512564086161e-07 1.06561371836756e-07 6.00970945366627e-08 1.70671780280283e-07 1.13082073065358e-07 2.07230750711817e-07
"2749" 41471 2.63193276329829e-08 1.09471289504391e-08 1.24529294178315e-07 1.06395588677204e-07 6.00504111831621e-08 1.70628976737853e-07 1.12512850242883e-07 2.07411957807018e-07
"2750" 41472 2.63029324135126e-08 1.08757133542637e-08 1.24546024270469e-07 1.06229805517651e-07 6.00037278296614e-08 1.70586173195422e-07 1.11943627420407e-07 2.07593164902219e-07
"2751" 41473 2.62865371940424e-08 1.08042977580884e-08 1.24562754362623e-07 1.06064022358099e-07 5.99570444761608e-08 1.70543369652992e-07 1.11374404597932e-07 2.0777437199742e-07
"2752" 41474 2.62701419745721e-08 1.0732882161913e-08 1.24579484454777e-07 1.05898239198546e-07 5.99103611226602e-08 1.70500566110561e-07 1.10805181775456e-07 2.07955579092621e-07
"2753" 41475 2.62537467551018e-08 1.06614665657376e-08 1.24596214546931e-07 1.05732456038994e-07 5.98636777691595e-08 1.7045776256813e-07 1.1023595895298e-07 2.08136786187822e-07
"2754" 41476 2.62373515356315e-08 1.05900509695623e-08 1.24612944639084e-07 1.05566672879441e-07 5.98169944156589e-08 1.704149590257e-07 1.09666736130505e-07 2.08317993283023e-07
"2755" 41477 2.62209563161613e-08 1.05186353733869e-08 1.24629674731238e-07 1.05400889719889e-07 5.97703110621583e-08 1.70372155483269e-07 1.09097513308029e-07 2.08499200378224e-07
"2756" 41478 2.6204561096691e-08 1.04472197772116e-08 1.24646404823392e-07 1.05235106560336e-07 5.97236277086577e-08 1.70329351940839e-07 1.08528290485554e-07 2.08680407473425e-07
"2757" 41479 2.61881658772207e-08 1.03758041810362e-08 1.24663134915546e-07 1.05069323400784e-07 5.9676944355157e-08 1.70286548398408e-07 1.07959067663078e-07 2.08861614568626e-07
"2758" 41480 2.61717706577504e-08 1.03043885848608e-08 1.246798650077e-07 1.04903540241231e-07 5.96302610016564e-08 1.70243744855977e-07 1.07389844840603e-07 2.09042821663827e-07
"2759" 41481 2.61553754382801e-08 1.02329729886855e-08 1.24696595099854e-07 1.04737757081679e-07 5.95835776481558e-08 1.70200941313547e-07 1.06820622018127e-07 2.09224028759028e-07
"2760" 41482 2.61389802188099e-08 1.01615573925101e-08 1.24713325192008e-07 1.04571973922126e-07 5.95368942946552e-08 1.70158137771116e-07 1.06251399195652e-07 2.09405235854229e-07
"2761" 41483 2.61225849993396e-08 1.00901417963348e-08 1.24730055284162e-07 1.04406190762574e-07 5.94902109411545e-08 1.70115334228686e-07 1.05682176373176e-07 2.0958644294943e-07
"2762" 41484 2.60867319266426e-08 1.00871950478946e-08 1.24715425428499e-07 1.04425494290665e-07 5.95143007475806e-08 1.70086054410079e-07 1.05572866336422e-07 2.0931968262884e-07
"2763" 41485 2.60595797822498e-08 1.00990735821814e-08 1.2516684143235e-07 1.04437987759175e-07 5.9634948704811e-08 1.70284019549575e-07 1.05511914556725e-07 2.09274484847675e-07
"2764" 41486 2.60164389622355e-08 1.01015239373928e-08 1.25304436501456e-07 1.04505742280869e-07 5.962791627557e-08 1.70291674532842e-07 1.06213784964508e-07 2.09313092109625e-07
"2765" 41487 2.59732981422211e-08 1.01039742926043e-08 1.25442031570562e-07 1.04573496802564e-07 5.96208838463291e-08 1.7029932951611e-07 1.0691565537229e-07 2.09351699371574e-07
"2766" 41488 2.59301573222068e-08 1.01064246478157e-08 1.25579626639668e-07 1.04641251324258e-07 5.96138514170881e-08 1.70306984499378e-07 1.07617525780072e-07 2.09390306633523e-07
"2767" 41489 2.58870165021925e-08 1.01088750030272e-08 1.25717221708774e-07 1.04709005845952e-07 5.96068189878471e-08 1.70314639482646e-07 1.08319396187855e-07 2.09428913895472e-07
"2768" 41490 2.58530441384806e-08 1.0066025645322e-08 1.25578980351721e-07 1.04561769172539e-07 5.96385397478315e-08 1.70183876940289e-07 1.08402500929224e-07 2.0958405515377e-07
"2769" 41491 2.58190717747686e-08 1.00231762876167e-08 1.25440738994668e-07 1.04414532499125e-07 5.9670260507816e-08 1.70053114397931e-07 1.08485605670594e-07 2.09739196412068e-07
"2770" 41492 2.57850994110567e-08 9.98032692991152e-09 1.25302497637615e-07 1.04267295825711e-07 5.97019812678004e-08 1.69922351855574e-07 1.08568710411964e-07 2.09894337670366e-07
"2771" 41493 2.57511270473447e-08 9.9374775722063e-09 1.25164256280563e-07 1.04120059152297e-07 5.97337020277848e-08 1.69791589313217e-07 1.08651815153334e-07 2.10049478928663e-07
"2772" 41494 2.57171546836328e-08 9.89462821450109e-09 1.2502601492351e-07 1.03972822478884e-07 5.97654227877692e-08 1.69660826770859e-07 1.08734919894703e-07 2.10204620186961e-07
"2773" 41495 2.56831823199209e-08 9.85177885679587e-09 1.24887773566457e-07 1.0382558580547e-07 5.97971435477536e-08 1.69530064228502e-07 1.08818024636073e-07 2.10359761445259e-07
"2774" 41496 2.56492099562089e-08 9.80892949909065e-09 1.24749532209404e-07 1.03678349132056e-07 5.98288643077381e-08 1.69399301686144e-07 1.08901129377443e-07 2.10514902703556e-07
"2775" 41497 2.52942055585856e-08 9.3471369624857e-09 1.22650489372476e-07 1.04035602226951e-07 5.95228794246567e-08 1.70215840235084e-07 1.09849445953853e-07 2.0940391699162e-07
"2776" 41498 2.48743956640038e-08 9.34196399037264e-09 1.22675856103654e-07 1.04155526720806e-07 5.97052728943372e-08 1.71094624168449e-07 1.11158361111166e-07 2.07865155314513e-07
"2777" 41499 2.4454585769422e-08 9.33679101825957e-09 1.22701222834833e-07 1.04275451214661e-07 5.98876663640176e-08 1.71973408101813e-07 1.12467276268479e-07 2.06326393637405e-07
"2778" 41500 2.40347758748402e-08 9.33161804614651e-09 1.22726589566012e-07 1.04395375708517e-07 6.00700598336981e-08 1.72852192035178e-07 1.13776191425793e-07 2.04787631960297e-07
"2779" 41501 2.36149659802584e-08 9.32644507403345e-09 1.22751956297191e-07 1.04515300202372e-07 6.02524533033785e-08 1.73730975968542e-07 1.15085106583106e-07 2.03248870283189e-07
"2780" 41502 2.31951560856767e-08 9.32127210192039e-09 1.2277732302837e-07 1.04635224696227e-07 6.0434846773059e-08 1.74609759901907e-07 1.16394021740419e-07 2.01710108606081e-07
"2781" 41503 2.27753461910949e-08 9.31609912980732e-09 1.22802689759549e-07 1.04755149190083e-07 6.06172402427394e-08 1.75488543835271e-07 1.17702936897732e-07 2.00171346928973e-07
"2782" 41504 2.23555362965131e-08 9.31092615769426e-09 1.22828056490728e-07 1.04875073683938e-07 6.07996337124199e-08 1.76367327768635e-07 1.19011852055046e-07 1.98632585251866e-07
"2783" 41505 2.19357264019313e-08 9.3057531855812e-09 1.22853423221906e-07 1.04994998177793e-07 6.09820271821003e-08 1.77246111702e-07 1.20320767212359e-07 1.97093823574758e-07
"2784" 41506 2.19970509411325e-08 9.32552022921702e-09 1.22888808740885e-07 1.05335691876994e-07 6.124656556797e-08 1.78120808372731e-07 1.21777708120364e-07 1.96532901721277e-07
"2785" 41507 2.18469963679065e-08 9.24431029186145e-09 1.22464808507339e-07 1.05341227442443e-07 6.07861660407708e-08 1.77339158718053e-07 1.21252562575686e-07 1.96948898704735e-07
"2786" 41508 2.16969417946804e-08 9.16310035450588e-09 1.22040808273794e-07 1.05346763007892e-07 6.03257665135715e-08 1.76557509063375e-07 1.20727417031008e-07 1.97364895688193e-07
"2787" 41509 2.15468872214544e-08 9.08189041715031e-09 1.21616808040248e-07 1.05352298573342e-07 5.98653669863723e-08 1.75775859408696e-07 1.20202271486329e-07 1.97780892671651e-07
"2788" 41510 2.13968326482283e-08 9.00068047979474e-09 1.21192807806703e-07 1.05357834138791e-07 5.94049674591731e-08 1.74994209754018e-07 1.19677125941651e-07 1.98196889655109e-07
"2789" 41511 2.12467780750022e-08 8.91947054243917e-09 1.20768807573158e-07 1.0536336970424e-07 5.89445679319738e-08 1.7421256009934e-07 1.19151980396972e-07 1.98612886638567e-07
"2790" 41512 2.10967235017762e-08 8.8382606050836e-09 1.20344807339612e-07 1.05368905269689e-07 5.84841684047746e-08 1.73430910444662e-07 1.18626834852294e-07 1.99028883622025e-07
"2791" 41513 2.09466689285501e-08 8.75705066772803e-09 1.19920807106067e-07 1.05374440835138e-07 5.80237688775754e-08 1.72649260789983e-07 1.18101689307616e-07 1.99444880605483e-07
"2792" 41514 2.07966143553241e-08 8.67584073037246e-09 1.19496806872522e-07 1.05379976400588e-07 5.75633693503762e-08 1.71867611135305e-07 1.17576543762937e-07 1.99860877588941e-07
"2793" 41515 2.0646559782098e-08 8.59463079301689e-09 1.19072806638976e-07 1.05385511966037e-07 5.71029698231769e-08 1.71085961480627e-07 1.17051398218259e-07 2.00276874572399e-07
"2794" 41516 2.0496505208872e-08 8.51342085566132e-09 1.18648806405431e-07 1.05391047531486e-07 5.66425702959777e-08 1.70304311825949e-07 1.16526252673581e-07 2.00692871555857e-07
"2795" 41517 2.03464506356459e-08 8.43221091830576e-09 1.18224806171885e-07 1.05396583096935e-07 5.61821707687785e-08 1.69522662171271e-07 1.16001107128902e-07 2.01108868539315e-07
"2796" 41518 2.03224819101491e-08 8.35734982057306e-09 1.17483965825225e-07 1.06182498767766e-07 5.57598260324038e-08 1.68635303926945e-07 1.15412786223672e-07 2.01409387110352e-07
"2797" 41519 2.02985131846522e-08 8.28248872284037e-09 1.16743125478564e-07 1.06968414438596e-07 5.5337481296029e-08 1.6774794568262e-07 1.14824465318442e-07 2.01709905681389e-07
"2798" 41520 2.01583700403727e-08 8.23170508552296e-09 1.16635307354338e-07 1.07293979001738e-07 5.49225679708123e-08 1.68300882920774e-07 1.14660188410794e-07 2.01824254742468e-07
"2799" 41521 1.99930347066427e-08 8.24213785049825e-09 1.16529937855595e-07 1.07583058685078e-07 5.47512464293769e-08 1.69741178403253e-07 1.14987993826346e-07 2.00184175167284e-07
"2800" 41522 2.00081401795135e-08 8.2702511061143e-09 1.17124197397807e-07 1.07888073827589e-07 5.46495008963501e-08 1.7118303706432e-07 1.14748800154602e-07 2.0005487018725e-07
"2801" 41523 1.9943159394922e-08 8.29659584068857e-09 1.17793523373775e-07 1.08207353705353e-07 5.47013711176562e-08 1.70226758416913e-07 1.14904244867558e-07 1.99970762988381e-07
"2802" 41524 1.98781786103304e-08 8.32294057526284e-09 1.18462849349744e-07 1.08526633583117e-07 5.47532413389623e-08 1.69270479769506e-07 1.15059689580514e-07 1.99886655789513e-07
"2803" 41525 1.98131978257389e-08 8.34928530983711e-09 1.19132175325712e-07 1.08845913460882e-07 5.48051115602684e-08 1.68314201122099e-07 1.1521513429347e-07 1.99802548590644e-07
"2804" 41526 1.97482170411473e-08 8.37563004441138e-09 1.1980150130168e-07 1.09165193338646e-07 5.48569817815745e-08 1.67357922474692e-07 1.15370579006426e-07 1.99718441391775e-07
"2805" 41527 1.96832362565557e-08 8.40197477898565e-09 1.20470827277648e-07 1.0948447321641e-07 5.49088520028806e-08 1.66401643827285e-07 1.15526023719382e-07 1.99634334192906e-07
"2806" 41528 1.96182554719642e-08 8.42831951355992e-09 1.21140153253616e-07 1.09803753094174e-07 5.49607222241867e-08 1.65445365179878e-07 1.15681468432338e-07 1.99550226994037e-07
"2807" 41529 1.95532746873726e-08 8.45466424813419e-09 1.21809479229585e-07 1.10123032971938e-07 5.50125924454928e-08 1.64489086532471e-07 1.15836913145294e-07 1.99466119795168e-07
"2808" 41530 1.94882939027811e-08 8.48100898270846e-09 1.22478805205553e-07 1.10442312849703e-07 5.50644626667989e-08 1.63532807885064e-07 1.15992357858249e-07 1.99382012596299e-07
"2809" 41531 1.94233131181895e-08 8.50735371728273e-09 1.23148131181521e-07 1.10761592727467e-07 5.5116332888105e-08 1.62576529237656e-07 1.16147802571205e-07 1.9929790539743e-07
"2810" 41532 1.93583323335979e-08 8.533698451857e-09 1.23817457157489e-07 1.11080872605231e-07 5.51682031094111e-08 1.61620250590249e-07 1.16303247284161e-07 1.99213798198561e-07
"2811" 41533 1.92933515490064e-08 8.56004318643127e-09 1.24486783133458e-07 1.11400152482995e-07 5.52200733307172e-08 1.60663971942842e-07 1.16458691997117e-07 1.99129690999692e-07
"2812" 41534 1.92283707644148e-08 8.58638792100554e-09 1.25156109109426e-07 1.11719432360759e-07 5.52719435520233e-08 1.59707693295435e-07 1.16614136710073e-07 1.99045583800824e-07
"2813" 41535 1.91633899798233e-08 8.61273265557982e-09 1.25825435085394e-07 1.12038712238524e-07 5.53238137733294e-08 1.58751414648028e-07 1.16769581423029e-07 1.98961476601955e-07
"2814" 41536 1.90984091952317e-08 8.63907739015409e-09 1.26494761061362e-07 1.12357992116288e-07 5.53756839946355e-08 1.57795136000621e-07 1.16925026135985e-07 1.98877369403086e-07
"2815" 41537 1.90334284106401e-08 8.66542212472836e-09 1.27164087037331e-07 1.12677271994052e-07 5.54275542159416e-08 1.56838857353214e-07 1.17080470848941e-07 1.98793262204217e-07
"2816" 41538 1.89684476260486e-08 8.69176685930263e-09 1.27833413013299e-07 1.12996551871816e-07 5.54794244372477e-08 1.55882578705807e-07 1.17235915561897e-07 1.98709155005348e-07
"2817" 41539 1.8903466841457e-08 8.7181115938769e-09 1.28502738989267e-07 1.13315831749581e-07 5.55312946585538e-08 1.549263000584e-07 1.17391360274852e-07 1.98625047806479e-07
