"time" "channel1" "channel2" "channel3" "channel4" "channel5" "channel6" "channel7" "channel8"
"1996" 43232 4.43492960508192e-08 1.78208304325438e-08 8.48647352866736e-08 1.51352275423622e-07 1.15614913735822e-07 2.31815092239472e-07 1.40022837067446e-07 1.87031096570298e-07
"1997" 43233 4.43585448578148e-08 1.77607273734201e-08 8.45941766154305e-08 1.5151825864333e-07 1.15585468057244e-07 2.31939568946114e-07 1.40073323120404e-07 1.8668455004481e-07
"1998" 43234 4.43677936648105e-08 1.77006243142964e-08 8.43236179441875e-08 1.51684241863039e-07 1.15556022378666e-07 2.32064045652756e-07 1.40123809173362e-07 1.86338003519322e-07
"1999" 43235 4.43770424718062e-08 1.76405212551727e-08 8.40530592729445e-08 1.51850225082747e-07 1.15526576700088e-07 2.32188522359399e-07 1.40174295226319e-07 1.85991456993834e-07
"2000" 43236 4.43862912788018e-08 1.7580418196049e-08 8.37825006017014e-08 1.52016208302456e-07 1.1549713102151e-07 2.32312999066041e-07 1.40224781279277e-07 1.85644910468346e-07
"2001" 43237 4.43955400857975e-08 1.75203151369253e-08 8.35119419304584e-08 1.52182191522164e-07 1.15467685342932e-07 2.32437475772684e-07 1.40275267332235e-07 1.85298363942857e-07
"2002" 43238 4.44047888927932e-08 1.74602120778016e-08 8.32413832592154e-08 1.52348174741873e-07 1.15438239664354e-07 2.32561952479326e-07 1.40325753385193e-07 1.84951817417369e-07
"2003" 43239 4.44140376997889e-08 1.74001090186779e-08 8.29708245879723e-08 1.52514157961581e-07 1.15408793985776e-07 2.32686429185968e-07 1.40376239438151e-07 1.84605270891881e-07
"2004" 43240 4.44181455587424e-08 1.73919174950029e-08 8.26431755041172e-08 1.53252571975967e-07 1.14542862983692e-07 2.31639369579316e-07 1.39548526280114e-07 1.84471491776585e-07
"2005" 43241 4.44222534176959e-08 1.73837259713278e-08 8.2315526420262e-08 1.53990985990352e-07 1.13676931981608e-07 2.30592309972664e-07 1.38720813122076e-07 1.84337712661288e-07
"2006" 43242 4.44263612766493e-08 1.73755344476527e-08 8.19878773364068e-08 1.54729400004737e-07 1.12811000979524e-07 2.29545250366012e-07 1.37893099964039e-07 1.84203933545992e-07
"2007" 43243 4.44304691356028e-08 1.73673429239776e-08 8.16602282525516e-08 1.55467814019122e-07 1.1194506997744e-07 2.28498190759359e-07 1.37065386806002e-07 1.84070154430695e-07
"2008" 43244 4.44345769945563e-08 1.73591514003025e-08 8.13325791686964e-08 1.56206228033508e-07 1.11079138975356e-07 2.27451131152707e-07 1.36237673647964e-07 1.83936375315399e-07
"2009" 43245 4.44386848535098e-08 1.73509598766274e-08 8.10049300848412e-08 1.56944642047893e-07 1.10213207973272e-07 2.26404071546055e-07 1.35409960489927e-07 1.83802596200102e-07
"2010" 43246 4.44427927124633e-08 1.73427683529523e-08 8.0677281000986e-08 1.57683056062278e-07 1.09347276971188e-07 2.25357011939403e-07 1.3458224733189e-07 1.83668817084806e-07
"2011" 43247 4.44622166669805e-08 1.73346779033008e-08 8.06394180496113e-08 1.57738747572442e-07 1.0832510371887e-07 2.24598858430527e-07 1.3376522500584e-07 1.83987238221034e-07
"2012" 43248 4.44816406214978e-08 1.73265874536492e-08 8.06015550982367e-08 1.57794439082607e-07 1.07302930466552e-07 2.23840704921652e-07 1.32948202679791e-07 1.84305659357263e-07
"2013" 43249 4.4501064576015e-08 1.73184970039977e-08 8.0563692146862e-08 1.57850130592771e-07 1.06280757214235e-07 2.23082551412776e-07 1.32131180353741e-07 1.84624080493492e-07
"2014" 43250 4.45204885305322e-08 1.73104065543461e-08 8.05258291954873e-08 1.57905822102935e-07 1.05258583961917e-07 2.22324397903901e-07 1.31314158027691e-07 1.8494250162972e-07
"2015" 43251 4.45399124850494e-08 1.73023161046946e-08 8.04879662441127e-08 1.57961513613099e-07 1.04236410709599e-07 2.21566244395025e-07 1.30497135701642e-07 1.85260922765949e-07
"2016" 43252 4.45593364395666e-08 1.72942256550431e-08 8.0450103292738e-08 1.58017205123264e-07 1.03214237457282e-07 2.2080809088615e-07 1.29680113375592e-07 1.85579343902177e-07
"2017" 43253 4.45787603940838e-08 1.72861352053915e-08 8.04122403413633e-08 1.58072896633428e-07 1.02192064204964e-07 2.20049937377275e-07 1.28863091049542e-07 1.85897765038406e-07
"2018" 43254 4.45756033730575e-08 1.7179935385685e-08 8.03722891595367e-08 1.57361690215834e-07 1.02291974664557e-07 2.19186568301154e-07 1.27532041460132e-07 1.85137958913884e-07
"2019" 43255 4.45724463520311e-08 1.70737355659785e-08 8.03323379777101e-08 1.5665048379824e-07 1.0239188512415e-07 2.18323199225034e-07 1.26200991870723e-07 1.84378152789363e-07
"2020" 43256 4.45692893310047e-08 1.6967535746272e-08 8.02923867958835e-08 1.55939277380646e-07 1.02491795583742e-07 2.17459830148913e-07 1.24869942281313e-07 1.83618346664841e-07
"2021" 43257 4.45661323099783e-08 1.68613359265655e-08 8.02524356140569e-08 1.55228070963051e-07 1.02591706043335e-07 2.16596461072793e-07 1.23538892691903e-07 1.82858540540319e-07
"2022" 43258 4.4562975288952e-08 1.6755136106859e-08 8.02124844322303e-08 1.54516864545457e-07 1.02691616502928e-07 2.15733091996673e-07 1.22207843102493e-07 1.82098734415798e-07
"2023" 43259 4.45598182679256e-08 1.66489362871525e-08 8.01725332504037e-08 1.53805658127863e-07 1.02791526962521e-07 2.14869722920552e-07 1.20876793513083e-07 1.81338928291276e-07
"2024" 43260 4.45566612468992e-08 1.6542736467446e-08 8.01325820685771e-08 1.53094451710269e-07 1.02891437422114e-07 2.14006353844432e-07 1.19545743923673e-07 1.80579122166754e-07
"2025" 43261 4.45535042258728e-08 1.64365366477394e-08 8.00926308867505e-08 1.52383245292675e-07 1.02991347881707e-07 2.13142984768311e-07 1.18214694334263e-07 1.79819316042233e-07
"2026" 43262 4.44642437494936e-08 1.63915225246614e-08 8.04729258151623e-08 1.51963044170131e-07 1.01767063226254e-07 2.13483464255676e-07 1.18001306745041e-07 1.78913608958391e-07
"2027" 43263 4.43749832731144e-08 1.63465084015833e-08 8.08532207435741e-08 1.51542843047587e-07 1.00542778570801e-07 2.1382394374304e-07 1.17787919155819e-07 1.78007901874549e-07
"2028" 43264 4.42857227967352e-08 1.63014942785053e-08 8.1233515671986e-08 1.51122641925043e-07 9.93184939153488e-08 2.14164423230404e-07 1.17574531566596e-07 1.77102194790707e-07
"2029" 43265 4.4196462320356e-08 1.62564801554272e-08 8.16138106003978e-08 1.50702440802499e-07 9.80942092598961e-08 2.14504902717769e-07 1.17361143977374e-07 1.76196487706866e-07
"2030" 43266 4.41072018439767e-08 1.62114660323492e-08 8.19941055288096e-08 1.50282239679956e-07 9.68699246044435e-08 2.14845382205133e-07 1.17147756388151e-07 1.75290780623024e-07
"2031" 43267 4.40179413675975e-08 1.61664519092711e-08 8.23744004572215e-08 1.49862038557412e-07 9.56456399489908e-08 2.15185861692497e-07 1.16934368798929e-07 1.74385073539182e-07
"2032" 43268 4.39286808912183e-08 1.61214377861931e-08 8.27546953856333e-08 1.49441837434868e-07 9.44213552935382e-08 2.15526341179862e-07 1.16720981209707e-07 1.7347936645534e-07
"2033" 43269 4.38668244192316e-08 1.60745895874342e-08 8.2796508963112e-08 1.49698145433306e-07 9.36924432852772e-08 2.15651027626966e-07 1.16517827668537e-07 1.7215125892671e-07
"2034" 43270 4.37439666500756e-08 1.6027817194193e-08 8.28217012812226e-08 1.49166785115089e-07 9.25786071504175e-08 2.16138837438027e-07 1.16200403669467e-07 1.70834830034882e-07
"2035" 43271 4.36211088809195e-08 1.59810448009517e-08 8.28468935993332e-08 1.48635424796872e-07 9.14647710155577e-08 2.16626647249088e-07 1.15882979670397e-07 1.69518401143054e-07
"2036" 43272 4.34982511117635e-08 1.59342724077105e-08 8.28720859174437e-08 1.48104064478655e-07 9.0350934880698e-08 2.17114457060149e-07 1.15565555671327e-07 1.68201972251227e-07
"2037" 43273 4.33753933426074e-08 1.58875000144693e-08 8.28972782355543e-08 1.47572704160437e-07 8.92370987458382e-08 2.1760226687121e-07 1.15248131672257e-07 1.66885543359399e-07
"2038" 43274 4.32525355734513e-08 1.58407276212281e-08 8.29224705536649e-08 1.4704134384222e-07 8.81232626109785e-08 2.18090076682271e-07 1.14930707673187e-07 1.65569114467571e-07
"2039" 43275 4.31296778042953e-08 1.57939552279869e-08 8.29476628717755e-08 1.46509983524003e-07 8.70094264761187e-08 2.18577886493332e-07 1.14613283674117e-07 1.64252685575743e-07
"2040" 43276 4.29450650655676e-08 1.56859971381172e-08 8.23970692200625e-08 1.46469089650278e-07 8.71389328281097e-08 2.1862458880832e-07 1.14364463628982e-07 1.63666209643896e-07
"2041" 43277 4.28169047656988e-08 1.55449417542185e-08 8.18489203259518e-08 1.46102631608059e-07 8.65369610937741e-08 2.18715998425827e-07 1.1433459443601e-07 1.63755050388907e-07
"2042" 43278 4.268874446583e-08 1.54038863703197e-08 8.13007714318411e-08 1.45736173565839e-07 8.59349893594385e-08 2.18807408043334e-07 1.14304725243037e-07 1.63843891133918e-07
"2043" 43279 4.25605841659613e-08 1.5262830986421e-08 8.07526225377303e-08 1.4536971552362e-07 8.53330176251029e-08 2.18898817660841e-07 1.14274856050065e-07 1.63932731878929e-07
"2044" 43280 4.24324238660925e-08 1.51217756025223e-08 8.02044736436196e-08 1.45003257481401e-07 8.47310458907673e-08 2.18990227278348e-07 1.14244986857092e-07 1.6402157262394e-07
"2045" 43281 4.23042635662238e-08 1.49807202186235e-08 7.96563247495089e-08 1.44636799439181e-07 8.41290741564317e-08 2.19081636895855e-07 1.1421511766412e-07 1.64110413368951e-07
"2046" 43282 4.2176103266355e-08 1.48396648347248e-08 7.91081758553982e-08 1.44270341396962e-07 8.35271024220961e-08 2.19173046513362e-07 1.14185248471148e-07 1.64199254113962e-07
"2047" 43283 4.21347341746807e-08 1.47599654099952e-08 7.8615174256114e-08 1.44778169756714e-07 8.2769200042889e-08 2.18700007231446e-07 1.14281383576062e-07 1.65003258427403e-07
"2048" 43284 4.21029592262492e-08 1.46206682962597e-08 7.80459249337304e-08 1.44483748224256e-07 8.21641771331724e-08 2.18604005797851e-07 1.14413619638477e-07 1.65099240629517e-07
"2049" 43285 4.20711842778176e-08 1.44813711825241e-08 7.74766756113468e-08 1.44189326691799e-07 8.15591542234558e-08 2.18508004364255e-07 1.14545855700893e-07 1.65195222831631e-07
"2050" 43286 4.20394093293861e-08 1.43420740687885e-08 7.69074262889633e-08 1.43894905159341e-07 8.09541313137393e-08 2.1841200293066e-07 1.14678091763308e-07 1.65291205033745e-07
"2051" 43287 4.20076343809545e-08 1.4202776955053e-08 7.63381769665797e-08 1.43600483626883e-07 8.03491084040227e-08 2.18316001497064e-07 1.14810327825724e-07 1.65387187235859e-07
"2052" 43288 4.19758594325229e-08 1.40634798413174e-08 7.57689276441962e-08 1.43306062094425e-07 7.97440854943061e-08 2.18220000063468e-07 1.14942563888139e-07 1.65483169437973e-07
"2053" 43289 4.19440844840914e-08 1.39241827275819e-08 7.51996783218126e-08 1.43011640561968e-07 7.91390625845896e-08 2.18123998629873e-07 1.15074799950555e-07 1.65579151640087e-07
"2054" 43290 4.19123095356598e-08 1.37848856138463e-08 7.4630428999429e-08 1.4271721902951e-07 7.8534039674873e-08 2.18027997196277e-07 1.1520703601297e-07 1.65675133842201e-07
"2055" 43291 4.18805345872283e-08 1.36455885001107e-08 7.40611796770455e-08 1.42422797497052e-07 7.79290167651564e-08 2.17931995762682e-07 1.15339272075386e-07 1.65771116044315e-07
"2056" 43292 4.18487596387967e-08 1.35062913863752e-08 7.34919303546619e-08 1.42128375964594e-07 7.73239938554399e-08 2.17835994329086e-07 1.15471508137801e-07 1.65867098246429e-07
"2057" 43293 4.18169846903652e-08 1.33669942726396e-08 7.29226810322784e-08 1.41833954432136e-07 7.67189709457233e-08 2.17739992895491e-07 1.15603744200216e-07 1.65963080448543e-07
"2058" 43294 4.17852097419336e-08 1.32276971589041e-08 7.23534317098948e-08 1.41539532899679e-07 7.61139480360067e-08 2.17643991461895e-07 1.15735980262632e-07 1.66059062650657e-07
"2059" 43295 4.17534347935021e-08 1.30884000451685e-08 7.17841823875112e-08 1.41245111367221e-07 7.55089251262902e-08 2.17547990028299e-07 1.15868216325047e-07 1.66155044852771e-07
"2060" 43296 4.17216598450705e-08 1.29491029314329e-08 7.12149330651277e-08 1.40950689834763e-07 7.49039022165736e-08 2.17451988594704e-07 1.16000452387463e-07 1.66251027054886e-07
"2061" 43297 4.1689884896639e-08 1.28098058176974e-08 7.06456837427441e-08 1.40656268302305e-07 7.42988793068571e-08 2.17355987161108e-07 1.16132688449878e-07 1.66347009257e-07
"2062" 43298 4.16692003508018e-08 1.27718659865311e-08 7.06495007897982e-08 1.40723423370394e-07 7.43982090785218e-08 2.16253306208223e-07 1.16191235063945e-07 1.66374491268183e-07
"2063" 43299 4.16485158049646e-08 1.27339261553647e-08 7.06533178368524e-08 1.40790578438482e-07 7.44975388501865e-08 2.15150625255338e-07 1.16249781678011e-07 1.66401973279366e-07
"2064" 43300 4.16278312591275e-08 1.26959863241984e-08 7.06571348839065e-08 1.40857733506571e-07 7.45968686218512e-08 2.14047944302453e-07 1.16308328292077e-07 1.66429455290549e-07
"2065" 43301 4.16071467132903e-08 1.26580464930321e-08 7.06609519309606e-08 1.4092488857466e-07 7.46961983935159e-08 2.12945263349568e-07 1.16366874906144e-07 1.66456937301733e-07
"2066" 43302 4.15864621674532e-08 1.26201066618658e-08 7.06647689780147e-08 1.40992043642748e-07 7.47955281651806e-08 2.11842582396683e-07 1.1642542152021e-07 1.66484419312916e-07
"2067" 43303 4.1565777621616e-08 1.25821668306995e-08 7.06685860250689e-08 1.41059198710837e-07 7.48948579368453e-08 2.10739901443798e-07 1.16483968134276e-07 1.66511901324099e-07
"2068" 43304 4.15450930757788e-08 1.25442269995332e-08 7.0672403072123e-08 1.41126353778925e-07 7.499418770851e-08 2.09637220490913e-07 1.16542514748343e-07 1.66539383335282e-07
"2069" 43305 4.14272887573556e-08 1.25045288982037e-08 7.10902861091259e-08 1.41543381898146e-07 7.5192644892892e-08 2.0845404638959e-07 1.16445077649721e-07 1.66488043109284e-07
"2070" 43306 4.13712201572506e-08 1.25184687169796e-08 7.10902351766758e-08 1.4236086606974e-07 7.50846668597519e-08 2.07205397832854e-07 1.16467523306286e-07 1.66452214819656e-07
"2071" 43307 4.13151515571456e-08 1.25324085357555e-08 7.10901842442258e-08 1.43178350241334e-07 7.49766888266118e-08 2.05956749276118e-07 1.16489968962851e-07 1.66416386530028e-07
"2072" 43308 4.12590829570406e-08 1.25463483545315e-08 7.10901333117757e-08 1.43995834412929e-07 7.48687107934717e-08 2.04708100719382e-07 1.16512414619417e-07 1.663805582404e-07
"2073" 43309 4.12030143569356e-08 1.25602881733074e-08 7.10900823793257e-08 1.44813318584523e-07 7.47607327603316e-08 2.03459452162646e-07 1.16534860275982e-07 1.66344729950772e-07
"2074" 43310 4.11469457568306e-08 1.25742279920833e-08 7.10900314468756e-08 1.45630802756117e-07 7.46527547271915e-08 2.0221080360591e-07 1.16557305932547e-07 1.66308901661144e-07
"2075" 43311 4.10908771567256e-08 1.25881678108592e-08 7.10899805144256e-08 1.46448286927712e-07 7.45447766940514e-08 2.00962155049174e-07 1.16579751589112e-07 1.66273073371516e-07
"2076" 43312 4.08341563866333e-08 1.25635174343163e-08 7.09588699484335e-08 1.46941710953935e-07 7.42556010655451e-08 2.01125404623847e-07 1.16711672671759e-07 1.66128182018842e-07
"2077" 43313 4.05774356165409e-08 1.25388670577733e-08 7.08277593824413e-08 1.47435134980159e-07 7.39664254370388e-08 2.0128865419852e-07 1.16843593754406e-07 1.65983290666168e-07
"2078" 43314 4.03207148464486e-08 1.25142166812304e-08 7.06966488164492e-08 1.47928559006382e-07 7.36772498085325e-08 2.01451903773194e-07 1.16975514837053e-07 1.65838399313493e-07
"2079" 43315 4.00639940763563e-08 1.24895663046875e-08 7.05655382504571e-08 1.48421983032605e-07 7.33880741800262e-08 2.01615153347867e-07 1.17107435919699e-07 1.65693507960819e-07
"2080" 43316 3.9807273306264e-08 1.24649159281446e-08 7.0434427684465e-08 1.48915407058829e-07 7.30988985515199e-08 2.0177840292254e-07 1.17239357002346e-07 1.65548616608144e-07
"2081" 43317 3.95505525361717e-08 1.24402655516017e-08 7.03033171184728e-08 1.49408831085052e-07 7.28097229230136e-08 2.01941652497213e-07 1.17371278084993e-07 1.6540372525547e-07
"2082" 43318 3.92938317660793e-08 1.24156151750588e-08 7.01722065524807e-08 1.49902255111275e-07 7.25205472945073e-08 2.02104902071886e-07 1.1750319916764e-07 1.65258833902796e-07
"2083" 43319 3.9037110995987e-08 1.23909647985158e-08 7.00410959864886e-08 1.50395679137499e-07 7.2231371666001e-08 2.02268151646559e-07 1.17635120250286e-07 1.65113942550121e-07
"2084" 43320 3.90969969529061e-08 1.24407137677071e-08 7.00208911995501e-08 1.51146008241005e-07 7.2099133810932e-08 2.00980759484225e-07 1.16172202145158e-07 1.65018661460072e-07
"2085" 43321 3.91568829098252e-08 1.24904627368984e-08 7.00006864126116e-08 1.5189633734451e-07 7.1966895955863e-08 1.99693367321891e-07 1.1470928404003e-07 1.64923380370023e-07
"2086" 43322 3.92167688667444e-08 1.25402117060897e-08 6.9980481625673e-08 1.52646666448016e-07 7.1834658100794e-08 1.98405975159557e-07 1.13246365934901e-07 1.64828099279973e-07
"2087" 43323 3.92766548236635e-08 1.25899606752809e-08 6.99602768387345e-08 1.53396995551522e-07 7.17024202457251e-08 1.97118582997222e-07 1.11783447829773e-07 1.64732818189924e-07
"2088" 43324 3.93365407805826e-08 1.26397096444722e-08 6.9940072051796e-08 1.54147324655028e-07 7.15701823906561e-08 1.95831190834888e-07 1.10320529724645e-07 1.64637537099875e-07
"2089" 43325 3.93964267375017e-08 1.26894586136635e-08 6.99198672648575e-08 1.54897653758534e-07 7.14379445355871e-08 1.94543798672554e-07 1.08857611619516e-07 1.64542256009825e-07
"2090" 43326 3.94563126944208e-08 1.27392075828547e-08 6.9899662477919e-08 1.5564798286204e-07 7.13057066805182e-08 1.9325640651022e-07 1.07394693514388e-07 1.64446974919776e-07
"2091" 43327 3.95161986513399e-08 1.2788956552046e-08 6.98794576909805e-08 1.56398311965545e-07 7.11734688254492e-08 1.91969014347885e-07 1.0593177540926e-07 1.64351693829727e-07
"2092" 43328 3.95150833110896e-08 1.27830473201572e-08 6.99485700730888e-08 1.56325780584552e-07 7.11133028125518e-08 1.91140484807526e-07 1.05701419721757e-07 1.64271103139846e-07
"2093" 43329 3.95166974044571e-08 1.27791583692431e-08 7.04120549071741e-08 1.56253744074791e-07 7.15522111445549e-08 1.90580437492018e-07 1.04250233690324e-07 1.64785956025603e-07
"2094" 43330 3.95183114978246e-08 1.2775269418329e-08 7.08755397412594e-08 1.56181707565029e-07 7.19911194765581e-08 1.9002039017651e-07 1.02799047658891e-07 1.6530080891136e-07
"2095" 43331 3.9519925591192e-08 1.27713804674148e-08 7.13390245753447e-08 1.56109671055268e-07 7.24300278085612e-08 1.89460342861002e-07 1.01347861627458e-07 1.65815661797117e-07
"2096" 43332 3.95215396845595e-08 1.27674915165007e-08 7.180250940943e-08 1.56037634545506e-07 7.28689361405643e-08 1.88900295545494e-07 9.98966755960253e-08 1.66330514682874e-07
"2097" 43333 3.94226220650294e-08 1.27687510335467e-08 7.22060833278503e-08 1.55989703142447e-07 7.33856539923222e-08 1.89428383644924e-07 9.99765670983071e-08 1.66792179143215e-07
"2098" 43334 3.93885971848439e-08 1.26991782821966e-08 7.24810096939478e-08 1.55498725659889e-07 7.37164107992319e-08 1.88244116328122e-07 1.00078188487511e-07 1.66994744931292e-07
"2099" 43335 3.93545723046584e-08 1.26296055308464e-08 7.27559360600454e-08 1.55007748177331e-07 7.40471676061416e-08 1.87059849011319e-07 1.00179809876714e-07 1.6719731071937e-07
"2100" 43336 3.93205474244729e-08 1.25600327794963e-08 7.30308624261429e-08 1.54516770694773e-07 7.43779244130514e-08 1.85875581694517e-07 1.00281431265918e-07 1.67399876507447e-07
"2101" 43337 3.92865225442874e-08 1.24904600281462e-08 7.33057887922405e-08 1.54025793212215e-07 7.47086812199611e-08 1.84691314377715e-07 1.00383052655122e-07 1.67602442295525e-07
"2102" 43338 3.92524976641019e-08 1.24208872767961e-08 7.3580715158338e-08 1.53534815729656e-07 7.50394380268708e-08 1.83507047060912e-07 1.00484674044325e-07 1.67805008083602e-07
"2103" 43339 3.92184727839164e-08 1.23513145254459e-08 7.38556415244356e-08 1.53043838247098e-07 7.53701948337805e-08 1.8232277974411e-07 1.00586295433529e-07 1.6800757387168e-07
"2104" 43340 3.91844479037309e-08 1.22817417740958e-08 7.41305678905331e-08 1.5255286076454e-07 7.57009516406903e-08 1.81138512427307e-07 1.00687916822733e-07 1.68210139659757e-07
"2105" 43341 3.91504230235454e-08 1.22121690227457e-08 7.44054942566307e-08 1.52061883281982e-07 7.60317084476e-08 1.79954245110505e-07 1.00789538211936e-07 1.68412705447835e-07
"2106" 43342 3.91278420480018e-08 1.21412862173378e-08 7.41986750817232e-08 1.51568470901416e-07 7.58702778626374e-08 1.81903115613565e-07 1.03092526314912e-07 1.68058788137406e-07
"2107" 43343 3.91034935622206e-08 1.207040341193e-08 7.41109464277779e-08 1.53546557458637e-07 7.56487222321829e-08 1.79866520068229e-07 1.03080283229513e-07 1.67625480002278e-07
"2108" 43344 3.90791450764395e-08 1.19995206065221e-08 7.40232177738327e-08 1.55524644015857e-07 7.54271666017284e-08 1.77829924522894e-07 1.03068040144114e-07 1.67192171867151e-07
"2109" 43345 3.90547965906583e-08 1.19286378011143e-08 7.39354891198874e-08 1.57502730573078e-07 7.52056109712739e-08 1.75793328977559e-07 1.03055797058715e-07 1.66758863732023e-07
"2110" 43346 3.90304481048772e-08 1.18577549957064e-08 7.38477604659422e-08 1.59480817130299e-07 7.49840553408194e-08 1.73756733432224e-07 1.03043553973315e-07 1.66325555596895e-07
"2111" 43347 3.9006099619096e-08 1.17868721902986e-08 7.3760031811997e-08 1.6145890368752e-07 7.47624997103649e-08 1.71720137886889e-07 1.03031310887916e-07 1.65892247461768e-07
"2112" 43348 3.89817511333148e-08 1.17159893848907e-08 7.36723031580517e-08 1.6343699024474e-07 7.45409440799104e-08 1.69683542341554e-07 1.03019067802517e-07 1.6545893932664e-07
"2113" 43349 3.89574026475337e-08 1.16451065794828e-08 7.35845745041065e-08 1.65415076801961e-07 7.43193884494559e-08 1.67646946796219e-07 1.03006824717118e-07 1.65025631191513e-07
"2114" 43350 3.89330541617525e-08 1.1574223774075e-08 7.34968458501612e-08 1.67393163359182e-07 7.40978328190014e-08 1.65610351250884e-07 1.02994581631718e-07 1.64592323056385e-07
"2115" 43351 3.89087056759714e-08 1.15033409686671e-08 7.3409117196216e-08 1.69371249916403e-07 7.38762771885469e-08 1.63573755705549e-07 1.02982338546319e-07 1.64159014921257e-07
"2116" 43352 3.88843571901902e-08 1.14324581632593e-08 7.33213885422707e-08 1.71349336473623e-07 7.36547215580924e-08 1.61537160160214e-07 1.0297009546092e-07 1.6372570678613e-07
"2117" 43353 3.8860008704409e-08 1.13615753578514e-08 7.32336598883255e-08 1.73327423030844e-07 7.34331659276379e-08 1.59500564614879e-07 1.02957852375521e-07 1.63292398651002e-07
"2118" 43354 3.88356602186279e-08 1.12906925524436e-08 7.31459312343803e-08 1.75305509588065e-07 7.32116102971835e-08 1.57463969069544e-07 1.02945609290121e-07 1.62859090515875e-07
"2119" 43355 3.88113117328467e-08 1.12198097470357e-08 7.3058202580435e-08 1.77283596145286e-07 7.2990054666729e-08 1.55427373524208e-07 1.02933366204722e-07 1.62425782380747e-07
"2120" 43356 3.88237175608688e-08 1.12006961917938e-08 7.29846629241052e-08 1.79731041080176e-07 7.28127965065635e-08 1.55476847031096e-07 1.02208425899425e-07 1.62268301776006e-07
"2121" 43357 3.88361233888908e-08 1.1181582636552e-08 7.29111232677753e-08 1.82178486015067e-07 7.26355383463981e-08 1.55526320537984e-07 1.01483485594128e-07 1.62110821171265e-07
"2122" 43358 3.88485292169129e-08 1.11624690813101e-08 7.28375836114454e-08 1.84625930949957e-07 7.24582801862327e-08 1.55575794044871e-07 1.00758545288832e-07 1.61953340566524e-07
"2123" 43359 3.88609350449349e-08 1.11433555260682e-08 7.27640439551156e-08 1.87073375884848e-07 7.22810220260673e-08 1.55625267551759e-07 1.00033604983535e-07 1.61795859961783e-07
"2124" 43360 3.8873340872957e-08 1.11242419708264e-08 7.26905042987857e-08 1.89520820819738e-07 7.21037638659019e-08 1.55674741058647e-07 9.93086646782381e-08 1.61638379357041e-07
"2125" 43361 3.8885746700979e-08 1.11051284155845e-08 7.26169646424558e-08 1.91968265754628e-07 7.19265057057364e-08 1.55724214565534e-07 9.85837243729413e-08 1.614808987523e-07
"2126" 43362 3.88981525290011e-08 1.10860148603426e-08 7.2543424986126e-08 1.94415710689519e-07 7.1749247545571e-08 1.55773688072422e-07 9.78587840676445e-08 1.61323418147559e-07
"2127" 43363 3.89105583570231e-08 1.10669013051007e-08 7.24698853297961e-08 1.96863155624409e-07 7.15719893854056e-08 1.5582316157931e-07 9.71338437623477e-08 1.61165937542818e-07
"2128" 43364 3.89229641850451e-08 1.10477877498589e-08 7.23963456734662e-08 1.993106005593e-07 7.13947312252402e-08 1.55872635086198e-07 9.64089034570509e-08 1.61008456938077e-07
"2129" 43365 3.89371375233048e-08 1.10577375436971e-08 7.22076545886617e-08 2.0056249093221e-07 7.12095982281436e-08 1.56062712458969e-07 9.58497434523109e-08 1.60841784317867e-07
"2130" 43366 3.89432952288348e-08 1.10465535013188e-08 7.33765579552782e-08 2.02107325348363e-07 7.10554425475212e-08 1.57092555948453e-07 9.534975129517e-08 1.60739829178758e-07
"2131" 43367 3.89494529343648e-08 1.10353694589405e-08 7.45454613218947e-08 2.03652159764516e-07 7.09012868668988e-08 1.58122399437938e-07 9.48497591380292e-08 1.60637874039649e-07
"2132" 43368 3.89556106398949e-08 1.10241854165621e-08 7.57143646885112e-08 2.05196994180669e-07 7.07471311862763e-08 1.59152242927422e-07 9.43497669808883e-08 1.6053591890054e-07
"2133" 43369 3.89617683454249e-08 1.10130013741838e-08 7.68832680551277e-08 2.06741828596823e-07 7.05929755056539e-08 1.60182086416907e-07 9.38497748237475e-08 1.6043396376143e-07
"2134" 43370 3.89686604721038e-08 1.10156055395461e-08 7.82265408921166e-08 2.06896222120387e-07 7.04685932428533e-08 1.61186016084782e-07 9.40957265968861e-08 1.60450914223164e-07
"2135" 43371 3.89755525987827e-08 1.10182097049084e-08 7.95698137291054e-08 2.07050615643952e-07 7.03442109800526e-08 1.62189945752657e-07 9.43416783700248e-08 1.60467864684897e-07
"2136" 43372 3.89824447254616e-08 1.10208138702706e-08 8.09130865660943e-08 2.07205009167516e-07 7.0219828717252e-08 1.63193875420533e-07 9.45876301431634e-08 1.60484815146631e-07
"2137" 43373 3.89893368521406e-08 1.10234180356329e-08 8.22563594030832e-08 2.07359402691081e-07 7.00954464544514e-08 1.64197805088408e-07 9.48335819163021e-08 1.60501765608364e-07
"2138" 43374 3.89962289788195e-08 1.10260222009952e-08 8.35996322400721e-08 2.07513796214646e-07 6.99710641916507e-08 1.65201734756283e-07 9.50795336894407e-08 1.60518716070098e-07
"2139" 43375 3.90031211054984e-08 1.10286263663574e-08 8.49429050770609e-08 2.0766818973821e-07 6.98466819288501e-08 1.66205664424159e-07 9.53254854625793e-08 1.60535666531831e-07
"2140" 43376 3.90100132321773e-08 1.10312305317197e-08 8.62861779140498e-08 2.07822583261775e-07 6.97222996660495e-08 1.67209594092034e-07 9.5571437235718e-08 1.60552616993565e-07
"2141" 43377 3.87068150855701e-08 1.10310789206844e-08 8.76496555379772e-08 2.09335273653772e-07 6.93274374110416e-08 1.67878932361667e-07 9.58261740656132e-08 1.6003977340878e-07
"2142" 43378 3.8403616938963e-08 1.10309273096491e-08 8.90131331619046e-08 2.10847964045768e-07 6.89325751560337e-08 1.68548270631301e-07 9.60809108955085e-08 1.59526929823995e-07
"2143" 43379 3.81004187923558e-08 1.10307756986138e-08 9.0376610785832e-08 2.12360654437765e-07 6.85377129010259e-08 1.69217608900934e-07 9.63356477254037e-08 1.5901408623921e-07
"2144" 43380 3.77972206457487e-08 1.10306240875785e-08 9.17400884097594e-08 2.13873344829762e-07 6.8142850646018e-08 1.69886947170567e-07 9.65903845552989e-08 1.58501242654425e-07
"2145" 43381 3.74940224991415e-08 1.10304724765431e-08 9.31035660336868e-08 2.15386035221758e-07 6.77479883910101e-08 1.705562854402e-07 9.68451213851942e-08 1.5798839906964e-07
"2146" 43382 3.71908243525343e-08 1.10303208655078e-08 9.44670436576142e-08 2.16898725613755e-07 6.73531261360023e-08 1.71225623709834e-07 9.70998582150894e-08 1.57475555484855e-07
"2147" 43383 3.68876262059272e-08 1.10301692544725e-08 9.58305212815416e-08 2.18411416005751e-07 6.69582638809944e-08 1.71894961979467e-07 9.73545950449847e-08 1.56962711900069e-07
"2148" 43384 3.658442805932e-08 1.10300176434372e-08 9.71939989054689e-08 2.19924106397748e-07 6.65634016259866e-08 1.725643002491e-07 9.76093318748799e-08 1.56449868315284e-07
"2149" 43385 3.62812299127129e-08 1.10298660324019e-08 9.85574765293963e-08 2.21436796789745e-07 6.61685393709787e-08 1.73233638518734e-07 9.78640687047751e-08 1.55937024730499e-07
"2150" 43386 3.59780317661057e-08 1.10297144213666e-08 9.99209541533237e-08 2.22949487181741e-07 6.57736771159708e-08 1.73902976788367e-07 9.81188055346704e-08 1.55424181145714e-07
"2151" 43387 3.56697912542188e-08 1.10229433515255e-08 9.99692515213261e-08 2.23277344582481e-07 6.53452795333641e-08 1.73875467926925e-07 9.81485942164097e-08 1.55043803531159e-07
"2152" 43388 3.53615507423318e-08 1.10161722816843e-08 1.00017548889328e-07 2.2360520198322e-07 6.49168819507574e-08 1.73847959065482e-07 9.81783828981489e-08 1.54663425916603e-07
"2153" 43389 3.50533102304449e-08 1.10094012118432e-08 1.00065846257331e-07 2.2393305938396e-07 6.44884843681507e-08 1.7382045020404e-07 9.82081715798882e-08 1.54283048302048e-07
"2154" 43390 3.47450697185579e-08 1.10026301420021e-08 1.00114143625333e-07 2.24260916784699e-07 6.40600867855439e-08 1.73792941342598e-07 9.82379602616275e-08 1.53902670687492e-07
"2155" 43391 3.4436829206671e-08 1.0995859072161e-08 1.00162440993336e-07 2.24588774185438e-07 6.36316892029372e-08 1.73765432481156e-07 9.82677489433668e-08 1.53522293072937e-07
"2156" 43392 3.41285886947841e-08 1.09890880023199e-08 1.00210738361338e-07 2.24916631586178e-07 6.32032916203305e-08 1.73737923619713e-07 9.82975376251061e-08 1.53141915458381e-07
"2157" 43393 3.38203481828971e-08 1.09823169324787e-08 1.0025903572934e-07 2.25244488986917e-07 6.27748940377237e-08 1.73710414758271e-07 9.83273263068453e-08 1.52761537843826e-07
"2158" 43394 3.35121076710102e-08 1.09755458626376e-08 1.00307333097343e-07 2.25572346387657e-07 6.2346496455117e-08 1.73682905896829e-07 9.83571149885846e-08 1.5238116022927e-07
"2159" 43395 3.32038671591232e-08 1.09687747927965e-08 1.00355630465345e-07 2.25900203788396e-07 6.19180988725103e-08 1.73655397035387e-07 9.83869036703239e-08 1.52000782614715e-07
"2160" 43396 3.28956266472363e-08 1.09620037229554e-08 1.00403927833347e-07 2.26228061189135e-07 6.14897012899036e-08 1.73627888173944e-07 9.84166923520632e-08 1.51620405000159e-07
"2161" 43397 3.25873861353494e-08 1.09552326531142e-08 1.0045222520135e-07 2.26555918589875e-07 6.10613037072968e-08 1.73600379312502e-07 9.84464810338025e-08 1.51240027385604e-07
"2162" 43398 3.22791456234624e-08 1.09484615832731e-08 1.00500522569352e-07 2.26883775990614e-07 6.06329061246901e-08 1.7357287045106e-07 9.84762697155417e-08 1.50859649771048e-07
"2163" 43399 3.19709051115755e-08 1.0941690513432e-08 1.00548819937355e-07 2.27211633391353e-07 6.02045085420834e-08 1.73545361589618e-07 9.8506058397281e-08 1.50479272156493e-07
"2164" 43400 3.18075964254706e-08 1.09316649140761e-08 9.94761836070429e-08 2.25366360071666e-07 5.97504424018681e-08 1.73929166744525e-07 9.79857696587963e-08 1.50152005988702e-07
"2165" 43401 3.14352746004016e-08 1.08870045500804e-08 9.93582135999817e-08 2.25383046631075e-07 5.96800909007382e-08 1.74146632857771e-07 9.89672160639263e-08 1.47191643957051e-07
"2166" 43402 3.12464501738102e-08 1.08393263988756e-08 9.94328737702126e-08 2.25593147192347e-07 5.96009176461797e-08 1.74746174953428e-07 9.89829941566194e-08 1.44544094165111e-07
"2167" 43403 3.10576257472188e-08 1.07916482476708e-08 9.95075339404435e-08 2.25803247753619e-07 5.95217443916212e-08 1.75345717049085e-07 9.89987722493125e-08 1.41896544373171e-07
"2168" 43404 3.08688013206274e-08 1.07439700964661e-08 9.95821941106744e-08 2.26013348314891e-07 5.94425711370627e-08 1.75945259144741e-07 9.90145503420056e-08 1.39248994581231e-07
"2169" 43405 3.06799768940359e-08 1.06962919452613e-08 9.96568542809053e-08 2.26223448876163e-07 5.93633978825042e-08 1.76544801240398e-07 9.90303284346987e-08 1.3660144478929e-07
"2170" 43406 3.04911524674445e-08 1.06486137940565e-08 9.97315144511362e-08 2.26433549437435e-07 5.92842246279457e-08 1.77144343336055e-07 9.90461065273918e-08 1.3395389499735e-07
"2171" 43407 3.03023280408531e-08 1.06009356428517e-08 9.98061746213671e-08 2.26643649998707e-07 5.92050513733872e-08 1.77743885431712e-07 9.90618846200849e-08 1.3130634520541e-07
"2172" 43408 3.01135036142616e-08 1.05532574916469e-08 9.9880834791598e-08 2.26853750559979e-07 5.91258781188287e-08 1.78343427527369e-07 9.9077662712778e-08 1.2865879541347e-07
"2173" 43409 2.99246791876702e-08 1.05055793404421e-08 9.99554949618289e-08 2.2706385112125e-07 5.90467048642701e-08 1.78942969623025e-07 9.90934408054711e-08 1.2601124562153e-07
"2174" 43410 2.97358547610788e-08 1.04579011892373e-08 1.0003015513206e-07 2.27273951682522e-07 5.89675316097116e-08 1.79542511718682e-07 9.91092188981642e-08 1.2336369582959e-07
"2175" 43411 2.95470303344873e-08 1.04102230380325e-08 1.00104815302291e-07 2.27484052243794e-07 5.88883583551531e-08 1.80142053814339e-07 9.91249969908573e-08 1.2071614603765e-07
"2176" 43412 2.93582059078959e-08 1.03625448868278e-08 1.00179475472522e-07 2.27694152805066e-07 5.88091851005946e-08 1.80741595909996e-07 9.91407750835504e-08 1.18068596245709e-07
"2177" 43413 2.91693814813045e-08 1.0314866735623e-08 1.00254135642753e-07 2.27904253366338e-07 5.87300118460361e-08 1.81341138005652e-07 9.91565531762435e-08 1.15421046453769e-07
"2178" 43414 2.8980557054713e-08 1.02671885844182e-08 1.00328795812983e-07 2.2811435392761e-07 5.86508385914776e-08 1.81940680101309e-07 9.91723312689366e-08 1.12773496661829e-07
"2179" 43415 2.89876603520224e-08 1.02642718712326e-08 1.00434052901248e-07 2.27263465582112e-07 5.8662493027458e-08 1.82440896551041e-07 9.90156667960737e-08 1.12759396861908e-07
"2180" 43416 2.90804832659306e-08 1.02492334721987e-08 1.00603658750781e-07 2.2706759663352e-07 5.86113455380759e-08 1.83028658804058e-07 9.88590023232107e-08 1.12568027434111e-07
"2181" 43417 2.91733061798388e-08 1.02341950731649e-08 1.00773264600315e-07 2.26871727684929e-07 5.85601980486937e-08 1.83616421057076e-07 9.87023378503477e-08 1.12376658006314e-07
"2182" 43418 2.9266129093747e-08 1.0219156674131e-08 1.00942870449849e-07 2.26675858736337e-07 5.85090505593116e-08 1.84204183310093e-07 9.85456733774847e-08 1.12185288578517e-07
"2183" 43419 2.93589520076552e-08 1.02041182750971e-08 1.01112476299383e-07 2.26479989787746e-07 5.84579030699294e-08 1.84791945563111e-07 9.83890089046217e-08 1.1199391915072e-07
"2184" 43420 2.94517749215634e-08 1.01890798760633e-08 1.01282082148917e-07 2.26284120839154e-07 5.84067555805473e-08 1.85379707816128e-07 9.82323444317588e-08 1.11802549722923e-07
"2185" 43421 2.95445978354716e-08 1.01740414770294e-08 1.01451687998451e-07 2.26088251890562e-07 5.83556080911651e-08 1.85967470069146e-07 9.80756799588958e-08 1.11611180295127e-07
"2186" 43422 2.96374207493799e-08 1.01590030779955e-08 1.01621293847985e-07 2.25892382941971e-07 5.8304460601783e-08 1.86555232322163e-07 9.79190154860328e-08 1.1141981086733e-07
"2187" 43423 2.95580367525824e-08 1.01452241960076e-08 1.01602463274964e-07 2.25541881117616e-07 5.82425646255124e-08 1.87616305193661e-07 9.77377651128379e-08 1.10939020006594e-07
"2188" 43424 2.94786527557849e-08 1.01314453140197e-08 1.01583632701944e-07 2.25191379293262e-07 5.81806686492419e-08 1.88677378065158e-07 9.7556514739643e-08 1.10458229145858e-07
"2189" 43425 2.93992687589874e-08 1.01176664320318e-08 1.01564802128924e-07 2.24840877468907e-07 5.81187726729713e-08 1.89738450936655e-07 9.73752643664482e-08 1.09977438285122e-07
"2190" 43426 2.93198847621899e-08 1.01038875500439e-08 1.01545971555903e-07 2.24490375644553e-07 5.80568766967008e-08 1.90799523808153e-07 9.71940139932533e-08 1.09496647424386e-07
"2191" 43427 2.92405007653925e-08 1.0090108668056e-08 1.01527140982883e-07 2.24139873820198e-07 5.79949807204303e-08 1.9186059667965e-07 9.70127636200584e-08 1.0901585656365e-07
"2192" 43428 2.9161116768595e-08 1.00763297860681e-08 1.01508310409862e-07 2.23789371995844e-07 5.79330847441597e-08 1.92921669551148e-07 9.68315132468635e-08 1.08535065702914e-07
"2193" 43429 2.89824289870182e-08 1.0072440835154e-08 1.01394534157539e-07 2.23663058076377e-07 5.78612233278764e-08 1.94013092587194e-07 9.5679407570993e-08 1.05374918130621e-07
"2194" 43430 2.88037412054415e-08 1.00685518842399e-08 1.01280757905216e-07 2.2353674415691e-07 5.77893619115932e-08 1.9510451562324e-07 9.45273018951224e-08 1.02214770558329e-07
"2195" 43431 2.86250534238647e-08 1.00646629333258e-08 1.01166981652892e-07 2.23410430237443e-07 5.77175004953099e-08 1.96195938659286e-07 9.33751962192518e-08 9.90546229860366e-08
"2196" 43432 2.84463656422879e-08 1.00607739824116e-08 1.01053205400569e-07 2.23284116317976e-07 5.76456390790266e-08 1.97287361695331e-07 9.22230905433812e-08 9.58944754137442e-08
"2197" 43433 2.82676778607112e-08 1.00568850314975e-08 1.00939429148246e-07 2.23157802398509e-07 5.75737776627433e-08 1.98378784731377e-07 9.10709848675106e-08 9.27343278414518e-08
"2198" 43434 2.82752414086308e-08 9.96890233482202e-09 1.00525544783097e-07 2.22425601767364e-07 5.70496194816329e-08 1.99107495962444e-07 9.10672783454549e-08 9.27279188414875e-08
"2199" 43435 2.82828049565505e-08 9.88091963814651e-09 1.00111660417949e-07 2.21693401136218e-07 5.65254613005224e-08 1.99836207193511e-07 9.10635718233991e-08 9.27215098415232e-08
"2200" 43436 2.82903685044702e-08 9.792936941471e-09 9.96977760528009e-08 2.20961200505072e-07 5.60013031194119e-08 2.00564918424577e-07 9.10598653013433e-08 9.2715100841559e-08
"2201" 43437 2.82979320523898e-08 9.70495424479548e-09 9.92838916876527e-08 2.20228999873926e-07 5.54771449383015e-08 2.01293629655644e-07 9.10561587792876e-08 9.27086918415947e-08
"2202" 43438 2.83054956003095e-08 9.61697154811998e-09 9.88700073225045e-08 2.1949679924278e-07 5.4952986757191e-08 2.0202234088671e-07 9.10524522572318e-08 9.27022828416304e-08
"2203" 43439 2.83130591482292e-08 9.52898885144446e-09 9.84561229573562e-08 2.18764598611634e-07 5.44288285760805e-08 2.02751052117777e-07 9.1048745735176e-08 9.26958738416661e-08
"2204" 43440 2.83206226961489e-08 9.44100615476895e-09 9.8042238592208e-08 2.18032397980489e-07 5.39046703949701e-08 2.03479763348843e-07 9.10450392131203e-08 9.26894648417019e-08
"2205" 43441 2.83281862440685e-08 9.35302345809344e-09 9.76283542270598e-08 2.17300197349343e-07 5.33805122138596e-08 2.0420847457991e-07 9.10413326910645e-08 9.26830558417376e-08
"2206" 43442 2.83357497919882e-08 9.26504076141793e-09 9.72144698619116e-08 2.16567996718197e-07 5.28563540327491e-08 2.04937185810977e-07 9.10376261690087e-08 9.26766468417733e-08
"2207" 43443 2.83433133399079e-08 9.17705806474242e-09 9.68005854967633e-08 2.15835796087051e-07 5.23321958516387e-08 2.05665897042043e-07 9.1033919646953e-08 9.2670237841809e-08
"2208" 43444 2.83508768878275e-08 9.08907536806691e-09 9.63867011316151e-08 2.15103595455905e-07 5.18080376705282e-08 2.0639460827311e-07 9.10302131248972e-08 9.26638288418447e-08
"2209" 43445 2.83534884874294e-08 9.04111926329738e-09 9.60026708405158e-08 2.14511618845816e-07 5.1318055717013e-08 2.06586193491574e-07 9.12220983360197e-08 9.2764229987614e-08
"2210" 43446 2.85916404778218e-08 8.95489483678504e-09 9.5764907829575e-08 2.13719296794029e-07 5.09038746149819e-08 2.06841594104161e-07 9.12382509351235e-08 9.39112081998876e-08
"2211" 43447 2.88297924682143e-08 8.86867041027270e-09 9.55271448186341e-08 2.12926974742242e-07 5.04896935129508e-08 2.07096994716747e-07 9.12544035342272e-08 9.50581864121612e-08
"2212" 43448 2.90679444586067e-08 8.78244598376035e-09 9.52893818076933e-08 2.12134652690455e-07 5.00755124109197e-08 2.07352395329334e-07 9.1270556133331e-08 9.62051646244349e-08
"2213" 43449 2.90189214020507e-08 8.78551430798125e-09 9.53288351986358e-08 2.10820524267393e-07 5.01369779130821e-08 2.05518251461771e-07 9.12785134323241e-08 9.57495066342552e-08
"2214" 43450 2.91751244643511e-08 8.75379625652708e-09 9.51890430620841e-08 2.10302394173736e-07 5.02478609412535e-08 2.06137021769998e-07 9.02442551908302e-08 9.68456939633847e-08
"2215" 43451 2.93313275266515e-08 8.72207820507292e-09 9.50492509255324e-08 2.09784264080079e-07 5.0358743969425e-08 2.06755792078225e-07 8.92099969493363e-08 9.79418812925141e-08
"2216" 43452 2.94875305889519e-08 8.69036015361875e-09 9.49094587889807e-08 2.09266133986422e-07 5.04696269975964e-08 2.07374562386452e-07 8.81757387078424e-08 9.90380686216436e-08
"2217" 43453 2.96437336512522e-08 8.65864210216459e-09 9.4769666652429e-08 2.08748003892765e-07 5.05805100257678e-08 2.07993332694679e-07 8.71414804663485e-08 1.00134255950773e-07
"2218" 43454 2.97999367135526e-08 8.62692405071042e-09 9.46298745158773e-08 2.08229873799108e-07 5.06913930539392e-08 2.08612103002906e-07 8.61072222248546e-08 1.01230443279903e-07
"2219" 43455 2.9956139775853e-08 8.59520599925626e-09 9.44900823793257e-08 2.07711743705451e-07 5.08022760821106e-08 2.09230873311133e-07 8.50729639833608e-08 1.02326630609032e-07
"2220" 43456 3.01123428381534e-08 8.56348794780209e-09 9.4350290242774e-08 2.07193613611795e-07 5.09131591102821e-08 2.0984964361936e-07 8.40387057418668e-08 1.03422817938162e-07
"2221" 43457 3.02685459004538e-08 8.53176989634793e-09 9.42104981062223e-08 2.06675483518138e-07 5.10240421384535e-08 2.10468413927587e-07 8.3004447500373e-08 1.04519005267291e-07
"2222" 43458 3.01817546922593e-08 8.4982935747306e-09 9.41286631961667e-08 2.06170324887414e-07 5.10603868704709e-08 2.10468594405617e-07 8.19511123937186e-08 1.04414209378689e-07
"2223" 43459 3.01229566585366e-08 8.4826207542974e-09 9.40771186472108e-08 2.0612104213336e-07 5.120509355347e-08 2.10518576419766e-07 8.10064932080289e-08 1.04313258890066e-07
"2224" 43460 3.00641586248139e-08 8.46694793386421e-09 9.4025574098255e-08 2.06071759379307e-07 5.13498002364692e-08 2.10568558433915e-07 8.00618740223391e-08 1.04212308401443e-07
"2225" 43461 3.00053605910912e-08 8.45127511343102e-09 9.39740295492991e-08 2.06022476625253e-07 5.14945069194683e-08 2.10618540448064e-07 7.91172548366493e-08 1.04111357912819e-07
"2226" 43462 2.99465625573685e-08 8.43560229299783e-09 9.39224850003433e-08 2.05973193871199e-07 5.16392136024675e-08 2.10668522462213e-07 7.81726356509595e-08 1.04010407424196e-07
"2227" 43463 2.98877645236458e-08 8.41992947256464e-09 9.38709404513874e-08 2.05923911117146e-07 5.17839202854666e-08 2.10718504476362e-07 7.72280164652698e-08 1.03909456935573e-07
"2228" 43464 2.9828966489923e-08 8.40425665213144e-09 9.38193959024316e-08 2.05874628363092e-07 5.19286269684658e-08 2.10768486490511e-07 7.628339727958e-08 1.03808506446949e-07
"2229" 43465 2.97701684562003e-08 8.38858383169825e-09 9.37678513534757e-08 2.05825345609039e-07 5.20733336514649e-08 2.1081846850466e-07 7.53387780938902e-08 1.03707555958326e-07
"2230" 43466 2.97113704224776e-08 8.37291101126506e-09 9.37163068045199e-08 2.05776062854985e-07 5.22180403344641e-08 2.10868450518809e-07 7.43941589082005e-08 1.03606605469703e-07
"2231" 43467 2.96525723887549e-08 8.35723819083187e-09 9.3664762255564e-08 2.05726780100931e-07 5.23627470174632e-08 2.10918432532958e-07 7.34495397225107e-08 1.03505654981079e-07
"2232" 43468 2.95937743550322e-08 8.34156537039868e-09 9.36132177066082e-08 2.05677497346878e-07 5.25074537004623e-08 2.10968414547107e-07 7.25049205368209e-08 1.03404704492456e-07
"2233" 43469 2.95349763213095e-08 8.32589254996548e-09 9.35616731576523e-08 2.05628214592824e-07 5.26521603834615e-08 2.11018396561256e-07 7.15603013511311e-08 1.03303754003833e-07
"2234" 43470 2.94761782875868e-08 8.31021972953229e-09 9.35101286086965e-08 2.05578931838771e-07 5.27968670664606e-08 2.11068378575405e-07 7.06156821654414e-08 1.03202803515209e-07
"2235" 43471 2.94812836527747e-08 8.32933328477416e-09 9.37251315632795e-08 2.05557041687306e-07 5.29324773246041e-08 2.11063763586634e-07 7.07214738203492e-08 1.03226346091192e-07
"2236" 43472 2.91637476655848e-08 8.22844286981573e-09 9.38133791508753e-08 2.04755588767989e-07 5.28970056412141e-08 2.11098666550694e-07 7.08190701751465e-08 1.02701804624941e-07
"2237" 43473 2.88462116783949e-08 8.12755245485731e-09 9.39016267384711e-08 2.03954135848673e-07 5.28615339578241e-08 2.11133569514754e-07 7.09166665299437e-08 1.0217726315869e-07
"2238" 43474 2.8528675691205e-08 8.02666203989888e-09 9.3989874326067e-08 2.03152682929356e-07 5.28260622744341e-08 2.11168472478815e-07 7.10142628847409e-08 1.01652721692439e-07
"2239" 43475 2.8211139704015e-08 7.92577162494045e-09 9.40781219136628e-08 2.0235123001004e-07 5.27905905910442e-08 2.11203375442875e-07 7.11118592395382e-08 1.01128180226188e-07
"2240" 43476 2.78936037168251e-08 7.82488120998202e-09 9.41663695012587e-08 2.01549777090723e-07 5.27551189076542e-08 2.11238278406935e-07 7.12094555943354e-08 1.00603638759938e-07
"2241" 43477 2.75760677296352e-08 7.72399079502359e-09 9.42546170888545e-08 2.00748324171407e-07 5.27196472242642e-08 2.11273181370996e-07 7.13070519491327e-08 1.00079097293687e-07
"2242" 43478 2.72585317424453e-08 7.62310038006517e-09 9.43428646764503e-08 1.9994687125209e-07 5.26841755408743e-08 2.11308084335056e-07 7.14046483039299e-08 9.95545558274359e-08
"2243" 43479 2.69409957552554e-08 7.52220996510674e-09 9.44311122640462e-08 1.99145418332774e-07 5.26487038574843e-08 2.11342987299116e-07 7.15022446587271e-08 9.9030014361185e-08
"2244" 43480 2.71163620134827e-08 7.53286336886148e-09 9.48219703769699e-08 1.98411132127203e-07 5.25036076677825e-08 2.11327749111484e-07 7.14910795907955e-08 9.99113902860328e-08
"2245" 43481 2.68444044793356e-08 7.7537511370197e-09 9.72365985483355e-08 1.98026315302781e-07 5.23253191009181e-08 2.11458317557961e-07 7.15595330145594e-08 9.94004091891687e-08
"2246" 43482 2.65724469451885e-08 7.97463890517793e-09 9.9651226719701e-08 1.97641498478358e-07 5.21470305340536e-08 2.11588886004438e-07 7.16279864383233e-08 9.88894280923047e-08
"2247" 43483 2.63004894110414e-08 8.19552667333616e-09 1.02065854891067e-07 1.97256681653936e-07 5.19687419671892e-08 2.11719454450915e-07 7.16964398620872e-08 9.83784469954406e-08
"2248" 43484 2.60285318768943e-08 8.41641444149439e-09 1.04480483062432e-07 1.96871864829514e-07 5.17904534003247e-08 2.11850022897393e-07 7.17648932858511e-08 9.78674658985766e-08
"2249" 43485 2.6098321730449e-08 8.74241939185437e-09 1.07071232588005e-07 1.97221334210662e-07 5.17923431998493e-08 2.1198059134387e-07 7.17138279685429e-08 9.7528585972223e-08
"2250" 43486 2.61681115840037e-08 9.06842434221434e-09 1.09661982113578e-07 1.9757080359181e-07 5.1794232999374e-08 2.12111159790347e-07 7.16627626512346e-08 9.71897060458694e-08
"2251" 43487 2.62379014375585e-08 9.39442929257431e-09 1.12252731639151e-07 1.97920272972959e-07 5.17961227988987e-08 2.12241728236824e-07 7.16116973339264e-08 9.68508261195158e-08
"2252" 43488 2.63076912911132e-08 9.72043424293429e-09 1.14843481164724e-07 1.98269742354107e-07 5.17980125984233e-08 2.12372296683302e-07 7.15606320166182e-08 9.65119461931623e-08
"2253" 43489 2.63774811446679e-08 1.00464391932943e-08 1.17434230690297e-07 1.98619211735255e-07 5.1799902397948e-08 2.12502865129779e-07 7.15095666993099e-08 9.61730662668087e-08
"2254" 43490 2.64472709982226e-08 1.03724441436542e-08 1.2002498021587e-07 1.98968681116404e-07 5.18017921974726e-08 2.12633433576256e-07 7.14585013820017e-08 9.58341863404551e-08
"2255" 43491 2.65170608517773e-08 1.06984490940142e-08 1.22615729741443e-07 1.99318150497552e-07 5.18036819969973e-08 2.12764002022733e-07 7.14074360646934e-08 9.54953064141015e-08
"2256" 43492 2.6586850705332e-08 1.10244540443742e-08 1.25206479267016e-07 1.996676198787e-07 5.18055717965219e-08 2.1289457046921e-07 7.13563707473852e-08 9.5156426487748e-08
"2257" 43493 2.65779909832381e-08 1.13600204352314e-08 1.27799702377641e-07 2.00543568136393e-07 5.17346942306713e-08 2.12177621404692e-07 7.12680896793486e-08 9.43854311471972e-08
"2258" 43494 2.65691312611442e-08 1.16955868260887e-08 1.30392925488267e-07 2.01419516394085e-07 5.16638166648206e-08 2.11460672340174e-07 7.1179808611312e-08 9.36144358066464e-08
"2259" 43495 2.65602715390503e-08 1.2031153216946e-08 1.32986148598892e-07 2.02295464651777e-07 5.15929390989699e-08 2.10743723275656e-07 7.10915275432754e-08 9.28434404660956e-08
"2260" 43496 2.65514118169564e-08 1.23667196078032e-08 1.35579371709518e-07 2.0317141290947e-07 5.15220615331192e-08 2.10026774211137e-07 7.10032464752388e-08 9.20724451255448e-08
"2261" 43497 2.65425520948625e-08 1.27022859986605e-08 1.38172594820143e-07 2.04047361167162e-07 5.14511839672685e-08 2.09309825146619e-07 7.09149654072022e-08 9.1301449784994e-08
"2262" 43498 2.65336923727687e-08 1.30378523895177e-08 1.40765817930769e-07 2.04923309424854e-07 5.13803064014178e-08 2.08592876082101e-07 7.08266843391656e-08 9.05304544444432e-08
"2263" 43499 2.65248326506748e-08 1.3373418780375e-08 1.43359041041395e-07 2.05799257682547e-07 5.13094288355671e-08 2.07875927017583e-07 7.0738403271129e-08 8.97594591038925e-08
"2264" 43500 2.65159729285809e-08 1.37089851712322e-08 1.4595226415202e-07 2.06675205940239e-07 5.12385512697164e-08 2.07158977953064e-07 7.06501222030924e-08 8.89884637633417e-08
"2265" 43501 2.6507113206487e-08 1.40445515620895e-08 1.48545487262646e-07 2.07551154197932e-07 5.11676737038657e-08 2.06442028888546e-07 7.05618411350557e-08 8.82174684227909e-08
"2266" 43502 2.64982534843931e-08 1.43801179529467e-08 1.51138710373271e-07 2.08427102455624e-07 5.10967961380151e-08 2.05725079824028e-07 7.04735600670191e-08 8.74464730822401e-08
"2267" 43503 2.66069157443835e-08 1.44456754108533e-08 1.5131593013638e-07 2.09425963922919e-07 5.13859307991159e-08 2.04917080265864e-07 7.03347351856737e-08 8.67120769777817e-08
"2268" 43504 2.67155780043739e-08 1.45112328687599e-08 1.51493149899489e-07 2.10424825390214e-07 5.16750654602167e-08 2.04109080707701e-07 7.01959103043282e-08 8.59776808733232e-08
"2269" 43505 2.68242402643643e-08 1.45767903266665e-08 1.51670369662598e-07 2.11423686857508e-07 5.19642001213176e-08 2.03301081149537e-07 7.00570854229828e-08 8.52432847688648e-08
"2270" 43506 2.69329025243546e-08 1.46423477845731e-08 1.51847589425706e-07 2.12422548324803e-07 5.22533347824184e-08 2.02493081591373e-07 6.99182605416373e-08 8.45088886644063e-08
"2271" 43507 2.7041564784345e-08 1.47079052424797e-08 1.52024809188815e-07 2.13421409792098e-07 5.25424694435192e-08 2.0168508203321e-07 6.97794356602919e-08 8.37744925599479e-08
"2272" 43508 2.7199061101167e-08 1.47795235433104e-08 1.52125577499024e-07 2.13123650938532e-07 5.29045682400819e-08 2.01581721849178e-07 6.81742469037621e-08 8.37989820524279e-08
"2273" 43509 2.71397368972732e-08 1.48474390985209e-08 1.5225095768986e-07 2.13282478893751e-07 5.32511277886707e-08 2.01629792380604e-07 6.81483572434317e-08 8.33539546030799e-08
"2274" 43510 2.70804126933795e-08 1.49153546537314e-08 1.52376337880696e-07 2.1344130684897e-07 5.35976873372594e-08 2.01677862912029e-07 6.81224675831013e-08 8.29089271537319e-08
"2275" 43511 2.70210884894857e-08 1.49832702089419e-08 1.52501718071532e-07 2.13600134804189e-07 5.39442468858482e-08 2.01725933443455e-07 6.80965779227709e-08 8.24638997043839e-08
"2276" 43512 2.69617642855919e-08 1.50511857641524e-08 1.52627098262368e-07 2.13758962759408e-07 5.42908064344369e-08 2.0177400397488e-07 6.80706882624405e-08 8.2018872255036e-08
"2277" 43513 2.69024400816981e-08 1.51191013193629e-08 1.52752478453204e-07 2.13917790714627e-07 5.46373659830257e-08 2.01822074506306e-07 6.80447986021101e-08 8.1573844805688e-08
"2278" 43514 2.68431158778044e-08 1.51870168745734e-08 1.52877858644039e-07 2.14076618669845e-07 5.49839255316144e-08 2.01870145037731e-07 6.80189089417798e-08 8.112881735634e-08
"2279" 43515 2.67837916739106e-08 1.52549324297839e-08 1.53003238834875e-07 2.14235446625064e-07 5.53304850802032e-08 2.01918215569157e-07 6.79930192814494e-08 8.0683789906992e-08
"2280" 43516 2.67179865991457e-08 1.52933018255502e-08 1.53367757212803e-07 2.13701463160448e-07 5.60392871276244e-08 2.01911869575691e-07 6.83365376987894e-08 8.06018404384676e-08
"2281" 43517 2.64680949558242e-08 1.53096755471477e-08 1.53354505179822e-07 2.16834881240598e-07 5.6400997972875e-08 2.0211229272101e-07 6.85206021162119e-08 8.0125157838714e-08
"2282" 43518 2.62182033125027e-08 1.53260492687452e-08 1.53341253146841e-07 2.19968299320747e-07 5.67627088181257e-08 2.02312715866329e-07 6.87046665336345e-08 7.96484752389605e-08
"2283" 43519 2.59683116691811e-08 1.53424229903427e-08 1.5332800111386e-07 2.23101717400897e-07 5.71244196633763e-08 2.02513139011647e-07 6.8888730951057e-08 7.91717926392069e-08
"2284" 43520 2.57184200258596e-08 1.53587967119402e-08 1.53314749080879e-07 2.26235135481047e-07 5.74861305086269e-08 2.02713562156966e-07 6.90727953684795e-08 7.86951100394533e-08
"2285" 43521 2.54685283825381e-08 1.53751704335376e-08 1.53301497047898e-07 2.29368553561197e-07 5.78478413538776e-08 2.02913985302285e-07 6.92568597859021e-08 7.82184274396997e-08
"2286" 43522 2.52186367392166e-08 1.53915441551351e-08 1.53288245014917e-07 2.32501971641347e-07 5.82095521991282e-08 2.03114408447603e-07 6.94409242033246e-08 7.77417448399461e-08
"2287" 43523 2.4968745095895e-08 1.54079178767326e-08 1.53274992981935e-07 2.35635389721496e-07 5.85712630443788e-08 2.03314831592922e-07 6.96249886207471e-08 7.72650622401925e-08
"2288" 43524 2.47188534525735e-08 1.54242915983301e-08 1.53261740948954e-07 2.38768807801646e-07 5.89329738896295e-08 2.03515254738241e-07 6.98090530381697e-08 7.67883796404389e-08
"2289" 43525 2.4468961809252e-08 1.54406653199276e-08 1.53248488915973e-07 2.41902225881796e-07 5.92946847348801e-08 2.0371567788356e-07 6.99931174555922e-08 7.63116970406853e-08
"2290" 43526 2.42190701659304e-08 1.54570390415251e-08 1.53235236882992e-07 2.45035643961946e-07 5.96563955801307e-08 2.03916101028878e-07 7.01771818730147e-08 7.58350144409318e-08
"2291" 43527 2.39691785226089e-08 1.54734127631225e-08 1.53221984850011e-07 2.48169062042096e-07 6.00181064253814e-08 2.04116524174197e-07 7.03612462904373e-08 7.53583318411782e-08
"2292" 43528 2.37192868792874e-08 1.548978648472e-08 1.5320873281703e-07 2.51302480122245e-07 6.0379817270632e-08 2.04316947319516e-07 7.05453107078598e-08 7.48816492414246e-08
"2293" 43529 2.34693952359659e-08 1.55061602063175e-08 1.53195480784049e-07 2.54435898202395e-07 6.07415281158826e-08 2.04517370464834e-07 7.07293751252824e-08 7.4404966641671e-08
"2294" 43530 2.34593571737136e-08 1.5522533927915e-08 1.52897502224976e-07 2.58419493695928e-07 6.09075269356312e-08 2.03460965017224e-07 7.06465961327035e-08 7.44508711731168e-08
"2295" 43531 2.34369955346008e-08 1.5533793775811e-08 1.52559682995893e-07 2.62239564798366e-07 6.12540237940718e-08 2.03655222647107e-07 7.07310236810956e-08 7.43051654284927e-08
"2296" 43532 2.34146338954881e-08 1.55450536237069e-08 1.52221863766811e-07 2.66059635900805e-07 6.16005206525124e-08 2.03849480276989e-07 7.08154512294877e-08 7.41594596838686e-08
"2297" 43533 2.33922722563754e-08 1.55563134716029e-08 1.51884044537728e-07 2.69879707003243e-07 6.1947017510953e-08 2.04043737906872e-07 7.08998787778798e-08 7.40137539392445e-08
"2298" 43534 2.33699106172626e-08 1.55675733194989e-08 1.51546225308645e-07 2.73699778105682e-07 6.22935143693936e-08 2.04237995536755e-07 7.09843063262719e-08 7.38680481946204e-08
"2299" 43535 2.33475489781499e-08 1.55788331673949e-08 1.51208406079563e-07 2.7751984920812e-07 6.26400112278343e-08 2.04432253166637e-07 7.1068733874664e-08 7.37223424499963e-08
"2300" 43536 2.33251873390371e-08 1.55900930152909e-08 1.5087058685048e-07 2.81339920310558e-07 6.29865080862749e-08 2.0462651079652e-07 7.11531614230561e-08 7.35766367053721e-08
"2301" 43537 2.33028256999244e-08 1.56013528631869e-08 1.50532767621398e-07 2.85159991412997e-07 6.33330049447155e-08 2.04820768426403e-07 7.12375889714482e-08 7.3430930960748e-08
"2302" 43538 2.32804640608116e-08 1.56126127110829e-08 1.50194948392315e-07 2.88980062515435e-07 6.36795018031561e-08 2.05015026056285e-07 7.13220165198403e-08 7.32852252161239e-08
"2303" 43539 2.3364054499325e-08 1.56124611000475e-08 1.50253484131829e-07 2.88977258245124e-07 6.38186948902623e-08 2.05103730335547e-07 7.12151591060514e-08 7.34879213406574e-08
"2304" 43540 2.35396266820349e-08 1.56074483003696e-08 1.49944826103028e-07 2.89078890027763e-07 6.3790343863922e-08 2.05867870714026e-07 7.12416857910831e-08 7.38720096425519e-08
"2305" 43541 2.37151988647448e-08 1.56024355006916e-08 1.49636168074227e-07 2.89180521810403e-07 6.37619928375817e-08 2.06632011092506e-07 7.12682124761148e-08 7.42560979444463e-08
"2306" 43542 2.38907710474546e-08 1.55974227010137e-08 1.49327510045427e-07 2.89282153593043e-07 6.37336418112415e-08 2.07396151470985e-07 7.12947391611465e-08 7.46401862463408e-08
"2307" 43543 2.40663432301645e-08 1.55924099013357e-08 1.49018852016626e-07 2.89383785375682e-07 6.37052907849012e-08 2.08160291849464e-07 7.13212658461782e-08 7.50242745482352e-08
"2308" 43544 2.42610214481984e-08 1.55942439770165e-08 1.49000947836856e-07 2.8943033437266e-07 6.31592926795778e-08 2.08930597743379e-07 7.14474294002404e-08 7.53282610010471e-08
"2309" 43545 2.44556996662322e-08 1.55960780526974e-08 1.48983043657087e-07 2.89476883369637e-07 6.26132945742544e-08 2.09700903637295e-07 7.15735929543025e-08 7.5632247453859e-08
"2310" 43546 2.46503778842661e-08 1.55979121283782e-08 1.48965139477318e-07 2.89523432366615e-07 6.2067296468931e-08 2.1047120953121e-07 7.16997565083646e-08 7.59362339066709e-08
"2311" 43547 2.48450561023e-08 1.5599746204059e-08 1.48947235297548e-07 2.89569981363592e-07 6.15212983636076e-08 2.11241515425125e-07 7.18259200624268e-08 7.62402203594828e-08
"2312" 43548 2.50397343203338e-08 1.56015802797398e-08 1.48929331117779e-07 2.8961653036057e-07 6.09753002582842e-08 2.1201182131904e-07 7.19520836164889e-08 7.65442068122947e-08
"2313" 43549 2.52344125383677e-08 1.56034143554207e-08 1.48911426938009e-07 2.89663079357547e-07 6.04293021529608e-08 2.12782127212956e-07 7.20782471705511e-08 7.68481932651066e-08
"2314" 43550 2.54290907564015e-08 1.56052484311015e-08 1.4889352275824e-07 2.89709628354524e-07 5.98833040476374e-08 2.13552433106871e-07 7.22044107246132e-08 7.71521797179185e-08
"2315" 43551 2.56237689744354e-08 1.56070825067823e-08 1.4887561857847e-07 2.89756177351502e-07 5.9337305942314e-08 2.14322739000786e-07 7.23305742786754e-08 7.74561661707304e-08
"2316" 43552 2.56578049400739e-08 1.55392680255954e-08 1.48588123444009e-07 2.89709043560629e-07 5.93304149558154e-08 2.12664524515328e-07 7.2368763018465e-08 7.79787945593233e-08
"2317" 43553 2.56918409057124e-08 1.54714535444084e-08 1.48300628309547e-07 2.89661909769756e-07 5.93235239693169e-08 2.11006310029871e-07 7.24069517582546e-08 7.85014229479163e-08
"2318" 43554 2.57258768713509e-08 1.54036390632214e-08 1.48013133175086e-07 2.89614775978883e-07 5.93166329828183e-08 2.09348095544413e-07 7.24451404980442e-08 7.90240513365093e-08
"2319" 43555 2.57599128369895e-08 1.53358245820345e-08 1.47725638040624e-07 2.8956764218801e-07 5.93097419963198e-08 2.07689881058955e-07 7.24833292378338e-08 7.95466797251023e-08
"2320" 43556 2.5793948802628e-08 1.52680101008475e-08 1.47438142906163e-07 2.89520508397137e-07 5.93028510098212e-08 2.06031666573498e-07 7.25215179776235e-08 8.00693081136952e-08
"2321" 43557 2.58279847682665e-08 1.52001956196606e-08 1.47150647771701e-07 2.89473374606264e-07 5.92959600233227e-08 2.0437345208804e-07 7.25597067174131e-08 8.05919365022882e-08
"2322" 43558 2.5862020733905e-08 1.51323811384736e-08 1.4686315263724e-07 2.89426240815391e-07 5.92890690368241e-08 2.02715237602582e-07 7.25978954572027e-08 8.11145648908812e-08
"2323" 43559 2.58960566995436e-08 1.50645666572866e-08 1.46575657502778e-07 2.89379107024518e-07 5.92821780503256e-08 2.01057023117125e-07 7.26360841969923e-08 8.16371932794742e-08
"2324" 43560 2.59300926651821e-08 1.49967521760997e-08 1.46288162368317e-07 2.89331973233645e-07 5.9275287063827e-08 1.99398808631667e-07 7.26742729367819e-08 8.21598216680672e-08
"2325" 43561 2.59641286308206e-08 1.49289376949127e-08 1.46000667233855e-07 2.89284839442772e-07 5.92683960773285e-08 1.97740594146209e-07 7.27124616765716e-08 8.26824500566601e-08
"2326" 43562 2.59981645964591e-08 1.48611232137258e-08 1.45713172099394e-07 2.89237705651899e-07 5.92615050908299e-08 1.96082379660751e-07 7.27506504163612e-08 8.32050784452531e-08
"2327" 43563 2.60322005620977e-08 1.47933087325388e-08 1.45425676964932e-07 2.89190571861026e-07 5.92546141043314e-08 1.94424165175294e-07 7.27888391561508e-08 8.37277068338461e-08
"2328" 43564 2.60662365277362e-08 1.47254942513519e-08 1.45138181830471e-07 2.89143438070153e-07 5.92477231178328e-08 1.92765950689836e-07 7.28270278959404e-08 8.42503352224391e-08
"2329" 43565 2.61002724933747e-08 1.46576797701649e-08 1.44850686696009e-07 2.8909630427928e-07 5.92408321313343e-08 1.91107736204378e-07 7.286521663573e-08 8.4772963611032e-08
"2330" 43566 2.61343084590132e-08 1.45898652889779e-08 1.44563191561547e-07 2.89049170488407e-07 5.92339411448357e-08 1.89449521718921e-07 7.29034053755197e-08 8.5295591999625e-08
"2331" 43567 2.63316531107567e-08 1.45780468252003e-08 1.44275696427086e-07 2.89220608298027e-07 5.92303719716747e-08 1.90164116647108e-07 7.30604566133799e-08 8.57913454538772e-08
"2332" 43568 2.65782891502894e-08 1.45394566298815e-08 1.43602930366657e-07 2.89234569503423e-07 5.87753573595713e-08 1.91145175614996e-07 7.25220762573826e-08 8.7838868856903e-08
"2333" 43569 2.65756227165798e-08 1.4474745067174e-08 1.43289072429967e-07 2.89337764176764e-07 5.83104182748607e-08 1.90311184795227e-07 7.35132789420394e-08 8.84787520497086e-08
"2334" 43570 2.65729562828703e-08 1.44100335044665e-08 1.42975214493277e-07 2.89440958850105e-07 5.784547919015e-08 1.89477193975459e-07 7.45044816266963e-08 8.91186352425141e-08
"2335" 43571 2.65702898491607e-08 1.4345321941759e-08 1.42661356556587e-07 2.89544153523446e-07 5.73805401054394e-08 1.8864320315569e-07 7.54956843113531e-08 8.97585184353197e-08
"2336" 43572 2.65676234154511e-08 1.42806103790515e-08 1.42347498619897e-07 2.89647348196787e-07 5.69156010207287e-08 1.87809212335922e-07 7.64868869960099e-08 9.03984016281252e-08
"2337" 43573 2.65649569817415e-08 1.4215898816344e-08 1.42033640683207e-07 2.89750542870128e-07 5.64506619360181e-08 1.86975221516153e-07 7.74780896806667e-08 9.10382848209308e-08
"2338" 43574 2.65622905480319e-08 1.41511872536366e-08 1.41719782746516e-07 2.89853737543469e-07 5.59857228513074e-08 1.86141230696384e-07 7.84692923653235e-08 9.16781680137364e-08
"2339" 43575 2.65982089382712e-08 1.40767879079024e-08 1.41046792775754e-07 2.90225014277897e-07 5.56271001153728e-08 1.85291438914409e-07 7.83596121813024e-08 9.16364943555013e-08
"2340" 43576 2.70075014939216e-08 1.40767879079024e-08 1.40599005694485e-07 2.9063580247997e-07 5.55843125602372e-08 1.85194659469185e-07 7.81980844239739e-08 9.46446041618565e-08
"2341" 43577 2.74167940495719e-08 1.40767879079024e-08 1.40151218613216e-07 2.91046590682042e-07 5.55415250051015e-08 1.85097880023961e-07 7.80365566666454e-08 9.76527139682117e-08
"2342" 43578 2.78260866052223e-08 1.40767879079024e-08 1.39703431531948e-07 2.91457378884115e-07 5.54987374499659e-08 1.85001100578738e-07 7.78750289093169e-08 1.00660823774567e-07
"2343" 43579 2.82353791608727e-08 1.40767879079024e-08 1.39255644450679e-07 2.91868167086188e-07 5.54559498948303e-08 1.84904321133514e-07 7.77135011519884e-08 1.03668933580922e-07
"2344" 43580 2.8644671716523e-08 1.40767879079024e-08 1.3880785736941e-07 2.9227895528826e-07 5.54131623396946e-08 1.8480754168829e-07 7.75519733946599e-08 1.06677043387277e-07
"2345" 43581 2.90539642721734e-08 1.40767879079024e-08 1.38360070288141e-07 2.92689743490333e-07 5.5370374784559e-08 1.84710762243066e-07 7.73904456373314e-08 1.09685153193632e-07
"2346" 43582 2.94632568278237e-08 1.40767879079024e-08 1.37912283206873e-07 2.93100531692406e-07 5.53275872294234e-08 1.84613982797842e-07 7.72289178800029e-08 1.12693262999988e-07
"2347" 43583 2.98725493834741e-08 1.40767879079024e-08 1.37464496125604e-07 2.93511319894478e-07 5.52847996742878e-08 1.84517203352619e-07 7.70673901226744e-08 1.15701372806343e-07
"2348" 43584 3.02818419391245e-08 1.40767879079024e-08 1.37016709044335e-07 2.93922108096551e-07 5.52420121191521e-08 1.84420423907395e-07 7.69058623653459e-08 1.18709482612698e-07
"2349" 43585 3.06911344947748e-08 1.40767879079024e-08 1.36568921963066e-07 2.94332896298624e-07 5.51992245640165e-08 1.84323644462171e-07 7.67443346080175e-08 1.21717592419053e-07
"2350" 43586 3.11004270504252e-08 1.40767879079024e-08 1.36121134881797e-07 2.94743684500696e-07 5.51564370088809e-08 1.84226865016947e-07 7.6582806850689e-08 1.24725702225408e-07
"2351" 43587 3.15097196060755e-08 1.40767879079024e-08 1.35673347800529e-07 2.95154472702769e-07 5.51136494537452e-08 1.84130085571723e-07 7.64212790933605e-08 1.27733812031764e-07
"2352" 43588 3.19190121617259e-08 1.40767879079024e-08 1.3522556071926e-07 2.95565260904842e-07 5.50708618986096e-08 1.84033306126499e-07 7.6259751336032e-08 1.30741921838119e-07
"2353" 43589 3.23091986820523e-08 1.41414994706099e-08 1.35255965441109e-07 2.9589219583376e-07 5.54930134281846e-08 1.84449871681796e-07 7.56515000418614e-08 1.33801232201673e-07
"2354" 43590 3.27098671836404e-08 1.4218029497095e-08 1.35359909819289e-07 2.96054286714966e-07 5.59269246066843e-08 1.85223600568522e-07 7.629063901983e-08 1.36777679713371e-07
"2355" 43591 3.31105356852286e-08 1.42945595235801e-08 1.35463854197468e-07 2.96216377596173e-07 5.63608357851839e-08 1.85997329455249e-07 7.69297779977987e-08 1.39754127225069e-07
"2356" 43592 3.35112041868167e-08 1.43710895500653e-08 1.35567798575647e-07 2.96378468477379e-07 5.67947469636836e-08 1.86771058341975e-07 7.75689169757674e-08 1.42730574736767e-07
"2357" 43593 3.39118726884049e-08 1.44476195765504e-08 1.35671742953826e-07 2.96540559358586e-07 5.72286581421832e-08 1.87544787228702e-07 7.82080559537361e-08 1.45707022248465e-07
"2358" 43594 3.4312541189993e-08 1.45241496030355e-08 1.35775687332006e-07 2.96702650239792e-07 5.76625693206829e-08 1.88318516115428e-07 7.88471949317048e-08 1.48683469760163e-07
"2359" 43595 3.47132096915812e-08 1.46006796295207e-08 1.35879631710185e-07 2.96864741120999e-07 5.80964804991825e-08 1.89092245002155e-07 7.94863339096735e-08 1.51659917271861e-07
"2360" 43596 3.51138781931693e-08 1.46772096560058e-08 1.35983576088364e-07 2.97026832002205e-07 5.85303916776822e-08 1.89865973888882e-07 8.01254728876421e-08 1.54636364783559e-07
"2361" 43597 3.55145466947574e-08 1.4753739682491e-08 1.36087520466543e-07 2.97188922883412e-07 5.89643028561819e-08 1.90639702775608e-07 8.07646118656108e-08 1.57612812295257e-07
"2362" 43598 3.55757124942499e-08 1.47496991205415e-08 1.36075702226847e-07 2.97221451807415e-07 5.91865403540382e-08 1.90988203161622e-07 8.1175370950245e-08 1.58931759153494e-07
"2363" 43599 3.56368782937424e-08 1.47456585585921e-08 1.36063883987151e-07 2.97253980731418e-07 5.94087778518946e-08 1.91336703547636e-07 8.15861300348792e-08 1.6025070601173e-07
"2364" 43600 3.56980440932349e-08 1.47416179966427e-08 1.36052065747455e-07 2.97286509655421e-07 5.9631015349751e-08 1.91685203933649e-07 8.19968891195134e-08 1.61569652869966e-07
"2365" 43601 3.57592098927274e-08 1.47375774346933e-08 1.36040247507759e-07 2.97319038579425e-07 5.98532528476074e-08 1.92033704319663e-07 8.24076482041476e-08 1.62888599728203e-07
"2366" 43602 3.58203756922199e-08 1.47335368727438e-08 1.36028429268063e-07 2.97351567503428e-07 6.00754903454638e-08 1.92382204705677e-07 8.28184072887819e-08 1.64207546586439e-07
"2367" 43603 3.58815414917124e-08 1.47294963107944e-08 1.36016611028367e-07 2.97384096427431e-07 6.02977278433202e-08 1.9273070509169e-07 8.32291663734161e-08 1.65526493444675e-07
"2368" 43604 3.59427072912049e-08 1.4725455748845e-08 1.36004792788672e-07 2.97416625351434e-07 6.05199653411766e-08 1.93079205477704e-07 8.36399254580503e-08 1.66845440302911e-07
"2369" 43605 3.60038730906974e-08 1.47214151868955e-08 1.35992974548976e-07 2.97449154275437e-07 6.0742202839033e-08 1.93427705863718e-07 8.40506845426845e-08 1.68164387161148e-07
"2370" 43606 3.60650388901899e-08 1.47173746249461e-08 1.3598115630928e-07 2.97481683199441e-07 6.09644403368894e-08 1.93776206249731e-07 8.44614436273187e-08 1.69483334019384e-07
"2371" 43607 3.61262046896824e-08 1.47133340629967e-08 1.35969338069584e-07 2.97514212123444e-07 6.11866778347458e-08 1.94124706635745e-07 8.48722027119529e-08 1.7080228087762e-07
"2372" 43608 3.61873704891749e-08 1.47092935010473e-08 1.35957519829888e-07 2.97546741047447e-07 6.14089153326022e-08 1.94473207021759e-07 8.52829617965871e-08 1.72121227735857e-07
"2373" 43609 3.62485362886674e-08 1.47052529390978e-08 1.35945701590192e-07 2.9757926997145e-07 6.16311528304586e-08 1.94821707407772e-07 8.56937208812213e-08 1.73440174594093e-07
"2374" 43610 3.63097020881599e-08 1.47012123771484e-08 1.35933883350496e-07 2.97611798895454e-07 6.1853390328315e-08 1.95170207793786e-07 8.61044799658555e-08 1.74759121452329e-07
"2375" 43611 3.63708678876524e-08 1.4697171815199e-08 1.359220651108e-07 2.97644327819457e-07 6.20756278261714e-08 1.95518708179799e-07 8.65152390504897e-08 1.76078068310566e-07
"2376" 43612 3.63046900595866e-08 1.46813127894719e-08 1.35982984104082e-07 2.97765277710968e-07 6.21567414699914e-08 1.95693547364938e-07 8.59458485302788e-08 1.76707446922812e-07
"2377" 43613 3.61936489483734e-08 1.45910478010101e-08 1.35992164427759e-07 2.97907972206296e-07 6.19816518142481e-08 1.96042047750952e-07 8.53111615546052e-08 1.77651213200864e-07
"2378" 43614 3.60826078371602e-08 1.45007828125484e-08 1.36001344751436e-07 2.98050666701624e-07 6.18065621585048e-08 1.96390548136966e-07 8.46764745789317e-08 1.78594979478916e-07
"2379" 43615 3.5971566725947e-08 1.44105178240866e-08 1.36010525075113e-07 2.98193361196952e-07 6.16314725027615e-08 1.96739048522979e-07 8.40417876032581e-08 1.79538745756967e-07
"2380" 43616 3.58605256147338e-08 1.43202528356248e-08 1.3601970539879e-07 2.9833605569228e-07 6.14563828470182e-08 1.97087548908993e-07 8.34071006275845e-08 1.80482512035019e-07
"2381" 43617 3.57494845035206e-08 1.42299878471631e-08 1.36028885722466e-07 2.98478750187607e-07 6.12812931912749e-08 1.97436049295007e-07 8.2772413651911e-08 1.81426278313071e-07
"2382" 43618 3.56384433923074e-08 1.41397228587013e-08 1.36038066046143e-07 2.98621444682935e-07 6.11062035355316e-08 1.9778454968102e-07 8.21377266762374e-08 1.82370044591123e-07
"2383" 43619 3.55274022810942e-08 1.40494578702395e-08 1.3604724636982e-07 2.98764139178263e-07 6.09311138797883e-08 1.98133050067034e-07 8.15030397005639e-08 1.83313810869175e-07
"2384" 43620 3.5411888723427e-08 1.41274429448172e-08 1.37423579138511e-07 2.99418094437586e-07 6.0550680086635e-08 1.98660719278697e-07 8.10237939489879e-08 1.82938630288991e-07
"2385" 43621 3.52963751657598e-08 1.42054280193949e-08 1.38799911907203e-07 3.00072049696908e-07 6.01702462934816e-08 1.99188388490361e-07 8.0544548197412e-08 1.82563449708806e-07
"2386" 43622 3.51808616080925e-08 1.42834130939726e-08 1.40176244675894e-07 3.00726004956231e-07 5.97898125003283e-08 1.99716057702024e-07 8.00653024458361e-08 1.82188269128622e-07
"2387" 43623 3.50653480504253e-08 1.43613981685502e-08 1.41552577444586e-07 3.01379960215553e-07 5.94093787071749e-08 2.00243726913688e-07 7.95860566942602e-08 1.81813088548437e-07
"2388" 43624 3.49498344927581e-08 1.44393832431279e-08 1.42928910213277e-07 3.02033915474876e-07 5.90289449140216e-08 2.00771396125351e-07 7.91068109426843e-08 1.81437907968253e-07
"2389" 43625 3.50006524766055e-08 1.46036938182415e-08 1.44314994133979e-07 3.02027702091636e-07 5.87925728704005e-08 2.01386801372475e-07 7.95823974402598e-08 1.81476868445384e-07
"2390" 43626 3.50514704604529e-08 1.47680043933551e-08 1.45701078054681e-07 3.02021488708397e-07 5.85562008267794e-08 2.02002206619598e-07 8.00579839378353e-08 1.81515828922514e-07
"2391" 43627 3.51022884443003e-08 1.49323149684686e-08 1.47087161975383e-07 3.02015275325157e-07 5.83198287831584e-08 2.02617611866721e-07 8.05335704354108e-08 1.81554789399645e-07
"2392" 43628 3.51531064281477e-08 1.50966255435822e-08 1.48473245896085e-07 3.02009061941918e-07 5.80834567395373e-08 2.03233017113844e-07 8.10091569329863e-08 1.81593749876775e-07
"2393" 43629 3.52039244119951e-08 1.52609361186958e-08 1.49859329816787e-07 3.02002848558679e-07 5.78470846959163e-08 2.03848422360967e-07 8.14847434305618e-08 1.81632710353906e-07
"2394" 43630 3.52547423958425e-08 1.54252466938093e-08 1.51245413737489e-07 3.01996635175439e-07 5.76107126522952e-08 2.04463827608091e-07 8.19603299281373e-08 1.81671670831036e-07
"2395" 43631 3.53055603796899e-08 1.55895572689229e-08 1.52631497658191e-07 3.019904217922e-07 5.73743406086741e-08 2.05079232855214e-07 8.24359164257128e-08 1.81710631308167e-07
"2396" 43632 3.53563783635373e-08 1.57538678440365e-08 1.54017581578893e-07 3.0198420840896e-07 5.71379685650531e-08 2.05694638102337e-07 8.29115029232883e-08 1.81749591785297e-07
"2397" 43633 3.55365571583179e-08 1.59457933371381e-08 1.54167513108755e-07 3.01223307164266e-07 5.69174650640403e-08 2.08406099050369e-07 8.30839262705441e-08 1.82857409349585e-07
"2398" 43634 3.55201805566116e-08 1.59458944111616e-08 1.5436614946622e-07 3.00540584660045e-07 5.66801461039217e-08 2.08272442969101e-07 8.29934489646809e-08 1.82898887793124e-07
"2399" 43635 3.55038039549053e-08 1.59459954851852e-08 1.54564785823685e-07 2.99857862155824e-07 5.64428271438031e-08 2.08138786887834e-07 8.29029716588177e-08 1.82940366236663e-07
"2400" 43636 3.54874273531991e-08 1.59460965592087e-08 1.5476342218115e-07 2.99175139651603e-07 5.62055081836845e-08 2.08005130806567e-07 8.28124943529545e-08 1.82981844680202e-07
"2401" 43637 3.54710507514928e-08 1.59461976332323e-08 1.54962058538616e-07 2.98492417147382e-07 5.59681892235659e-08 2.07871474725299e-07 8.27220170470913e-08 1.83023323123741e-07
"2402" 43638 3.54546741497866e-08 1.59462987072558e-08 1.55160694896081e-07 2.97809694643161e-07 5.57308702634473e-08 2.07737818644032e-07 8.26315397412281e-08 1.8306480156728e-07
"2403" 43639 3.54382975480803e-08 1.59463997812793e-08 1.55359331253546e-07 2.9712697213894e-07 5.54935513033287e-08 2.07604162562765e-07 8.25410624353649e-08 1.8310628001082e-07
"2404" 43640 3.5421920946374e-08 1.59465008553029e-08 1.55557967611011e-07 2.96444249634719e-07 5.52562323432101e-08 2.07470506481498e-07 8.24505851295017e-08 1.83147758454359e-07
"2405" 43641 3.54055443446678e-08 1.59466019293264e-08 1.55756603968476e-07 2.95761527130498e-07 5.50189133830915e-08 2.0733685040023e-07 8.23601078236385e-08 1.83189236897898e-07
"2406" 43642 3.53891677429615e-08 1.594670300335e-08 1.55955240325941e-07 2.95078804626277e-07 5.47815944229729e-08 2.07203194318963e-07 8.22696305177753e-08 1.83230715341437e-07
"2407" 43643 3.53727911412552e-08 1.59468040773735e-08 1.56153876683406e-07 2.94396082122056e-07 5.45442754628543e-08 2.07069538237696e-07 8.21791532119121e-08 1.83272193784976e-07
"2408" 43644 3.5356414539549e-08 1.59469051513971e-08 1.56352513040872e-07 2.93713359617835e-07 5.43069565027357e-08 2.06935882156428e-07 8.20886759060489e-08 1.83313672228515e-07
"2409" 43645 3.53400379378427e-08 1.59470062254206e-08 1.56551149398337e-07 2.93030637113614e-07 5.40696375426171e-08 2.06802226075161e-07 8.19981986001857e-08 1.83355150672054e-07
"2410" 43646 3.53236613361364e-08 1.59471072994441e-08 1.56749785755802e-07 2.92347914609393e-07 5.38323185824985e-08 2.06668569993894e-07 8.19077212943225e-08 1.83396629115593e-07
"2411" 43647 3.53072847344302e-08 1.59472083734677e-08 1.56948422113267e-07 2.91665192105172e-07 5.35949996223799e-08 2.06534913912626e-07 8.18172439884593e-08 1.83438107559133e-07
"2412" 43648 3.52755920371602e-08 1.59472083734677e-08 1.56857272338252e-07 2.91665192105172e-07 5.35139229124949e-08 2.06112351733582e-07 8.17160758506084e-08 1.83027385751147e-07
"2413" 43649 3.52438993398902e-08 1.59472083734677e-08 1.56766122563236e-07 2.91665192105172e-07 5.34328462026099e-08 2.05689789554538e-07 8.16149077127576e-08 1.82616663943161e-07
"2414" 43650 3.52122066426202e-08 1.59472083734677e-08 1.56674972788221e-07 2.91665192105172e-07 5.33517694927249e-08 2.05267227375494e-07 8.15137395749068e-08 1.82205942135175e-07
"2415" 43651 3.51805139453502e-08 1.59472083734677e-08 1.56583823013205e-07 2.91665192105172e-07 5.32706927828399e-08 2.0484466519645e-07 8.14125714370559e-08 1.81795220327189e-07
"2416" 43652 3.51488212480803e-08 1.59472083734677e-08 1.5649267323819e-07 2.91665192105172e-07 5.31896160729549e-08 2.04422103017406e-07 8.13114032992051e-08 1.81384498519203e-07
"2417" 43653 3.51171285508103e-08 1.59472083734677e-08 1.56401523463175e-07 2.91665192105172e-07 5.31085393630699e-08 2.03999540838361e-07 8.12102351613542e-08 1.80973776711217e-07
"2418" 43654 3.50854358535403e-08 1.59472083734677e-08 1.56310373688159e-07 2.91665192105172e-07 5.30274626531849e-08 2.03576978659317e-07 8.11090670235034e-08 1.80563054903231e-07
"2419" 43655 3.51386297689579e-08 1.59471072994441e-08 1.56155281649241e-07 2.92137998414627e-07 5.31236441034654e-08 2.03333435922523e-07 8.10983761915158e-08 1.80090494852963e-07
"2420" 43656 3.52066795293289e-08 1.5985375621187e-08 1.5603116323604e-07 2.92680119122425e-07 5.33264864083485e-08 2.03076766467138e-07 8.12281657564005e-08 1.79645592783911e-07
"2421" 43657 3.52747292896999e-08 1.60236439429298e-08 1.55907044822839e-07 2.93222239830222e-07 5.35293287132317e-08 2.02820097011753e-07 8.13579553212853e-08 1.79200690714859e-07
"2422" 43658 3.53427790500709e-08 1.60619122646726e-08 1.55782926409638e-07 2.9376436053802e-07 5.37321710181149e-08 2.02563427556367e-07 8.14877448861701e-08 1.78755788645808e-07
"2423" 43659 3.54108288104419e-08 1.61001805864154e-08 1.55658807996437e-07 2.94306481245817e-07 5.39350133229981e-08 2.02306758100982e-07 8.16175344510548e-08 1.78310886576756e-07
"2424" 43660 3.54788785708129e-08 1.61384489081582e-08 1.55534689583236e-07 2.94848601953615e-07 5.41378556278812e-08 2.02050088645597e-07 8.17473240159396e-08 1.77865984507704e-07
"2425" 43661 3.55469283311838e-08 1.6176717229901e-08 1.55410571170035e-07 2.95390722661413e-07 5.43406979327644e-08 2.01793419190212e-07 8.18771135808244e-08 1.77421082438652e-07
"2426" 43662 3.56149780915548e-08 1.62149855516439e-08 1.55286452756833e-07 2.9593284336921e-07 5.45435402376476e-08 2.01536749734826e-07 8.20069031457091e-08 1.76976180369601e-07
"2427" 43663 3.56830278519258e-08 1.62532538733867e-08 1.55162334343632e-07 2.96474964077008e-07 5.47463825425308e-08 2.01280080279441e-07 8.21366927105939e-08 1.76531278300549e-07
"2428" 43664 3.57510776122968e-08 1.62915221951295e-08 1.55038215930431e-07 2.97017084784805e-07 5.49492248474139e-08 2.01023410824056e-07 8.22664822754787e-08 1.76086376231497e-07
"2429" 43665 3.58191273726678e-08 1.63297905168723e-08 1.5491409751723e-07 2.97559205492603e-07 5.51520671522971e-08 2.0076674136867e-07 8.23962718403634e-08 1.75641474162446e-07
"2430" 43666 3.58871771330388e-08 1.63680588386151e-08 1.54789979104029e-07 2.98101326200401e-07 5.53549094571803e-08 2.00510071913285e-07 8.25260614052482e-08 1.75196572093394e-07
"2431" 43667 3.59552268934098e-08 1.64063271603579e-08 1.54665860690828e-07 2.98643446908198e-07 5.55577517620635e-08 2.002534024579e-07 8.26558509701329e-08 1.74751670024342e-07
"2432" 43668 3.60232766537808e-08 1.64445954821008e-08 1.54541742277627e-07 2.99185567615996e-07 5.57605940669466e-08 1.99996733002515e-07 8.27856405350177e-08 1.74306767955291e-07
"2433" 43669 3.60913264141518e-08 1.64828638038436e-08 1.54417623864426e-07 2.99727688323794e-07 5.59634363718298e-08 1.99740063547129e-07 8.29154300999025e-08 1.73861865886239e-07
"2434" 43670 3.61319721701303e-08 1.65229662012672e-08 1.54631986802158e-07 2.9959329991061e-07 5.56709060295213e-08 1.99699187132004e-07 8.30349856167344e-08 1.73839364261976e-07
"2435" 43671 3.62336192232781e-08 1.65629927931732e-08 1.54862970999258e-07 3.0024657981408e-07 5.57632998138116e-08 1.99295187352922e-07 8.32688115914666e-08 1.7380518400091e-07
"2436" 43672 3.63352662764259e-08 1.66030193850792e-08 1.55093955196358e-07 3.00899859717551e-07 5.58556935981018e-08 1.9889118757384e-07 8.35026375661989e-08 1.73771003739845e-07
"2437" 43673 3.64369133295738e-08 1.66430459769852e-08 1.55324939393458e-07 3.01553139621022e-07 5.59480873823921e-08 1.98487187794759e-07 8.37364635409312e-08 1.73736823478779e-07
"2438" 43674 3.65385603827216e-08 1.66830725688912e-08 1.55555923590558e-07 3.02206419524493e-07 5.60404811666824e-08 1.98083188015677e-07 8.39702895156635e-08 1.73702643217713e-07
"2439" 43675 3.66402074358694e-08 1.67230991607971e-08 1.55786907787659e-07 3.02859699427964e-07 5.61328749509726e-08 1.97679188236595e-07 8.42041154903958e-08 1.73668462956648e-07
"2440" 43676 3.67418544890172e-08 1.67631257527031e-08 1.56017891984759e-07 3.03512979331435e-07 5.62252687352629e-08 1.97275188457513e-07 8.44379414651281e-08 1.73634282695582e-07
"2441" 43677 3.68435015421651e-08 1.68031523446091e-08 1.56248876181859e-07 3.04166259234906e-07 5.63176625195532e-08 1.96871188678431e-07 8.46717674398604e-08 1.73600102434516e-07
"2442" 43678 3.68427671210162e-08 1.68018928275632e-08 1.56223907774082e-07 3.05131652500249e-07 5.66548115598442e-08 1.98560152707916e-07 8.47753260811819e-08 1.7356592217345e-07
"2443" 43679 3.68420326998673e-08 1.68006333105172e-08 1.56198939366305e-07 3.06097045765593e-07 5.69919606001353e-08 2.002491167374e-07 8.48788847225034e-08 1.73531741912385e-07
"2444" 43680 3.68412982787184e-08 1.67993737934712e-08 1.56173970958528e-07 3.07062439030936e-07 5.73291096404264e-08 2.01938080766885e-07 8.4982443363825e-08 1.73497561651319e-07
"2445" 43681 3.68405638575695e-08 1.67981142764253e-08 1.56149002550751e-07 3.08027832296279e-07 5.76662586807175e-08 2.03627044796369e-07 8.50860020051465e-08 1.73463381390253e-07
"2446" 43682 3.68398294364206e-08 1.67968547593793e-08 1.56124034142974e-07 3.08993225561623e-07 5.80034077210085e-08 2.05316008825853e-07 8.5189560646468e-08 1.73429201129188e-07
"2447" 43683 3.68390950152718e-08 1.67955952423334e-08 1.56099065735197e-07 3.09958618826966e-07 5.83405567612996e-08 2.07004972855338e-07 8.52931192877896e-08 1.73395020868122e-07
"2448" 43684 3.67515693859285e-08 1.67329797661182e-08 1.56018950032593e-07 3.10049725690338e-07 5.88336364464622e-08 2.09258385784245e-07 8.52706736312243e-08 1.72645677038626e-07
"2449" 43685 3.66544496133424e-08 1.67299619789091e-08 1.56015082053089e-07 3.1094308244592e-07 5.91738366621342e-08 2.11134760864832e-07 8.52121270171579e-08 1.72604355320458e-07
"2450" 43686 3.65573298407563e-08 1.67269441917e-08 1.56011214073585e-07 3.11836439201502e-07 5.95140368778063e-08 2.13011135945419e-07 8.51535804030916e-08 1.72563033602289e-07
"2451" 43687 3.64602100681702e-08 1.67239264044909e-08 1.56007346094081e-07 3.12729795957084e-07 5.98542370934783e-08 2.14887511026006e-07 8.50950337890252e-08 1.7252171188412e-07
"2452" 43688 3.63630902955841e-08 1.67209086172817e-08 1.56003478114577e-07 3.13623152712665e-07 6.01944373091503e-08 2.16763886106593e-07 8.50364871749589e-08 1.72480390165951e-07
"2453" 43689 3.6265970522998e-08 1.67178908300726e-08 1.55999610135072e-07 3.14516509468247e-07 6.05346375248224e-08 2.1864026118718e-07 8.49779405608926e-08 1.72439068447783e-07
"2454" 43690 3.6168850750412e-08 1.67148730428635e-08 1.55995742155568e-07 3.15409866223829e-07 6.08748377404944e-08 2.20516636267767e-07 8.49193939468262e-08 1.72397746729614e-07
"2455" 43691 3.61004585734465e-08 1.68790825439535e-08 1.5677226904491e-07 3.15333175978935e-07 6.06668344124859e-08 2.24231151330604e-07 8.69535331350362e-08 1.72330224800255e-07
"2456" 43692 3.60865045716177e-08 1.68840953436315e-08 1.5677206531511e-07 3.16055021169068e-07 6.09887350101117e-08 2.24467259709164e-07 8.74601560802895e-08 1.74257713151632e-07
"2457" 43693 3.60725505697889e-08 1.68891081433094e-08 1.56771861585309e-07 3.16776866359201e-07 6.13106356077376e-08 2.24703368087723e-07 8.79667790255428e-08 1.76185201503009e-07
"2458" 43694 3.60585965679602e-08 1.68941209429874e-08 1.56771657855509e-07 3.17498711549333e-07 6.16325362053635e-08 2.24939476466282e-07 8.84734019707961e-08 1.78112689854386e-07
"2459" 43695 3.60446425661314e-08 1.68991337426653e-08 1.56771454125709e-07 3.18220556739466e-07 6.19544368029893e-08 2.25175584844842e-07 8.89800249160494e-08 1.80040178205763e-07
"2460" 43696 3.60306885643026e-08 1.69041465423433e-08 1.56771250395909e-07 3.18942401929599e-07 6.22763374006152e-08 2.25411693223401e-07 8.94866478613027e-08 1.81967666557139e-07
"2461" 43697 3.60167345624738e-08 1.69091593420212e-08 1.56771046666109e-07 3.19664247119731e-07 6.25982379982411e-08 2.25647801601961e-07 8.99932708065559e-08 1.83895154908516e-07
"2462" 43698 3.60027805606451e-08 1.69141721416992e-08 1.56770842936308e-07 3.20386092309864e-07 6.29201385958669e-08 2.2588390998052e-07 9.04998937518092e-08 1.85822643259893e-07
"2463" 43699 3.59888265588163e-08 1.69191849413771e-08 1.56770639206508e-07 3.21107937499997e-07 6.32420391934928e-08 2.26120018359079e-07 9.10065166970625e-08 1.8775013161127e-07
"2464" 43700 3.59748725569875e-08 1.69241977410551e-08 1.56770435476708e-07 3.21829782690129e-07 6.35639397911187e-08 2.26356126737639e-07 9.15131396423158e-08 1.89677619962647e-07
"2465" 43701 3.59609185551588e-08 1.69292105407331e-08 1.56770231746908e-07 3.22551627880262e-07 6.38858403887445e-08 2.26592235116198e-07 9.20197625875691e-08 1.91605108314024e-07
"2466" 43702 3.594696455333e-08 1.6934223340411e-08 1.56770028017108e-07 3.23273473070395e-07 6.42077409863704e-08 2.26828343494758e-07 9.25263855328224e-08 1.93532596665401e-07
"2467" 43703 3.59330105515012e-08 1.6939236140089e-08 1.56769824287307e-07 3.23995318260527e-07 6.45296415839963e-08 2.27064451873317e-07 9.30330084780757e-08 1.95460085016778e-07
"2468" 43704 3.59190565496725e-08 1.69442489397669e-08 1.56769620557507e-07 3.2471716345066e-07 6.48515421816222e-08 2.27300560251876e-07 9.35396314233289e-08 1.97387573368155e-07
"2469" 43705 3.59051025478437e-08 1.69492617394449e-08 1.56769416827707e-07 3.25439008640793e-07 6.5173442779248e-08 2.27536668630436e-07 9.40462543685822e-08 1.99315061719532e-07
"2470" 43706 3.5988268318601e-08 1.6956032809286e-08 1.56355147107958e-07 3.25810980779793e-07 6.53962159641567e-08 2.27853270157434e-07 9.47088610265238e-08 2.01321372308091e-07
"2471" 43707 3.60096983710401e-08 1.69091659590217e-08 1.56358811357662e-07 3.2578249686642e-07 6.59254243665873e-08 2.28235346139844e-07 9.52515849292781e-08 2.03312170960279e-07
"2472" 43708 3.60311284234791e-08 1.68622991087575e-08 1.56362475607366e-07 3.25754012953047e-07 6.6454632769018e-08 2.28617422122255e-07 9.57943088320325e-08 2.05302969612467e-07
"2473" 43709 3.60525584759182e-08 1.68154322584932e-08 1.5636613985707e-07 3.25725529039674e-07 6.69838411714487e-08 2.28999498104665e-07 9.63370327347868e-08 2.07293768264655e-07
"2474" 43710 3.60739885283573e-08 1.67685654082289e-08 1.56369804106774e-07 3.25697045126301e-07 6.75130495738794e-08 2.29381574087075e-07 9.68797566375411e-08 2.09284566916843e-07
"2475" 43711 3.60954185807964e-08 1.67216985579647e-08 1.56373468356478e-07 3.25668561212928e-07 6.80422579763101e-08 2.29763650069486e-07 9.74224805402955e-08 2.11275365569031e-07
"2476" 43712 3.61168486332354e-08 1.66748317077004e-08 1.56377132606182e-07 3.25640077299554e-07 6.85714663787407e-08 2.30145726051896e-07 9.79652044430498e-08 2.1326616422122e-07
"2477" 43713 3.60551129149172e-08 1.66250827385091e-08 1.56383015778688e-07 3.24815661688126e-07 6.88570647671452e-08 2.30831298183199e-07 9.78420684171597e-08 2.13286164935645e-07
"2478" 43714 3.59933771965989e-08 1.65753337693179e-08 1.56388898951195e-07 3.23991246076697e-07 6.91426631555497e-08 2.31516870314502e-07 9.77189323912696e-08 2.1330616565007e-07
"2479" 43715 3.59316414782807e-08 1.65255848001266e-08 1.56394782123701e-07 3.23166830465268e-07 6.94282615439542e-08 2.32202442445805e-07 9.75957963653794e-08 2.13326166364495e-07
"2480" 43716 3.58699057599624e-08 1.64758358309353e-08 1.56400665296208e-07 3.2234241485384e-07 6.97138599323587e-08 2.32888014577108e-07 9.74726603394893e-08 2.1334616707892e-07
"2481" 43717 3.58081700416442e-08 1.6426086861744e-08 1.56406548468714e-07 3.21517999242411e-07 6.99994583207632e-08 2.33573586708411e-07 9.73495243135992e-08 2.13366167793345e-07
"2482" 43718 3.5746434323326e-08 1.63763378925528e-08 1.5641243164122e-07 3.20693583630982e-07 7.02850567091677e-08 2.34259158839713e-07 9.7226388287709e-08 2.13386168507771e-07
"2483" 43719 3.56846986050077e-08 1.63265889233615e-08 1.56418314813727e-07 3.19869168019554e-07 7.05706550975721e-08 2.34944730971016e-07 9.71032522618189e-08 2.13406169222196e-07
"2484" 43720 3.56229628866895e-08 1.62768399541702e-08 1.56424197986233e-07 3.19044752408125e-07 7.08562534859766e-08 2.35630303102319e-07 9.69801162359288e-08 2.13426169936621e-07
"2485" 43721 3.55612271683712e-08 1.6227090984979e-08 1.5643008115874e-07 3.18220336796697e-07 7.11418518743811e-08 2.36315875233622e-07 9.68569802100386e-08 2.13446170651046e-07
"2486" 43722 3.5499491450053e-08 1.61773420157877e-08 1.56435964331246e-07 3.17395921185268e-07 7.14274502627856e-08 2.37001447364925e-07 9.67338441841485e-08 2.13466171365471e-07
"2487" 43723 3.54377557317347e-08 1.61275930465964e-08 1.56441847503752e-07 3.16571505573839e-07 7.17130486511901e-08 2.37687019496228e-07 9.66107081582584e-08 2.13486172079896e-07
"2488" 43724 3.53760200134165e-08 1.60778440774051e-08 1.56447730676259e-07 3.15747089962411e-07 7.19986470395946e-08 2.38372591627531e-07 9.64875721323682e-08 2.13506172794321e-07
"2489" 43725 3.53142842950983e-08 1.60280951082139e-08 1.56453613848765e-07 3.14922674350982e-07 7.2284245427999e-08 2.39058163758834e-07 9.63644361064781e-08 2.13526173508747e-07
"2490" 43726 3.525254857678e-08 1.59783461390226e-08 1.56459497021271e-07 3.14098258739553e-07 7.25698438164035e-08 2.39743735890137e-07 9.62413000805879e-08 2.13546174223172e-07
"2491" 43727 3.51908128584618e-08 1.59285971698313e-08 1.56465380193778e-07 3.13273843128125e-07 7.2855442204808e-08 2.4042930802144e-07 9.61181640546978e-08 2.13566174937597e-07
"2492" 43728 3.51290771401435e-08 1.58788482006401e-08 1.56471263366284e-07 3.12449427516696e-07 7.31410405932125e-08 2.41114880152743e-07 9.59950280288077e-08 2.13586175652022e-07
"2493" 43729 3.51283427189946e-08 1.58847574325289e-08 1.56387829369744e-07 3.12447872389766e-07 7.33545671394454e-08 2.41341589662071e-07 9.46393295852923e-08 2.13591485966278e-07
"2494" 43730 3.51248788642281e-08 1.5888646383443e-08 1.55910022921226e-07 3.12445822391605e-07 7.30690193407777e-08 2.41299816946547e-07 9.45044614857067e-08 2.13001352704897e-07
"2495" 43731 3.51214150094615e-08 1.58925353343571e-08 1.55432216472709e-07 3.12443772393444e-07 7.27834715421101e-08 2.41258044231024e-07 9.43695933861211e-08 2.12411219443516e-07
"2496" 43732 3.51179511546949e-08 1.58964242852712e-08 1.54954410024192e-07 3.12441722395283e-07 7.24979237434425e-08 2.41216271515501e-07 9.42347252865355e-08 2.11821086182135e-07
"2497" 43733 3.51144872999283e-08 1.59003132361853e-08 1.54476603575674e-07 3.12439672397121e-07 7.22123759447749e-08 2.41174498799977e-07 9.40998571869499e-08 2.11230952920754e-07
"2498" 43734 3.51110234451617e-08 1.59042021870995e-08 1.53998797127157e-07 3.1243762239896e-07 7.19268281461073e-08 2.41132726084454e-07 9.39649890873643e-08 2.10640819659373e-07
"2499" 43735 3.55419350529755e-08 1.59376785087168e-08 1.53544778030915e-07 3.12478516272685e-07 7.14658694640029e-08 2.43067510140224e-07 9.39420236930906e-08 2.11964984984735e-07
"2500" 43736 3.59728466607893e-08 1.59711548303341e-08 1.53090758934673e-07 3.12519410146411e-07 7.10049107818985e-08 2.45002294195995e-07 9.39190582988169e-08 2.13289150310097e-07
"2501" 43737 3.64037582686031e-08 1.60046311519515e-08 1.52636739838432e-07 3.12560304020136e-07 7.05439520997941e-08 2.46937078251765e-07 9.38960929045432e-08 2.14613315635459e-07
"2502" 43738 3.68346698764169e-08 1.60381074735688e-08 1.5218272074219e-07 3.12601197893861e-07 7.00829934176897e-08 2.48871862307536e-07 9.38731275102695e-08 2.15937480960821e-07
"2503" 43739 3.72655814842307e-08 1.60715837951861e-08 1.51728701645948e-07 3.12642091767586e-07 6.96220347355853e-08 2.50806646363306e-07 9.38501621159958e-08 2.17261646286183e-07
"2504" 43740 3.76964930920445e-08 1.61050601168035e-08 1.51274682549707e-07 3.12682985641312e-07 6.91610760534809e-08 2.52741430419077e-07 9.3827196721722e-08 2.18585811611545e-07
"2505" 43741 3.81274046998583e-08 1.61385364384208e-08 1.50820663453465e-07 3.12723879515037e-07 6.87001173713765e-08 2.54676214474847e-07 9.38042313274483e-08 2.19909976936907e-07
"2506" 43742 3.85583163076721e-08 1.61720127600381e-08 1.50366644357224e-07 3.12764773388762e-07 6.82391586892721e-08 2.56610998530618e-07 9.37812659331746e-08 2.21234142262269e-07
"2507" 43743 3.8977784010844e-08 1.62067991357132e-08 1.50394370801987e-07 3.12808102160495e-07 6.827038739904e-08 2.55412644766527e-07 9.15569338251288e-08 2.23114790686137e-07
"2508" 43744 3.93990192242535e-08 1.62415855113882e-08 1.50303006725788e-07 3.10379931994441e-07 6.83617411542999e-08 2.5819975705083e-07 9.1647832905458e-08 2.25074829934704e-07
"2509" 43745 3.9820254437663e-08 1.62763718870633e-08 1.50211642649589e-07 3.07951761828388e-07 6.84530949095597e-08 2.60986869335133e-07 9.17387319857872e-08 2.27034869183271e-07
"2510" 43746 4.02414896510725e-08 1.63111582627384e-08 1.5012027857339e-07 3.05523591662334e-07 6.85444486648195e-08 2.63773981619436e-07 9.18296310661164e-08 2.28994908431839e-07
"2511" 43747 4.06627248644819e-08 1.63459446384134e-08 1.50028914497192e-07 3.0309542149628e-07 6.86358024200793e-08 2.6656109390374e-07 9.19205301464456e-08 2.30954947680406e-07
"2512" 43748 4.0690019200659e-08 1.63869527938006e-08 1.50457331891256e-07 3.0062890620778e-07 6.88420934739869e-08 2.664686111722e-07 9.18926909754107e-08 2.30969847583774e-07
"2513" 43749 4.06787287128872e-08 1.64162940964455e-08 1.50372289199081e-07 2.98696316155609e-07 6.8955497579348e-08 2.66527665858545e-07 9.1887692951943e-08 2.31154128332296e-07
"2514" 43750 4.06674382251154e-08 1.64456353990904e-08 1.50287246506905e-07 2.96763726103439e-07 6.90689016847091e-08 2.66586720544891e-07 9.18826949284754e-08 2.31338409080819e-07
"2515" 43751 4.06561477373436e-08 1.64749767017352e-08 1.5020220381473e-07 2.94831136051269e-07 6.91823057900702e-08 2.66645775231236e-07 9.18776969050077e-08 2.31522689829341e-07
"2516" 43752 4.06448572495718e-08 1.65043180043801e-08 1.50117161122554e-07 2.92898545999099e-07 6.92957098954313e-08 2.66704829917582e-07 9.187269888154e-08 2.31706970577864e-07
"2517" 43753 4.06335667618e-08 1.65336593070249e-08 1.50032118430379e-07 2.90965955946929e-07 6.94091140007924e-08 2.66763884603928e-07 9.18677008580723e-08 2.31891251326386e-07
"2518" 43754 4.06222762740283e-08 1.65630006096698e-08 1.49947075738203e-07 2.89033365894759e-07 6.95225181061535e-08 2.66822939290273e-07 9.18627028346046e-08 2.32075532074909e-07
"2519" 43755 4.06109857862565e-08 1.65923419123147e-08 1.49862033046028e-07 2.87100775842588e-07 6.96359222115146e-08 2.66881993976619e-07 9.1857704811137e-08 2.32259812823431e-07
"2520" 43756 4.05996952984847e-08 1.66216832149595e-08 1.49776990353853e-07 2.85168185790418e-07 6.97493263168757e-08 2.66941048662964e-07 9.18527067876693e-08 2.32444093571954e-07
"2521" 43757 4.05884048107129e-08 1.66510245176044e-08 1.49691947661677e-07 2.83235595738248e-07 6.98627304222369e-08 2.6700010334931e-07 9.18477087642016e-08 2.32628374320476e-07
"2522" 43758 4.05771143229411e-08 1.66803658202493e-08 1.49606904969502e-07 2.81303005686078e-07 6.9976134527598e-08 2.67059158035656e-07 9.18427107407339e-08 2.32812655068998e-07
"2523" 43759 4.05658238351693e-08 1.67097071228941e-08 1.49521862277326e-07 2.79370415633908e-07 7.0089538632959e-08 2.67118212722001e-07 9.18377127172662e-08 2.32996935817521e-07
"2524" 43760 4.05545333473975e-08 1.6739048425539e-08 1.49436819585151e-07 2.77437825581737e-07 7.02029427383202e-08 2.67177267408347e-07 9.18327146937986e-08 2.33181216566043e-07
"2525" 43761 4.05432428596257e-08 1.67683897281838e-08 1.49351776892975e-07 2.75505235529567e-07 7.03163468436813e-08 2.67236322094692e-07 9.18277166703309e-08 2.33365497314566e-07
"2526" 43762 4.05319523718539e-08 1.67977310308287e-08 1.492667342008e-07 2.73572645477397e-07 7.04297509490424e-08 2.67295376781038e-07 9.18227186468632e-08 2.33549778063088e-07
"2527" 43763 4.05206618840821e-08 1.68270723334736e-08 1.49181691508625e-07 2.71640055425227e-07 7.05431550544035e-08 2.67354431467384e-07 9.18177206233955e-08 2.33734058811611e-07
"2528" 43764 4.05093713963103e-08 1.68564136361184e-08 1.49096648816449e-07 2.69707465373057e-07 7.06565591597646e-08 2.67413486153729e-07 9.18127225999278e-08 2.33918339560133e-07
"2529" 43765 4.04980809085385e-08 1.68857549387633e-08 1.49011606124274e-07 2.67774875320887e-07 7.07699632651257e-08 2.67472540840075e-07 9.18077245764602e-08 2.34102620308656e-07
"2530" 43766 4.04850229105291e-08 1.6886032892328e-08 1.49041714860573e-07 2.67037839830697e-07 7.08912422074179e-08 2.67390991660537e-07 9.16369462524357e-08 2.34296093072647e-07
"2531" 43767 4.04799805452493e-08 1.69074446821094e-08 1.47714229145451e-07 2.66007860297264e-07 7.0981543833236e-08 2.66469676364286e-07 9.1407000080812e-08 2.34424848355537e-07
"2532" 43768 4.04749381799696e-08 1.69288564718907e-08 1.46386743430329e-07 2.64977880763831e-07 7.10718454590541e-08 2.65548361068035e-07 9.11770539091884e-08 2.34553603638428e-07
"2533" 43769 4.04698958146898e-08 1.6950268261672e-08 1.45059257715208e-07 2.63947901230398e-07 7.11621470848722e-08 2.64627045771783e-07 9.09471077375648e-08 2.34682358921319e-07
"2534" 43770 4.05555279339793e-08 1.69435729973485e-08 1.4396628686784e-07 2.62563229314332e-07 7.15406774226991e-08 2.63992022686756e-07 9.09021657292471e-08 2.35148187188538e-07
"2535" 43771 4.07770209863265e-08 1.69435729973485e-08 1.43857884463523e-07 2.61269499304561e-07 7.14987411934483e-08 2.63400709398013e-07 9.08292707954837e-08 2.36108973762723e-07
"2536" 43772 4.09985140386737e-08 1.69435729973485e-08 1.43749482059205e-07 2.5997576929479e-07 7.14568049641974e-08 2.6280939610927e-07 9.07563758617202e-08 2.37069760336909e-07
"2537" 43773 4.12200070910209e-08 1.69435729973485e-08 1.43641079654888e-07 2.58682039285018e-07 7.14148687349465e-08 2.62218082820527e-07 9.06834809279568e-08 2.38030546911094e-07
"2538" 43774 4.14415001433681e-08 1.69435729973485e-08 1.4353267725057e-07 2.57388309275247e-07 7.13729325056957e-08 2.61626769531785e-07 9.06105859941934e-08 2.38991333485279e-07
"2539" 43775 4.16629931957153e-08 1.69435729973485e-08 1.43424274846253e-07 2.56094579265476e-07 7.13309962764448e-08 2.61035456243042e-07 9.053769106043e-08 2.39952120059464e-07
"2540" 43776 4.18844862480625e-08 1.69435729973485e-08 1.43315872441935e-07 2.54800849255704e-07 7.1289060047194e-08 2.60444142954299e-07 9.04647961266665e-08 2.40912906633649e-07
"2541" 43777 4.21059793004097e-08 1.69435729973485e-08 1.43207470037618e-07 2.53507119245933e-07 7.12471238179431e-08 2.59852829665556e-07 9.03919011929031e-08 2.41873693207834e-07
"2542" 43778 4.23274723527568e-08 1.69435729973485e-08 1.43099067633301e-07 2.52213389236162e-07 7.12051875886922e-08 2.59261516376813e-07 9.03190062591397e-08 2.42834479782019e-07
"2543" 43779 4.2548965405104e-08 1.69435729973485e-08 1.42990665228983e-07 2.50919659226391e-07 7.11632513594414e-08 2.5867020308807e-07 9.02461113253762e-08 2.43795266356204e-07
"2544" 43780 4.27704584574512e-08 1.69435729973485e-08 1.42882262824666e-07 2.49625929216619e-07 7.11213151301905e-08 2.58078889799328e-07 9.01732163916128e-08 2.44756052930389e-07
"2545" 43781 4.29919515097984e-08 1.69435729973485e-08 1.42773860420348e-07 2.48332199206848e-07 7.10793789009397e-08 2.57487576510585e-07 9.01003214578494e-08 2.45716839504574e-07
"2546" 43782 4.32134445621456e-08 1.69435729973485e-08 1.42665458016031e-07 2.47038469197077e-07 7.10374426716888e-08 2.56896263221842e-07 9.0027426524086e-08 2.46677626078759e-07
"2547" 43783 4.34349376144928e-08 1.69435729973485e-08 1.42557055611713e-07 2.45744739187305e-07 7.09955064424379e-08 2.56304949933099e-07 8.99545315903225e-08 2.47638412652944e-07
"2548" 43784 4.365643066684e-08 1.69435729973485e-08 1.42448653207396e-07 2.44451009177534e-07 7.09535702131871e-08 2.55713636644356e-07 8.98816366565591e-08 2.48599199227129e-07
"2549" 43785 4.38779237191872e-08 1.69435729973485e-08 1.42340250803078e-07 2.43157279167763e-07 7.09116339839362e-08 2.55122323355613e-07 8.98087417227957e-08 2.49559985801315e-07
"2550" 43786 4.40994167715344e-08 1.69435729973485e-08 1.42231848398761e-07 2.41863549157992e-07 7.08696977546854e-08 2.5453101006687e-07 8.97358467890322e-08 2.505207723755e-07
"2551" 43787 4.43209098238816e-08 1.69435729973485e-08 1.42123445994443e-07 2.4056981914822e-07 7.08277615254345e-08 2.53939696778128e-07 8.96629518552688e-08 2.51481558949685e-07
"2552" 43788 4.45474452415086e-08 1.69501924561543e-08 1.43330223846051e-07 2.40460922129706e-07 7.08193606237825e-08 2.5404523062046e-07 8.98150050696613e-08 2.5230987955364e-07
"2553" 43789 4.47739806591356e-08 1.69568119149602e-08 1.44537001697659e-07 2.40352025111192e-07 7.08109597221305e-08 2.54150764462793e-07 8.99670582840539e-08 2.53138200157596e-07
"2554" 43790 4.50005160767626e-08 1.6963431373766e-08 1.45743779549266e-07 2.40243128092678e-07 7.08025588204785e-08 2.54256298305126e-07 9.01191114984464e-08 2.53966520761551e-07
"2555" 43791 4.52270514943895e-08 1.69700508325718e-08 1.46950557400874e-07 2.40134231074164e-07 7.07941579188265e-08 2.54361832147458e-07 9.02711647128389e-08 2.54794841365507e-07
"2556" 43792 4.54535869120165e-08 1.69766702913776e-08 1.48157335252481e-07 2.4002533405565e-07 7.07857570171745e-08 2.54467365989791e-07 9.04232179272315e-08 2.55623161969462e-07
"2557" 43793 4.54543761672731e-08 1.71305642050421e-08 1.48708814936379e-07 2.39639837354199e-07 7.07883150282993e-08 2.54804028008301e-07 9.0588361203087e-08 2.55517079324708e-07
"2558" 43794 4.56378735657506e-08 1.72093073347963e-08 1.48666655403133e-07 2.39401260643325e-07 7.0850197348768e-08 2.55282038977495e-07 9.06792602834161e-08 2.55873699903922e-07
"2559" 43795 4.58213709642281e-08 1.72880504645506e-08 1.48624495869887e-07 2.39162683932451e-07 7.09120796692367e-08 2.55760049946689e-07 9.07701593637453e-08 2.56230320483136e-07
"2560" 43796 4.60048683627055e-08 1.73667935943048e-08 1.48582336336641e-07 2.38924107221578e-07 7.09739619897054e-08 2.56238060915883e-07 9.08610584440746e-08 2.56586941062351e-07
"2561" 43797 4.6188365761183e-08 1.7445536724059e-08 1.48540176803396e-07 2.38685530510704e-07 7.10358443101741e-08 2.56716071885077e-07 9.09519575244037e-08 2.56943561641565e-07
"2562" 43798 4.63718631596605e-08 1.75242798538133e-08 1.4849801727015e-07 2.38446953799831e-07 7.10977266306428e-08 2.57194082854271e-07 9.10428566047329e-08 2.57300182220779e-07
"2563" 43799 4.6555360558138e-08 1.76030229835675e-08 1.48455857736904e-07 2.38208377088957e-07 7.11596089511116e-08 2.57672093823466e-07 9.11337556850622e-08 2.57656802799993e-07
"2564" 43800 4.67388579566155e-08 1.76817661133217e-08 1.48413698203658e-07 2.37969800378083e-07 7.12214912715803e-08 2.5815010479266e-07 9.12246547653913e-08 2.58013423379208e-07
"2565" 43801 4.6922355355093e-08 1.7760509243076e-08 1.48371538670413e-07 2.3773122366721e-07 7.1283373592049e-08 2.58628115761854e-07 9.13155538457206e-08 2.58370043958422e-07
"2566" 43802 4.71058527535704e-08 1.78374941026671e-08 1.4837573242515e-07 2.37857580926712e-07 7.13338761479643e-08 2.59264666200863e-07 9.04460101459025e-08 2.5887422562593e-07
"2567" 43803 4.71058527535704e-08 1.79174967494673e-08 1.48187296002596e-07 2.37790524184351e-07 7.13932004573083e-08 2.59519140657462e-07 9.05421347585213e-08 2.59065595053727e-07
"2568" 43804 4.71058527535704e-08 1.79974993962675e-08 1.47998859580042e-07 2.3772346744199e-07 7.14525247666523e-08 2.5977361511406e-07 9.063825937114e-08 2.59256964481524e-07
"2569" 43805 4.70080312230371e-08 1.80005171834766e-08 1.47904321360339e-07 2.37879824922937e-07 7.14975723833523e-08 2.60335740971782e-07 9.10750218705156e-08 2.60367798185361e-07
"2570" 43806 4.69102096925038e-08 1.80035349706857e-08 1.47809783140637e-07 2.38036182403885e-07 7.15426200000524e-08 2.60897866829504e-07 9.15117843698911e-08 2.61478631889198e-07
"2571" 43807 4.68123881619705e-08 1.80065527578948e-08 1.47715244920934e-07 2.38192539884832e-07 7.15876676167525e-08 2.61459992687226e-07 9.19485468692667e-08 2.62589465593035e-07
"2572" 43808 4.67145666314372e-08 1.8009570545104e-08 1.47620706701231e-07 2.3834889736578e-07 7.16327152334526e-08 2.62022118544949e-07 9.23853093686422e-08 2.63700299296872e-07
"2573" 43809 4.66167451009039e-08 1.80125883323131e-08 1.47526168481529e-07 2.38505254846727e-07 7.16777628501527e-08 2.62584244402671e-07 9.28220718680177e-08 2.64811133000709e-07
"2574" 43810 4.65189235703706e-08 1.80156061195222e-08 1.47431630261826e-07 2.38661612327675e-07 7.17228104668528e-08 2.63146370260393e-07 9.32588343673933e-08 2.65921966704546e-07
"2575" 43811 4.64211020398373e-08 1.80186239067313e-08 1.47337092042124e-07 2.38817969808622e-07 7.17678580835529e-08 2.63708496118115e-07 9.36955968667688e-08 2.67032800408383e-07
"2576" 43812 4.6323280509304e-08 1.80216416939405e-08 1.47242553822421e-07 2.38974327289569e-07 7.1812905700253e-08 2.64270621975837e-07 9.41323593661443e-08 2.6814363411222e-07
"2577" 43813 4.61569489677894e-08 1.80407047121706e-08 1.47060153369723e-07 2.38777414252115e-07 7.18265182147673e-08 2.6386403514728e-07 9.41323593661443e-08 2.67822299624031e-07
"2578" 43814 4.59906174262748e-08 1.80597677304007e-08 1.46877752917026e-07 2.3858050121466e-07 7.18401307292815e-08 2.63457448318722e-07 9.41323593661443e-08 2.67500965135842e-07
"2579" 43815 4.58242858847601e-08 1.80788307486308e-08 1.46695352464328e-07 2.38383588177205e-07 7.18537432437957e-08 2.63050861490165e-07 9.41323593661443e-08 2.67179630647653e-07
"2580" 43816 4.56579543432455e-08 1.80978937668609e-08 1.4651295201163e-07 2.3818667513975e-07 7.186735575831e-08 2.62644274661608e-07 9.41323593661443e-08 2.66858296159464e-07
"2581" 43817 4.54916228017309e-08 1.8116956785091e-08 1.46330551558932e-07 2.37989762102295e-07 7.18809682728242e-08 2.6223768783305e-07 9.41323593661443e-08 2.66536961671275e-07
"2582" 43818 4.53252912602163e-08 1.81360198033211e-08 1.46148151106235e-07 2.3779284906484e-07 7.18945807873384e-08 2.61831101004493e-07 9.41323593661443e-08 2.66215627183087e-07
"2583" 43819 4.51589597187016e-08 1.81550828215512e-08 1.45965750653537e-07 2.37595936027385e-07 7.19081933018527e-08 2.61424514175936e-07 9.41323593661443e-08 2.65894292694898e-07
"2584" 43820 4.4992628177187e-08 1.81741458397813e-08 1.45783350200839e-07 2.3739902298993e-07 7.19218058163669e-08 2.61017927347378e-07 9.41323593661443e-08 2.65572958206709e-07
"2585" 43821 4.48262966356724e-08 1.81932088580114e-08 1.45600949748141e-07 2.37202109952475e-07 7.19354183308811e-08 2.60611340518821e-07 9.41323593661443e-08 2.6525162371852e-07
"2586" 43822 4.46599650941577e-08 1.82122718762415e-08 1.45418549295444e-07 2.3700519691502e-07 7.19490308453953e-08 2.60204753690264e-07 9.41323593661443e-08 2.64930289230331e-07
"2587" 43823 4.44936335526431e-08 1.82313348944716e-08 1.45236148842746e-07 2.36808283877565e-07 7.19626433599096e-08 2.59798166861706e-07 9.41323593661443e-08 2.64608954742142e-07
"2588" 43824 4.44995089218342e-08 1.82491383956557e-08 1.45242184812602e-07 2.36766003715873e-07 7.19870043613122e-08 2.58918269414669e-07 9.41569452664762e-08 2.64577041686893e-07
"2589" 43825 4.45053842910252e-08 1.82669418968399e-08 1.45248220782459e-07 2.3672372355418e-07 7.20113653627148e-08 2.58038371967632e-07 9.41815311668081e-08 2.64545128631643e-07
"2590" 43826 4.45112596602163e-08 1.8284745398024e-08 1.45254256752315e-07 2.36681443392488e-07 7.20357263641174e-08 2.57158474520594e-07 9.420611706714e-08 2.64513215576393e-07
"2591" 43827 4.45171350294074e-08 1.83025488992081e-08 1.45260292722172e-07 2.36639163230796e-07 7.20600873655201e-08 2.56278577073557e-07 9.42307029674719e-08 2.64481302521144e-07
"2592" 43828 4.45230103985984e-08 1.83203524003923e-08 1.45266328692029e-07 2.36596883069104e-07 7.20844483669227e-08 2.5539867962652e-07 9.42552888678038e-08 2.64449389465894e-07
"2593" 43829 4.45288857677895e-08 1.83381559015764e-08 1.45272364661885e-07 2.36554602907412e-07 7.21088093683253e-08 2.54518782179482e-07 9.42798747681357e-08 2.64417476410644e-07
"2594" 43830 4.45347611369805e-08 1.83559594027606e-08 1.45278400631742e-07 2.3651232274572e-07 7.21331703697279e-08 2.53638884732445e-07 9.43044606684676e-08 2.64385563355394e-07
"2595" 43831 4.45406365061716e-08 1.83737629039447e-08 1.45284436601598e-07 2.36470042584028e-07 7.21575313711305e-08 2.52758987285408e-07 9.43290465687995e-08 2.64353650300145e-07
"2596" 43832 4.45465118753627e-08 1.83915664051288e-08 1.45290472571455e-07 2.36427762422336e-07 7.21818923725332e-08 2.5187908983837e-07 9.43536324691314e-08 2.64321737244895e-07
"2597" 43833 4.45523872445537e-08 1.8409369906313e-08 1.45296508541311e-07 2.36385482260644e-07 7.22062533739358e-08 2.50999192391333e-07 9.43782183694633e-08 2.64289824189645e-07
"2598" 43834 4.45582626137448e-08 1.84271734074971e-08 1.45302544511168e-07 2.36343202098952e-07 7.22306143753384e-08 2.50119294944296e-07 9.44028042697951e-08 2.64257911134396e-07
"2599" 43835 4.45641379829359e-08 1.84449769086813e-08 1.45308580481024e-07 2.3630092193726e-07 7.2254975376741e-08 2.49239397497259e-07 9.4427390170127e-08 2.64225998079146e-07
"2600" 43836 4.46169428134517e-08 1.84437173916353e-08 1.45304386726286e-07 2.36307142444979e-07 7.2254975376741e-08 2.48171192698721e-07 9.44311876957116e-08 2.6505453314246e-07
"2601" 43837 4.46697476439675e-08 1.84424578745893e-08 1.45300192971549e-07 2.36313362952698e-07 7.2254975376741e-08 2.47102987900182e-07 9.44349852212961e-08 2.65883068205774e-07
"2602" 43838 4.47225524744833e-08 1.84411983575434e-08 1.45295999216811e-07 2.36319583460417e-07 7.2254975376741e-08 2.46034783101644e-07 9.44387827468806e-08 2.66711603269089e-07
"2603" 43839 4.47753573049991e-08 1.84399388404974e-08 1.45291805462073e-07 2.36325803968136e-07 7.2254975376741e-08 2.44966578303106e-07 9.44425802724651e-08 2.67540138332403e-07
"2604" 43840 4.48281621355149e-08 1.84386793234515e-08 1.45287611707335e-07 2.36332024475855e-07 7.2254975376741e-08 2.43898373504568e-07 9.44463777980497e-08 2.68368673395717e-07
"2605" 43841 4.48809669660307e-08 1.84374198064055e-08 1.45283417952597e-07 2.36338244983574e-07 7.2254975376741e-08 2.4283016870603e-07 9.44501753236342e-08 2.69197208459031e-07
"2606" 43842 4.49337717965465e-08 1.84361602893595e-08 1.45279224197859e-07 2.36344465491293e-07 7.2254975376741e-08 2.41761963907492e-07 9.44539728492187e-08 2.70025743522346e-07
"2607" 43843 4.49865766270624e-08 1.84349007723136e-08 1.45275030443121e-07 2.36350685999012e-07 7.2254975376741e-08 2.40693759108954e-07 9.44577703748032e-08 2.7085427858566e-07
"2608" 43844 4.50393814575782e-08 1.84336412552676e-08 1.45270836688384e-07 2.36356906506731e-07 7.2254975376741e-08 2.39625554310416e-07 9.44615679003878e-08 2.71682813648974e-07
"2609" 43845 4.5092186288094e-08 1.84323817382217e-08 1.45266642933646e-07 2.3636312701445e-07 7.2254975376741e-08 2.38557349511878e-07 9.44653654259723e-08 2.72511348712289e-07
"2610" 43846 4.51499430669276e-08 1.83910956292697e-08 1.45232595104859e-07 2.36229123501113e-07 7.22207991491457e-08 2.38026270725942e-07 9.42735712183785e-08 2.73233073629869e-07
"2611" 43847 4.49721594549707e-08 1.83880778420606e-08 1.45052279995914e-07 2.36295465429473e-07 7.21108220700664e-08 2.37431376545884e-07 9.42575096228036e-08 2.72908221480946e-07
"2612" 43848 4.47943758430137e-08 1.83850600548515e-08 1.44871964886969e-07 2.36361807357833e-07 7.2000844990987e-08 2.36836482365826e-07 9.42414480272286e-08 2.72583369332022e-07
"2613" 43849 4.46165922310568e-08 1.83820422676423e-08 1.44691649778023e-07 2.36428149286193e-07 7.18908679119077e-08 2.36241588185768e-07 9.42253864316536e-08 2.72258517183099e-07
"2614" 43850 4.43942469235449e-08 1.83802081919615e-08 1.44550980256204e-07 2.36554989771269e-07 7.19767723168133e-08 2.36101481240804e-07 9.42052893093765e-08 2.71038499412102e-07
"2615" 43851 4.41943729233611e-08 1.84064811703855e-08 1.44550980256204e-07 2.36554381046767e-07 7.19210131471598e-08 2.35506587060746e-07 9.49117599581682e-08 2.69836190948893e-07
"2616" 43852 4.39944989231774e-08 1.84327541488094e-08 1.44550980256204e-07 2.36553772322265e-07 7.18652539775064e-08 2.34911692880688e-07 9.56182306069598e-08 2.68633882485683e-07
"2617" 43853 4.37946249229936e-08 1.84590271272334e-08 1.44550980256204e-07 2.36553163597763e-07 7.1809494807853e-08 2.3431679870063e-07 9.63247012557514e-08 2.67431574022474e-07
"2618" 43854 4.35947509228099e-08 1.84853001056574e-08 1.44550980256204e-07 2.36552554873261e-07 7.17537356381995e-08 2.33721904520572e-07 9.7031171904543e-08 2.66229265559264e-07
"2619" 43855 4.33948769226261e-08 1.85115730840813e-08 1.44550980256204e-07 2.36551946148759e-07 7.16979764685461e-08 2.33127010340514e-07 9.77376425533347e-08 2.65026957096055e-07
"2620" 43856 4.31950029224424e-08 1.85378460625053e-08 1.44550980256204e-07 2.36551337424257e-07 7.16422172988927e-08 2.32532116160456e-07 9.84441132021263e-08 2.63824648632845e-07
"2621" 43857 4.29951289222586e-08 1.85641190409293e-08 1.44550980256204e-07 2.36550728699755e-07 7.15864581292392e-08 2.31937221980398e-07 9.91505838509179e-08 2.62622340169636e-07
"2622" 43858 4.27952549220749e-08 1.85903920193532e-08 1.44550980256204e-07 2.36550119975253e-07 7.15306989595858e-08 2.3134232780034e-07 9.98570544997096e-08 2.61420031706426e-07
"2623" 43859 4.28383751923859e-08 1.86184232679404e-08 1.44493023029708e-07 2.36536539787818e-07 7.15494780860864e-08 2.31366023450479e-07 1.00582602013662e-07 2.61418706460948e-07
"2624" 43860 4.28535022882253e-08 1.86286510153433e-08 1.44404775442112e-07 2.36067083723713e-07 7.14598952616052e-08 2.31339917564499e-07 1.01199433606649e-07 2.61413535815491e-07
"2625" 43861 4.28686293840646e-08 1.86388787627463e-08 1.44316527854517e-07 2.35597627659607e-07 7.1370312437124e-08 2.31313811678519e-07 1.01816265199637e-07 2.61408365170034e-07
"2626" 43862 4.2883756479904e-08 1.86491065101493e-08 1.44228280266921e-07 2.35128171595502e-07 7.12807296126429e-08 2.31287705792539e-07 1.02433096792624e-07 2.61403194524578e-07
"2627" 43863 4.30609398363287e-08 1.86299929549075e-08 1.43957549580027e-07 2.35732170023503e-07 7.12268506201827e-08 2.31539892559618e-07 1.02325639129894e-07 2.61712693650593e-07
"2628" 43864 4.30348512573638e-08 1.86188089125291e-08 1.4369886008093e-07 2.35478076980304e-07 7.11172261138709e-08 2.31619596110087e-07 1.02336851465881e-07 2.61794614542111e-07
"2629" 43865 4.3008762678399e-08 1.86076248701508e-08 1.43440170581833e-07 2.35223983937104e-07 7.10076016075591e-08 2.31699299660556e-07 1.02348063801868e-07 2.61876535433629e-07
"2630" 43866 4.29826740994341e-08 1.85964408277725e-08 1.43181481082736e-07 2.34969890893905e-07 7.08979771012473e-08 2.31779003211025e-07 1.02359276137855e-07 2.61958456325148e-07
"2631" 43867 4.29565855204692e-08 1.85852567853941e-08 1.42922791583639e-07 2.34715797850706e-07 7.07883525949356e-08 2.31858706761494e-07 1.02370488473842e-07 2.62040377216666e-07
"2632" 43868 4.29304969415043e-08 1.85740727430158e-08 1.42664102084542e-07 2.34461704807506e-07 7.06787280886238e-08 2.31938410311963e-07 1.02381700809829e-07 2.62122298108184e-07
"2633" 43869 4.29044083625395e-08 1.85628887006375e-08 1.42405412585445e-07 2.34207611764307e-07 7.0569103582312e-08 2.32018113862432e-07 1.02392913145816e-07 2.62204218999702e-07
"2634" 43870 4.28783197835746e-08 1.85517046582592e-08 1.42146723086348e-07 2.33953518721107e-07 7.04594790760002e-08 2.32097817412901e-07 1.02404125481803e-07 2.62286139891221e-07
"2635" 43871 4.28522312046097e-08 1.85405206158808e-08 1.41888033587251e-07 2.33699425677908e-07 7.03498545696884e-08 2.3217752096337e-07 1.0241533781779e-07 2.62368060782739e-07
"2636" 43872 4.29760753945472e-08 1.8556193436314e-08 1.41637273205579e-07 2.33276125947162e-07 7.03057538694858e-08 2.32257224513839e-07 1.02545605151201e-07 2.62818492581565e-07
"2637" 43873 4.30999195844846e-08 1.85718662567472e-08 1.41386512823908e-07 2.32852826216416e-07 7.02616531692833e-08 2.32336928064308e-07 1.02675872484611e-07 2.63268924380392e-07
"2638" 43874 4.3223763774422e-08 1.85875390771804e-08 1.41135752442236e-07 2.3242952648567e-07 7.02175524690807e-08 2.32416631614777e-07 1.02806139818022e-07 2.63719356179218e-07
"2639" 43875 4.33476079643595e-08 1.86032118976136e-08 1.40884992060564e-07 2.32006226754924e-07 7.01734517688782e-08 2.32496335165246e-07 1.02936407151433e-07 2.64169787978044e-07
"2640" 43876 4.34714521542969e-08 1.86188847180468e-08 1.40634231678892e-07 2.31582927024178e-07 7.01293510686756e-08 2.32576038715715e-07 1.03066674484844e-07 2.6462021977687e-07
"2641" 43877 4.35952963442344e-08 1.863455753848e-08 1.40383471297221e-07 2.31159627293432e-07 7.00852503684731e-08 2.32655742266184e-07 1.03196941818254e-07 2.65070651575697e-07
"2642" 43878 4.37191405341718e-08 1.86502303589132e-08 1.40132710915549e-07 2.30736327562686e-07 7.00411496682705e-08 2.32735445816652e-07 1.03327209151665e-07 2.65521083374523e-07
"2643" 43879 4.38429847241092e-08 1.86659031793464e-08 1.39881950533877e-07 2.30313027831939e-07 6.9997048968068e-08 2.32815149367121e-07 1.03457476485076e-07 2.65971515173349e-07
"2644" 43880 4.39668289140467e-08 1.86815759997796e-08 1.39631190152205e-07 2.29889728101193e-07 6.99529482678654e-08 2.3289485291759e-07 1.03587743818487e-07 2.66421946972176e-07
"2645" 43881 4.3597770858567e-08 1.85857050014996e-08 1.39077819245206e-07 2.29399261656702e-07 7.00184720739746e-08 2.33024697619752e-07 1.03826772574626e-07 2.65466461379903e-07
"2646" 43882 4.36760365954616e-08 1.82795996388161e-08 1.36500678279764e-07 2.28559325831061e-07 7.01171882572466e-08 2.33008735687804e-07 1.0398618283907e-07 2.65903332809343e-07
"2647" 43883 4.37543023323562e-08 1.79734942761327e-08 1.33923537314323e-07 2.27719390005421e-07 7.02159044405185e-08 2.32992773755856e-07 1.04145593103515e-07 2.66340204238782e-07
"2648" 43884 4.38325680692508e-08 1.76673889134492e-08 1.31346396348881e-07 2.26879454179781e-07 7.03146206237904e-08 2.32976811823908e-07 1.04305003367959e-07 2.66777075668222e-07
"2649" 43885 4.39108338061454e-08 1.73612835507657e-08 1.2876925538344e-07 2.26039518354141e-07 7.04133368070623e-08 2.3296084989196e-07 1.04464413632403e-07 2.67213947097661e-07
"2650" 43886 4.398909954304e-08 1.70551781880823e-08 1.26192114417998e-07 2.25199582528501e-07 7.05120529903343e-08 2.32944887960012e-07 1.04623823896847e-07 2.67650818527101e-07
"2651" 43887 4.40673652799346e-08 1.67490728253988e-08 1.23614973452557e-07 2.2435964670286e-07 7.06107691736062e-08 2.32928926028064e-07 1.04783234161291e-07 2.6808768995654e-07
"2652" 43888 4.39931770652871e-08 1.64708471002671e-08 1.21212660349538e-07 2.24137760433281e-07 7.0620533810062e-08 2.32812301328383e-07 1.05207116550566e-07 2.68133449863027e-07
"2653" 43889 4.39659072265112e-08 1.62386928672124e-08 1.19396167858054e-07 2.23256930733916e-07 7.0631034937127e-08 2.32908942976549e-07 1.05132814594689e-07 2.68492096799784e-07
"2654" 43890 4.39386373877353e-08 1.60065386341577e-08 1.17579675366571e-07 2.22376101034551e-07 7.0641536064192e-08 2.33005584624714e-07 1.05058512638811e-07 2.68850743736541e-07
"2655" 43891 4.39113675489595e-08 1.5774384401103e-08 1.15763182875087e-07 2.21495271335185e-07 7.0652037191257e-08 2.3310222627288e-07 1.04984210682934e-07 2.69209390673299e-07
"2656" 43892 4.38840977101836e-08 1.55422301680483e-08 1.13946690383603e-07 2.2061444163582e-07 7.0662538318322e-08 2.33198867921046e-07 1.04909908727057e-07 2.69568037610056e-07
"2657" 43893 4.38568278714078e-08 1.53100759349936e-08 1.12130197892119e-07 2.19733611936454e-07 7.0673039445387e-08 2.33295509569211e-07 1.0483560677118e-07 2.69926684546813e-07
"2658" 43894 4.38295580326319e-08 1.50779217019389e-08 1.10313705400635e-07 2.18852782237089e-07 7.0683540572452e-08 2.33392151217377e-07 1.04761304815302e-07 2.7028533148357e-07
"2659" 43895 4.3802288193856e-08 1.48457674688842e-08 1.08497212909151e-07 2.17971952537723e-07 7.0694041699517e-08 2.33488792865543e-07 1.04687002859425e-07 2.70643978420327e-07
"2660" 43896 4.37750183550802e-08 1.46136132358294e-08 1.06680720417667e-07 2.17091122838358e-07 7.0704542826582e-08 2.33585434513708e-07 1.04612700903548e-07 2.71002625357084e-07
