"time" "channel1" "channel2" "channel3" "channel4" "channel5" "channel6" "channel7" "channel8"
"1" 2 1.57772692016851e-10 4.6880850731966e-10 1.21455340437911e-09 2.715627625807e-09 9.01305902275569e-09 1.24751722856446e-10 1.23868057334344e-10 1.71111264692881e-10
"2" 3 1.57026074860147e-10 4.66487990795239e-10 1.21314916266846e-09 2.70225912663783e-09 8.9802995055224e-09 1.24824533056904e-10 1.23255106651446e-10 1.70272917184164e-10
"3" 4 1.56286813537499e-10 4.64657990022636e-10 1.2090441756487e-09 2.69176076772998e-09 8.93782966622204e-09 1.24540115128117e-10 1.22648194891531e-10 1.76801032767398e-10
"4" 5 1.56303567324137e-10 4.62895600389274e-10 1.21562396150972e-09 2.68495501810492e-09 8.89402222922175e-09 1.24258485610397e-10 1.2405273865749e-10 1.76563460252705e-10
"5" 6 1.56320157659198e-10 4.61150404801115e-10 1.22213955433796e-09 2.67821566603719e-09 8.85064218185073e-09 1.23979603697728e-10 1.25443579557438e-10 1.76328205518643e-10
"6" 7 1.56336586923045e-10 4.59422152859443e-10 1.22859188898339e-09 2.67154174457205e-09 8.80768329998816e-09 1.23703429376444e-10 1.26820917147679e-10 1.76095234811125e-10
"7" 8 1.56352857450043e-10 4.57710599004164e-10 1.23498188223129e-09 2.66493230543991e-09 8.76513947978611e-09 1.2342992340609e-10 1.28184947128352e-10 1.75864515028317e-10
"8" 9 1.56368971529666e-10 4.56015502397494e-10 1.24131043323641e-09 2.65838641860712e-09 8.7230047347783e-09 1.23159047300836e-10 1.29535861436134e-10 1.75636013704959e-10
"9" 10 1.56384931407571e-10 4.54336626810983e-10 1.24757842394484e-09 2.65190317183971e-09 8.68127319307201e-09 1.22890763311422e-10 1.30873848334272e-10 1.75409698997136e-10
"10" 11 1.56400739286638e-10 4.52673740515772e-10 1.25378671950366e-09 2.64548167027962e-09 8.63993909462006e-09 1.22625034407621e-10 1.32199092500047e-10 1.75185539667483e-10
"11" 12 1.56416397327988e-10 4.51026616175966e-10 1.25562236791864e-09 2.6430170041023e-09 8.64539038121001e-09 1.24298115895105e-10 1.33425300192609e-10 1.76511235743029e-10
"12" 13 1.56431907651968e-10 4.49395030745026e-10 1.25744069889574e-09 2.64057558949269e-09 8.65079024056798e-09 1.2595541359497e-10 1.34639939888072e-10 1.77824425251825e-10
"13" 14 1.56447272339103e-10 4.47778765365081e-10 1.25924195634253e-09 2.63815709896392e-09 8.65613939702118e-09 1.27597149814086e-10 1.35843174515972e-10 1.79125284342698e-10
"14" 15 1.5646249343103e-10 4.46177605269061e-10 1.26102637960758e-09 2.63576121115037e-09 8.66143856135799e-09 1.29223542704051e-10 1.37035163960433e-10 1.80413985871974e-10
"15" 16 1.56477572931405e-10 4.44591339685561e-10 1.26279420358644e-09 2.63338761066533e-09 8.66668843114283e-09 1.30834806357831e-10 1.38216065130993e-10 1.81690699480047e-10
"16" 17 1.56492512806777e-10 4.43019761746354e-10 1.26454565882476e-09 2.63103598796255e-09 8.67188969102226e-09 1.32431150903705e-10 1.39386032031455e-10 1.82955591665824e-10
"17" 18 1.56507314987444e-10 4.41462668396448e-10 1.26628097161849e-09 2.62870603920173e-09 8.67704301302262e-09 1.34012782596622e-10 1.40545215826843e-10 1.84208825859104e-10
"18" 19 1.56521981368289e-10 4.39919860306632e-10 1.26800036411135e-09 2.62639746611762e-09 8.68214905683948e-09 1.35579903907035e-10 1.41693764908512e-10 1.85450562490979e-10
"19" 20 1.56536513809583e-10 4.38391141788413e-10 1.26970405438967e-09 2.62410997589272e-09 8.68720847011921e-09 1.37132713607307e-10 1.42831824957472e-10 1.86680959062289e-10
"20" 21 1.56550914137774e-10 4.36876320711269e-10 1.27139225657455e-09 2.6218432810335e-09 8.69222188873276e-09 1.38671406855759e-10 1.43959539005987e-10 1.87900170210222e-10
"21" 22 1.56565184146254e-10 4.35375208422154e-10 1.27306518091161e-09 2.61959709924994e-09 8.69718993704211e-09 1.40196175278433e-10 1.45077047497502e-10 1.89108347773107e-10
"22" 23 1.56579325596098e-10 4.33887619667174e-10 1.27472303385824e-09 2.61737115333829e-09 8.70211322815949e-09 1.4170720704865e-10 1.46184488344949e-10 1.90305640853444e-10
"23" 24 1.56593340216795e-10 4.32413372515378e-10 1.27636601816857e-09 2.61516517106711e-09 8.70699236419957e-09 1.43204686964426e-10 1.47281996987486e-10 1.91492195879248e-10
"24" 25 1.59236719713218e-10 4.32223721292215e-10 1.27106995895305e-09 2.60435256553105e-09 8.68363320786978e-09 1.43187966858999e-10 1.47050784802318e-10 1.90645199772341e-10
"25" 26 1.5876992303322e-10 4.32125824043124e-10 1.2695580772636e-09 2.598570500103e-09 8.70791914994363e-09 1.44022250777827e-10 1.46821627836573e-10 1.90368271061219e-10
"26" 27 1.58307257297292e-10 4.3202879314137e-10 1.26805957505814e-09 2.59283960339555e-09 8.73199017217612e-09 1.44849151653127e-10 1.46594498808579e-10 1.90093793046656e-10
"27" 28 1.57848667911461e-10 4.31932617137428e-10 1.26657427551528e-09 2.5871591991701e-09 8.75584911491758e-09 1.45668767058159e-10 1.46369370917395e-10 1.89821733340591e-10
"28" 29 1.5739410123954e-10 4.31837284782645e-10 1.26510200491578e-09 2.5815286230519e-09 8.77949876868762e-09 1.46481192854375e-10 1.46146217832274e-10 1.89552060123175e-10
"29" 30 1.56943504582222e-10 4.31742785024846e-10 1.26364259257479e-09 2.57594722227097e-09 8.80294187526316e-09 1.4728652322879e-10 1.45925013682394e-10 1.89284742130367e-10
"30" 31 1.56496826156706e-10 4.31649107004071e-10 1.26219587077589e-09 2.57041435540987e-09 8.82618112873805e-09 1.48084850730384e-10 1.45705733046861e-10 1.89019748641843e-10
"31" 32 1.56054015076866e-10 4.31556240048412e-10 1.26076167470686e-09 2.56492939215796e-09 8.84921917655514e-09 1.48876266305557e-10 1.45488350944969e-10 1.88757049469237e-10
"32" 33 1.55615021333921e-10 4.31464173669956e-10 1.25933984239704e-09 2.55949171307202e-09 8.87205862051174e-09 1.49660859332669e-10 1.45272842826714e-10 1.88496614944671e-10
"33" 34 1.5517979577761e-10 4.31372897560843e-10 1.2579302146564e-09 2.55410070934304e-09 8.8947020177391e-09 1.50438717655685e-10 1.45059184563551e-10 1.88238415909586e-10
"34" 35 1.54748290097849e-10 4.31282401589415e-10 1.25653263501611e-09 2.548755782569e-09 8.91715188165683e-09 1.51209927616966e-10 1.4484735243939e-10 1.87982423703861e-10
"35" 36 1.54320456806852e-10 4.31192675796468e-10 1.25514694967063e-09 2.54345634453347e-09 8.93941068290292e-09 1.51974574089215e-10 1.44637323141817e-10 1.87728610155206e-10
"36" 37 1.53896249221712e-10 4.31103710391596e-10 1.2537730074213e-09 2.53820181698977e-09 8.96148085024014e-09 1.52732740506614e-10 1.44429073753546e-10 1.87476947568828e-10
"37" 38 1.53475621447416e-10 4.31015495749634e-10 1.25241065962133e-09 2.53299163145065e-09 8.98336477143949e-09 1.53484508895174e-10 1.44222581744078e-10 1.87227408717356e-10
"38" 39 1.53058528360299e-10 4.30928022407185e-10 1.25105976012221e-09 2.52782522898329e-09 9.00506479414137e-09 1.54229959902318e-10 1.44017824961582e-10 1.86979966831022e-10
"39" 40 1.52644925591902e-10 4.30841281059233e-10 1.2497201652214e-09 2.52270206000938e-09 9.02658322669512e-09 1.5496917282572e-10 1.43814781624963e-10 1.86734595588089e-10
"40" 41 1.52234769513243e-10 4.30755262555848e-10 1.24839173361143e-09 2.51762158411026e-09 9.04792233897758e-09 1.55702225641427e-10 1.4361343031615e-10 1.86491269105513e-10
"41" 42 1.51828017219468e-10 4.30669957898963e-10 1.24707432633017e-09 2.51258326983685e-09 9.06908436319131e-09 1.56429195031278e-10 1.43413749972555e-10 1.86249961929847e-10
"42" 43 1.51424626514899e-10 4.30585358239243e-10 1.2457678067124e-09 2.50758659452438e-09 9.09007149464295e-09 1.57150156409642e-10 1.43215719879734e-10 1.86010649028359e-10
"43" 44 1.51024555898432e-10 4.30501454873019e-10 1.2444720403425e-09 2.5026310441116e-09 9.11088589250239e-09 1.57865183949501e-10 1.4301931966422e-10 1.85773305780382e-10
"44" 45 1.50627764549314e-10 4.30418239239304e-10 1.24318689500843e-09 2.4977161129645e-09 9.13152968054331e-09 1.58574350607886e-10 1.42824529286538e-10 1.85537907968864e-10
"45" 46 1.5023421231325e-10 4.30335702916885e-10 1.24191224065668e-09 2.49284130370432e-09 9.15200494786553e-09 1.59277728150692e-10 1.42631329034388e-10 1.85304431772134e-10
"46" 47 1.49843859688861e-10 4.30253837621478e-10 1.24064794934844e-09 2.48800612703974e-09 9.17231374959976e-09 1.59975387176891e-10 1.42439699515995e-10 1.85072853755864e-10
"47" 48 1.49456667814467e-10 4.30172635202957e-10 1.23939389521678e-09 2.48321010160322e-09 9.19245810759525e-09 1.60667397142148e-10 1.42249621653622e-10 1.84843150865233e-10
"48" 49 1.49072598455189e-10 4.30092087642649e-10 1.23814995442489e-09 2.47845275379119e-09 9.21244001109078e-09 1.61353826381879e-10 1.42061076677235e-10 1.84615300417268e-10
"49" 50 1.48691613990364e-10 4.30012187050698e-10 1.23691600512531e-09 2.47373361760817e-09 9.23226141736948e-09 1.6203474213374e-10 1.4187404611833e-10 1.84389280093383e-10
"50" 51 1.48124671639853e-10 4.29932925663482e-10 1.23569192742012e-09 2.47642862861578e-09 9.20575872567878e-09 1.6139969731893e-10 1.41688511803896e-10 1.84165067932089e-10
"51" 52 1.51778365001087e-10 4.28220301136483e-10 1.23228214602664e-09 2.48282889391117e-09 9.17292461961664e-09 1.61312285709487e-10 1.41124222989493e-10 1.83438374704998e-10
"52" 53 1.51809818259066e-10 4.26897989758785e-10 1.24143574454526e-09 2.48917836345025e-09 9.17537396860665e-09 1.60685147823461e-10 1.42187917037738e-10 1.8271744888447e-10
"53" 54 1.51841022874688e-10 4.25586131435457e-10 1.25051698260128e-09 2.49547763955424e-09 9.17780395515405e-09 1.60062967549183e-10 1.43243202437379e-10 1.82002222082287e-10
"54" 55 1.51871981784677e-10 4.24284602705226e-10 1.25952671484583e-09 2.50172731505898e-09 9.18021480794912e-09 1.59445686332182e-10 1.44290178503165e-10 1.81292626987207e-10
"55" 56 1.51902697879684e-10 4.22993282043467e-10 1.26846578252377e-09 2.50792797350094e-09 9.1826067520948e-09 1.58833246536492e-10 1.45328942991964e-10 1.80588597343854e-10
"56" 57 1.51521075882942e-10 4.21341215197152e-10 1.26351185645971e-09 2.51408018929882e-09 9.3013434781102e-09 1.58474865469995e-10 1.44761455009139e-10 1.81660155212072e-10
"57" 58 1.51142423707185e-10 4.19702004902170e-10 1.25859648234946e-09 2.52018452793097e-09 9.41915618291147e-09 1.58119273361213e-10 1.44198383275208e-10 1.82723374108554e-10
"58" 59 1.50766706819613e-10 4.18075501663738e-10 1.25371921191448e-09 2.52624154610859e-09 9.53605561093133e-09 1.57766437780407e-10 1.4363967643844e-10 1.83778350998086e-10
"59" 60 1.50393891220748e-10 4.19995145192745e-10 1.26807452153553e-09 2.54511178785122e-09 9.70536158158491e-09 1.57416326798681e-10 1.43085283940179e-10 1.83075597009414e-10
"60" 61 1.50023943434182e-10 4.19879515782491e-10 1.26919505370343e-09 2.53751940508388e-09 9.68631575300581e-09 1.60702537361703e-10 1.42535155999597e-10 1.82378248820655e-10
"61" 62 1.49656830496556e-10 4.19764772421358e-10 1.27030699941792e-09 2.52998520149484e-09 9.66741586947329e-09 1.63963566234587e-10 1.41989243598789e-10 1.81686244296178e-10
"62" 63 1.49292519947766e-10 4.19650904963745e-10 1.2714104569972e-09 2.52250851091029e-09 9.64866025986087e-09 1.67199701757297e-10 1.41447498468217e-10 1.80999522248986e-10
"63" 64 1.489309798214e-10 4.19537903418357e-10 1.27250552326408e-09 2.51508867728836e-09 9.63004727845842e-09 1.70411227884396e-10 1.40909873072478e-10 1.80318022422686e-10
"64" 65 1.48572178635386e-10 4.19425757945283e-10 1.27359229357440e-09 2.5077250545272e-09 9.61157530449085e-09 1.73598424268108e-10 1.40376320596404e-10 1.79641685473858e-10
"65" 66 1.4821608538285e-10 4.19314458853137e-10 1.27467086184463e-09 2.50041700627745e-09 9.59324274164755e-09 1.76761566339491e-10 1.3984679493147e-10 1.78970452954833e-10
"66" 67 1.47862669523192e-10 4.19203996596271e-10 1.275741320579e-09 2.4931639057589e-09 9.57504801762263e-09 1.7990092538778e-10 1.39321250662512e-10 1.78304267296853e-10
"67" 68 1.47511900973343e-10 4.19094361772041e-10 1.27680376089589e-09 2.48596513558131e-09 9.55698958366531e-09 1.83016768637955e-10 1.38799643054746e-10 1.77643071793614e-10
"68" 69 1.47163750099239e-10 4.1898554511814e-10 1.27785827255369e-09 2.47882008756923e-09 9.53906591414051e-09 1.86109359326561e-10 1.38281928041067e-10 1.76986810585175e-10
"69" 70 1.46818187707471e-10 4.18877537509994e-10 1.27890494397612e-09 2.47172816259069e-09 9.52127550609916e-09 1.89178956775847e-10 1.37768062209647e-10 1.76335428642227e-10
"70" 71 1.46475185037123e-10 4.18770329958204e-10 1.27994386227691e-09 2.46468877038978e-09 9.50361687885812e-09 1.9222581646625e-10 1.37258002791792e-10 1.75688871750708e-10
"71" 72 1.46134713751797e-10 4.18663913606059e-10 1.28097511328396e-09 2.45770132942282e-09 9.48608857358934e-09 1.95250190107276e-10 1.36751707650084e-10 1.75047086496765e-10
"72" 73 1.45796745931803e-10 4.1855827972709e-10 1.28199878156301e-09 2.45076526669826e-09 9.46868915291813e-09 1.98252325706825e-10 1.3624913526677e-10 1.74410020252042e-10
"73" 74 1.45288171867447e-10 4.17025334267968e-10 1.27884378464371e-09 2.44249558268467e-09 9.44017927799677e-09 1.97771869178643e-10 1.36099836117477e-10 1.73777621159295e-10
"74" 75 1.44955760534769e-10 4.15887031970701e-10 1.2745796564748e-09 2.43371727784378e-09 9.43459926515885e-09 2.00742888171365e-10 1.35984922742114e-10 1.73149838118319e-10
"75" 76 1.44453943319597e-10 4.14374948834032e-10 1.27922235041961e-09 2.42581026708408e-09 9.40029567698795e-09 2.01742533044439e-10 1.35490621275375e-10 1.72526620772188e-10
"76" 77 1.43955762461058e-10 4.12873822821542e-10 1.28383140165467e-09 2.4179605535038e-09 9.36624066554293e-09 2.02734934114084e-10 1.34999901703322e-10 1.71907919493781e-10
"77" 78 1.43461178576226e-10 4.11383535264015e-10 1.28840717454147e-09 2.41016751655587e-09 9.33243153865708e-09 2.03720169833047e-10 1.34512725232873e-10 1.7129368537262e-10
"78" 79 1.42970152848839e-10 4.09903969199708e-10 1.29295002819887e-09 2.40243054462196e-09 9.29886564289991e-09 2.04698317525254e-10 1.34029053629118e-10 1.70683870201971e-10
"79" 80 1.42482647019139e-10 4.08435009343748e-10 1.29746031659707e-09 2.39474903485244e-09 9.26554036288293e-09 2.05669453406048e-10 1.33548849205317e-10 1.70078426466236e-10
"80" 81 1.41998623373937e-10 4.06976542058187e-10 1.30193838864957e-09 2.38712239300985e-09 9.23245312058035e-09 2.06633652601978e-10 1.33072074813116e-10 1.69477307328614e-10
"81" 82 1.41518044736886e-10 4.05528455322701e-10 1.30638458830312e-09 2.37955003331561e-09 9.19960137466428e-09 2.0759098917018e-10 1.32598693832958e-10 1.68880466619018e-10
"82" 83 1.41040874458963e-10 4.04090638705907e-10 1.3107992546258e-09 2.37203137830005e-09 9.16698261985399e-09 2.08541536117331e-10 1.32128670164717e-10 1.68287858822256e-10
"83" 84 1.40567076409153e-10 4.02662983337288e-10 1.31518272189319e-09 2.36456585865562e-09 9.1345943862791e-09 2.09485365418212e-10 1.31661968218512e-10 1.6769943906646e-10
"84" 85 1.40096614965327e-10 4.01245381879716e-10 1.31953531967279e-09 2.35715291309319e-09 9.10243423885616e-09 2.10422548033875e-10 1.31198552905732e-10 1.67115163111762e-10
"85" 86 1.39629455005318e-10 3.99837728502547e-10 1.32385737290656e-09 2.34979198820138e-09 9.07049977667829e-09 2.11353153929429e-10 1.30738389630234e-10 1.66534987339202e-10
"86" 87 1.39165561898175e-10 3.98439918855289e-10 1.32814920199184e-09 2.34248253830882e-09 9.03878863241774e-09 2.12277252091447e-10 1.3028144427974e-10 1.65958868739876e-10
"87" 88 1.38704901495612e-10 3.9705185004181e-10 1.3324111228605e-09 2.3352240253493e-09 9.00729847174089e-09 2.13194910545019e-10 1.29827683217402e-10 1.65386764904309e-10
"88" 89 1.38247440123623e-10 3.95673420595091e-10 1.33664344705646e-09 2.32801591872978e-09 8.97602699273541e-09 2.14106196370442e-10 1.29377073273553e-10 1.64818634012044e-10
"89" 90 1.37793144574277e-10 3.94304530452501e-10 1.34084648181162e-09 2.32085769520105e-09 8.94497192534935e-09 2.15011175719563e-10 1.2892958173762e-10 1.64254434821456e-10
"90" 91 1.37341982097685e-10 3.92945080931585e-10 1.3450205301202e-09 2.31374883873114e-09 8.91413103084181e-09 2.15909913831795e-10 1.28485176350211e-10 1.63694126659769e-10
"91" 92 1.36893920394128e-10 3.91594974706345e-10 1.34916589081153e-09 2.30668884038129e-09 8.88350210124497e-09 2.16802475049784e-10 1.28043825295361e-10 1.63137669413282e-10
"92" 93 1.36448927606349e-10 3.90254115784017e-10 1.35328285862141e-09 2.29967719818453e-09 8.85308295883716e-09 2.17688922834773e-10 1.27605497192941e-10 1.62585023517798e-10
"93" 94 1.36006972312002e-10 3.8892240948232e-10 1.35737172426195e-09 2.29271341702666e-09 8.82287145562666e-09 2.1856931978164e-10 1.27170161091221e-10 1.62036149949246e-10
"94" 95 1.35568023516255e-10 3.87599762407165e-10 1.36143277448996e-09 2.28579700852972e-09 8.79286547284617e-09 2.1944372763363e-10 1.2673778645958e-10 1.61491010214494e-10
"95" 96 1.35132050644548e-10 3.86286082430825e-10 1.36546629217405e-09 2.27892749093785e-09 8.76306292045741e-09 2.20312207296792e-10 1.26308343181374e-10 1.6094956634235e-10
"96" 97 1.38274177856255e-10 3.8636686201804e-10 1.39498289345884e-09 2.273157777348e-09 8.73495562312065e-09 2.20039055864536e-10 1.2588180154694e-10 1.60839386185011e-10
"97" 98 1.3834633411267e-10 3.85066179551268e-10 1.3985324491339e-09 2.26779811675617e-09 8.82844708980705e-09 2.21973995082762e-10 1.2581019134398e-10 1.6030378241985e-10
"98" 99 1.38418006098908e-10 3.83774226497025e-10 1.40205818228766e-09 2.26247442704079e-09 8.92131109698549e-09 2.23895948131738e-10 1.2573906174641e-10 1.5977177331083e-10
"99" 100 1.38489198673867e-10 3.82490915269231e-10 1.40556033194206e-09 2.25718634729006e-09 9.01355394023632e-09 2.25805045307476e-10 1.256684079321e-10 1.59243322791169e-10
"100" 101 1.3855991663166e-10 3.81216159449623e-10 1.40903913393209e-09 2.25193352140434e-09 9.1051818311988e-09 2.2770141516871e-10 1.2559822514322e-10 1.58718395274972e-10
"101" 102 1.3863016470269e-10 3.79949873768351e-10 1.41249482095874e-09 2.24671559801619e-09 9.19620089896553e-09 2.2958518456575e-10 1.25528508685162e-10 1.58196955649248e-10
"102" 103 1.38699947554706e-10 3.78691974084968e-10 1.41592762264084e-09 2.24153223041208e-09 9.28661719144903e-09 2.31456478668769e-10 1.25459253925503e-10 1.57678969266079e-10
"103" 104 1.38421094482623e-10 3.7872906822504e-10 1.41155178479018e-09 2.24760933598088e-09 9.31084246467586e-09 2.34031972380042e-10 1.25045368663005e-10 1.57406741301815e-10
"104" 105 1.3798864360065e-10 3.78765918324716e-10 1.40829235333559e-09 2.30114970155554e-09 9.41318514217459e-09 2.38059926940502e-10 1.24948148593423e-10 1.57136304311001e-10
"105" 106 1.37559028462164e-10 3.78802526784395e-10 1.40505429520201e-09 2.35433898276579e-09 9.51485672014874e-09 2.42061468684172e-10 1.24851566032493e-10 1.56867640677504e-10
"106" 107 1.37132221265761e-10 3.78838895973096e-10 1.40183740084708e-09 2.40718062161518e-09 9.6158637780054e-09 2.46036856560236e-10 1.24755614730131e-10 1.56600733015467e-10
"107" 108 1.36708194572265e-10 3.78875028228971e-10 1.39864146345864e-09 2.45967801526034e-09 9.71621280942652e-09 2.49986346143948e-10 1.24660288517687e-10 1.56335564165561e-10
"108" 109 1.36286921298857e-10 3.78910925859808e-10 1.39546627891038e-09 2.51183451673897e-09 9.81591022376049e-09 2.53910189691402e-10 1.24565581306622e-10 1.56072117191303e-10
"109" 110 1.35868374713303e-10 3.78946591143519e-10 1.39231164571841e-09 2.56365343568376e-09 9.91496234738679e-09 2.57808636193241e-10 1.24471487087215e-10 1.55810375375455e-10
"110" 111 1.35452528428301e-10 3.78982026328626e-10 1.38917736499866e-09 2.61513803902246e-09 1.00133754250542e-08 2.61681931427327e-10 1.24377999927288e-10 1.55550322216483e-10
"111" 112 1.35039356395935e-10 3.7806889387727e-10 1.39291415961698e-09 2.63642596629279e-09 9.98157102726777e-09 2.61056226482266e-10 1.23978237931988e-10 1.55055835868302e-10
"112" 113 1.3478027982644e-10 3.76857340273134e-10 1.39629969413409e-09 2.78864930298872e-09 1.00522115015478e-08 2.63462556119132e-10 1.24833849078458e-10 1.54564519304404e-10
"113" 114 1.34522858698284e-10 3.75653528225573e-10 1.39966359584277e-09 2.93989996660672e-09 1.01224005989954e-08 2.65853509847775e-10 1.25683993061053e-10 1.5407634214347e-10
"114" 115 1.34267077195148e-10 3.74457383770672e-10 1.40300607142593e-09 3.09018725020167e-09 1.01921426321281e-08 2.68229234571777e-10 1.26528722113823e-10 1.53591274391205e-10
"115" 116 1.34012919701556e-10 3.73268833883739e-10 1.40632732494189e-09 3.23952032882142e-09 1.02614418587012e-08 2.70589875329278e-10 1.27368087807527e-10 1.53109286434191e-10
"116" 117 1.33760370799695e-10 3.72087806464445e-10 1.40962755786597e-09 3.38790826137396e-09 1.03303024825744e-08 2.7293557532249e-10 1.28202141060132e-10 1.52630349033868e-10
"117" 118 1.33509415266301e-10 3.70914230322244e-10 1.41290696913123e-09 3.53535999245928e-09 1.03987286545621e-08 2.75266475946661e-10 1.29030932147106e-10 1.52154433320614e-10
"118" 119 1.33260038069594e-10 3.69748035162069e-10 1.41616575516841e-09 3.68188435416671e-09 1.04667244732667e-08 2.77582716818478e-10 1.2985451071152e-10 1.51681510787945e-10
"119" 120 1.33012224366284e-10 3.68589151570297e-10 1.41940410994516e-09 3.82749006783836e-09 1.0534293985898e-08 2.79884435803951e-10 1.30672925773962e-10 1.5121155328683e-10
"120" 121 1.32765959498619e-10 3.67437511000973e-10 1.42262222500456e-09 3.97218574579956e-09 1.06014411890754e-08 2.82171769045765e-10 1.31486225742265e-10 1.50744533020096e-10
"121" 122 1.32521228991501e-10 3.662930457623e-10 1.42582028950284e-09 4.11597989305696e-09 1.06681700296161e-08 2.84444850990122e-10 1.32294458421045e-10 1.50280422536956e-10
"122" 123 1.32278018549644e-10 3.65155689003369e-10 1.42899849024647e-09 4.25888090896493e-09 1.07344844053087e-08 2.86703814413086e-10 1.33097671021075e-10 1.49819194727624e-10
"123" 124 1.32036314054795e-10 3.64025374701151e-10 1.43215701172854e-09 4.40089708886108e-09 1.0800388165672e-08 2.88948790446434e-10 1.33895910168474e-10 1.4936082281804e-10
"124" 125 1.31796101563001e-10 3.62902037647711e-10 1.43529603616442e-09 4.54203662567146e-09 1.08658851126997e-08 2.91179908603033e-10 1.34689221913727e-10 1.48905280364689e-10
"125" 126 1.31557367301926e-10 3.61785613437677e-10 1.43841574352684e-09 4.68230761148607e-09 1.09309790015919e-08 2.93397296801745e-10 1.35477651740549e-10 1.48452541249511e-10
"126" 127 1.31175154599658e-10 3.61871950508502e-10 1.44485921969001e-09 4.66969652147643e-09 1.09120295143202e-08 2.92507346622694e-10 1.35354991666222e-10 1.48390834803255e-10
"127" 128 1.30795279589759e-10 3.61957759523849e-10 1.45126328621303e-09 4.65716256351578e-09 1.08931959260532e-08 2.91622839564004e-10 1.35233081806416e-10 1.48329505766456e-10
"128" 129 1.31315595527182e-10 3.61143857311754e-10 1.44717550993299e-09 4.64301021055883e-09 1.08898330133674e-08 2.90743725841037e-10 1.35111915299414e-10 1.48106531346724e-10
"129" 130 1.31832748449788e-10 3.60334902833471e-10 1.44311258335678e-09 4.62894389014265e-09 1.08864905439198e-08 2.89869956274442e-10 1.34991485366923e-10 1.47884912394588e-10
"130" 131 1.32346767112257e-10 3.59530851109602e-10 1.439074280578e-09 4.61496282015323e-09 1.08831683318627e-08 2.89001482280977e-10 1.3487178531281e-10 1.47664636587618e-10
"131" 132 1.32857679921781e-10 3.58731657704307e-10 1.43506037842024e-09 4.6010662279281e-09 1.08798661935946e-08 2.88138255864512e-10 1.34752808521865e-10 1.4744569175229e-10
"132" 133 1.33365514943295e-10 3.57937278717115e-10 1.43107065639596e-09 4.58725335011396e-09 1.08765839477256e-08 2.87280229607182e-10 1.34634548458575e-10 1.47228065861754e-10
"133" 134 1.33870299904621e-10 3.57147670774892e-10 1.42710489666612e-09 4.57352343252694e-09 1.0873321415045e-08 2.86427356660707e-10 1.34516998665936e-10 1.47011747033623e-10
"134" 135 1.34372062201507e-10 3.56362791023939e-10 1.42316288400054e-09 4.55987573001529e-09 1.08700784184883e-08 2.85579590737864e-10 1.34400152764271e-10 1.46796723527817e-10
"135" 136 1.3487082890259e-10 3.55582597122246e-10 1.41924440573892e-09 4.5463095063246e-09 1.08668547831051e-08 2.84736886104112e-10 1.34284004450079e-10 1.46582983744433e-10
"136" 137 1.35366626754263e-10 3.54807047231872e-10 1.41534925175268e-09 4.5328240339654e-09 1.08636503360277e-08 2.83899197569371e-10 1.34168547494899e-10 1.46370516221665e-10
"137" 138 1.35859482185451e-10 3.54036100011471e-10 1.4114772144073e-09 4.51941859408312e-09 1.08604649064403e-08 2.83066480479939e-10 1.34053775744202e-10 1.4615930963375e-10
"138" 139 1.36349421312312e-10 3.53269714608943e-10 1.4076280885255e-09 4.50609247633031e-09 1.08572983255488e-08 2.82238690710564e-10 1.33939683116289e-10 1.45949352788958e-10
"139" 140 1.36836469942849e-10 3.52507850654216e-10 1.40380167135097e-09 4.49284497874124e-09 1.08541504265504e-08 2.81415784656642e-10 1.33826263601226e-10 1.45740634627617e-10
"140" 141 1.37320653581443e-10 3.51750468252165e-10 1.39999776251276e-09 4.47967540760858e-09 1.0851021044605e-08 2.80597719226567e-10 1.33713511259781e-10 1.45533144220166e-10
"141" 142 1.37801997433299e-10 3.50997527975639e-10 1.39621616399032e-09 4.46658307736232e-09 1.08479100168058e-08 2.79784451834205e-10 1.33601420222391e-10 1.45326870765251e-10
"142" 143 1.38280526408829e-10 3.50248990858624e-10 1.39245668007912e-09 4.45356731045084e-09 1.08448171821517e-08 2.78975940391505e-10 1.33489984688143e-10 1.45121803587851e-10
"143" 144 1.38756265127942e-10 3.49504818389523e-10 1.3887191173569e-09 4.44062743722397e-09 1.08417423815189e-08 2.78172143301241e-10 1.33379198923775e-10 1.44917932137432e-10
"144" 145 1.3922923792427e-10 3.48764972504544e-10 1.38500328465052e-09 4.42776279581819e-09 1.0838685457634e-08 2.77373019449875e-10 1.33269057262688e-10 1.44715245986144e-10
"145" 146 1.39699468849314e-10 3.48029415581217e-10 1.3813089930033e-09 4.41497273204374e-09 1.08356462550469e-08 2.76578528200545e-10 1.33159554103984e-10 1.44513734827037e-10
"146" 147 1.40166981676526e-10 3.47298110432013e-10 1.37763605564306e-09 4.40225659927378e-09 1.08326246201049e-08 2.75788629386182e-10 1.33050683911515e-10 1.44313388472318e-10
"147" 148 1.39783088433546e-10 3.46571020298078e-10 1.37366667424387e-09 4.39153349259452e-09 1.08016372791906e-08 2.75395749714605e-10 1.32942441212951e-10 1.44114196851632e-10
"148" 149 1.39840334116242e-10 3.45575310956379e-10 1.37705073693655e-09 4.38221599119539e-09 1.0811253178315e-08 2.77511943172851e-10 1.32560572184721e-10 1.43705147630598e-10
"149" 150 1.39897251743449e-10 3.44585307685406e-10 1.38041540671982e-09 4.37295188521975e-09 1.08208139720003e-08 2.79616009447956e-10 1.32180891517684e-10 1.43298442531176e-10
"150" 151 1.39953844127073e-10 3.43600961575981e-10 1.38376084981862e-09 4.36374071699255e-09 1.08303201325789e-08 2.81708052487203e-10 1.31803380454459e-10 1.42894061460893e-10
"151" 152 1.40010114046972e-10 3.42622224276296e-10 1.38708723056357e-09 4.35458203405438e-09 1.08397721270003e-08 2.83788175053292e-10 1.31428020451423e-10 1.42491984556252e-10
"152" 153 1.40066064251417e-10 3.41649047983997e-10 1.39039471141793e-09 4.34547538908746e-09 1.08491704169079e-08 2.85856478741165e-10 1.31054793175677e-10 1.42092192179479e-10
"153" 154 1.40121697457537e-10 3.40681385438395e-10 1.39368345300399e-09 4.33642033984272e-09 1.08585154587141e-08 2.87913063994545e-10 1.3068368050206e-10 1.41694664915322e-10
"154" 155 1.40177016351757e-10 3.39719189912826e-10 1.39695361412911e-09 4.3274164490683e-09 1.08678077036739e-08 2.89958030122201e-10 1.30314664510215e-10 1.41299383567912e-10
"155" 156 1.40232023590236e-10 3.38762415207118e-10 1.40020535181128e-09 4.31846328443909e-09 1.08770475979579e-08 2.91991475313925e-10 1.29947727481704e-10 1.4090632915767e-10
"156" 157 1.40286721799285e-10 3.37811015640207e-10 1.40343882130422e-09 4.30956041848757e-09 1.08862355827234e-08 2.94013496656258e-10 1.29582851897174e-10 1.40515482918272e-10
"157" 158 1.4034111357579e-10 3.36864946042858e-10 1.40665417612213e-09 4.30070742853577e-09 1.08953720941849e-08 2.96024190147934e-10 1.29220020433565e-10 1.40126826293661e-10
"158" 159 1.40395201487622e-10 3.35924161750523e-10 1.40985156806396e-09 4.2919038966284e-09 1.0904457563683e-08 2.98023650715075e-10 1.28859215961373e-10 1.39740340935109e-10
"159" 160 1.40023504620978e-10 3.36131049434356e-10 1.40623212822634e-09 4.28586917019452e-09 1.08813437222652e-08 2.97380375068273e-10 1.28791679346628e-10 1.39708574636599e-10
"160" 161 1.39653872736927e-10 3.36336787742168e-10 1.40263279638782e-09 4.2798679700186e-09 1.08583582910775e-08 2.96740673175065e-10 1.28724517935298e-10 1.39676984817525e-10
"161" 162 1.39286288674949e-10 3.3654138622556e-10 1.39905340544592e-09 4.27390001748909e-09 1.08355002029988e-08 2.96104515336666e-10 1.2865772860935e-10 1.39645570011299e-10
"162" 163 1.38920735464141e-10 3.36744854330591e-10 1.39549379014458e-09 4.267965037073e-09 1.08127684026997e-08 2.95471872182458e-10 1.28591308285202e-10 1.39614328767538e-10
"163" 164 1.38557196320611e-10 3.3694720139923e-10 1.39195378704875e-09 4.26206275627353e-09 1.07901618464793e-08 2.94842714665463e-10 1.28525253913254e-10 1.39583259651842e-10
"164" 165 1.38195654644902e-10 3.37148436670789e-10 1.38843323451938e-09 4.25619290558835e-09 1.07676795021062e-08 2.94217014057902e-10 1.28459562477415e-10 1.39552361245573e-10
"165" 166 1.37836094019471e-10 3.37348569283326e-10 1.38493197268881e-09 4.25035521846856e-09 1.07453203486613e-08 2.93594741946821e-10 1.28394230994649e-10 1.3952163214564e-10
"166" 167 1.37478498206201e-10 3.37547608275029e-10 1.38144984343655e-09 4.24454943127838e-09 1.07230833763827e-08 2.92975870229789e-10 1.28329256514522e-10 1.39491070964286e-10
"167" 168 1.39143980084156e-10 3.37690343670811e-10 1.37872065257611e-09 4.24156015863052e-09 1.06940831964003e-08 2.94934603752826e-10 1.28239777525408e-10 1.4006091198143e-10
"168" 169 1.40800410430165e-10 3.37832303330745e-10 1.3760062942747e-09 4.23858713202965e-09 1.06652406260918e-08 2.96882691984977e-10 1.28150784835148e-10 1.40627656036525e-10
"169" 170 1.42447862833919e-10 3.37973493561629e-10 1.3733066479424e-09 4.2356302193941e-09 1.06365543840776e-08 2.98820221473323e-10 1.28062274490093e-10 1.41191328308124e-10
"170" 171 1.44086410089545e-10 3.38113920602075e-10 1.37062159429298e-09 4.23268929007009e-09 1.0608023202831e-08 3.00747277829299e-10 1.27974242579336e-10 1.41751953702579e-10
"171" 172 1.45716124206327e-10 3.38253590623435e-10 1.3679510153263e-09 4.22976421481252e-09 1.05796458284915e-08 3.02663945741307e-10 1.27886685234135e-10 1.42309556857711e-10
"172" 173 1.47337076419255e-10 3.38392509730702e-10 1.36529479431106e-09 4.22685486576601e-09 1.05514210206806e-08 3.04570308987122e-10 1.27799598627349e-10 1.42864162146417e-10
"173" 174 1.48949337199406e-10 3.38530683963399e-10 1.36265281576775e-09 4.22396111644629e-09 1.05233475523218e-08 3.06466450446096e-10 1.27712978972878e-10 1.43415793680224e-10
"174" 175 1.50552976264155e-10 3.38668119296456e-10 1.36002496545194e-09 4.22108284172187e-09 1.04954242094623e-08 3.08352452111172e-10 1.27626822525116e-10 1.4396447531278e-10
"175" 176 1.52148062587225e-10 3.3880482164107e-10 1.35741113033782e-09 4.21821991779597e-09 1.0467649791098e-08 3.10228395100701e-10 1.27541125578408e-10 1.44510230643297e-10
"176" 177 1.53734664408577e-10 3.38940796845554e-10 1.35481119860197e-09 4.21537222218883e-09 1.04400231090016e-08 3.12094359670073e-10 1.27455884466524e-10 1.45053083019927e-10
"177" 178 1.55312849244139e-10 3.39076050696167e-10 1.35222505960742e-09 4.21253963372019e-09 1.0412542987553e-08 3.13950425223161e-10 1.27371095562129e-10 1.45593055543101e-10
"178" 179 1.56882683895386e-10 3.39210588917941e-10 1.34965260388797e-09 4.20972203249212e-09 1.03852082635723e-08 3.15796670323588e-10 1.27286755276277e-10 1.46130171068798e-10
"179" 180 1.58444234458764e-10 3.39344417175484e-10 1.34709372313274e-09 4.20691929987212e-09 1.03580177861562e-08 3.17633172705807e-10 1.27202860057895e-10 1.46664452211773e-10
"180" 181 1.59997566334966e-10 3.39477541073777e-10 1.34454831017096e-09 4.20413131847643e-09 1.03309704165159e-08 3.19460009286014e-10 1.27119406393295e-10 1.47195921348733e-10
"181" 182 1.61542744238064e-10 3.39609966158955e-10 1.34201625895701e-09 4.20135797215369e-09 1.03040650278186e-08 3.21277256172886e-10 1.27036390805674e-10 1.47724600621456e-10
"182" 183 1.61909016915621e-10 3.38721102816619e-10 1.33873885711129e-09 4.19377166291826e-09 1.02774109510795e-08 3.20801293155022e-10 1.26703970985212e-10 1.47342507603945e-10
"183" 184 1.62273376942119e-10 3.37836881058317e-10 1.33547856963552e-09 4.18622496887466e-09 1.02508960601197e-08 3.20327815583727e-10 1.26373287038485e-10 1.46962409850232e-10
"184" 185 1.61868904674985e-10 3.36957264621672e-10 1.33228845009574e-09 4.19937460025805e-09 1.02563186215947e-08 3.19668336099168e-10 1.26044325403981e-10 1.46584291772321e-10
"185" 186 1.61466533562485e-10 3.36082217621062e-10 1.32911490260551e-09 4.21245592186801e-09 1.02617130139192e-08 3.19012282482062e-10 1.25717072661084e-10 1.46208137944164e-10
"186" 187 1.61066247274403e-10 3.35211704542734e-10 1.32595779836654e-09 4.22546946460953e-09 1.02670794560244e-08 3.18359628106495e-10 1.25391515528255e-10 1.45833933099573e-10
"187" 188 1.60668029649308e-10 3.34345690240006e-10 1.32281700991174e-09 4.23841575390019e-09 1.02724181645787e-08 3.17710346621758e-10 1.25067640861228e-10 1.45461662130148e-10
"188" 189 1.60271864692383e-10 3.33484139928528e-10 1.31969241108815e-09 4.2512953097409e-09 1.02777293540167e-08 3.17064411948798e-10 1.24745435651247e-10 1.45091310083246e-10
"189" 190 1.59877736573284e-10 3.32627019181634e-10 1.31658387704001e-09 4.26410864678552e-09 1.02830132365682e-08 3.16421798276727e-10 1.24424887023324e-10 1.44722862159978e-10
"190" 191 1.59485629624025e-10 3.3177429392575e-10 1.31349128419211e-09 4.27685627440939e-09 1.0288270022286e-08 3.15782480059384e-10 1.24105982234517e-10 1.4435630371324e-10
"191" 192 1.59095528336912e-10 3.3092593043588e-10 1.31041451023346e-09 4.28953869677687e-09 1.02934999190744e-08 3.15146432011952e-10 1.23788708672252e-10 1.43991620245769e-10
"192" 193 1.58707417362488e-10 3.30081895331163e-10 1.30735343410113e-09 4.30215641290778e-09 1.02987031327159e-08 3.14513629107618e-10 1.23473053852652e-10 1.43628797408234e-10
"193" 194 1.58321281507526e-10 3.2924215557049e-10 1.30430793596438e-09 4.31470991674287e-09 1.03038798668986e-08 3.13884046574299e-10 1.23159005418902e-10 1.43267820997353e-10
"194" 195 1.57937105733047e-10 3.28406678448196e-10 1.30127789720904e-09 4.32719969720823e-09 1.03090303232429e-08 3.13257659891403e-10 1.22846551139637e-10 1.42908676954041e-10
"195" 196 1.57554875152362e-10 3.27575431589813e-10 1.29826320042208e-09 4.33962623827883e-09 1.03141547013271e-08 3.12634444786648e-10 1.22535678907357e-10 1.4255135136158e-10
"196" 197 1.57174575029156e-10 3.26748382947886e-10 1.29526372937647e-09 4.35199001904099e-09 1.0319253198714e-08 3.12014377232928e-10 1.22226376736856e-10 1.42195830443829e-10
"197" 198 1.56796190775588e-10 3.25925500797858e-10 1.29227936901622e-09 4.36429151375397e-09 1.03243260109755e-08 3.11397433445221e-10 1.21918632763687e-10 1.41842100563446e-10
"198" 199 1.56419707950429e-10 3.25106753734011e-10 1.28931000544171e-09 4.37653119191061e-09 1.03293733317181e-08 3.10783589877552e-10 1.21612435242645e-10 1.41490148220152e-10
"199" 200 1.56045112257227e-10 3.24292110665471e-10 1.28635552589514e-09 4.38870951829704e-09 1.03343953526074e-08 3.10172823219998e-10 1.21307772546269e-10 1.41139960049004e-10
"200" 201 1.5567238954249e-10 3.23481540812274e-10 1.2834158187463e-09 4.40082695305153e-09 1.03393922633922e-08 3.09565110395731e-10 1.21004633163376e-10 1.40791522818711e-10
"201" 202 1.55301525793912e-10 3.22675013701487e-10 1.2804907734785e-09 4.41288395172247e-09 1.03443642519287e-08 3.08960428558118e-10 1.20703005697604e-10 1.40444823429967e-10
"202" 203 1.54920606692543e-10 3.22413002889941e-10 1.26537538261215e-09 4.40014019533037e-09 1.03425660095464e-08 3.09119566101964e-10 1.20941006815113e-10 1.39497906932427e-10
"203" 204 1.54920606692543e-10 3.23173766818694e-10 1.25330344289909e-09 4.38894768398228e-09 1.03404521283316e-08 3.0927870364581e-10 1.21179007932621e-10 1.38683514982706e-10
"204" 205 1.54920606692543e-10 3.23934530747447e-10 1.24123150318603e-09 4.37775517263419e-09 1.03383382471167e-08 3.09437841189656e-10 1.2141700905013e-10 1.37869123032986e-10
"205" 206 1.55183691778074e-10 3.246952946762e-10 1.24504855024015e-09 4.37376126581078e-09 1.03160132255884e-08 3.09257363160141e-10 1.2141700905013e-10 1.37869123032986e-10
"206" 207 1.55446776863606e-10 3.25456058604953e-10 1.24886559729427e-09 4.36976735898738e-09 1.02936882040601e-08 3.09076885130626e-10 1.2141700905013e-10 1.37869123032986e-10
"207" 208 1.55709861949137e-10 3.24272347076649e-10 1.24685040429206e-09 4.36577345216397e-09 1.02327760782222e-08 3.09076885130626e-10 1.2139425816794e-10 1.38001647580806e-10
"208" 209 1.55972947034668e-10 3.23088635548345e-10 1.24483521128984e-09 4.36177954534057e-09 1.01718639523842e-08 3.09076885130626e-10 1.2137150728575e-10 1.38134172128625e-10
"209" 210 1.562360321202e-10 3.2190492402004e-10 1.24282001828762e-09 4.35778563851716e-09 1.01109518265463e-08 3.09076885130626e-10 1.2134875640356e-10 1.38266696676445e-10
"210" 211 1.56499117205731e-10 3.20721212491736e-10 1.2408048252854e-09 4.35379173169375e-09 1.00500397007083e-08 3.09076885130626e-10 1.2132600552137e-10 1.38399221224265e-10
"211" 212 1.56762202291262e-10 3.19537500963432e-10 1.23878963228318e-09 4.34979782487035e-09 9.98912757487035e-09 3.09076885130626e-10 1.21303254639181e-10 1.38531745772084e-10
"212" 213 1.57025287376793e-10 3.18353789435127e-10 1.23677443928096e-09 4.34580391804694e-09 9.9282154490324e-09 3.09076885130626e-10 1.21280503756991e-10 1.38664270319904e-10
"213" 214 1.57288372462325e-10 3.17170077906823e-10 1.23475924627874e-09 4.34181001122354e-09 9.86730332319445e-09 3.09076885130626e-10 1.21257752874801e-10 1.38796794867723e-10
"214" 215 1.57551457547856e-10 3.15986366378519e-10 1.23274405327652e-09 4.33781610440013e-09 9.8063911973565e-09 3.09076885130626e-10 1.21235001992611e-10 1.38929319415543e-10
"215" 216 1.57814542633387e-10 3.13779880109915e-10 1.22663697043655e-09 4.33537732450648e-09 9.85226282833772e-09 3.09257363160141e-10 1.20974249992913e-10 1.39876235913083e-10
"216" 217 1.58431129766432e-10 3.11573393841311e-10 1.22147646138095e-09 4.33099851783638e-09 9.79036685206718e-09 3.09257363160141e-10 1.20713497993214e-10 1.40008760460903e-10
"217" 218 1.59047716899477e-10 3.09366907572708e-10 1.21631595232535e-09 4.32661971116629e-09 9.72847087579664e-09 3.09257363160141e-10 1.20452745993516e-10 1.40141285008722e-10
"218" 219 1.59664304032522e-10 3.07160421304104e-10 1.21115544326975e-09 4.32224090449620e-09 9.6665748995261e-09 3.09257363160141e-10 1.20191993993817e-10 1.40273809556542e-10
"219" 220 1.60280891165567e-10 3.04953935035501e-10 1.20599493421415e-09 4.3178620978261e-09 9.60467892325556e-09 3.09257363160141e-10 1.19931241994119e-10 1.40406334104362e-10
"220" 221 1.60897478298612e-10 3.02747448766897e-10 1.20083442515854e-09 4.31348329115601e-09 9.54278294698502e-09 3.09257363160141e-10 1.19670489994421e-10 1.40538858652181e-10
"221" 222 1.61514065431656e-10 3.00540962498294e-10 1.19567391610294e-09 4.30910448448591e-09 9.48088697071448e-09 3.09257363160141e-10 1.19409737994722e-10 1.40671383200001e-10
"222" 223 1.62130652564701e-10 2.9833447622969e-10 1.19051340704734e-09 4.30472567781582e-09 9.41899099444394e-09 3.09257363160141e-10 1.19148985995024e-10 1.4080390774782e-10
"223" 224 1.62747239697746e-10 2.96127989961087e-10 1.18535289799174e-09 4.30034687114572e-09 9.3570950181734e-09 3.09257363160141e-10 1.18888233995325e-10 1.4093643229564e-10
"224" 225 1.62629405681908e-10 2.94893741421012e-10 1.17952065793539e-09 4.30095171376195e-09 9.31047727425159e-09 3.09098225616295e-10 1.18865483113135e-10 1.4093643229564e-10
"225" 226 1.62892490767439e-10 2.92949265963954e-10 1.173637485429e-09 4.29657290709185e-09 9.24956514841364e-09 3.09756116277348e-10 1.18865483113135e-10 1.40753318010946e-10
"226" 227 1.63155575852971e-10 2.91004790506897e-10 1.16775431292261e-09 4.29219410042176e-09 9.18865302257569e-09 3.10414006938401e-10 1.18865483113135e-10 1.40570203726253e-10
"227" 228 1.6353649495434e-10 2.91266801318443e-10 1.16770338047257e-09 4.26698539798524e-09 9.15419809008293e-09 3.10891419569938e-10 1.1810597799623e-10 1.40387089441559e-10
"228" 229 1.63917414055709e-10 2.91528812129989e-10 1.16698071702178e-09 4.25966905830429e-09 9.15031327808945e-09 3.10530463510908e-10 1.1812872887842e-10 1.40203975156865e-10
"229" 230 1.64298333157078e-10 2.91790822941535e-10 1.16625805357099e-09 4.25235271862333e-09 9.14642846609596e-09 3.10169507451877e-10 1.1815147976061e-10 1.40020860872172e-10
"230" 231 1.64679252258447e-10 2.92052833753081e-10 1.16553539012021e-09 4.24503637894238e-09 9.14254365410248e-09 3.09808551392847e-10 1.181742306428e-10 1.39837746587478e-10
"231" 232 1.65060171359817e-10 2.92314844564627e-10 1.16481272666942e-09 4.23772003926143e-09 9.13865884210899e-09 3.09447595333816e-10 1.18196981524989e-10 1.39654632302784e-10
"232" 233 1.65441090461186e-10 2.92576855376174e-10 1.16409006321863e-09 4.23040369958048e-09 9.13477403011551e-09 3.09086639274786e-10 1.18219732407179e-10 1.39471518018091e-10
"233" 234 1.65087588413672e-10 2.92602123882059e-10 1.16214598319985e-09 4.23157004477779e-09 9.13445839128299e-09 3.09744529935839e-10 1.18480484406878e-10 1.39471518018091e-10
"234" 235 1.64734086366159e-10 2.92627392387944e-10 1.16020190318107e-09 4.23273638997511e-09 9.13414275245048e-09 3.10402420596891e-10 1.18741236406576e-10 1.39471518018091e-10
"235" 236 1.64380584318645e-10 2.92652660893829e-10 1.15825782316229e-09 4.23390273517242e-09 9.13382711361797e-09 3.11060311257944e-10 1.19001988406275e-10 1.39471518018091e-10
"236" 237 1.64027082271132e-10 2.92677929399714e-10 1.15631374314351e-09 4.23506908036974e-09 9.13351147478545e-09 3.11718201918997e-10 1.19262740405973e-10 1.39471518018091e-10
"237" 238 1.63673580223618e-10 2.927031979056e-10 1.15436966312473e-09 4.23623542556706e-09 9.13319583595294e-09 3.1237609258005e-10 1.19523492405671e-10 1.39471518018091e-10
"238" 239 1.63320078176105e-10 2.92728466411485e-10 1.15242558310595e-09 4.23740177076437e-09 9.13288019712043e-09 3.13033983241103e-10 1.1978424440537e-10 1.39471518018091e-10
"239" 240 1.63320078176105e-10 2.92728466411485e-10 1.1908093925975e-09 4.23668695676338e-09 9.25152881580839e-09 3.14052829961186e-10 1.19001988406275e-10 1.39471518018091e-10
"240" 241 1.62793908005042e-10 2.86667623487345e-10 1.18888549311211e-09 4.23059582985788e-09 9.25152881580839e-09 3.14052829961186e-10 1.18242483289369e-10 1.3892217516401e-10
"241" 242 1.62267737833979e-10 2.80606780563206e-10 1.18696159362672e-09 4.22450470295238e-09 9.25152881580839e-09 3.14052829961186e-10 1.17482978172464e-10 1.38372832309929e-10
"242" 243 1.61741567662917e-10 2.74545937639066e-10 1.18503769414133e-09 4.21841357604688e-09 9.25152881580839e-09 3.14052829961186e-10 1.16723473055558e-10 1.37823489455848e-10
"243" 244 1.61215397491854e-10 2.68485094714927e-10 1.18311379465594e-09 4.21232244914137e-09 9.25152881580839e-09 3.14052829961186e-10 1.15963967938653e-10 1.37274146601766e-10
"244" 245 1.60689227320792e-10 2.62424251790787e-10 1.18118989517055e-09 4.20623132223587e-09 9.25152881580839e-09 3.14052829961186e-10 1.15204462821748e-10 1.36724803747685e-10
"245" 246 1.60163057149729e-10 2.56363408866648e-10 1.17926599568516e-09 4.20014019533037e-09 9.25152881580839e-09 3.14052829961186e-10 1.14444957704842e-10 1.36175460893604e-10
"246" 247 1.59636886978666e-10 2.50302565942508e-10 1.17734209619977e-09 4.19404906842487e-09 9.25152881580839e-09 3.14052829961186e-10 1.13685452587937e-10 1.35626118039523e-10
"247" 248 1.59110716807604e-10 2.44241723018369e-10 1.17541819671438e-09 4.18795794151937e-09 9.25152881580839e-09 3.14052829961186e-10 1.12925947471031e-10 1.35076775185442e-10
"248" 249 1.58584546636541e-10 2.38180880094229e-10 1.17349429722899e-09 4.18186681461387e-09 9.25152881580839e-09 3.14052829961186e-10 1.12166442354126e-10 1.34527432331361e-10
"249" 250 1.58058376465478e-10 2.3212003717009e-10 1.1715703977436e-09 4.17577568770836e-09 9.25152881580839e-09 3.14052829961186e-10 1.11406937237221e-10 1.3397808947728e-10
"250" 251 1.57532206294416e-10 2.2605919424595e-10 1.16964649825821e-09 4.16968456080286e-09 9.25152881580839e-09 3.14052829961186e-10 1.10647432120315e-10 1.33428746623199e-10
"251" 252 1.57006036123353e-10 2.19998351321811e-10 1.16772259877282e-09 4.16359343389736e-09 9.25152881580839e-09 3.14052829961186e-10 1.0988792700341e-10 1.32879403769118e-10
"252" 253 1.5647986595229e-10 2.13937508397671e-10 1.16579869928743e-09 4.15750230699186e-09 9.25152881580839e-09 3.14052829961186e-10 1.09128421886504e-10 1.32330060915037e-10
"253" 254 1.55953695781228e-10 2.07876665473532e-10 1.16387479980204e-09 4.15141118008636e-09 9.25152881580839e-09 3.14052829961186e-10 1.08368916769599e-10 1.31780718060956e-10
"254" 255 1.55427525610165e-10 2.01815822549392e-10 1.16195090031665e-09 4.14532005318086e-09 9.25152881580839e-09 3.14052829961186e-10 1.07609411652694e-10 1.31231375206875e-10
"255" 256 1.54901355439102e-10 2.01080327126524e-10 1.16023073063145e-09 4.1448251819494e-09 9.18942241364951e-09 3.14211967505032e-10 1.06895408300168e-10 1.24981288704752e-10
"256" 257 1.5437518526804e-10 2.00344831703656e-10 1.15851056094625e-09 4.14433031071794e-09 9.12731601149063e-09 3.14371105048878e-10 1.06181404947642e-10 1.18731202202629e-10
"257" 258 1.54991772401085e-10 2.00581574009317e-10 1.16040370851498e-09 4.14383543948649e-09 9.12710558560229e-09 3.14190627019363e-10 1.06181404947642e-10 1.18731202202629e-10
"258" 259 1.55608359534129e-10 2.00818316314978e-10 1.16229685608371e-09 4.14334056825503e-09 9.12689515971394e-09 3.14010148989847e-10 1.06181404947642e-10 1.18731202202629e-10
"259" 260 1.55490525518292e-10 2.03024802583582e-10 1.17084677205967e-09 4.16002712766390e-09 9.12999289136136e-09 3.14010148989847e-10 1.06158654065452e-10 1.18415563370116e-10
"260" 261 1.55372691502454e-10 2.04047577323881e-10 1.17057192927604e-09 4.15797712950268e-09 9.13309062300877e-09 3.14487561621385e-10 1.05897902065754e-10 1.18964906224197e-10
"261" 262 1.55254857486616e-10 2.0507035206418e-10 1.17029708649242e-09 4.15592713134147e-09 9.13618835465618e-09 3.14964974252923e-10 1.05637150066055e-10 1.19514249078278e-10
"262" 263 1.55137023470778e-10 2.06093126804479e-10 1.17002224370879e-09 4.15387713318026e-09 9.13928608630359e-09 3.1544238688446e-10 1.05376398066357e-10 1.20063591932359e-10
"263" 264 1.5501918945494e-10 2.07115901544779e-10 1.16974740092516e-09 4.15182713501905e-09 9.14238381795101e-09 3.15919799515998e-10 1.05115646066659e-10 1.2061293478644e-10
"264" 265 1.54901355439102e-10 2.08138676285078e-10 1.16947255814154e-09 4.14977713685784e-09 9.14548154959842e-09 3.16397212147535e-10 1.0485489406696e-10 1.21162277640521e-10
"265" 266 1.54783521423265e-10 2.09161451025377e-10 1.16919771535791e-09 4.14772713869662e-09 9.14857928124583e-09 3.16874624779073e-10 1.04594142067262e-10 1.21711620494602e-10
"266" 267 1.54665687407427e-10 2.10184225765676e-10 1.16892287257428e-09 4.14567714053541e-09 9.15167701289325e-09 3.17352037410611e-10 1.04333390067563e-10 1.22260963348683e-10
"267" 268 1.54547853391589e-10 2.11207000505975e-10 1.16864802979065e-09 4.1436271423742e-09 9.15477474454066e-09 3.17829450042148e-10 1.04072638067865e-10 1.22810306202764e-10
"268" 269 1.54430019375751e-10 2.12229775246275e-10 1.16837318700703e-09 4.14157714421299e-09 9.15787247618807e-09 3.18306862673686e-10 1.03811886068167e-10 1.23359649056845e-10
"269" 270 1.54312185359913e-10 2.13252549986574e-10 1.1680983442234e-09 4.13952714605178e-09 9.16097020783549e-09 3.18784275305223e-10 1.03551134068468e-10 1.23908991910926e-10
"270" 271 1.54194351344075e-10 2.14275324726873e-10 1.16782350143977e-09 4.13747714789056e-09 9.1640679394829e-09 3.19261687936761e-10 1.0329038206877e-10 1.24458334765007e-10
"271" 272 1.54076517328238e-10 2.14537335538419e-10 1.16971664900851e-09 4.15416370729943e-09 9.17481642637129e-09 3.19261687936761e-10 1.04049887185675e-10 1.24325810217187e-10
"272" 273 1.54339602413769e-10 2.15560110278718e-10 1.17176259392738e-09 4.14950997216742e-09 9.17401569022339e-09 3.19261687936761e-10 1.04809392302581e-10 1.24325810217187e-10
"273" 274 1.546026874993e-10 2.16582885019018e-10 1.17380853884626e-09 4.1448562370354e-09 9.17321495407549e-09 3.19261687936761e-10 1.05568897419486e-10 1.24325810217187e-10
"274" 275 1.54865772584832e-10 2.17605659759317e-10 1.17585448376513e-09 4.14020250190338e-09 9.1724142179276e-09 3.19261687936761e-10 1.06328402536391e-10 1.24325810217187e-10
"275" 276 1.55128857670363e-10 2.18628434499616e-10 1.17790042868401e-09 4.13554876677137e-09 9.1716134817797e-09 3.19261687936761e-10 1.07087907653297e-10 1.24325810217187e-10
"276" 277 1.55391942755894e-10 2.18678971511386e-10 1.17633305634895e-09 4.12257730383824e-09 9.13663651803652e-09 3.19601303510122e-10 1.07870163652392e-10 1.24458334765007e-10
"277" 278 1.55391942755894e-10 2.19465003946025e-10 1.17760540536699e-09 4.08960849429594e-09 9.08732420497172e-09 3.19940919083483e-10 1.07870163652392e-10 1.2477397359752e-10
"278" 279 1.55772861857263e-10 2.18205486900065e-10 1.17079583960962e-09 4.07935850348988e-09 9.04479766546131e-09 3.20280534656844e-10 1.07915665416772e-10 1.239595816478e-10
"279" 280 1.55890695873101e-10 2.15923195113805e-10 1.16555364618732e-09 4.08207997561696e-09 9.0022711259509e-09 3.20280534656844e-10 1.07178911182056e-10 1.2314518969808e-10
"280" 281 1.56008529888939e-10 2.13640903327546e-10 1.16031145276501e-09 4.08480144774403e-09 8.95974458644048e-09 3.20280534656844e-10 1.06442156947341e-10 1.2233079774836e-10
"281" 282 1.56126363904777e-10 2.11358611541287e-10 1.15506925934271e-09 4.0875229198711e-09 8.91721804693007e-09 3.20280534656844e-10 1.05705402712625e-10 1.21516405798639e-10
"282" 283 1.56244197920615e-10 2.09076319755028e-10 1.1498270659204e-09 4.09024439199817e-09 8.87469150741966e-09 3.20280534656844e-10 1.04968648477909e-10 1.20702013848919e-10
"283" 284 1.56362031936453e-10 2.06794027968768e-10 1.14458487249809e-09 4.09296586412524e-09 8.83216496790924e-09 3.20280534656844e-10 1.04231894243194e-10 1.19887621899199e-10
"284" 285 1.5647986595229e-10 2.04511736182509e-10 1.13934267907579e-09 4.09568733625231e-09 8.78963842839883e-09 3.20280534656844e-10 1.03495140008478e-10 1.19073229949478e-10
"285" 286 1.56597699968128e-10 2.0222944439625e-10 1.13410048565348e-09 4.09840880837939e-09 8.74711188888842e-09 3.20280534656844e-10 1.02758385773763e-10 1.18258837999758e-10
"286" 287 1.56715533983966e-10 1.9994715260999e-10 1.12885829223118e-09 4.10113028050646e-09 8.704585349378e-09 3.20280534656844e-10 1.02021631539047e-10 1.17444446050038e-10
"287" 288 1.56833367999804e-10 1.97664860823731e-10 1.12361609880887e-09 4.10385175263353e-09 8.66205880986759e-09 3.20280534656844e-10 1.01284877304332e-10 1.16630054100318e-10
"288" 289 1.56951202015642e-10 1.95382569037472e-10 1.11837390538656e-09 4.1065732247606e-09 8.61953227035718e-09 3.20280534656844e-10 1.00548123069616e-10 1.15815662150597e-10
"289" 290 1.5706903603148e-10 1.93100277251213e-10 1.11313171196426e-09 4.10929469688767e-09 8.57700573084676e-09 3.20280534656844e-10 9.98113688349006e-11 1.15001270200877e-10
"290" 291 1.57186870047317e-10 1.92863534945552e-10 1.11674502921819e-09 4.12121366789401e-09 8.57081026755194e-09 3.20121397112999e-10 9.90291128358054e-11 1.15133794748697e-10
"291" 292 1.57304704063155e-10 1.92626792639891e-10 1.12035834647213e-09 4.13313263890034e-09 8.56461480425711e-09 3.19962259569153e-10 9.82468568367101e-11 1.15266319296516e-10
"292" 293 1.57685623164524e-10 1.94596536602834e-10 1.13583987363893e-09 4.14505160990667e-09 8.58252894907109e-09 3.20142737598668e-10 9.74873517198047e-11 1.15083205011823e-10
"293" 294 1.58066542265893e-10 1.96566280565776e-10 1.15132140080574e-09 4.15697058091301e-09 8.60044309388507e-09 3.20323215628183e-10 9.67278466028993e-11 1.14900090727129e-10
"294" 295 1.58447461367263e-10 1.98536024528719e-10 1.16680292797255e-09 4.16888955191934e-09 8.61835723869905e-09 3.20503693657698e-10 9.59683414859939e-11 1.14716976442435e-10
"295" 296 1.58828380468632e-10 2.00505768491662e-10 1.18228445513935e-09 4.18080852292568e-09 8.63627138351303e-09 3.20684171687214e-10 9.52088363690885e-11 1.14533862157741e-10
"296" 297 1.59209299570001e-10 2.02475512454604e-10 1.19776598230616e-09 4.19272749393201e-09 8.654185528327e-09 3.20864649716729e-10 9.44493312521831e-11 1.14350747873048e-10
"297" 298 1.59209299570001e-10 2.04521061935203e-10 1.198539578207e-09 4.19106627750324e-09 8.64879080118008e-09 3.21883496436812e-10 9.34290741355793e-11 1.14483272420867e-10
"298" 299 1.59472384655532e-10 2.04783072746749e-10 1.20263146804475e-09 4.20225878885133e-09 8.62982452692439e-09 3.2236090906835e-10 9.36898261352777e-11 1.14798911253381e-10
"299" 300 1.59735469741064e-10 2.05045083558295e-10 1.2067233578825e-09 4.21345130019942e-09 8.6108582526687e-09 3.22838321699887e-10 9.39505781349762e-11 1.15114550085894e-10
"300" 301 1.59998554826595e-10 2.05307094369841e-10 1.21081524772025e-09 4.22464381154751e-09 8.59189197841301e-09 3.23315734331425e-10 9.42113301346746e-11 1.15430188918407e-10
"301" 302 1.60261639912126e-10 2.05569105181387e-10 1.214907137558e-09 4.2358363228956e-09 8.57292570415732e-09 3.23793146962963e-10 9.4472082134373e-11 1.15745827750921e-10
"302" 303 1.60524724997658e-10 2.05831115992933e-10 1.21899902739575e-09 4.24702883424369e-09 8.55395942990163e-09 3.242705595945e-10 9.47328341340714e-11 1.16061466583434e-10
"303" 304 1.60787810083189e-10 2.06093126804479e-10 1.2230909172335e-09 4.25822134559178e-09 8.53499315564594e-09 3.24747972226038e-10 9.49935861337698e-11 1.16377105415947e-10
"304" 305 1.6105089516872e-10 2.06355137616026e-10 1.22718280707125e-09 4.26941385693987e-09 8.51602688139025e-09 3.25225384857575e-10 9.52543381334682e-11 1.16692744248461e-10
"305" 306 1.61313980254252e-10 2.06617148427572e-10 1.231274696909e-09 4.28060636828795e-09 8.49706060713456e-09 3.25702797489113e-10 9.55150901331666e-11 1.17008383080974e-10
"306" 307 1.61577065339783e-10 2.06879159239118e-10 1.23536658674675e-09 4.29179887963605e-09 8.47809433287887e-09 3.26180210120651e-10 9.5775842132865e-11 1.17324021913487e-10
"307" 308 1.61840150425314e-10 2.07141170050664e-10 1.2394584765845e-09 4.30299139098414e-09 8.45912805862318e-09 3.26657622752188e-10 9.60365941325635e-11 1.17639660746e-10
"308" 309 1.62103235510845e-10 2.0740318086221e-10 1.24355036642225e-09 4.31418390233222e-09 8.44016178436749e-09 3.27135035383726e-10 9.62973461322619e-11 1.17955299578514e-10
"309" 310 1.62366320596377e-10 2.07665191673756e-10 1.24764225626e-09 4.32537641368031e-09 8.4211955101118e-09 3.27612448015263e-10 9.65580981319603e-11 1.18270938411027e-10
"310" 311 1.62629405681908e-10 2.07927202485302e-10 1.25173414609775e-09 4.3365689250284e-09 8.40222923585611e-09 3.28089860646801e-10 9.68188501316587e-11 1.1858657724354e-10
"311" 312 1.62892490767439e-10 2.08189213296848e-10 1.2558260359355e-09 4.34776143637649e-09 8.38326296160042e-09 3.28567273278339e-10 9.70796021313571e-11 1.18902216076054e-10
"312" 313 1.63155575852971e-10 2.08451224108394e-10 1.25991792577325e-09 4.35895394772458e-09 8.36429668734473e-09 3.29044685909876e-10 9.73403541310555e-11 1.19217854908567e-10
"313" 314 1.63418660938502e-10 2.07690460179641e-10 1.25161210066427e-09 4.35490893709454e-09 8.36969141449166e-09 3.29861714114775e-10 9.76011061307539e-11 1.18668512054486e-10
"314" 315 1.63300826922664e-10 2.06929696250888e-10 1.2453214685575e-09 4.35840797268649e-09 8.37788189025532e-09 3.31835386097934e-10 9.78391072482625e-11 1.17803530367892e-10
"315" 316 1.62566405773782e-10 2.0619420082802e-10 1.2453214685575e-09 4.36123553431258e-09 8.37708115410742e-09 3.31495770524572e-10 9.78391072482625e-11 1.17986644652585e-10
"316" 317 1.61831984624899e-10 2.05458705405153e-10 1.2453214685575e-09 4.36406309593867e-09 8.37628041795952e-09 3.31156154951211e-10 9.78391072482625e-11 1.18169758937279e-10
"317" 318 1.61097563476016e-10 2.04723209982285e-10 1.2453214685575e-09 4.36689065756476e-09 8.37547968181163e-09 3.3081653937785e-10 9.78391072482625e-11 1.18352873221973e-10
"318" 319 1.60363142327134e-10 2.03987714559417e-10 1.2453214685575e-09 4.36971821919085e-09 8.37467894566373e-09 3.30476923804489e-10 9.78391072482625e-11 1.18535987506666e-10
"319" 320 1.59628721178251e-10 2.03252219136549e-10 1.2453214685575e-09 4.37254578081694e-09 8.37387820951583e-09 3.30137308231128e-10 9.78391072482625e-11 1.1871910179136e-10
"320" 321 1.58894300029368e-10 2.02516723713681e-10 1.2453214685575e-09 4.37537334244303e-09 8.37307747336794e-09 3.29797692657767e-10 9.78391072482625e-11 1.18902216076054e-10
"321" 322 1.58159878880486e-10 2.01781228290813e-10 1.2453214685575e-09 4.37820090406912e-09 8.37227673722004e-09 3.29458077084406e-10 9.78391072482625e-11 1.19085330360747e-10
"322" 323 1.57425457731603e-10 2.01045732867945e-10 1.2453214685575e-09 4.38102846569521e-09 8.37147600107215e-09 3.29118461511045e-10 9.78391072482625e-11 1.19268444645441e-10
"323" 324 1.5669103658272e-10 2.00310237445078e-10 1.2453214685575e-09 4.3838560273213e-09 8.37067526492425e-09 3.28778845937683e-10 9.78391072482625e-11 1.19451558930135e-10
"324" 325 1.55956615433838e-10 1.9957474202221e-10 1.2453214685575e-09 4.38668358894739e-09 8.36987452877636e-09 3.28439230364322e-10 9.78391072482625e-11 1.19634673214828e-10
"325" 326 1.55222194284955e-10 1.98839246599342e-10 1.2453214685575e-09 4.38951115057348e-09 8.36907379262846e-09 3.28099614790961e-10 9.78391072482625e-11 1.19817787499522e-10
"326" 327 1.54487773136073e-10 1.98103751176474e-10 1.2453214685575e-09 4.39233871219957e-09 8.36827305648056e-09 3.277599992176e-10 9.78391072482625e-11 1.20000901784216e-10
"327" 328 1.5375335198719e-10 1.97131513447945e-10 1.2442019168896e-09 4.39760117183356e-09 8.38270958527592e-09 3.29935489715943e-10 9.80771083657711e-11 1.20184016068909e-10
"328" 329 1.53136764854145e-10 2.00098763645302e-10 1.24814100937721e-09 4.40081363330634e-09 8.38270958527592e-09 3.29595874142582e-10 9.80771083657711e-11 1.20367130353603e-10
"329" 330 1.525201777211e-10 2.03066013842659e-10 1.25208010186482e-09 4.40402609477912e-09 8.38270958527592e-09 3.29256258569221e-10 9.80771083657711e-11 1.20550244638297e-10
"330" 331 1.51903590588055e-10 2.06033264040015e-10 1.25601919435242e-09 4.40723855625189e-09 8.38270958527592e-09 3.2891664299586e-10 9.80771083657711e-11 1.2073335892299e-10
"331" 332 1.51287003455011e-10 2.09000514237372e-10 1.25995828684003e-09 4.41045101772467e-09 8.38270958527592e-09 3.28577027422499e-10 9.80771083657711e-11 1.20916473207684e-10
"332" 333 1.50670416321966e-10 2.11967764434729e-10 1.26389737932764e-09 4.41366347919745e-09 8.38270958527592e-09 3.28237411849138e-10 9.80771083657711e-11 1.21099587492378e-10
"333" 334 1.50053829188921e-10 2.14935014632085e-10 1.26783647181525e-09 4.41687594067023e-09 8.38270958527592e-09 3.27897796275777e-10 9.80771083657711e-11 1.21282701777072e-10
"334" 335 1.49437242055876e-10 2.14199519209217e-10 1.26955664150045e-09 4.42408230896641e-09 8.38160686609733e-09 3.28375208907314e-10 9.83378603654695e-11 1.21282701777072e-10
"335" 336 1.48702820906994e-10 2.13464023786349e-10 1.26833522493246e-09 4.42574352539519e-09 8.38050414691875e-09 3.28375208907314e-10 9.85758614829781e-11 1.21598340609585e-10
"336" 337 1.47968399758111e-10 2.12728528363482e-10 1.26711380836446e-09 4.42740474182396e-09 8.37940142774016e-09 3.28375208907314e-10 9.88138626004866e-11 1.21913979442098e-10
"337" 338 1.47233978609228e-10 2.11993032940614e-10 1.26589239179647e-09 4.42906595825273e-09 8.37829870856158e-09 3.28375208907314e-10 9.90518637179952e-11 1.22229618274611e-10
"338" 339 1.46499557460346e-10 2.11257537517746e-10 1.26467097522848e-09 4.43072717468151e-09 8.37719598938299e-09 3.28375208907314e-10 9.92898648355038e-11 1.22545257107125e-10
"339" 340 1.45765136311463e-10 2.10522042094878e-10 1.26344955866048e-09 4.43238839111028e-09 8.37609327020441e-09 3.28375208907314e-10 9.95278659530123e-11 1.22860895939638e-10
"340" 341 1.45765136311463e-10 2.10522042094878e-10 1.26222814209249e-09 4.42623839662664e-09 8.36680007526217e-09 3.27897796275777e-10 9.95278659530123e-11 1.22860895939638e-10
"341" 342 1.4503071516258e-10 2.06718222451113e-10 1.24274601860476e-09 4.40101804853287e-09 8.31865876038508e-09 3.27897796275777e-10 9.95051150708225e-11 1.23176534772151e-10
"342" 343 1.4503071516258e-10 2.06692953945227e-10 1.24152460203677e-09 4.32730479479951e-09 8.31657219077391e-09 3.28237411849138e-10 9.95051150708225e-11 1.23176534772151e-10
"343" 344 1.4503071516258e-10 2.06667685439342e-10 1.24030318546877e-09 4.25359154106614e-09 8.31448562116273e-09 3.28577027422499e-10 9.95051150708225e-11 1.23176534772151e-10
"344" 345 1.4503071516258e-10 2.06642416933457e-10 1.23908176890078e-09 4.17987828733278e-09 8.31239905155156e-09 3.2891664299586e-10 9.95051150708225e-11 1.23176534772151e-10
"345" 346 1.4503071516258e-10 2.06617148427572e-10 1.23786035233278e-09 4.10616503359941e-09 8.31031248194038e-09 3.29256258569221e-10 9.95051150708225e-11 1.23176534772151e-10
"346" 347 1.4503071516258e-10 2.06591879921686e-10 1.23663893576479e-09 4.03245177986605e-09 8.30822591232921e-09 3.29595874142582e-10 9.95051150708225e-11 1.23176534772151e-10
"347" 348 1.44649796061211e-10 2.06566611415801e-10 1.23349361971141e-09 4.02630178538241e-09 8.30613934271803e-09 3.29935489715943e-10 9.95051150708225e-11 1.23492173604665e-10
"348" 349 1.44268876959842e-10 2.06803353721462e-10 1.23349361971141e-09 4.02735427730921e-09 8.22439442123296e-09 3.30115967745459e-10 9.94823641886327e-11 1.23492173604665e-10
"349" 350 1.44622379007356e-10 2.07065364533008e-10 1.23349361971141e-09 4.03151314120977e-09 8.24134799374758e-09 3.29956830201613e-10 1.00196367541158e-10 1.23359649056845e-10
"350" 351 1.46091221305121e-10 2.07065364533008e-10 1.23349361971141e-09 4.03373197833388e-09 8.18027603175816e-09 3.29956830201613e-10 9.993561554146e-11 1.23227124509025e-10
"351" 352 1.5022649731247e-10 2.08037602261537e-10 1.2347150362794e-09 4.04670344126701e-09 8.11038231634006e-09 3.30137308231128e-10 9.96748635417615e-11 1.23227124509025e-10
"352" 353 1.5436177331982e-10 2.09009839990066e-10 1.23593645284739e-09 4.05967490420014e-09 8.04048860092196e-09 3.30317786260643e-10 9.94141115420631e-11 1.23227124509025e-10
"353" 354 1.58497049327169e-10 2.09982077718594e-10 1.23715786941539e-09 4.07264636713328e-09 7.97059488550386e-09 3.30498264290158e-10 9.91533595423647e-11 1.23227124509025e-10
"354" 355 1.62632325334518e-10 2.08672023660864e-10 1.23827742108329e-09 4.08096409493439e-09 7.98155379828059e-09 3.30678742319674e-10 9.91533595423647e-11 1.23227124509025e-10
"355" 356 1.66414099294354e-10 2.08672023660864e-10 1.23433832859568e-09 4.08977669396697e-09 7.99310302131687e-09 3.30859220349189e-10 9.91533595423647e-11 1.23359649056845e-10
"356" 357 1.7019587325419e-10 2.08672023660864e-10 1.23039923610807e-09 4.09858929299954e-09 8.00465224435316e-09 3.31039698378704e-10 9.91533595423647e-11 1.23492173604665e-10
"357" 358 1.73977647214026e-10 2.08672023660864e-10 1.22646014362046e-09 4.10740189203211e-09 8.01620146738944e-09 3.31220176408219e-10 9.91533595423647e-11 1.23624698152484e-10
"358" 359 1.77759421173862e-10 2.08672023660864e-10 1.22252105113285e-09 4.11621449106469e-09 8.02775069042572e-09 3.31400654437735e-10 9.91533595423647e-11 1.23757222700304e-10
"359" 360 1.81541195133698e-10 2.08672023660864e-10 1.21858195864524e-09 4.12502709009726e-09 8.03929991346201e-09 3.3158113246725e-10 9.91533595423647e-11 1.23889747248124e-10
"360" 361 1.85322969093533e-10 2.08672023660864e-10 1.21464286615764e-09 4.13383968912983e-09 8.05084913649829e-09 3.31761610496765e-10 9.91533595423647e-11 1.24022271795943e-10
"361" 362 1.89104743053369e-10 2.08672023660864e-10 1.21070377367003e-09 4.14265228816241e-09 8.06239835953457e-09 3.3194208852628e-10 9.91533595423647e-11 1.24154796343763e-10
"362" 363 1.92886517013205e-10 2.08672023660864e-10 1.20676468118242e-09 4.15146488719498e-09 8.07394758257086e-09 3.32122566555796e-10 9.91533595423647e-11 1.24287320891582e-10
"363" 364 1.96668290973041e-10 2.08672023660864e-10 1.20282558869481e-09 4.16027748622755e-09 8.08549680560714e-09 3.32303044585311e-10 9.91533595423647e-11 1.24419845439402e-10
"364" 365 2.00450064932877e-10 2.08672023660864e-10 1.1988864962072e-09 4.16909008526013e-09 8.09704602864342e-09 3.32483522614826e-10 9.91533595423647e-11 1.24552369987222e-10
"365" 366 2.04231838892713e-10 2.08672023660864e-10 1.19494740371959e-09 4.1779026842927e-09 8.1085952516797e-09 3.32664000644341e-10 9.91533595423647e-11 1.24684894535041e-10
"366" 367 2.08013612852549e-10 2.08672023660864e-10 1.19100831123198e-09 4.18671528332527e-09 8.12014447471599e-09 3.32844478673857e-10 9.91533595423647e-11 1.24817419082861e-10
"367" 368 2.11795386812384e-10 2.08672023660864e-10 1.18706921874438e-09 4.19552788235785e-09 8.13169369775227e-09 3.33024956703372e-10 9.91533595423647e-11 1.24949943630681e-10
"368" 369 2.1557716077222e-10 2.08672023660864e-10 1.18313012625677e-09 4.20434048139042e-09 8.14324292078855e-09 3.33205434732887e-10 9.91533595423647e-11 1.250824681785e-10
"369" 370 2.20093355880939e-10 2.09382250577846e-10 1.18529811660913e-09 4.21315308042299e-09 8.00054893953048e-09 3.32367066042319e-10 9.89153584248561e-11 1.25398107011013e-10
"370" 371 2.17717424310742e-10 2.10117746000714e-10 1.18719126417786e-09 4.22352080638532e-09 7.99601919407015e-09 3.3270668161568e-10 9.86773573073476e-11 1.24583715061293e-10
"371" 372 2.2223361941946e-10 2.10853241423582e-10 1.18935925453022e-09 4.23710099382043e-09 7.95254977153262e-09 3.32887159645195e-10 9.86773573073476e-11 1.24034372207212e-10
"372" 373 2.22351453435298e-10 2.10878509929467e-10 1.19168004223272e-09 4.28325732717964e-09 8.00830894118605e-09 3.33067637674711e-10 9.89153584248561e-11 1.23169390520618e-10
"373" 374 2.23085874584181e-10 2.10903778435353e-10 1.19262661601709e-09 4.28802491558218e-09 7.95895969418621e-09 3.33725528335764e-10 9.91533595423647e-11 1.23169390520618e-10
"374" 375 2.23820295733063e-10 2.10929046941238e-10 1.19357318980146e-09 4.29279250398471e-09 7.90961044718637e-09 3.34383418996816e-10 9.93913606598733e-11 1.23169390520618e-10
"375" 376 2.24554716881946e-10 2.10954315447123e-10 1.19451976358582e-09 4.29756009238724e-09 7.86026120018652e-09 3.35041309657869e-10 9.96293617773819e-11 1.23169390520618e-10
"376" 377 2.25289138030829e-10 2.10979583953008e-10 1.19546633737019e-09 4.30232768078978e-09 7.81091195318668e-09 3.35699200318922e-10 9.98673628948904e-11 1.23169390520618e-10
"377" 378 2.26023559179711e-10 2.11004852458893e-10 1.19641291115456e-09 4.30709526919231e-09 7.76156270618684e-09 3.36357090979975e-10 1.00105364012399e-10 1.23169390520618e-10
"378" 379 2.26757980328594e-10 2.11030120964779e-10 1.19735948493892e-09 4.31186285759484e-09 7.712213459187e-09 3.37014981641028e-10 1.00343365129908e-10 1.23169390520618e-10
"379" 380 2.27492401477477e-10 2.11055389470664e-10 1.19830605872329e-09 4.31663044599738e-09 7.66286421218715e-09 3.37672872302081e-10 1.00581366247416e-10 1.23169390520618e-10
"380" 381 2.28226822626359e-10 2.11080657976549e-10 1.19925263250766e-09 4.32139803439991e-09 7.61351496518731e-09 3.38330762963133e-10 1.00819367364925e-10 1.23169390520618e-10
"381" 382 2.28961243775242e-10 2.11105926482434e-10 1.20019920629202e-09 4.32616562280244e-09 7.56416571818747e-09 3.38988653624186e-10 1.01057368482433e-10 1.23169390520618e-10
"382" 383 2.29342162876611e-10 2.13151475963033e-10 1.20124764497649e-09 4.32677434730442e-09 7.51534253590848e-09 3.3882951608034e-10 1.01057368482433e-10 1.22620047666537e-10
"383" 384 2.2972308197798e-10 2.15197025443631e-10 1.20229608366095e-09 4.32738307180639e-09 7.46651935362949e-09 3.38670378536495e-10 1.01057368482433e-10 1.22070704812456e-10
"384" 385 2.30104001079349e-10 2.1724257492423e-10 1.20334452234541e-09 4.32799179630837e-09 7.41769617135051e-09 3.38511240992649e-10 1.01057368482433e-10 1.21521361958375e-10
"385" 386 2.30484920180718e-10 2.19288124404828e-10 1.20439296102987e-09 4.32860052081034e-09 7.36887298907152e-09 3.38352103448803e-10 1.01057368482433e-10 1.20972019104294e-10
"386" 387 2.30865839282088e-10 2.21333673885427e-10 1.20544139971433e-09 4.32920924531232e-09 7.32004980679253e-09 3.38192965904957e-10 1.01057368482433e-10 1.20422676250213e-10
"387" 388 2.31246758383457e-10 2.23379223366025e-10 1.20648983839879e-09 4.32981796981429e-09 7.27122662451354e-09 3.38033828361111e-10 1.01057368482433e-10 1.19873333396132e-10
"388" 389 2.31627677484826e-10 2.25424772846623e-10 1.20753827708325e-09 4.33042669431627e-09 7.22240344223456e-09 3.37874690817265e-10 1.01057368482433e-10 1.19323990542051e-10
"389" 390 2.32008596586195e-10 2.27470322327222e-10 1.20858671576771e-09 4.33103541881824e-09 7.17358025995557e-09 3.37715553273419e-10 1.01057368482433e-10 1.1877464768797e-10
"390" 391 2.32389515687564e-10 2.2951587180782e-10 1.20963515445218e-09 4.33164414332022e-09 7.12475707767658e-09 3.37556415729574e-10 1.01057368482433e-10 1.18225304833888e-10
"391" 392 2.32652600773096e-10 2.2951587180782e-10 1.21045968280306e-09 4.33164414332022e-09 7.1470820992049e-09 3.3538092523123e-10 1.00082613130209e-10 1.18357829381708e-10
"392" 393 2.32915685858627e-10 2.2951587180782e-10 1.21128421115394e-09 4.33164414332022e-09 7.16940712073322e-09 3.33205434732887e-10 9.9107857777985e-11 1.18490353929528e-10
"393" 394 2.33178770944158e-10 2.2951587180782e-10 1.21210873950482e-09 4.33164414332022e-09 7.19173214226154e-09 3.31029944234544e-10 9.81331024257609e-11 1.18622878477347e-10
"394" 395 2.3344185602969e-10 2.2951587180782e-10 1.2129332678557e-09 4.33164414332022e-09 7.21405716378986e-09 3.28854453736201e-10 9.71583470735368e-11 1.18755403025167e-10
"395" 396 2.33704941115221e-10 2.2951587180782e-10 1.21375779620658e-09 4.33164414332022e-09 7.23638218531818e-09 3.26678963237858e-10 9.61835917213127e-11 1.18887927572987e-10
"396" 397 2.33968026200752e-10 2.2951587180782e-10 1.21458232455746e-09 4.33164414332022e-09 7.25870720684650e-09 3.24503472739514e-10 9.52088363690885e-11 1.19020452120806e-10
"397" 398 2.34348945302121e-10 2.29777882619366e-10 1.21330997553942e-09 4.33164414332022e-09 7.27714741638133e-09 3.24503472739514e-10 9.52088363690885e-11 1.1933609095332e-10
"398" 399 2.3472986440349e-10 2.30039893430912e-10 1.21203762652138e-09 4.33164414332022e-09 7.29558762591616e-09 3.24503472739514e-10 9.52088363690885e-11 1.19651729785833e-10
"399" 400 2.3511078350486e-10 2.30301904242459e-10 1.21076527750334e-09 4.33164414332022e-09 7.314027835451e-09 3.24503472739514e-10 9.52088363690885e-11 1.19967368618346e-10
"400" 401 2.35491702606229e-10 2.30563915054005e-10 1.2094929284853e-09 4.33164414332022e-09 7.33246804498583e-09 3.24503472739514e-10 9.52088363690885e-11 1.20283007450859e-10
"401" 402 2.35872621707598e-10 2.30825925865551e-10 1.20822057946726e-09 4.33164414332022e-09 7.35090825452067e-09 3.24503472739514e-10 9.52088363690885e-11 1.20598646283373e-10
"402" 403 2.36253540808967e-10 2.31087936677097e-10 1.20694823044922e-09 4.33164414332022e-09 7.3693484640555e-09 3.24503472739514e-10 9.52088363690885e-11 1.20914285115886e-10
"403" 404 2.36634459910336e-10 2.31349947488643e-10 1.20567588143118e-09 4.33164414332022e-09 7.38778867359033e-09 3.24503472739514e-10 9.52088363690885e-11 1.21229923948399e-10
"404" 405 2.37015379011705e-10 2.31375215994528e-10 1.20577774633127e-09 4.33025785535337e-09 7.41130797143958e-09 3.2468395076903e-10 9.52088363690885e-11 1.17820586938896e-10
"405" 406 2.37015379011705e-10 2.31375215994528e-10 1.20046443992553e-09 4.32704539388059e-09 7.43571956257908e-09 3.24864428798545e-10 9.41885792524847e-11 1.17820586938896e-10
"406" 407 2.37368881059219e-10 2.33319691451586e-10 1.19437753761895e-09 4.32549414883658e-09 7.43682228175766e-09 3.25883275518628e-10 9.34063232533895e-11 1.17820586938896e-10
"407" 408 2.37722383106732e-10 2.35264166908643e-10 1.18829063531237e-09 4.32394290379258e-09 7.43792500093625e-09 3.26902122238712e-10 9.26240672542943e-11 1.17820586938896e-10
"408" 409 2.37459298021201e-10 2.35002156097097e-10 1.18215280055574e-09 4.32355800394589e-09 7.46867823572021e-09 3.26742984694866e-10 9.18645621373889e-11 1.18369929792977e-10
"409" 410 2.3719621293567e-10 2.34740145285551e-10 1.17601496579912e-09 4.3231731040992e-09 7.49943147050418e-09 3.2658384715102e-10 9.11050570204835e-11 1.18919272647058e-10
"410" 411 2.36933127850138e-10 2.34478134474005e-10 1.16987713104249e-09 4.32278820425251e-09 7.53018470528814e-09 3.26424709607174e-10 9.03455519035781e-11 1.19468615501139e-10
"411" 412 2.36670042764607e-10 2.34216123662459e-10 1.16373929628587e-09 4.32240330440582e-09 7.5609379400721e-09 3.26265572063328e-10 8.95860467866727e-11 1.2001795835522e-10
"412" 413 2.36406957679076e-10 2.33954112850913e-10 1.1598713167817e-09 4.31996840639792e-09 7.56727958371657e-09 3.25087587799399e-10 8.8872043434147e-11 1.19752909259581e-10
"413" 414 2.36143872593544e-10 2.33692102039366e-10 1.15600333727753e-09 4.31753350839002e-09 7.57362122736104e-09 3.2390960353547e-10 8.81580400816212e-11 1.19487860163942e-10
"414" 415 2.35880787508013e-10 2.3343009122782e-10 1.15213535777336e-09 4.31509861038212e-09 7.57996287100551e-09 3.22731619271541e-10 8.74440367290955e-11 1.19222811068302e-10
"415" 416 2.35617702422482e-10 2.33168080416274e-10 1.14826737826919e-09 4.31266371237422e-09 7.58630451464998e-09 3.21553635007611e-10 8.67300333765698e-11 1.18957761972663e-10
"416" 417 2.3535461733695e-10 2.32906069604728e-10 1.14439939876501e-09 4.31022881436632e-09 7.59264615829445e-09 3.20375650743682e-10 8.60160300240441e-11 1.18692712877024e-10
"417" 418 2.35091532251419e-10 2.32644058793182e-10 1.14053141926084e-09 4.30779391635842e-09 7.59898780193892e-09 3.19197666479753e-10 8.53020266715184e-11 1.18427663781385e-10
"418" 419 2.34828447165888e-10 2.32382047981636e-10 1.13666343975667e-09 4.30535901835052e-09 7.60532944558339e-09 3.18019682215824e-10 8.45880233189927e-11 1.18162614685745e-10
"419" 420 2.34565362080357e-10 2.3212003717009e-10 1.1327954602525e-09 4.30292412034262e-09 7.61167108922786e-09 3.16841697951894e-10 8.3874019966467e-11 1.17897565590106e-10
"420" 421 2.34302276994825e-10 2.31858026358544e-10 1.12892748074833e-09 4.30048922233472e-09 7.61801273287233e-09 3.15663713687965e-10 8.31600166139413e-11 1.17632516494467e-10
"421" 422 2.34039191909294e-10 2.31596015546998e-10 1.12505950124416e-09 4.29805432432682e-09 7.6243543765168e-09 3.14485729424036e-10 8.24460132614156e-11 1.17367467398828e-10
"422" 423 2.33776106823763e-10 2.31334004735451e-10 1.12119152173999e-09 4.29561942631892e-09 7.63069602016127e-09 3.13307745160107e-10 8.17320099088899e-11 1.17102418303188e-10
"423" 424 2.33513021738231e-10 2.31071993923905e-10 1.11732354223582e-09 4.29318452831102e-09 7.63703766380574e-09 3.12129760896178e-10 8.10180065563641e-11 1.16837369207549e-10
"424" 425 2.332499366527e-10 2.30809983112359e-10 1.11345556273165e-09 4.29074963030312e-09 7.64337930745021e-09 3.10951776632248e-10 8.03040032038384e-11 1.1657232011191e-10
"425" 426 2.31518009269403e-10 2.2983774538383e-10 1.11345556273165e-09 4.29313342450438e-09 7.66547062495696e-09 3.10612161058887e-10 8.03267540860283e-11 1.17437301798504e-10
"426" 427 2.31518009269403e-10 2.29076981455077e-10 1.11208134881352e-09 4.30006486433865e-09 7.64573092615703e-09 3.10973117117918e-10 8.03495049682181e-11 1.17304777250685e-10
"427" 428 2.32134596402448e-10 2.28316217526324e-10 1.10976056111101e-09 4.31984615006402e-09 7.61694942570866e-09 3.10156088913019e-10 8.03495049682181e-11 1.16989138418171e-10
"428" 429 2.3201676238661e-10 2.28316217526324e-10 1.11657012686838e-09 4.31984615006402e-09 7.60713419951599e-09 3.09498198251966e-10 8.01115038507095e-11 1.16989138418171e-10
"429" 430 2.31898928370772e-10 2.28316217526324e-10 1.12337969262574e-09 4.31984615006402e-09 7.59731897332332e-09 3.08840307590913e-10 7.9873502733201e-11 1.16989138418171e-10
"430" 431 2.31781094354935e-10 2.28316217526324e-10 1.13018925838311e-09 4.31984615006402e-09 7.58750374713065e-09 3.0818241692986e-10 7.96355016156924e-11 1.16989138418171e-10
"431" 432 2.31663260339097e-10 2.28316217526324e-10 1.13699882414047e-09 4.31984615006402e-09 7.57768852093798e-09 3.07524526268808e-10 7.93975004981838e-11 1.16989138418171e-10
"432" 433 2.31545426323259e-10 2.28316217526324e-10 1.14380838989784e-09 4.31984615006402e-09 7.56787329474531e-09 3.06866635607755e-10 7.91594993806753e-11 1.16989138418171e-10
"433" 434 2.31427592307421e-10 2.28316217526324e-10 1.1506179556552e-09 4.31984615006402e-09 7.55805806855264e-09 3.06208744946702e-10 7.89214982631667e-11 1.16989138418171e-10
"434" 435 2.31309758291583e-10 2.28316217526324e-10 1.15742752141257e-09 4.31984615006402e-09 7.54824284235996e-09 3.05550854285649e-10 7.86834971456581e-11 1.16989138418171e-10
"435" 436 2.31191924275745e-10 2.28316217526324e-10 1.16423708716993e-09 4.31984615006402e-09 7.53842761616729e-09 3.04892963624596e-10 7.84454960281496e-11 1.16989138418171e-10
"436" 437 2.31074090259908e-10 2.28316217526324e-10 1.1710466529273e-09 4.31984615006402e-09 7.52861238997462e-09 3.04235072963543e-10 7.8207494910641e-11 1.16989138418171e-10
"437" 438 2.3095625624407e-10 2.28316217526324e-10 1.17785621868466e-09 4.31984615006402e-09 7.51879716378195e-09 3.03577182302491e-10 7.79694937931324e-11 1.16989138418171e-10
"438" 439 2.30838422228232e-10 2.28316217526324e-10 1.18466578444203e-09 4.31984615006402e-09 7.50898193758928e-09 3.02919291641438e-10 7.77314926756239e-11 1.16989138418171e-10
"439" 440 2.30720588212394e-10 2.28316217526324e-10 1.19147535019939e-09 4.31984615006402e-09 7.4991667113966e-09 3.02261400980385e-10 7.74934915581153e-11 1.16989138418171e-10
"440" 441 2.30602754196556e-10 2.28316217526324e-10 1.19828491595676e-09 4.31984615006402e-09 7.48935148520393e-09 3.01603510319332e-10 7.72554904406067e-11 1.16989138418171e-10
"441" 442 2.30484920180718e-10 2.28316217526324e-10 1.20509448171412e-09 4.31984615006402e-09 7.47953625901126e-09 3.00945619658279e-10 7.70174893230981e-11 1.16989138418171e-10
"442" 443 2.30367086164881e-10 2.28316217526324e-10 1.21190404747149e-09 4.31984615006402e-09 7.46972103281859e-09 3.00287728997226e-10 7.67794882055896e-11 1.16989138418171e-10
"443" 444 2.30249252149043e-10 2.28316217526324e-10 1.21871361322886e-09 4.31984615006402e-09 7.45990580662592e-09 2.99629838336173e-10 7.6541487088081e-11 1.16989138418171e-10
"444" 445 2.30131418133205e-10 2.28316217526324e-10 1.22552317898622e-09 4.31984615006402e-09 7.45009058043325e-09 2.98971947675121e-10 7.63034859705724e-11 1.16989138418171e-10
"445" 446 2.30013584117367e-10 2.28316217526324e-10 1.23233274474359e-09 4.31984615006402e-09 7.44027535424058e-09 2.98314057014068e-10 7.60654848530639e-11 1.16989138418171e-10
"446" 447 2.29895750101529e-10 2.28316217526324e-10 1.23914231050095e-09 4.31984615006402e-09 7.4304601280479e-09 2.97656166353015e-10 7.58274837355553e-11 1.16989138418171e-10
"447" 448 2.29777916085691e-10 2.28316217526324e-10 1.24595187625832e-09 4.31984615006402e-09 7.42064490185523e-09 2.96998275691962e-10 7.55894826180467e-11 1.16989138418171e-10
"448" 449 2.30041001171223e-10 2.28265680514554e-10 1.24457766234018e-09 4.3682329662046e-09 7.42064490185523e-09 2.97359231750993e-10 7.55894826180467e-11 1.16856613870352e-10
"449" 450 2.30041001171223e-10 2.27242905774255e-10 1.24225687463768e-09 4.3666817211606e-09 7.39186340140687e-09 2.96542203546094e-10 7.55894826180467e-11 1.16724089322532e-10
"450" 451 2.30041001171223e-10 2.28426617302559e-10 1.24876084569476e-09 4.3635242453802e-09 7.356584454633e-09 2.95725175341195e-10 7.56122335002366e-11 1.16724089322532e-10
"451" 452 2.30158835187061e-10 2.29610328830863e-10 1.25526481675184e-09 4.35576802016018e-09 7.35008700830748e-09 2.95725175341195e-10 7.56349843824264e-11 1.16724089322532e-10
"452" 453 2.2763765254717e-10 2.31816815099467e-10 1.26314300172706e-09 4.34567910454552e-09 7.34768479986379e-09 2.95385559767834e-10 7.58957363821248e-11 1.17039728155045e-10
"453" 454 2.27374567461639e-10 2.3378655906241e-10 1.26314300172706e-09 4.33559018893086e-09 7.3232732087243e-09 2.95385559767834e-10 7.51362312652194e-11 1.17355366987559e-10
"454" 455 2.27111482376107e-10 2.35756303025352e-10 1.26314300172706e-09 4.3255012733162e-09 7.29886161758481e-09 2.95385559767834e-10 7.4376726148314e-11 1.17671005820072e-10
"455" 456 2.26848397290576e-10 2.37726046988295e-10 1.26314300172706e-09 4.31541235770155e-09 7.27445002644531e-09 2.95385559767834e-10 7.36172210314086e-11 1.17986644652585e-10
"456" 457 2.26585312205045e-10 2.39695790951238e-10 1.26314300172706e-09 4.30532344208689e-09 7.25003843530582e-09 2.95385559767834e-10 7.28577159145032e-11 1.18302283485099e-10
"457" 458 2.26585312205045e-10 2.41902277219841e-10 1.27196776048664e-09 4.29523452647223e-09 7.15133994130613e-09 2.95226422223988e-10 7.31184679142016e-11 1.17487891535378e-10
"458" 459 2.26585312205045e-10 2.44108763488445e-10 1.28079251924623e-09 4.28514561085757e-09 7.05264144730645e-09 2.95067284680142e-10 7.33792199139001e-11 1.16673499585658e-10
"459" 460 2.26585312205045e-10 2.46315249757048e-10 1.28961727800581e-09 4.27505669524291e-09 6.95394295330676e-09 2.94908147136296e-10 7.36399719135985e-11 1.15859107635938e-10
"460" 461 2.26585312205045e-10 2.46239444239393e-10 1.28604432181866e-09 4.25666169748439e-09 6.82081280494755e-09 2.94749009592451e-10 7.39007239132969e-11 1.16174746468451e-10
"461" 462 2.26585312205045e-10 2.47473692779467e-10 1.29098092054068e-09 4.25533039520992e-09 6.80896159888058e-09 2.92233903520746e-10 7.41614759129953e-11 1.16490385300964e-10
"462" 463 2.26585312205045e-10 2.48707941319542e-10 1.2959175192627e-09 4.25399909293545e-09 6.7971103928136e-09 2.89718797449042e-10 7.44222279126937e-11 1.16806024133478e-10
"463" 464 2.27728069509152e-10 2.47735703591014e-10 1.29612124906289e-09 4.25266779066098e-09 6.78903878579594e-09 2.87543306950699e-10 7.46829799123921e-11 1.16806024133478e-10
"464" 465 2.2887082681326e-10 2.46763465862485e-10 1.29632497886308e-09 4.25133648838651e-09 6.78096717877829e-09 2.85367816452356e-10 7.49437319120905e-11 1.16806024133478e-10
"465" 466 2.2887082681326e-10 2.46053238945502e-10 1.2926607291591e-09 4.2895677575628e-09 6.95233185867957e-09 2.82852710380651e-10 7.49437319120905e-11 1.17671005820072e-10
"466" 467 2.2887082681326e-10 2.4534301202852e-10 1.28899647945512e-09 4.32779902673908e-09 7.12369653858085e-09 2.80337604308947e-10 7.49437319120905e-11 1.18535987506666e-10
"467" 468 2.2887082681326e-10 2.44632785111537e-10 1.28533222975114e-09 4.36603029591537e-09 7.29506121848213e-09 2.77822498237243e-10 7.49437319120905e-11 1.19400969193261e-10
"468" 469 2.2887082681326e-10 2.43922558194554e-10 1.28166798004715e-09 4.40426156509165e-09 7.46642589838342e-09 2.75307392165538e-10 7.49437319120905e-11 1.20265950879855e-10
"469" 470 2.2887082681326e-10 2.43212331277572e-10 1.27800373034317e-09 4.44249283426794e-09 7.6377905782847e-09 2.72792286093834e-10 7.49437319120905e-11 1.21130932566449e-10
"470" 471 2.2887082681326e-10 2.42502104360589e-10 1.27433948063919e-09 4.48072410344422e-09 7.80915525818598e-09 2.7027718002213e-10 7.49437319120905e-11 1.21995914253044e-10
"471" 472 2.2887082681326e-10 2.41791877443607e-10 1.27067523093521e-09 4.51895537262051e-09 7.98051993808727e-09 2.67762073950426e-10 7.49437319120905e-11 1.22860895939638e-10
"472" 473 2.2887082681326e-10 2.41081650526624e-10 1.26701098123123e-09 4.55718664179679e-09 8.15188461798855e-09 2.65246967878721e-10 7.49437319120905e-11 1.23725877626232e-10
"473" 474 2.2887082681326e-10 2.40371423609641e-10 1.26334673152725e-09 4.59541791097308e-09 8.32324929788983e-09 2.62731861807017e-10 7.49437319120905e-11 1.24590859312827e-10
"474" 475 2.28988660829098e-10 2.40633434421187e-10 1.26252220317637e-09 4.63459170069139e-09 8.50226473303209e-09 2.62572724263171e-10 7.4705730794582e-11 1.25455840999421e-10
"475" 476 2.28988660829098e-10 2.40633434421187e-10 1.26247127072632e-09 4.67415427214215e-09 8.66575457600223e-09 2.60057618191467e-10 7.44449787948835e-11 1.26320822686015e-10
"476" 477 2.29106494844935e-10 2.40895445232734e-10 1.25633343596969e-09 4.71316310478331e-09 8.84897046197048e-09 2.58879633927538e-10 7.44449787948835e-11 1.2718580437261e-10
"477" 478 2.29224328860773e-10 2.4115745604428e-10 1.25019560121307e-09 4.75217193742447e-09 9.03218634793874e-09 2.57701649663608e-10 7.44449787948835e-11 1.28050786059204e-10
"478" 479 2.29342162876611e-10 2.41419466855826e-10 1.24405776645644e-09 4.79118077006563e-09 9.21540223390699e-09 2.56523665399679e-10 7.44449787948835e-11 1.28915767745798e-10
"479" 480 2.29459996892449e-10 2.41681477667372e-10 1.23791993169982e-09 4.8301896027068e-09 9.39861811987525e-09 2.5534568113575e-10 7.44449787948835e-11 1.29780749432393e-10
"480" 481 2.29577830908287e-10 2.41943488478918e-10 1.23178209694319e-09 4.86919843534796e-09 9.58183400584351e-09 2.54167696871821e-10 7.44449787948835e-11 1.30645731118987e-10
"481" 482 2.29695664924124e-10 2.42205499290464e-10 1.22564426218657e-09 4.90820726798912e-09 9.76504989181176e-09 2.52989712607891e-10 7.44449787948835e-11 1.31510712805581e-10
"482" 483 2.29813498939962e-10 2.4246751010201e-10 1.21950642742994e-09 4.94721610063028e-09 9.94826577778002e-09 2.51811728343962e-10 7.44449787948835e-11 1.32375694492176e-10
"483" 484 2.299313329558e-10 2.42729520913556e-10 1.21336859267331e-09 4.98622493327145e-09 1.01314816637483e-08 2.50633744080033e-10 7.44449787948835e-11 1.3324067617877e-10
"484" 485 2.299313329558e-10 2.42729520913556e-10 1.20728169036674e-09 4.98605997619430e-09 1.01667606105221e-08 2.4961489735995e-10 7.44449787948835e-11 1.3324067617877e-10
"485" 486 2.299313329558e-10 2.42729520913556e-10 1.20308793562889e-09 4.9855062373847e-09 1.01688471801333e-08 2.50952019167725e-10 7.46829799123921e-11 1.3324067617877e-10
"486" 487 2.299313329558e-10 2.42729520913556e-10 1.19889418089105e-09 4.98495249857511e-09 1.01709337497445e-08 2.522891409755e-10 7.49209810299007e-11 1.3324067617877e-10
"487" 488 2.299313329558e-10 2.42729520913556e-10 1.1947004261532e-09 4.98439875976552e-09 1.01730203193557e-08 2.53626262783275e-10 7.51589821474093e-11 1.3324067617877e-10
"488" 489 2.299313329558e-10 2.42729520913556e-10 1.19050667141536e-09 4.98384502095593e-09 1.01751068889668e-08 2.5496338459105e-10 7.53969832649178e-11 1.3324067617877e-10
"489" 490 2.299313329558e-10 2.42729520913556e-10 1.18631291667751e-09 4.98329128214634e-09 1.0177193458578e-08 2.56300506398825e-10 7.56349843824264e-11 1.3324067617877e-10
"490" 491 2.299313329558e-10 2.42729520913556e-10 1.18211916193967e-09 4.98273754333675e-09 1.01792800281892e-08 2.576376282066e-10 7.5872985499935e-11 1.3324067617877e-10
"491" 492 2.299313329558e-10 2.42729520913556e-10 1.17792540720182e-09 4.98218380452716e-09 1.01813665978004e-08 2.58974750014375e-10 7.61109866174435e-11 1.3324067617877e-10
"492" 493 2.299313329558e-10 2.42729520913556e-10 1.17373165246398e-09 4.98163006571757e-09 1.01834531674115e-08 2.6031187182215e-10 7.63489877349521e-11 1.3324067617877e-10
"493" 494 2.299313329558e-10 2.42729520913556e-10 1.16953789772613e-09 4.98107632690798e-09 1.01855397370227e-08 2.61648993629925e-10 7.65869888524607e-11 1.3324067617877e-10
"494" 495 2.299313329558e-10 2.42729520913556e-10 1.16534414298829e-09 4.98052258809838e-09 1.01876263066339e-08 2.629861154377e-10 7.68249899699693e-11 1.3324067617877e-10
"495" 496 2.299313329558e-10 2.42729520913556e-10 1.16115038825044e-09 4.97996884928879e-09 1.01897128762451e-08 2.64323237245476e-10 7.70629910874778e-11 1.3324067617877e-10
"496" 497 2.299313329558e-10 2.42729520913556e-10 1.1569566335126e-09 4.9794151104792e-09 1.01917994458562e-08 2.65660359053251e-10 7.73009922049864e-11 1.3324067617877e-10
"497" 498 2.27292316300072e-10 2.41706746173257e-10 1.13393230575437e-09 4.97808380820473e-09 1.01927832962888e-08 2.67835849551594e-10 7.7538993322495e-11 1.32925037346257e-10
"498" 499 2.26911397198703e-10 2.41706746173257e-10 1.12999321326676e-09 4.97647757746834e-09 1.01038454052745e-08 2.6837728364014e-10 7.75162424403051e-11 1.32925037346257e-10
"499" 500 2.26530478097333e-10 2.41706746173257e-10 1.12605412077916e-09 4.97487134673196e-09 1.00149075142602e-08 2.68918717728685e-10 7.74934915581153e-11 1.32925037346257e-10
"500" 501 2.26149558995964e-10 2.41706746173257e-10 1.12211502829155e-09 4.97326511599557e-09 9.9259696232459e-09 2.69460151817231e-10 7.74707406759254e-11 1.32925037346257e-10
"501" 502 2.25768639894595e-10 2.41706746173257e-10 1.11817593580394e-09 4.97165888525918e-09 9.83703173223159e-09 2.70001585905777e-10 7.74479897937356e-11 1.32925037346257e-10
"502" 503 2.25387720793226e-10 2.41706746173257e-10 1.11423684331633e-09 4.97005265452279e-09 9.74809384121728e-09 2.70543019994323e-10 7.74252389115457e-11 1.32925037346257e-10
"503" 504 2.25006801691857e-10 2.41706746173257e-10 1.11029775082872e-09 4.9684464237864e-09 9.65915595020297e-09 2.71084454082868e-10 7.74024880293559e-11 1.32925037346257e-10
"504" 505 2.24888967676019e-10 2.40734508444728e-10 1.1122418308475e-09 4.95835750817174e-09 9.61978176554726e-09 2.71084454082868e-10 7.76404891468645e-11 1.32741923061563e-10
"505" 506 2.24888967676019e-10 2.397622707162e-10 1.1133613825154e-09 4.91225616050491e-09 9.52106558227533e-09 2.69970491275947e-10 7.76404891468645e-11 1.32558808776869e-10
"506" 507 2.25006801691857e-10 2.39026775293332e-10 1.11325951761531e-09 4.87391103805811e-09 9.47716165215929e-09 2.66500559941168e-10 7.74024880293559e-11 1.32691333324689e-10
"507" 508 2.25124635707695e-10 2.38291279870464e-10 1.11315765271521e-09 4.83556591561131e-09 9.43325772204325e-09 2.63030628606388e-10 7.71644869118473e-11 1.32823857872509e-10
"508" 509 2.2638522702764e-10 2.38341816882234e-10 1.11233312436433e-09 4.89304802301788e-09 9.33334726245039e-09 2.59741175301124e-10 7.71872377940372e-11 1.32640743587815e-10
"509" 510 2.27645818347585e-10 2.38392353894005e-10 1.11150859601345e-09 4.95053013042445e-09 9.23343680285752e-09 2.5645172199586e-10 7.7209988676227e-11 1.32457629303121e-10
"510" 511 2.28906409667531e-10 2.38442890905775e-10 1.11068406766257e-09 5.00801223783102e-09 9.13352634326466e-09 2.53162268690596e-10 7.72327395584169e-11 1.32274515018428e-10
"511" 512 2.30167000987476e-10 2.38493427917546e-10 1.10985953931169e-09 5.06549434523759e-09 9.03361588367180e-09 2.49872815385331e-10 7.72554904406067e-11 1.32091400733734e-10
"512" 513 2.31427592307421e-10 2.39279460352184e-10 1.10372170455506e-09 5.14613903880522e-09 9.03420619393135e-09 2.50053293414847e-10 7.75162424403051e-11 1.32091400733734e-10
"513" 514 2.32570349611529e-10 2.40302235092483e-10 1.09783853204867e-09 5.12480262615009e-09 8.9552473987316e-09 2.47877802916503e-10 7.68022390877794e-11 1.32091400733734e-10
"514" 515 2.33713106915636e-10 2.41325009832783e-10 1.09195535954228e-09 5.10346621349496e-09 8.87628860353185e-09 2.4570231241816e-10 7.60882357352537e-11 1.32091400733734e-10
"515" 516 2.34855864219743e-10 2.42347784573082e-10 1.08607218703589e-09 5.08212980083983e-09 8.7973298083321e-09 2.43526821919817e-10 7.5374232382728e-11 1.32091400733734e-10
"516" 517 2.35998621523851e-10 2.43370559313381e-10 1.0801890145295e-09 5.06079338818470e-09 8.71837101313236e-09 2.41351331421474e-10 7.46602290302023e-11 1.32091400733734e-10
"517" 518 2.37141378827958e-10 2.4439333405368e-10 1.07430584202312e-09 5.03945697552956e-09 8.63941221793261e-09 2.39175840923131e-10 7.39462256776766e-11 1.32091400733734e-10
"518" 519 2.38284136132066e-10 2.45416108793979e-10 1.06842266951673e-09 5.01812056287443e-09 8.56045342273286e-09 2.37000350424787e-10 7.32322223251509e-11 1.32091400733734e-10
"519" 520 2.39426893436173e-10 2.46438883534279e-10 1.06253949701034e-09 4.9967841502193e-09 8.48149462753311e-09 2.34824859926444e-10 7.25182189726252e-11 1.32091400733734e-10
"520" 521 2.43825254529054e-10 2.47411121262807e-10 1.05860040452273e-09 4.91648101646322e-09 8.40761492064778e-09 2.32649369428101e-10 7.1543463620401e-11 1.33221431515968e-10
"521" 522 2.48223615621935e-10 2.48383358991336e-10 1.05466131203512e-09 4.83617788270715e-09 8.33373521376245e-09 2.30473878929758e-10 7.05687082681769e-11 1.34351462298201e-10
"522" 523 2.48105781606097e-10 2.5058984525994e-10 1.04960266787961e-09 4.71286424571501e-09 8.26573533133943e-09 2.27958772858054e-10 6.98319540334614e-11 1.34667101130714e-10
"523" 524 2.47987947590259e-10 2.52796331528543e-10 1.0445440237241e-09 4.58955060872286e-09 8.19773544891641e-09 2.25443666786349e-10 6.90951997987458e-11 1.34982739963228e-10
"524" 525 2.47870113574421e-10 2.55002817797147e-10 1.0394853795686e-09 4.46623697173072e-09 8.12973556649339e-09 2.22928560714645e-10 6.83584455640302e-11 1.35298378795741e-10
"525" 526 2.47752279558583e-10 2.5720930406575e-10 1.03442673541309e-09 4.34292333473858e-09 8.06173568407037e-09 2.20413454642941e-10 6.76216913293147e-11 1.35614017628254e-10
"526" 527 2.47634445542746e-10 2.59415790334354e-10 1.02936809125758e-09 4.21960969774643e-09 7.99373580164735e-09 2.17898348571236e-10 6.68849370945991e-11 1.35929656460768e-10
"527" 528 2.47634445542746e-10 2.60650038874429e-10 1.02159177118246e-09 4.21988462620835e-09 7.99373580164735e-09 2.17898348571236e-10 6.68849370945991e-11 1.35929656460768e-10
"528" 529 2.47634445542746e-10 2.61884287414504e-10 1.01381545110733e-09 4.22015955467027e-09 7.99373580164735e-09 2.17898348571236e-10 6.68849370945991e-11 1.35929656460768e-10
"529" 530 2.46900024393863e-10 2.63854031377446e-10 1.01458904700817e-09 4.22182077109905e-09 7.98117541657483e-09 2.17898348571236e-10 6.68849370945991e-11 1.36062181008587e-10
"530" 531 2.4616560324498e-10 2.65823775340389e-10 1.015362642909e-09 4.22348198752782e-09 7.96861503150231e-09 2.17898348571236e-10 6.68849370945991e-11 1.36194705556407e-10
"531" 532 2.45431182096098e-10 2.67793519303332e-10 1.01613623880984e-09 4.22514320395659e-09 7.95605464642979e-09 2.17898348571236e-10 6.68849370945991e-11 1.36327230104227e-10
"532" 533 2.44696760947215e-10 2.69763263266274e-10 1.01690983471067e-09 4.22680442038537e-09 7.94349426135727e-09 2.17898348571236e-10 6.68849370945991e-11 1.36459754652046e-10
"533" 534 2.43962339798332e-10 2.71733007229217e-10 1.0176834306115e-09 4.22846563681414e-09 7.93093387628474e-09 2.17898348571236e-10 6.68849370945991e-11 1.36592279199866e-10
"534" 535 2.4322791864945e-10 2.7370275119216e-10 1.01845702651234e-09 4.23012685324291e-09 7.91837349121222e-09 2.17898348571236e-10 6.68849370945991e-11 1.36724803747685e-10
"535" 536 2.42493497500567e-10 2.75672495155102e-10 1.01923062241317e-09 4.23178806967169e-09 7.9058131061397e-09 2.17898348571236e-10 6.68849370945991e-11 1.36857328295505e-10
"536" 537 2.41759076351684e-10 2.77642239118045e-10 1.02000421831401e-09 4.23344928610046e-09 7.89325272106718e-09 2.17898348571236e-10 6.68849370945991e-11 1.36989852843325e-10
"537" 538 2.41024655202802e-10 2.79611983080988e-10 1.02077781421484e-09 4.23511050252923e-09 7.88069233599466e-09 2.17898348571236e-10 6.68849370945991e-11 1.37122377391144e-10
"538" 539 2.40290234053919e-10 2.8158172704393e-10 1.02155141011568e-09 4.23677171895801e-09 7.86813195092214e-09 2.17898348571236e-10 6.68849370945991e-11 1.37254901938964e-10
"539" 540 2.39555812905036e-10 2.83551471006873e-10 1.02232500601651e-09 4.23843293538678e-09 7.85557156584962e-09 2.17898348571236e-10 6.68849370945991e-11 1.37387426486784e-10
"540" 541 2.38821391756154e-10 2.85521214969816e-10 1.02309860191734e-09 4.24009415181555e-09 7.84301118077709e-09 2.17898348571236e-10 6.68849370945991e-11 1.37519951034603e-10
"541" 542 2.38086970607271e-10 2.87490958932759e-10 1.02387219781818e-09 4.24175536824433e-09 7.83045079570457e-09 2.17898348571236e-10 6.68849370945991e-11 1.37652475582423e-10
"542" 543 2.38086970607271e-10 2.88276991367397e-10 1.0276892448723e-09 4.2423640927463e-09 7.80634118759577e-09 2.17898348571236e-10 6.68849370945991e-11 1.37469361297729e-10
"543" 544 2.37470383474226e-10 2.88040249061736e-10 1.03654475554854e-09 4.24557655421908e-09 7.78303231563486e-09 2.18057486115082e-10 6.66469359770906e-11 1.37469361297729e-10
"544" 545 2.36853796341182e-10 2.87803506756075e-10 1.04540026622478e-09 4.24878901569186e-09 7.75972344367395e-09 2.18216623658928e-10 6.6408934859582e-11 1.37469361297729e-10
"545" 546 2.36237209208137e-10 2.87566764450414e-10 1.05425577690102e-09 4.25200147716463e-09 7.73641457171304e-09 2.18375761202774e-10 6.61709337420734e-11 1.37469361297729e-10
"546" 547 2.35620622075092e-10 2.87330022144753e-10 1.06311128757726e-09 4.25521393863741e-09 7.71310569975213e-09 2.1853489874662e-10 6.59329326245649e-11 1.37469361297729e-10
"547" 548 2.35004034942047e-10 2.87093279839093e-10 1.0719667982535e-09 4.25842640011019e-09 7.68979682779123e-09 2.18694036290466e-10 6.56949315070563e-11 1.37469361297729e-10
"548" 549 2.35121868957885e-10 2.86856537533432e-10 1.08109715171337e-09 4.2599776451542e-09 7.69070277688329e-09 2.18513558260951e-10 6.54569303895477e-11 1.37469361297729e-10
"549" 550 2.34858783872354e-10 2.86856537533432e-10 1.08386576008303e-09 4.26036254500088e-09 7.656526549288e-09 2.16157589733092e-10 6.54569303895477e-11 1.37652475582423e-10
"550" 551 2.34595698786822e-10 2.86856537533432e-10 1.08663436845269e-09 4.26074744484757e-09 7.62235032169271e-09 2.13801621205234e-10 6.54569303895477e-11 1.37835589867117e-10
"551" 552 2.34332613701291e-10 2.86856537533432e-10 1.08940297682236e-09 4.26113234469426e-09 7.58817409409742e-09 2.11445652677375e-10 6.54569303895477e-11 1.3801870415181e-10
"552" 553 2.3406952861576e-10 2.86856537533432e-10 1.09217158519202e-09 4.26151724454095e-09 7.55399786650213e-09 2.09089684149517e-10 6.54569303895477e-11 1.38201818436504e-10
"553" 554 2.33806443530228e-10 2.86856537533432e-10 1.09494019356168e-09 4.26190214438764e-09 7.51982163890684e-09 2.06733715621658e-10 6.54569303895477e-11 1.38384932721198e-10
"554" 555 2.33543358444697e-10 2.86856537533432e-10 1.09770880193134e-09 4.26228704423433e-09 7.48564541131155e-09 2.043777470938e-10 6.54569303895477e-11 1.38568047005891e-10
"555" 556 2.33280273359166e-10 2.86856537533432e-10 1.100477410301e-09 4.26267194408102e-09 7.45146918371626e-09 2.02021778565942e-10 6.54569303895477e-11 1.38751161290585e-10
"556" 557 2.33017188273634e-10 2.86856537533432e-10 1.10324601867067e-09 4.2630568439277e-09 7.41729295612096e-09 1.99665810038083e-10 6.54569303895477e-11 1.38934275575279e-10
"557" 558 2.32754103188103e-10 2.86856537533432e-10 1.10601462704033e-09 4.26344174377439e-09 7.38311672852567e-09 1.97309841510225e-10 6.54569303895477e-11 1.39117389859972e-10
"558" 559 2.32491018102572e-10 2.86856537533432e-10 1.10878323540999e-09 4.26382664362108e-09 7.34894050093038e-09 1.94953872982366e-10 6.54569303895477e-11 1.39300504144666e-10
"559" 560 2.3222793301704e-10 2.86856537533432e-10 1.11155184377965e-09 4.26421154346777e-09 7.31476427333509e-09 1.92597904454508e-10 6.54569303895477e-11 1.3948361842936e-10
"560" 561 2.32345767032878e-10 2.85833762793132e-10 1.12040735445589e-09 4.26216154530656e-09 7.30936954618816e-09 1.92597904454508e-10 6.51961783898493e-11 1.3935109388154e-10
"561" 562 2.32463601048716e-10 2.84810988052833e-10 1.12926286513213e-09 4.26011154714535e-09 7.30397481904123e-09 1.92597904454508e-10 6.49354263901509e-11 1.3921856933372e-10
"562" 563 2.32581435064554e-10 2.83788213312534e-10 1.13811837580837e-09 4.25806154898414e-09 7.2985800918943e-09 1.92597904454508e-10 6.46746743904525e-11 1.39086044785901e-10
"563" 564 2.33315856213436e-10 2.83002180877896e-10 1.13811837580837e-09 4.27124907280105e-09 7.30137584051103e-09 1.92778382484023e-10 6.44139223907541e-11 1.38770405953387e-10
"564" 565 2.34050277362319e-10 2.82216148443257e-10 1.13811837580837e-09 4.28443659661797e-09 7.30417158912775e-09 1.92958860513538e-10 6.41531703910557e-11 1.38454767120874e-10
"565" 566 2.34168111378157e-10 2.81430116008619e-10 1.13879010680911e-09 4.30605570150652e-09 7.31740018580035e-09 1.92958860513538e-10 6.41531703910557e-11 1.38454767120874e-10
"566" 567 2.34285945393995e-10 2.80644083573981e-10 1.13946183780985e-09 4.32767480639508e-09 7.33062878247294e-09 1.92958860513538e-10 6.41531703910557e-11 1.38454767120874e-10
"567" 568 2.34403779409833e-10 2.79858051139342e-10 1.14013356881059e-09 4.34929391128363e-09 7.34385737914554e-09 1.92958860513538e-10 6.41531703910557e-11 1.38454767120874e-10
"568" 569 2.32671852026536e-10 2.79122555716475e-10 1.14013356881059e-09 4.36836426489376e-09 7.36338665205714e-09 1.9060289198568e-10 6.41759212732455e-11 1.37905424266793e-10
"569" 570 2.30939924643239e-10 2.78387060293607e-10 1.14013356881059e-09 4.3874346185039e-09 7.38291592496873e-09 1.88246923457821e-10 6.41986721554353e-11 1.37356081412712e-10
"570" 571 2.29207997259943e-10 2.77651564870739e-10 1.14013356881059e-09 4.40650497211403e-09 7.40244519788033e-09 1.85890954929963e-10 6.42214230376252e-11 1.36806738558631e-10
"571" 572 2.27476069876646e-10 2.76916069447871e-10 1.14013356881059e-09 4.42557532572417e-09 7.42197447079192e-09 1.83534986402105e-10 6.4244173919815e-11 1.3625739570455e-10
"572" 573 2.2574414249335e-10 2.76180574025003e-10 1.14013356881059e-09 4.4446456793343e-09 7.44150374370352e-09 1.81179017874246e-10 6.42669248020049e-11 1.35708052850469e-10
"573" 574 2.24012215110053e-10 2.75445078602135e-10 1.14013356881059e-09 4.46371603294443e-09 7.46103301661511e-09 1.78823049346388e-10 6.42896756841947e-11 1.35158709996388e-10
"574" 575 2.22280287726756e-10 2.74709583179267e-10 1.14013356881059e-09 4.48278638655457e-09 7.48056228952671e-09 1.76467080818529e-10 6.43124265663846e-11 1.34609367142307e-10
"575" 576 2.20430526327622e-10 2.73737345450739e-10 1.14150778272873e-09 4.48938014846303e-09 7.52319404198129e-09 1.74111112290671e-10 6.43351774485744e-11 1.33927499740406e-10
"576" 577 2.18580764928488e-10 2.7276510772221e-10 1.14288199664686e-09 4.49597391037149e-09 7.56582579443588e-09 1.71755143762812e-10 6.43579283307642e-11 1.33245632338506e-10
"577" 578 2.17111922630722e-10 2.71792869993681e-10 1.15106577632236e-09 4.56546166885466e-09 7.56593100738005e-09 1.69240037691108e-10 6.41199272132557e-11 1.32696289484425e-10
"578" 579 2.15643080332957e-10 2.70820632265152e-10 1.15924955599786e-09 4.63494942733783e-09 7.56603622032422e-09 1.66724931619404e-10 6.38819260957471e-11 1.32146946630343e-10
"579" 580 2.14174238035192e-10 2.69848394536624e-10 1.16743333567336e-09 4.704437185821e-09 7.56614143326839e-09 1.642098255477e-10 6.36439249782385e-11 1.31597603776262e-10
"580" 581 2.12705395737426e-10 2.68876156808095e-10 1.17561711534887e-09 4.77392494430418e-09 7.56624664621256e-09 1.61694719475995e-10 6.340592386073e-11 1.31048260922181e-10
"581" 582 2.11236553439661e-10 2.67903919079566e-10 1.18380089502437e-09 4.84341270278735e-09 7.56635185915673e-09 1.59179613404291e-10 6.31679227432214e-11 1.304989180681e-10
"582" 583 2.09767711141896e-10 2.66931681351038e-10 1.19198467469987e-09 4.91290046127052e-09 7.5664570721009e-09 1.56664507332587e-10 6.29299216257128e-11 1.29949575214019e-10
"583" 584 2.09414209094382e-10 2.66931681351038e-10 1.20089111782615e-09 4.98698696919332e-09 7.5664570721009e-09 1.56324891759226e-10 6.29299216257128e-11 1.30265214046533e-10
"584" 585 2.09060707046869e-10 2.66931681351038e-10 1.20979756095244e-09 5.06107347711613e-09 7.5664570721009e-09 1.55985276185864e-10 6.29299216257128e-11 1.30580852879046e-10
"585" 586 2.09441626148238e-10 2.66931681351038e-10 1.21865307162868e-09 5.11537869931355e-09 7.53600582034763e-09 1.55826138642019e-10 6.29299216257128e-11 1.30896491711559e-10
"586" 587 2.09822545249607e-10 2.66931681351038e-10 1.22750858230492e-09 5.16968392151098e-09 7.50555456859435e-09 1.55667001098173e-10 6.29299216257128e-11 1.31212130544073e-10
"587" 588 2.10203464350976e-10 2.66931681351038e-10 1.23636409298116e-09 5.22398914370841e-09 7.47510331684108e-09 1.55507863554327e-10 6.29299216257128e-11 1.31527769376586e-10
"588" 589 2.10584383452345e-10 2.66931681351038e-10 1.2452196036574e-09 5.27829436590584e-09 7.4446520650878e-09 1.55348726010481e-10 6.29299216257128e-11 1.31843408209099e-10
"589" 590 2.10965302553715e-10 2.66931681351038e-10 1.25407511433364e-09 5.33259958810326e-09 7.41420081333453e-09 1.55189588466635e-10 6.29299216257128e-11 1.32159047041612e-10
"590" 591 2.11346221655084e-10 2.66931681351038e-10 1.26293062500988e-09 5.38690481030069e-09 7.38374956158126e-09 1.55030450922789e-10 6.29299216257128e-11 1.32474685874126e-10
"591" 592 2.11727140756453e-10 2.66931681351038e-10 1.27178613568612e-09 5.44121003249812e-09 7.35329830982798e-09 1.54871313378943e-10 6.29299216257128e-11 1.32790324706639e-10
"592" 593 2.12108059857822e-10 2.66931681351038e-10 1.28064164636236e-09 5.49551525469554e-09 7.32284705807471e-09 1.54712175835098e-10 6.29299216257128e-11 1.33105963539152e-10
"593" 594 2.12488978959191e-10 2.66931681351038e-10 1.2894971570386e-09 5.54982047689297e-09 7.29239580632143e-09 1.54553038291252e-10 6.29299216257128e-11 1.33421602371666e-10
"594" 595 2.1286989806056e-10 2.66931681351038e-10 1.29835266771485e-09 5.6041256990904e-09 7.26194455456816e-09 1.54393900747406e-10 6.29299216257128e-11 1.33737241204179e-10
"595" 596 2.13250817161929e-10 2.66931681351038e-10 1.30720817839109e-09 5.65843092128782e-09 7.23149330281488e-09 1.5423476320356e-10 6.29299216257128e-11 1.34052880036692e-10
"596" 597 2.13631736263299e-10 2.66931681351038e-10 1.31606368906733e-09 5.71273614348525e-09 7.20104205106161e-09 1.54075625659714e-10 6.29299216257128e-11 1.34368518869206e-10
"597" 598 2.14012655364668e-10 2.66931681351038e-10 1.32491919974357e-09 5.76704136568268e-09 7.17059079930833e-09 1.53916488115868e-10 6.29299216257128e-11 1.34684157701719e-10
"598" 599 2.14012655364668e-10 2.67168423656698e-10 1.3285325169975e-09 5.74449138590934e-09 7.14192413413555e-09 1.54574378776921e-10 6.31906736254112e-11 1.34867271986413e-10
"599" 600 2.14012655364668e-10 2.68140661385227e-10 1.32848158454745e-09 5.7399476221621e-09 7.23302649610155e-09 1.54754856806436e-10 6.34286747429198e-11 1.34867271986413e-10
"600" 601 2.15273246684613e-10 2.68402672196773e-10 1.33052752946633e-09 5.71978143659003e-09 7.20435983092876e-09 1.5459571926259e-10 6.36894267426182e-11 1.35182910818926e-10
"601" 602 2.16533838004558e-10 2.68664683008319e-10 1.3325734743852e-09 5.69961525101797e-09 7.17569316575598e-09 1.54436581718745e-10 6.39501787423166e-11 1.35498549651439e-10
"602" 603 2.17794429324504e-10 2.68926693819866e-10 1.33461941930408e-09 5.6794490654459e-09 7.14702650058319e-09 1.54277444174899e-10 6.4210930742015e-11 1.35814188483953e-10
"603" 604 2.19055020644449e-10 2.69188704631412e-10 1.33589176832212e-09 5.68061541064322e-09 7.14671086175067e-09 1.54118306631053e-10 6.42336816242049e-11 1.35946713031772e-10
"604" 605 2.19934692863025e-10 2.68427940702659e-10 1.33412066618687e-09 5.68023051079653e-09 7.14671086175067e-09 1.53959169087207e-10 6.42564325063947e-11 1.35946713031772e-10
"605" 606 2.20814365081601e-10 2.67667176773905e-10 1.33234956405162e-09 5.67984561094984e-09 7.14671086175067e-09 1.53800031543361e-10 6.42791833885846e-11 1.35946713031772e-10
"606" 607 2.21694037300177e-10 2.66906412845152e-10 1.33057846191638e-09 5.67946071110315e-09 7.14671086175067e-09 1.53640893999515e-10 6.43019342707744e-11 1.35946713031772e-10
"607" 608 2.22573709518753e-10 2.66145648916399e-10 1.32880735978113e-09 5.67907581125646e-09 7.14671086175067e-09 1.53481756455669e-10 6.43246851529643e-11 1.35946713031772e-10
"608" 609 2.2345338173733e-10 2.65384884987646e-10 1.32703625764588e-09 5.67869091140977e-09 7.14671086175067e-09 1.53322618911823e-10 6.43474360351541e-11 1.35946713031772e-10
"609" 610 2.24333053955906e-10 2.64624121058893e-10 1.32526515551063e-09 5.67830601156309e-09 7.14671086175067e-09 1.53163481367978e-10 6.43701869173439e-11 1.35946713031772e-10
"610" 611 2.25212726174482e-10 2.6386335713014e-10 1.32349405337538e-09 5.6779211117164e-09 7.14671086175067e-09 1.53004343824132e-10 6.43929377995338e-11 1.35946713031772e-10
"611" 612 2.26092398393058e-10 2.63102593201387e-10 1.32172295124014e-09 5.67753621186971e-09 7.14671086175067e-09 1.52845206280286e-10 6.44156886817236e-11 1.35946713031772e-10
"612" 613 2.26972070611634e-10 2.62341829272634e-10 1.31995184910489e-09 5.67715131202302e-09 7.14671086175067e-09 1.5268606873644e-10 6.44384395639135e-11 1.35946713031772e-10
"613" 614 2.2785174283021e-10 2.61581065343881e-10 1.31818074696964e-09 5.67676641217633e-09 7.14671086175067e-09 1.52526931192594e-10 6.44611904461033e-11 1.35946713031772e-10
"614" 615 2.28731415048786e-10 2.60820301415128e-10 1.31640964483439e-09 5.67638151232964e-09 7.14671086175067e-09 1.52367793648748e-10 6.44839413282931e-11 1.35946713031772e-10
"615" 616 2.29611087267363e-10 2.60059537486375e-10 1.31463854269914e-09 5.67599661248295e-09 7.14671086175067e-09 1.52208656104902e-10 6.4506692210483e-11 1.35946713031772e-10
"616" 617 2.30490759485939e-10 2.60321548297921e-10 1.31695933040165e-09 5.67405658570651e-09 7.03992710493151e-09 1.51869040531541e-10 6.47674442101814e-11 1.35132321082052e-10
"617" 618 2.31016929657001e-10 2.60583559109467e-10 1.31833354431978e-09 5.67405658570651e-09 7.0409109553641e-09 1.51709902987695e-10 6.50281962098798e-11 1.35132321082052e-10
"618" 619 2.30282508508119e-10 2.60845569921013e-10 1.31833354431978e-09 5.67649148371441e-09 7.05618918771282e-09 1.51709902987695e-10 6.52661973273884e-11 1.34816682249539e-10
"619" 620 2.29548087359236e-10 2.61107580732559e-10 1.31833354431978e-09 5.67892638172231e-09 7.07146742006154e-09 1.51709902987695e-10 6.5504198444897e-11 1.34501043417025e-10
"620" 621 2.28813666210353e-10 2.62130355472858e-10 1.31766181331904e-09 5.68086640849876e-09 7.09477629202245e-09 1.52728749707779e-10 6.64789537971211e-11 1.34185404584512e-10
"621" 622 2.28079245061471e-10 2.63153130213157e-10 1.3169900823183e-09 5.6828064352752e-09 7.11808516398336e-09 1.53747596427862e-10 6.74537091493452e-11 1.33869765751999e-10
"622" 623 2.27344823912588e-10 2.64175904953457e-10 1.31631835131756e-09 5.68474646205164e-09 7.14139403594427e-09 1.54766443147945e-10 6.84284645015693e-11 1.33554126919485e-10
"623" 624 2.26610402763705e-10 2.65198679693756e-10 1.31564662031682e-09 5.68668648882809e-09 7.16470290790518e-09 1.55785289868029e-10 6.94032198537934e-11 1.33238488086972e-10
"624" 625 2.25875981614823e-10 2.66221454434055e-10 1.31497488931608e-09 5.68862651560453e-09 7.18801177986608e-09 1.56804136588112e-10 7.03779752060176e-11 1.32922849254459e-10
"625" 626 2.25875981614823e-10 2.66271991445825e-10 1.31497488931608e-09 5.68558289309466e-09 7.19604241947827e-09 1.57982120852041e-10 7.11147294407331e-11 1.32739734969765e-10
"626" 627 2.25495062513454e-10 2.67032755374579e-10 1.31502582176613e-09 5.6875229198711e-09 7.21836744100659e-09 1.58343076911072e-10 7.18287327932588e-11 1.32739734969765e-10
"627" 628 2.25114143412085e-10 2.67793519303332e-10 1.31507675421618e-09 5.68946294664754e-09 7.24069246253491e-09 1.58704032970102e-10 7.25427361457845e-11 1.32739734969765e-10
"628" 629 2.24733224310715e-10 2.68554283232085e-10 1.31512768666622e-09 5.69140297342399e-09 7.26301748406323e-09 1.59064989029133e-10 7.32567394983102e-11 1.32739734969765e-10
"629" 630 2.24352305209346e-10 2.69315047160838e-10 1.31517861911627e-09 5.69334300020043e-09 7.28534250559155e-09 1.59425945088163e-10 7.3970742850836e-11 1.32739734969765e-10
"630" 631 2.23971386107977e-10 2.70075811089591e-10 1.31522955156632e-09 5.69528302697687e-09 7.30766752711986e-09 1.59786901147194e-10 7.46847462033617e-11 1.32739734969765e-10
"631" 632 2.23590467006608e-10 2.70836575018344e-10 1.31528048401637e-09 5.69722305375332e-09 7.32999254864818e-09 1.60147857206224e-10 7.53987495558874e-11 1.32739734969765e-10
"632" 633 2.23209547905239e-10 2.71597338947097e-10 1.31533141646641e-09 5.69916308052976e-09 7.3523175701765e-09 1.60508813265255e-10 7.61127529084131e-11 1.32739734969765e-10
"633" 634 2.22946462819707e-10 2.71335328135551e-10 1.31727549648519e-09 5.70110310730621e-09 7.35053298359602e-09 1.59850922604202e-10 7.68722580253185e-11 1.32739734969765e-10
"634" 635 2.22683377734176e-10 2.71073317324005e-10 1.31921957650398e-09 5.70304313408265e-09 7.34874839701553e-09 1.59193031943149e-10 7.76317631422239e-11 1.32739734969765e-10
"635" 636 2.22420292648645e-10 2.70811306512459e-10 1.32116365652276e-09 5.70498316085909e-09 7.34696381043504e-09 1.58535141282096e-10 7.83912682591293e-11 1.32739734969765e-10
"636" 637 2.22157207563113e-10 2.70549295700913e-10 1.32310773654154e-09 5.70692318763554e-09 7.34517922385456e-09 1.57877250621043e-10 7.91507733760347e-11 1.32739734969765e-10
"637" 638 2.21894122477582e-10 2.70287284889367e-10 1.32505181656032e-09 5.70886321441198e-09 7.34339463727407e-09 1.57219359959991e-10 7.99102784929401e-11 1.32739734969765e-10
"638" 639 2.21631037392051e-10 2.7002527407782e-10 1.3269958965791e-09 5.71080324118843e-09 7.34161005069359e-09 1.56561469298938e-10 8.06697836098455e-11 1.32739734969765e-10
"639" 640 2.21631037392051e-10 2.70735500994803e-10 1.32677198624552e-09 5.71080324118843e-09 7.35924952408053e-09 1.55744441094039e-10 8.06697836098455e-11 1.33055373802278e-10
"640" 641 2.20488280087943e-10 2.64699926576549e-10 1.28646427726858e-09 5.70232055631016e-09 7.24211082054601e-09 1.57081562901814e-10 8.06697836098455e-11 1.32373506400378e-10
"641" 642 2.19871692954899e-10 2.64725195082434e-10 1.28646427726858e-09 5.6992141843364e-09 7.24362073569945e-09 1.59437531429673e-10 8.06470327276556e-11 1.32240981852558e-10
"642" 643 2.19255105821854e-10 2.64750463588319e-10 1.28646427726858e-09 5.69610781236264e-09 7.2451306508529e-09 1.61793499957531e-10 8.06242818454658e-11 1.32108457304738e-10
"643" 644 2.18638518688809e-10 2.64775732094205e-10 1.28646427726858e-09 5.69300144038888e-09 7.24664056600634e-09 1.64149468485389e-10 8.06015309632759e-11 1.31975932756919e-10
"644" 645 2.18021931555764e-10 2.6480100060009e-10 1.28646427726858e-09 5.68989506841512e-09 7.24815048115979e-09 1.66505437013248e-10 8.05787800810861e-11 1.31843408209099e-10
"645" 646 2.17405344422719e-10 2.64826269105975e-10 1.28646427726858e-09 5.68678869644136e-09 7.24966039631323e-09 1.68861405541106e-10 8.05560291988963e-11 1.3171088366128e-10
"646" 647 2.16788757289674e-10 2.6485153761186e-10 1.28646427726858e-09 5.68368232446759e-09 7.25117031146668e-09 1.71217374068965e-10 8.05332783167064e-11 1.3157835911346e-10
"647" 648 2.1617217015663e-10 2.64876806117745e-10 1.28646427726858e-09 5.68057595249383e-09 7.25268022662012e-09 1.73573342596823e-10 8.05105274345166e-11 1.3144583456564e-10
"648" 649 2.15555583023585e-10 2.64902074623631e-10 1.28646427726858e-09 5.67746958052007e-09 7.25419014177357e-09 1.75929311124682e-10 8.04877765523267e-11 1.31313310017821e-10
"649" 650 2.1493899589054e-10 2.64927343129516e-10 1.28646427726858e-09 5.67436320854631e-09 7.25570005692701e-09 1.7828527965254e-10 8.04650256701369e-11 1.31180785470001e-10
"650" 651 2.14322408757495e-10 2.64952611635401e-10 1.28646427726858e-09 5.67125683657255e-09 7.25720997208046e-09 1.80641248180398e-10 8.0442274787947e-11 1.31048260922181e-10
"651" 652 2.1370582162445e-10 2.64977880141286e-10 1.28646427726858e-09 5.66815046459879e-09 7.2587198872339e-09 1.82997216708257e-10 8.04195239057572e-11 1.30915736374362e-10
"652" 653 2.13089234491406e-10 2.65003148647172e-10 1.28646427726858e-09 5.66504409262503e-09 7.26022980238735e-09 1.85353185236115e-10 8.03967730235674e-11 1.30783211826542e-10
"653" 654 2.12472647358361e-10 2.65028417153057e-10 1.28646427726858e-09 5.66193772065127e-09 7.26173971754079e-09 1.87709153763974e-10 8.03740221413775e-11 1.30650687278723e-10
"654" 655 2.11856060225316e-10 2.65053685658942e-10 1.28646427726858e-09 5.65883134867751e-09 7.26324963269424e-09 1.90065122291832e-10 8.03512712591877e-11 1.30518162730903e-10
"655" 656 2.11239473092271e-10 2.65078954164827e-10 1.28646427726858e-09 5.65572497670375e-09 7.26475954784768e-09 1.92421090819691e-10 8.03285203769978e-11 1.30385638183083e-10
"656" 657 2.11239473092271e-10 2.6704869812777e-10 1.28818444695378e-09 5.68327025142065e-09 7.31200856943453e-09 1.93439937539774e-10 8.0305769494808e-11 1.30934981037164e-10
"657" 658 2.10622885959226e-10 2.67784193550638e-10 1.29212353944139e-09 5.67894643044294e-09 7.3148958751936e-09 1.94097828200827e-10 8.0305769494808e-11 1.31484323891245e-10
"658" 659 2.10006298826182e-10 2.68519688973506e-10 1.296062631929e-09 5.67462260946523e-09 7.31778318095267e-09 1.9475571886188e-10 8.0305769494808e-11 1.32033666745326e-10
"659" 660 2.09389711693137e-10 2.69255184396374e-10 1.30000172441661e-09 5.67029878848752e-09 7.32067048671174e-09 1.95413609522932e-10 8.0305769494808e-11 1.32583009599407e-10
"660" 661 2.09507545708975e-10 2.68020935856299e-10 1.29728404849699e-09 5.64879353686949e-09 7.32024963493506e-09 1.9589102215447e-10 8.03285203769978e-11 1.33447991286002e-10
"661" 662 2.09625379724812e-10 2.67970398844528e-10 1.30339113133696e-09 5.64602484282153e-09 7.31982878315837e-09 1.9589102215447e-10 8.05892723766962e-11 1.33447991286002e-10
"662" 663 2.0974321374065e-10 2.67919861832758e-10 1.30949821417693e-09 5.64325614877358e-09 7.31940793138169e-09 1.9589102215447e-10 8.08500243763947e-11 1.33447991286002e-10
"663" 664 2.09861047756488e-10 2.67869324820987e-10 1.3156052970169e-09 5.64048745472562e-09 7.318987079605e-09 1.9589102215447e-10 8.11107763760931e-11 1.33447991286002e-10
"664" 665 2.09978881772326e-10 2.67818787809217e-10 1.32171237985687e-09 5.63771876067767e-09 7.31856622782832e-09 1.9589102215447e-10 8.13715283757915e-11 1.33447991286002e-10
"665" 666 2.10096715788164e-10 2.67768250797446e-10 1.32781946269684e-09 5.63495006662971e-09 7.31814537605163e-09 1.9589102215447e-10 8.16322803754899e-11 1.33447991286002e-10
"666" 667 2.10214549804002e-10 2.67717713785676e-10 1.33392654553681e-09 5.63218137258176e-09 7.31772452427495e-09 1.9589102215447e-10 8.18930323751883e-11 1.33447991286002e-10
"667" 668 2.10332383819839e-10 2.67667176773905e-10 1.34003362837678e-09 5.6294126785338e-09 7.31730367249826e-09 1.9589102215447e-10 8.21537843748867e-11 1.33447991286002e-10
"668" 669 2.10450217835677e-10 2.67616639762135e-10 1.34614071121675e-09 5.62664398448584e-09 7.31688282072158e-09 1.9589102215447e-10 8.24145363745851e-11 1.33447991286002e-10
"669" 670 2.10568051851515e-10 2.67566102750364e-10 1.35224779405672e-09 5.62387529043789e-09 7.3164619689449e-09 1.9589102215447e-10 8.26752883742835e-11 1.33447991286002e-10
"670" 671 2.10685885867353e-10 2.67515565738594e-10 1.35835487689668e-09 5.62110659638993e-09 7.31604111716821e-09 1.9589102215447e-10 8.2936040373982e-11 1.33447991286002e-10
"671" 672 2.10803719883191e-10 2.67465028726824e-10 1.36446195973665e-09 5.61833790234198e-09 7.31562026539153e-09 1.9589102215447e-10 8.31967923736804e-11 1.33447991286002e-10
"672" 673 2.10921553899029e-10 2.68175255643806e-10 1.36840105222426e-09 5.59683265072395e-09 7.30754865837387e-09 1.96368434786008e-10 8.2437287256775e-11 1.34129858687902e-10
"673" 674 2.10658468813497e-10 2.68124718632036e-10 1.37218734736173e-09 5.59666769364679e-09 7.31102627439249e-09 1.96845847417545e-10 8.16777821398696e-11 1.34679201541983e-10
"674" 675 2.10395383727966e-10 2.68074181620265e-10 1.3759736424992e-09 5.59650273656964e-09 7.31450389041112e-09 1.97323260049083e-10 8.09182770229642e-11 1.35228544396065e-10
"675" 676 2.10395383727966e-10 2.67313417691512e-10 1.37392769758032e-09 5.61434399551857e-09 7.44733205573964e-09 1.97323260049083e-10 7.98980199063604e-11 1.35096019848245e-10
"676" 677 2.10014464626597e-10 2.66527385256874e-10 1.37160690987782e-09 5.61512155898345e-09 7.44813279188754e-09 1.98161628739651e-10 7.91157639072651e-11 1.34963495300425e-10
"677" 678 2.09633545525228e-10 2.65741352822235e-10 1.37033456085978e-09 5.61977529411547e-09 7.46041850553302e-09 1.9782201316629e-10 7.80955067906613e-11 1.35512838154506e-10
"678" 679 2.09252626423858e-10 2.64955320387597e-10 1.36906221184174e-09 5.62442902924748e-09 7.4727042191785e-09 1.97482397592929e-10 7.70752496740575e-11 1.36062181008587e-10
