"time" "channel1" "channel2" "channel3" "channel4" "channel5" "channel6" "channel7" "channel8"
"1969" 43671 1.07649495049561e-08 1.28369181702085e-08 1.19335739706459e-08 1.39415930251423e-07 2.53183672752239e-07 9.19783938001182e-09 1.51518860785963e-09 6.64714009971718e-10
"1970" 43672 1.07649495049561e-08 1.28468000777603e-08 1.19431156808174e-08 1.39380982638117e-07 2.53708977757173e-07 9.2323472115286e-09 1.528091370211e-09 6.66754248721494e-10
"1971" 43673 1.07649495049561e-08 1.2856681985312e-08 1.19526573909889e-08 1.39346035024811e-07 2.54234282762107e-07 9.26685504304537e-09 1.54099413256237e-09 6.6879448747127e-10
"1972" 43674 1.07649495049561e-08 1.28665638928638e-08 1.19621991011604e-08 1.39311087411505e-07 2.54759587767041e-07 9.30136287456215e-09 1.55389689491374e-09 6.70834726221046e-10
"1973" 43675 1.07649495049561e-08 1.28764458004156e-08 1.19717408113319e-08 1.39276139798199e-07 2.55284892771975e-07 9.33587070607892e-09 1.56679965726512e-09 6.72874964970822e-10
"1974" 43676 1.07649495049561e-08 1.28863277079673e-08 1.19812825215034e-08 1.39241192184893e-07 2.55810197776909e-07 9.3703785375957e-09 1.57970241961649e-09 6.74915203720597e-10
"1975" 43677 1.07649495049561e-08 1.28962096155191e-08 1.19908242316749e-08 1.39206244571587e-07 2.56335502781843e-07 9.40488636911248e-09 1.59260518196786e-09 6.76955442470374e-10
"1976" 43678 1.07649495049561e-08 1.29060915230709e-08 1.20003659418464e-08 1.39171296958281e-07 2.56860807786777e-07 9.43939420062925e-09 1.60550794431923e-09 6.7899568122015e-10
"1977" 43679 1.07649495049561e-08 1.29159734306226e-08 1.20099076520179e-08 1.39136349344975e-07 2.57386112791711e-07 9.47390203214603e-09 1.6184107066706e-09 6.81035919969926e-10
"1978" 43680 1.05624243676189e-08 1.28593950396382e-08 1.20388030304623e-08 1.39314595872099e-07 2.57406193056416e-07 9.44483817485684e-09 1.63803673787882e-09 6.8229410933318e-10
"1979" 43681 1.03598992302816e-08 1.28028166486537e-08 1.20676984089067e-08 1.39492842399223e-07 2.57426273321121e-07 9.41577431756765e-09 1.65766276908705e-09 6.83552298696434e-10
"1980" 43682 1.01551012881968e-08 1.27300588691785e-08 1.20824443263366e-08 1.39203439427436e-07 2.57760561819109e-07 9.35365195489856e-09 1.66034439194415e-09 6.82532179321546e-10
"1981" 43683 9.97085315695342e-09 1.26689587209838e-08 1.21017979946095e-08 1.39798895888158e-07 2.57524905644147e-07 9.28937262508556e-09 1.6586536765045e-09 6.81750129935025e-10
"1982" 43684 9.77813895256198e-09 1.26085876076982e-08 1.21046605076609e-08 1.39501635273058e-07 2.57027431239321e-07 9.27432905423181e-09 1.67237268663617e-09 6.84674809216845e-10
"1983" 43685 9.58542474817054e-09 1.25482164944125e-08 1.21075230207124e-08 1.39204374657957e-07 2.56529956834494e-07 9.25928548337806e-09 1.68609169676784e-09 6.87599488498665e-10
"1984" 43686 9.39271054377911e-09 1.24878453811269e-08 1.21103855337638e-08 1.38907114042857e-07 2.56032482429668e-07 9.24424191252431e-09 1.69981070689952e-09 6.90524167780484e-10
"1985" 43687 9.19999633938767e-09 1.24274742678413e-08 1.21132480468153e-08 1.38609853427757e-07 2.55535008024842e-07 9.22919834167055e-09 1.71352971703119e-09 6.93448847062304e-10
"1986" 43688 9.00728213499623e-09 1.23671031545557e-08 1.21161105598667e-08 1.38312592812656e-07 2.55037533620016e-07 9.2141547708168e-09 1.72724872716286e-09 6.96373526344124e-10
"1987" 43689 8.81456793060479e-09 1.23067320412701e-08 1.21189730729182e-08 1.38015332197556e-07 2.54540059215189e-07 9.19911119996305e-09 1.74096773729453e-09 6.99298205625944e-10
"1988" 43690 8.62185372621335e-09 1.22463609279845e-08 1.21218355859696e-08 1.37718071582456e-07 2.54042584810363e-07 9.1840676291093e-09 1.7546867474262e-09 7.02222884907764e-10
"1989" 43691 8.42913952182192e-09 1.21859898146989e-08 1.21246980990211e-08 1.37420810967356e-07 2.53545110405537e-07 9.16902405825555e-09 1.76840575755788e-09 7.05147564189583e-10
"1990" 43692 8.23642531743048e-09 1.21256187014132e-08 1.21275606120725e-08 1.37123550352255e-07 2.5304763600071e-07 9.15398048740179e-09 1.78212476768955e-09 7.08072243471403e-10
"1991" 43693 8.04371111303904e-09 1.20652475881276e-08 1.2130423125124e-08 1.36826289737155e-07 2.52550161595884e-07 9.13893691654804e-09 1.79584377782122e-09 7.10996922753223e-10
"1992" 43694 7.8509969086476e-09 1.2004876474842e-08 1.21332856381754e-08 1.36529029122055e-07 2.52052687191058e-07 9.12389334569429e-09 1.80956278795289e-09 7.13921602035043e-10
"1993" 43695 7.84253083549957e-09 1.19678536032728e-08 1.21248178680466e-08 1.36366413594859e-07 2.51980177598762e-07 9.06251266815504e-09 1.82833414795265e-09 7.17628330703384e-10
"1994" 43696 7.8387745012449e-09 1.19780369613052e-08 1.20483132345175e-08 1.36398220514669e-07 2.51290005974282e-07 9.06364635088063e-09 1.84797997561175e-09 7.12527733828944e-10
"1995" 43697 8.15528041173957e-09 1.20022895544636e-08 1.20621372832839e-08 1.3626322646082e-07 2.4917414418496e-07 9.04757122966967e-09 1.84797997561175e-09 7.12267050700103e-10
"1996" 43698 8.12849914296423e-09 1.19995765001375e-08 1.20721990160626e-08 1.36123009189547e-07 2.45274804907682e-07 9.05662976311694e-09 1.84642549638108e-09 7.12267050700103e-10
"1997" 43699 8.10171787418889e-09 1.19968634458114e-08 1.20822607488412e-08 1.35982791918273e-07 2.41375465630404e-07 9.06568829656421e-09 1.84487101715041e-09 7.12267050700103e-10
"1998" 43700 8.07493660541355e-09 1.19941503914852e-08 1.20923224816199e-08 1.35842574646999e-07 2.37476126353126e-07 9.07474683001147e-09 1.84331653791974e-09 7.12267050700103e-10
"1999" 43701 8.04815533663821e-09 1.19914373371591e-08 1.21023842143986e-08 1.35702357375725e-07 2.33576787075847e-07 9.08380536345874e-09 1.84176205868907e-09 7.12267050700103e-10
"2000" 43702 8.02137406786287e-09 1.1988724282833e-08 1.21124459471772e-08 1.35562140104452e-07 2.29677447798569e-07 9.09286389690601e-09 1.84020757945839e-09 7.12267050700103e-10
"2001" 43703 7.99459279908753e-09 1.19860112285068e-08 1.21225076799559e-08 1.35421922833178e-07 2.25778108521291e-07 9.10192243035328e-09 1.83865310022772e-09 7.12267050700103e-10
"2002" 43704 7.9678115303122e-09 1.19832981741807e-08 1.21325694127346e-08 1.35281705561904e-07 2.21878769244013e-07 9.11098096380055e-09 1.83709862099705e-09 7.12267050700103e-10
"2003" 43705 7.94103026153686e-09 1.19805851198546e-08 1.21426311455132e-08 1.35141488290631e-07 2.17979429966734e-07 9.12003949724782e-09 1.83554414176638e-09 7.12267050700103e-10
"2004" 43706 7.91424899276152e-09 1.19778720655285e-08 1.21526928782919e-08 1.35001271019357e-07 2.14080090689456e-07 9.12909803069508e-09 1.83398966253571e-09 7.12267050700103e-10
"2005" 43707 7.88746772398618e-09 1.19751590112023e-08 1.21627546110706e-08 1.34861053748083e-07 2.10180751412178e-07 9.13815656414235e-09 1.83243518330504e-09 7.12267050700103e-10
"2006" 43708 7.86068645521084e-09 1.19724459568762e-08 1.21728163438492e-08 1.34720836476809e-07 2.062814121349e-07 9.14721509758962e-09 1.83088070407437e-09 7.12267050700103e-10
"2007" 43709 7.8339051864355e-09 1.19697329025501e-08 1.21828780766279e-08 1.34580619205536e-07 2.02382072857621e-07 9.15627363103689e-09 1.82932622484369e-09 7.12267050700103e-10
"2008" 43710 7.80712391766016e-09 1.19670198482239e-08 1.21929398094066e-08 1.34440401934262e-07 1.98482733580343e-07 9.16533216448416e-09 1.82777174561302e-09 7.12267050700103e-10
"2009" 43711 7.78034264888482e-09 1.19643067938978e-08 1.22030015421852e-08 1.34300184662988e-07 1.94583394303065e-07 9.17439069793143e-09 1.82621726638235e-09 7.12267050700103e-10
"2010" 43712 7.75356138010949e-09 1.19615937395717e-08 1.22130632749639e-08 1.34159967391714e-07 1.90684055025787e-07 9.18344923137869e-09 1.82466278715168e-09 7.12267050700103e-10
"2011" 43713 7.72678011133415e-09 1.19588806852456e-08 1.22231250077426e-08 1.34019750120441e-07 1.86784715748508e-07 9.19250776482596e-09 1.82310830792101e-09 7.12267050700103e-10
"2012" 43714 7.69999884255881e-09 1.19561676309194e-08 1.22331867405212e-08 1.33879532849167e-07 1.8288537647123e-07 9.20156629827323e-09 1.82155382869034e-09 7.12267050700103e-10
"2013" 43715 7.67321757378347e-09 1.19534545765933e-08 1.22432484732999e-08 1.33739315577893e-07 1.78986037193952e-07 9.2106248317205e-09 1.81999934945967e-09 7.12267050700103e-10
"2014" 43716 7.61736358957853e-09 1.19317779107615e-08 1.22465120361704e-08 1.33438649590052e-07 1.78916837535398e-07 9.21143460509592e-09 1.81844487022899e-09 7.12289663840578e-10
"2015" 43717 7.60844286490899e-09 1.19355596400109e-08 1.22430964019208e-08 1.32503350592231e-07 1.78476523118192e-07 9.23262516803125e-09 1.81913148061727e-09 7.12550346969418e-10
"2016" 43718 7.62007195108083e-09 1.1909739618812e-08 1.22062863745457e-08 1.31458364028487e-07 1.77728042933728e-07 9.25767784535193e-09 1.82000594827663e-09 7.06633148984356e-10
"2017" 43719 7.64119007632409e-09 1.18803351710004e-08 1.21573762667058e-08 1.31106770461468e-07 1.77059133533544e-07 9.26612260422166e-09 1.82206577944146e-09 7.00455267870454e-10
"2018" 43720 7.66230820156735e-09 1.18509307231887e-08 1.21084661588659e-08 1.30755176894449e-07 1.7639022413336e-07 9.27456736309138e-09 1.8241256106063e-09 6.94277386756552e-10
"2019" 43721 7.65842547458782e-09 1.18234171400018e-08 1.20592850068587e-08 1.29767828259789e-07 1.76331147781614e-07 9.28030946848523e-09 1.82431346787738e-09 6.8809950564265e-10
"2020" 43722 7.6545427476083e-09 1.17959035568148e-08 1.20101038548516e-08 1.2878047962513e-07 1.76272071429868e-07 9.28605157387909e-09 1.82450132514845e-09 6.81921624528748e-10
"2021" 43723 7.65066002062878e-09 1.17683899736278e-08 1.19609227028445e-08 1.2779313099047e-07 1.76212995078122e-07 9.29179367927295e-09 1.82468918241952e-09 6.75743743414845e-10
"2022" 43724 7.64677729364926e-09 1.17408763904409e-08 1.19117415508373e-08 1.26805782355811e-07 1.76153918726376e-07 9.2975357846668e-09 1.82487703969059e-09 6.69565862300943e-10
"2023" 43725 7.64289456666974e-09 1.17133628072539e-08 1.18625603988302e-08 1.25818433721151e-07 1.7609484237463e-07 9.30327789006066e-09 1.82506489696167e-09 6.63387981187041e-10
"2024" 43726 7.63901183969021e-09 1.16858492240669e-08 1.18133792468231e-08 1.24831085086492e-07 1.76035766022884e-07 9.30901999545452e-09 1.82525275423274e-09 6.57210100073139e-10
"2025" 43727 7.63512911271069e-09 1.165833564088e-08 1.17641980948159e-08 1.23843736451832e-07 1.75976689671138e-07 9.31476210084837e-09 1.82544061150381e-09 6.51032218959237e-10
"2026" 43728 7.63124638573117e-09 1.1630822057693e-08 1.17150169428088e-08 1.22856387817173e-07 1.75917613319392e-07 9.32050420624223e-09 1.82562846877489e-09 6.44854337845334e-10
"2027" 43729 7.62736365875165e-09 1.1603308474506e-08 1.16658357908017e-08 1.21869039182513e-07 1.75858536967646e-07 9.32624631163608e-09 1.82581632604596e-09 6.38676456731432e-10
"2028" 43730 7.62525498340244e-09 1.15639289643502e-08 1.16534646661697e-08 1.21021679647365e-07 1.7627098769113e-07 9.32624631163608e-09 1.81739574293249e-09 6.38438386743066e-10
"2029" 43731 7.62314630805324e-09 1.15245494541944e-08 1.16410935415377e-08 1.20174320112216e-07 1.76683438414613e-07 9.32624631163608e-09 1.80897515981902e-09 6.38200316754699e-10
"2030" 43732 7.62103763270404e-09 1.14851699440387e-08 1.16287224169057e-08 1.19326960577067e-07 1.77095889138097e-07 9.32624631163608e-09 1.80055457670555e-09 6.37962246766333e-10
"2031" 43733 7.61892895735484e-09 1.14457904338829e-08 1.16163512922737e-08 1.18479601041919e-07 1.77508339861581e-07 9.32624631163608e-09 1.79213399359209e-09 6.37724176777966e-10
"2032" 43734 7.61682028200563e-09 1.14064109237271e-08 1.16039801676417e-08 1.1763224150677e-07 1.77920790585064e-07 9.32624631163608e-09 1.78371341047862e-09 6.374861067896e-10
"2033" 43735 7.61471160665643e-09 1.13670314135713e-08 1.15916090430097e-08 1.16784881971621e-07 1.78333241308548e-07 9.32624631163608e-09 1.77529282736515e-09 6.37248036801233e-10
"2034" 43736 7.61260293130722e-09 1.13276519034155e-08 1.15792379183777e-08 1.15937522436473e-07 1.78745692032032e-07 9.32624631163608e-09 1.76687224425168e-09 6.37009966812867e-10
"2035" 43737 7.61049425595802e-09 1.12882723932597e-08 1.15668667937457e-08 1.15090162901324e-07 1.79158142755515e-07 9.32624631163608e-09 1.75845166113821e-09 6.367718968245e-10
"2036" 43738 7.60838558060882e-09 1.1248892883104e-08 1.15544956691137e-08 1.14242803366175e-07 1.79570593478999e-07 9.32624631163608e-09 1.75003107802474e-09 6.36533826836134e-10
"2037" 43739 7.60223004888177e-09 1.1241691050723e-08 1.15505923146106e-08 1.13619900987511e-07 1.80267699270725e-07 9.28396731813383e-09 1.75021893529582e-09 6.35513707461246e-10
"2038" 43740 7.59607451715472e-09 1.1234489218342e-08 1.15466889601075e-08 1.12996998608846e-07 1.80964805062451e-07 9.24168832463157e-09 1.75040679256689e-09 6.34493588086358e-10
"2039" 43741 7.62018516110122e-09 1.12311732630545e-08 1.1558919046224e-08 1.12983793729165e-07 1.81149667067801e-07 9.20966136960888e-09 1.75415074035442e-09 6.49343115900197e-10
"2040" 43742 7.61990100390028e-09 1.12260815840383e-08 1.16543329629897e-08 1.14471543139937e-07 1.8205081126086e-07 9.18588317465803e-09 1.76069275075716e-09 6.49343115900197e-10
"2041" 43743 7.61585414752244e-09 1.12293755532222e-08 1.16527390003399e-08 1.14651215056313e-07 1.84017666662318e-07 9.15007508258751e-09 1.762752581922e-09 6.48322996525309e-10
"2042" 43744 7.61180729114459e-09 1.12326695224061e-08 1.16511450376901e-08 1.14830886972689e-07 1.85984522063775e-07 9.114266990517e-09 1.76481241308684e-09 6.47302877150421e-10
"2043" 43745 7.60776043476675e-09 1.123596349159e-08 1.16495510750403e-08 1.15010558889064e-07 1.87951377465233e-07 9.07845889844648e-09 1.76687224425168e-09 6.46282757775533e-10
"2044" 43746 7.60371357838891e-09 1.1239257460774e-08 1.16479571123904e-08 1.1519023080544e-07 1.8991823286669e-07 9.04265080637597e-09 1.76893207541652e-09 6.45262638400645e-10
"2045" 43747 7.59966672201106e-09 1.12425514299579e-08 1.16463631497407e-08 1.15369902721815e-07 1.91885088268148e-07 9.00684271430545e-09 1.77099190658136e-09 6.44242519025757e-10
"2046" 43748 7.59561986563322e-09 1.12458453991418e-08 1.16447691870908e-08 1.15549574638191e-07 1.93851943669606e-07 8.97103462223493e-09 1.7730517377462e-09 6.43222399650869e-10
"2047" 43749 7.59157300925538e-09 1.12491393683257e-08 1.1643175224441e-08 1.15729246554566e-07 1.95818799071063e-07 8.93522653016442e-09 1.77511156891104e-09 6.42202280275981e-10
"2048" 43750 7.58752615287753e-09 1.12524333375096e-08 1.16415812617912e-08 1.15908918470942e-07 1.97785654472521e-07 8.8994184380939e-09 1.77717140007588e-09 6.41182160901093e-10
"2049" 43751 7.58347929649969e-09 1.12557273066936e-08 1.16399872991414e-08 1.16088590387318e-07 1.99752509873979e-07 8.86361034602339e-09 1.77923123124071e-09 6.40162041526205e-10
"2050" 43752 7.57943244012184e-09 1.12590212758775e-08 1.16383933364916e-08 1.16268262303693e-07 2.01719365275436e-07 8.82780225395287e-09 1.78129106240555e-09 6.39141922151317e-10
"2051" 43753 7.58176207630956e-09 1.12713037942229e-08 1.15682645535618e-08 1.16877552318265e-07 2.03700128335558e-07 8.83647705574327e-09 1.78335089357039e-09 6.39141922151317e-10
"2052" 43754 7.58176207630956e-09 1.1268344254675e-08 1.15703462364652e-08 1.17609140999373e-07 2.05612084685229e-07 8.84806339889937e-09 1.78541072473523e-09 6.38167029057377e-10
"2053" 43755 7.57998802467924e-09 1.12771464942518e-08 1.1536485392576e-08 1.18466247425103e-07 2.05877430102194e-07 8.83522372840428e-09 1.78715966005394e-09 6.37928959069011e-10
"2054" 43756 7.58830269827344e-09 1.12733647650025e-08 1.15042185113367e-08 1.18468364844133e-07 2.04601770694508e-07 8.81224704088996e-09 1.78890859537264e-09 6.37928959069011e-10
"2055" 43757 7.59334706088569e-09 1.12814379696701e-08 1.14743910276024e-08 1.18467507998201e-07 2.03573314316545e-07 8.79940737039487e-09 1.79102664641653e-09 6.41635687737352e-10
"2056" 43758 7.59839142349795e-09 1.12895111743378e-08 1.14445635438682e-08 1.1846665115227e-07 2.02544857938582e-07 8.78656769989977e-09 1.79314469746042e-09 6.45342416405694e-10
"2057" 43759 7.60343578611021e-09 1.12975843790055e-08 1.14147360601339e-08 1.18465794306338e-07 2.01516401560619e-07 8.77372802940468e-09 1.79526274850431e-09 6.49049145074035e-10
"2058" 43760 7.60848014872247e-09 1.13056575836732e-08 1.13849085763997e-08 1.18464937460406e-07 2.00487945182656e-07 8.76088835890959e-09 1.7973807995482e-09 6.52755873742376e-10
"2059" 43761 7.61352451133473e-09 1.13137307883409e-08 1.13550810926655e-08 1.18464080614475e-07 1.99459488804693e-07 8.7480486884145e-09 1.79949885059209e-09 6.56462602410717e-10
"2060" 43762 7.61856887394698e-09 1.13218039930086e-08 1.13252536089312e-08 1.18463223768543e-07 1.9843103242673e-07 8.73520901791941e-09 1.80161690163598e-09 6.60169331079059e-10
"2061" 43763 7.62361323655924e-09 1.13298771976762e-08 1.1295426125197e-08 1.18462366922611e-07 1.97402576048766e-07 8.72236934742431e-09 1.80373495267987e-09 6.638760597474e-10
"2062" 43764 7.6286575991715e-09 1.13379504023439e-08 1.12655986414627e-08 1.18461510076679e-07 1.96374119670803e-07 8.70952967692922e-09 1.80585300372376e-09 6.67582788415741e-10
"2063" 43765 7.63370196178375e-09 1.13460236070116e-08 1.12357711577285e-08 1.18460653230748e-07 1.9534566329284e-07 8.69669000643413e-09 1.80797105476765e-09 6.71289517084083e-10
"2064" 43766 7.63874632439601e-09 1.13540968116793e-08 1.12059436739943e-08 1.18459796384816e-07 1.94317206914877e-07 8.68385033593904e-09 1.81008910581154e-09 6.74996245752424e-10
"2065" 43767 7.64379068700827e-09 1.1362170016347e-08 1.117611619026e-08 1.18458939538884e-07 1.93288750536914e-07 8.67101066544395e-09 1.81220715685543e-09 6.78702974420765e-10
"2066" 43768 7.64883504962053e-09 1.13702432210146e-08 1.11462887065258e-08 1.18458082692953e-07 1.92260294158951e-07 8.65817099494886e-09 1.81432520789932e-09 6.82409703089107e-10
"2067" 43769 7.65387941223279e-09 1.13783164256823e-08 1.11164612227915e-08 1.18457225847021e-07 1.91231837780988e-07 8.64533132445376e-09 1.81644325894321e-09 6.86116431757448e-10
"2068" 43770 7.65892377484504e-09 1.138638963035e-08 1.10866337390573e-08 1.18456369001089e-07 1.90203381403025e-07 8.63249165395867e-09 1.81856130998709e-09 6.89823160425789e-10
"2069" 43771 7.6639681374573e-09 1.13944628350177e-08 1.10568062553231e-08 1.18455512155158e-07 1.89174925025061e-07 8.61965198346358e-09 1.82067936103098e-09 6.93529889094131e-10
"2070" 43772 7.66901250006956e-09 1.14025360396854e-08 1.10269787715888e-08 1.18454655309226e-07 1.88146468647098e-07 8.60681231296849e-09 1.82279741207487e-09 6.97236617762472e-10
"2071" 43773 7.67405686268182e-09 1.14106092443531e-08 1.09971512878546e-08 1.18453798463294e-07 1.87118012269135e-07 8.59397264247340e-09 1.82491546311876e-09 7.00943346430813e-10
"2072" 43774 7.67910122529407e-09 1.14186824490207e-08 1.09673238041203e-08 1.18452941617362e-07 1.86089555891172e-07 8.5811329719783e-09 1.82703351416265e-09 7.04650075099155e-10
"2073" 43775 7.67622873439345e-09 1.13297452810548e-08 1.08305456809802e-08 1.18421180331905e-07 1.86753988680803e-07 8.53691878831392e-09 1.80513999806764e-09 7.04650075099155e-10
"2074" 43776 7.67900029225818e-09 1.13161418198907e-08 1.08064755257024e-08 1.1834529308588e-07 1.86835557299218e-07 8.39457352795899e-09 1.77092048906839e-09 7.0230392693959e-10
"2075" 43777 7.59758350635083e-09 1.12983950033596e-08 1.08039707272527e-08 1.18245628361519e-07 1.86838658444601e-07 8.38724129678402e-09 1.77128960479357e-09 7.06010655607931e-10
"2076" 43778 7.51112235783121e-09 1.13169420234886e-08 1.08255360840808e-08 1.18187133586503e-07 1.86921614695688e-07 8.36952911657719e-09 1.76922977362873e-09 7.06010655607931e-10
"2077" 43779 7.42936458328273e-09 1.13238753845443e-08 1.09978990194117e-08 1.18084843563123e-07 1.86196923301108e-07 8.35181693637037e-09 1.76748083831003e-09 7.06033268748405e-10
"2078" 43780 7.34760680873425e-09 1.13308087455999e-08 1.11702619547427e-08 1.17982553539743e-07 1.85472231906528e-07 8.33410475616355e-09 1.76573190299132e-09 7.06055881888879e-10
"2079" 43781 7.26584903418577e-09 1.13377421066556e-08 1.13426248900736e-08 1.17880263516363e-07 1.84747540511947e-07 8.31639257595672e-09 1.76398296767262e-09 7.06078495029353e-10
"2080" 43782 7.18409125963728e-09 1.13446754677113e-08 1.15149878254046e-08 1.17777973492983e-07 1.84022849117367e-07 8.2986803957499e-09 1.76223403235391e-09 7.06101108169827e-10
"2081" 43783 7.1023334850888e-09 1.13516088287669e-08 1.16873507607355e-08 1.17675683469603e-07 1.83298157722787e-07 8.28096821554308e-09 1.76048509703521e-09 7.06123721310302e-10
"2082" 43784 7.02057571054032e-09 1.13585421898226e-08 1.18597136960665e-08 1.17573393446223e-07 1.82573466328206e-07 8.26325603533625e-09 1.7587361617165e-09 7.06146334450776e-10
"2083" 43785 6.93881793599184e-09 1.13654755508783e-08 1.20320766313974e-08 1.17471103422843e-07 1.81848774933626e-07 8.24554385512943e-09 1.7569872263978e-09 7.0616894759125e-10
"2084" 43786 6.85706016144335e-09 1.13724089119339e-08 1.22044395667284e-08 1.17368813399462e-07 1.81124083539046e-07 8.2278316749226e-09 1.7552382910791e-09 7.06191560731724e-10
"2085" 43787 6.77530238689487e-09 1.13793422729896e-08 1.23768025020593e-08 1.17266523376082e-07 1.80399392144465e-07 8.21011949471578e-09 1.75348935576039e-09 7.06214173872198e-10
"2086" 43788 6.78305511100943e-09 1.14093826009179e-08 1.25223627747129e-08 1.17262025471157e-07 1.8031901735953e-07 8.19240731450896e-09 1.74725824120378e-09 7.04196548262896e-10
"2087" 43789 6.79080783512399e-09 1.14394229288463e-08 1.26679230473664e-08 1.17257527566232e-07 1.80238642574595e-07 8.17469513430213e-09 1.74102712664718e-09 7.02178922653594e-10
"2088" 43790 6.79856055923855e-09 1.14694632567747e-08 1.281348332002e-08 1.17253029661306e-07 1.8015826778966e-07 8.15698295409531e-09 1.73479601209057e-09 7.00161297044292e-10
"2089" 43791 6.80631328335311e-09 1.1499503584703e-08 1.29590435926735e-08 1.17248531756381e-07 1.80077893004725e-07 8.13927077388849e-09 1.72856489753396e-09 6.9814367143499e-10
"2090" 43792 6.81406600746767e-09 1.15295439126314e-08 1.31046038653271e-08 1.17244033851456e-07 1.7999751821979e-07 8.12155859368166e-09 1.72233378297736e-09 6.96126045825688e-10
"2091" 43793 6.82181873158223e-09 1.15595842405597e-08 1.32501641379807e-08 1.1723953594653e-07 1.79917143434855e-07 8.10384641347484e-09 1.71610266842075e-09 6.94108420216386e-10
"2092" 43794 6.82957145569679e-09 1.15896245684881e-08 1.33957244106342e-08 1.17235038041605e-07 1.7983676864992e-07 8.08613423326802e-09 1.70987155386414e-09 6.92090794607084e-10
"2093" 43795 6.83228618212134e-09 1.16064288440437e-08 1.3575980725406e-08 1.17043081979574e-07 1.79533227444065e-07 8.08717867271718e-09 1.70425563218284e-09 6.88406679079217e-10
"2094" 43796 6.83500090854588e-09 1.16232331195994e-08 1.37562370401777e-08 1.16851125917543e-07 1.79229686238211e-07 8.08822311216634e-09 1.69863971050154e-09 6.84722563551349e-10
"2095" 43797 6.83771563497043e-09 1.1640037395155e-08 1.39364933549494e-08 1.16659169855512e-07 1.78926145032356e-07 8.0892675516155e-09 1.69302378882024e-09 6.81038448023482e-10
"2096" 43798 6.84043036139497e-09 1.16568416707107e-08 1.41167496697212e-08 1.16467213793481e-07 1.78622603826501e-07 8.09031199106466e-09 1.68740786713895e-09 6.77354332495615e-10
"2097" 43799 6.84314508781952e-09 1.16736459462663e-08 1.42970059844929e-08 1.16275257731449e-07 1.78319062620647e-07 8.09135643051382e-09 1.68179194545765e-09 6.73670216967747e-10
"2098" 43800 6.87956679522011e-09 1.16541124129547e-08 1.42999551679789e-08 1.16326888612141e-07 1.78063057142335e-07 8.09630991756310e-09 1.67586512793021e-09 6.7070031140498e-10
"2099" 43801 6.87735082191277e-09 1.16367821878002e-08 1.43110687750729e-08 1.16242241242519e-07 1.78014856312765e-07 8.15842401429329e-09 1.6723672572928e-09 6.6777563212316e-10
"2100" 43802 6.87513484860544e-09 1.16194519626456e-08 1.43221823821669e-08 1.16157593872896e-07 1.77966655483195e-07 8.22053811102349e-09 1.66886938665540e-09 6.6485095284134e-10
"2101" 43803 6.8729188752981e-09 1.16021217374911e-08 1.43332959892609e-08 1.16072946503274e-07 1.77918454653625e-07 8.28265220775369e-09 1.66537151601799e-09 6.6192627355952e-10
"2102" 43804 6.87070290199076e-09 1.15847915123366e-08 1.43444095963549e-08 1.15988299133651e-07 1.77870253824055e-07 8.34476630448388e-09 1.66187364538058e-09 6.590015942777e-10
"2103" 43805 6.86848692868342e-09 1.15674612871821e-08 1.43555232034488e-08 1.15903651764029e-07 1.77822052994486e-07 8.40688040121408e-09 1.65837577474317e-09 6.56076914995881e-10
"2104" 43806 6.86627095537608e-09 1.15501310620275e-08 1.43666368105428e-08 1.15819004394406e-07 1.77773852164916e-07 8.46899449794428e-09 1.65487790410576e-09 6.53152235714061e-10
"2105" 43807 6.86405498206875e-09 1.1532800836873e-08 1.43777504176368e-08 1.15734357024784e-07 1.77725651335346e-07 8.53110859467447e-09 1.65138003346835e-09 6.50227556432241e-10
"2106" 43808 6.86183900876141e-09 1.15154706117185e-08 1.43888640247308e-08 1.15649709655161e-07 1.77677450505776e-07 8.59322269140467e-09 1.64788216283094e-09 6.47302877150421e-10
"2107" 43809 6.85962303545407e-09 1.1498140386564e-08 1.43999776318248e-08 1.15565062285539e-07 1.77629249676206e-07 8.65533678813487e-09 1.64438429219353e-09 6.44378197868601e-10
"2108" 43810 6.84304415478362e-09 9.98739578073606e-09 1.44117743657687e-08 1.15554466063516e-07 1.76522068954068e-07 8.68310500802337e-09 1.58198853148057e-09 6.2934776493097e-10
"2109" 43811 6.82646527411318e-09 9.96433799644860e-09 1.44238421438799e-08 1.15650444094531e-07 1.7633724315761e-07 8.73436155763535e-09 1.58441747837059e-09 6.30129814317491e-10
"2110" 43812 6.80988639344273e-09 9.94128021216114e-09 1.4435909921991e-08 1.15746422125547e-07 1.76152417361153e-07 8.78561810724733e-09 1.58684642526061e-09 6.30911863704013e-10
"2111" 43813 6.79330751277228e-09 9.91822242787368e-09 1.44479777001022e-08 1.15842400156562e-07 1.75967591564695e-07 8.83687465685931e-09 1.58927537215064e-09 6.31693913090534e-10
"2112" 43814 6.77695595786259e-09 9.89873807714725e-09 1.44482487442694e-08 1.16132111829566e-07 1.75546426386801e-07 8.83744149822211e-09 1.59133520331548e-09 6.31693913090534e-10
"2113" 43815 6.76060440295289e-09 9.87925372642083e-09 1.44485197884367e-08 1.1642182350257e-07 1.75125261208908e-07 8.83800833958491e-09 1.59339503448032e-09 6.31693913090534e-10
"2114" 43816 6.74425284804319e-09 9.8597693756944e-09 1.44487908326039e-08 1.16711535175573e-07 1.74704096031014e-07 8.83857518094771e-09 1.59545486564515e-09 6.31693913090534e-10
"2115" 43817 6.72790129313350e-09 9.84028502496798e-09 1.44490618767711e-08 1.17001246848577e-07 1.74282930853121e-07 8.83914202231051e-09 1.59751469680999e-09 6.31693913090534e-10
"2116" 43818 6.7115497382238e-09 9.82080067424155e-09 1.44493329209384e-08 1.17290958521581e-07 1.73861765675227e-07 8.8397088636733e-09 1.59957452797483e-09 6.31693913090534e-10
"2117" 43819 6.6951981833141e-09 9.80131632351513e-09 1.44496039651056e-08 1.17580670194584e-07 1.73440600497333e-07 8.8402757050361e-09 1.60163435913967e-09 6.31693913090534e-10
"2118" 43820 6.67884662840441e-09 9.7818319727887e-09 1.44498750092728e-08 1.17870381867588e-07 1.7301943531944e-07 8.8408425463989e-09 1.60369419030451e-09 6.31693913090534e-10
"2119" 43821 6.65839138567668e-09 9.92359820934952e-09 1.44562177612811e-08 1.17864650770175e-07 1.72996353777421e-07 8.84454270610918e-09 1.60369419030451e-09 6.31455843102168e-10
"2120" 43822 6.63793614294895e-09 1.00653644459103e-08 1.44625605132893e-08 1.17858919672763e-07 1.72973272235402e-07 8.84824286581946e-09 1.60369419030451e-09 6.31217773113801e-10
"2121" 43823 6.61748090022122e-09 1.02071306824712e-08 1.44689032652976e-08 1.1785318857535e-07 1.72950190693383e-07 8.85194302552974e-09 1.60369419030451e-09 6.30979703125435e-10
"2122" 43824 6.59702565749349e-09 1.0348896919032e-08 1.44752460173058e-08 1.17847457477937e-07 1.72927109151363e-07 8.85564318524002e-09 1.60369419030451e-09 6.30741633137069e-10
"2123" 43825 6.57657041476577e-09 1.04906631555928e-08 1.44815887693141e-08 1.17841726380525e-07 1.72904027609344e-07 8.8593433449503e-09 1.60369419030451e-09 6.30503563148702e-10
"2124" 43826 6.55611517203804e-09 1.06324293921536e-08 1.44879315213223e-08 1.17835995283112e-07 1.72880946067325e-07 8.86304350466059e-09 1.60369419030451e-09 6.30265493160336e-10
"2125" 43827 6.53565992931031e-09 1.07741956287144e-08 1.44942742733306e-08 1.178302641857e-07 1.72857864525306e-07 8.86674366437087e-09 1.60369419030451e-09 6.30027423171969e-10
"2126" 43828 6.51520468658258e-09 1.09159618652753e-08 1.45006170253388e-08 1.17824533088287e-07 1.72834782983287e-07 8.87044382408115e-09 1.60369419030451e-09 6.29789353183603e-10
"2127" 43829 6.49474944385485e-09 1.10577281018361e-08 1.45069597773471e-08 1.17818801990874e-07 1.72811701441268e-07 8.87414398379143e-09 1.60369419030451e-09 6.29551283195236e-10
"2128" 43830 6.47429420112713e-09 1.11994943383969e-08 1.45133025293553e-08 1.17813070893462e-07 1.72788619899249e-07 8.87784414350171e-09 1.60369419030451e-09 6.2931321320687e-10
"2129" 43831 6.4538389583994e-09 1.13412605749577e-08 1.45196452813636e-08 1.17807339796049e-07 1.7276553835723e-07 8.88154430321199e-09 1.60369419030451e-09 6.29075143218503e-10
"2130" 43832 6.40535897299443e-09 1.08824401139871e-08 1.45171404829139e-08 1.17009952210952e-07 1.72253881318151e-07 8.88844586951535e-09 1.59715217990177e-09 6.13024590905984e-10
"2131" 43833 6.40430463531983e-09 1.05645804756012e-08 1.45224423934704e-08 1.16591144010046e-07 1.724771988052e-07 8.89157918786283e-09 1.59122536237434e-09 6.09079792249276e-10
"2132" 43834 6.40042827326255e-09 1.05986872075342e-08 1.43734664865673e-08 1.15069632931722e-07 1.72142438710764e-07 8.90613689469133e-09 1.58879641548431e-09 6.08059672874388e-10
"2133" 43835 6.39655191120527e-09 1.06327939394671e-08 1.42244905796642e-08 1.13548121853398e-07 1.71807678616328e-07 8.92069460151982e-09 1.58636746859429e-09 6.070395534995e-10
"2134" 43836 6.40182359957828e-09 1.04998733423946e-08 1.41326656380172e-08 1.12071666596537e-07 1.71091148609701e-07 8.92198197298161e-09 1.59658860808855e-09 6.22069986437131e-10
"2135" 43837 6.40709528795128e-09 1.03669527453221e-08 1.40408406963702e-08 1.10595211339676e-07 1.70374618603074e-07 8.9232693444434e-09 1.60680974758281e-09 6.37100419374763e-10
"2136" 43838 6.42844073895529e-09 1.02703699571169e-08 1.38894253919619e-08 1.09214788875054e-07 1.69633852251507e-07 8.93847486997224e-09 1.60680974758281e-09 6.36080299999875e-10
"2137" 43839 6.4497861899593e-09 1.01737871689117e-08 1.37380100875537e-08 1.07834366410432e-07 1.68893085899939e-07 8.95368039550107e-09 1.60680974758281e-09 6.35060180624987e-10
"2138" 43840 6.47113164096331e-09 1.00772043807065e-08 1.35865947831454e-08 1.06453943945809e-07 1.68152319548372e-07 8.96888592102991e-09 1.60680974758281e-09 6.34040061250099e-10
"2139" 43841 6.49247709196732e-09 9.98062159250127e-09 1.34351794787372e-08 1.05073521481187e-07 1.67411553196804e-07 8.98409144655875e-09 1.60680974758281e-09 6.33019941875211e-10
"2140" 43842 6.51382254297132e-09 9.88403880429607e-09 1.32837641743289e-08 1.03693099016565e-07 1.66670786845237e-07 8.99929697208759e-09 1.60680974758281e-09 6.31999822500323e-10
"2141" 43843 6.53516799397533e-09 9.78745601609087e-09 1.31323488699207e-08 1.02312676551942e-07 1.6593002049367e-07 9.01450249761642e-09 1.60680974758281e-09 6.30979703125435e-10
"2142" 43844 6.55651344497934e-09 9.69087322788568e-09 1.29809335655124e-08 1.0093225408732e-07 1.65189254142102e-07 9.02970802314526e-09 1.60680974758281e-09 6.29959583750547e-10
"2143" 43845 6.57940562185292e-09 9.72321001876355e-09 1.2982657533814e-08 1.01050164371377e-07 1.64975972261294e-07 8.97323389944054e-09 1.6033118769454e-09 6.27749114433827e-10
"2144" 43846 6.60229779872649e-09 9.75554680964141e-09 1.29843815021156e-08 1.01168074655434e-07 1.64762690380486e-07 8.91675977573581e-09 1.599814006308e-09 6.25538645117106e-10
"2145" 43847 6.62518997560007e-09 9.78788360051928e-09 1.29861054704172e-08 1.01285984939492e-07 1.64549408499678e-07 8.86028565203108e-09 1.59631613567059e-09 6.23328175800386e-10
"2146" 43848 6.64808215247364e-09 9.82022039139715e-09 1.29878294387188e-08 1.01403895223549e-07 1.6433612661887e-07 8.80381152832635e-09 1.59281826503318e-09 6.21117706483666e-10
"2147" 43849 6.67097432934722e-09 9.85255718227501e-09 1.29895534070204e-08 1.01521805507606e-07 1.64122844738062e-07 8.74733740462163e-09 1.58932039439577e-09 6.18907237166945e-10
"2148" 43850 6.69386650622079e-09 9.88489397315288e-09 1.2991277375322e-08 1.01639715791663e-07 1.63909562857254e-07 8.6908632809169e-09 1.58582252375836e-09 6.16696767850225e-10
"2149" 43851 6.71675868309437e-09 9.91723076403075e-09 1.29930013436235e-08 1.0175762607572e-07 1.63696280976445e-07 8.63438915721217e-09 1.58232465312095e-09 6.14486298533504e-10
"2150" 43852 6.73965085996794e-09 9.94956755490862e-09 1.29947253119251e-08 1.01875536359777e-07 1.63482999095637e-07 8.57791503350744e-09 1.57882678248354e-09 6.12275829216784e-10
"2151" 43853 6.76254303684152e-09 9.98190434578648e-09 1.29964492802267e-08 1.01993446643835e-07 1.63269717214829e-07 8.52144090980272e-09 1.57532891184613e-09 6.10065359900064e-10
"2152" 43854 6.7867105122282e-09 1.00182421546538e-08 1.29842191941102e-08 1.02070223486028e-07 1.63261277736008e-07 8.53680839000664e-09 1.57744696289002e-09 6.09804676771223e-10
"2153" 43855 6.81087798761489e-09 1.00545799635211e-08 1.29719891079936e-08 1.02147000328221e-07 1.63252838257187e-07 8.55217587021056e-09 1.57956501393391e-09 6.09543993642383e-10
"2154" 43856 6.83504546300158e-09 1.00909177723884e-08 1.29597590218771e-08 1.02223777170415e-07 1.63244398778367e-07 8.56754335041448e-09 1.5816830649778e-09 6.09283310513542e-10
"2155" 43857 6.85921293838826e-09 1.01272555812557e-08 1.29475289357605e-08 1.02300554012608e-07 1.63235959299546e-07 8.58291083061841e-09 1.58380111602169e-09 6.09022627384702e-10
"2156" 43858 6.88338041377495e-09 1.0163593390123e-08 1.2935298849644e-08 1.02377330854801e-07 1.63227519820725e-07 8.59827831082233e-09 1.58591916706558e-09 6.08761944255861e-10
"2157" 43859 6.91857728918038e-09 1.02264033037357e-08 1.29214748008776e-08 1.02566844155225e-07 1.63756585136124e-07 8.6171968851534e-09 1.59495494305435e-09 6.08761944255861e-10
"2158" 43860 6.92139931356305e-09 1.02569533778331e-08 1.29062955312751e-08 1.02589370187334e-07 1.63736127206095e-07 8.65170471667017e-09 1.5957645920177e-09 6.14792207943293e-10
"2159" 43861 6.92422133794573e-09 1.02875034519304e-08 1.28911162616726e-08 1.02611896219443e-07 1.63715669276066e-07 8.68621254818695e-09 1.59657424098104e-09 6.20822471630725e-10
"2160" 43862 6.92704336232841e-09 1.03180535260278e-08 1.287593699207e-08 1.02634422251552e-07 1.63695211346037e-07 8.72072037970373e-09 1.59738388994438e-09 6.26852735318157e-10
"2161" 43863 6.92986538671109e-09 1.03486036001251e-08 1.28607577224675e-08 1.0265694828366e-07 1.63674753416009e-07 8.7552282112205e-09 1.59819353890772e-09 6.32882999005589e-10
"2162" 43864 6.93268741109377e-09 1.03791536742225e-08 1.2845578452865e-08 1.02679474315769e-07 1.6365429548598e-07 8.78973604273728e-09 1.59900318787106e-09 6.3891326269302e-10
"2163" 43865 6.93550943547645e-09 1.04097037483198e-08 1.28303991832624e-08 1.02702000347878e-07 1.63633837555951e-07 8.82424387425405e-09 1.5998128368344e-09 6.44943526380452e-10
"2164" 43866 6.93833145985912e-09 1.04402538224172e-08 1.28152199136599e-08 1.02724526379987e-07 1.63613379625922e-07 8.85875170577083e-09 1.60062248579774e-09 6.50973790067884e-10
"2165" 43867 6.9411534842418e-09 1.04708038965145e-08 1.28000406440574e-08 1.02747052412096e-07 1.63592921695894e-07 8.89325953728761e-09 1.60143213476108e-09 6.57004053755316e-10
"2166" 43868 6.93261148488686e-09 1.05015512732484e-08 1.27653446019392e-08 1.02822513919968e-07 1.63154227447499e-07 8.81955909740131e-09 1.59320600773565e-09 6.57004053755316e-10
"2167" 43869 6.83730553790462e-09 1.05263246056276e-08 1.27574512224984e-08 1.02913699841337e-07 1.62945334476677e-07 8.83045068864232e-09 1.58778454214238e-09 6.63295000571588e-10
"2168" 43870 6.74199959092238e-09 1.05510979380068e-08 1.27495578430576e-08 1.03004885762706e-07 1.62736441505856e-07 8.84134227988333e-09 1.58236307654912e-09 6.69585947387861e-10
"2169" 43871 6.64669364394014e-09 1.05758712703859e-08 1.27416644636169e-08 1.03096071684076e-07 1.62527548535034e-07 8.85223387112434e-09 1.57694161095585e-09 6.75876894204133e-10
"2170" 43872 6.5513876969579e-09 1.05707905844215e-08 1.27338577546106e-08 1.03097445536866e-07 1.63469820198176e-07 8.82770110195171e-09 1.57058745782418e-09 6.76851787298073e-10
"2171" 43873 6.45608174997566e-09 1.05657098984571e-08 1.27260510456044e-08 1.03098819389656e-07 1.64412091861318e-07 8.80316833277907e-09 1.56423330469251e-09 6.77826680392013e-10
"2172" 43874 6.36077580299343e-09 1.05606292124926e-08 1.27182443365981e-08 1.03100193242445e-07 1.65354363524461e-07 8.77863556360644e-09 1.55787915156085e-09 6.78801573485953e-10
"2173" 43875 6.26546985601119e-09 1.05555485265282e-08 1.27104376275918e-08 1.03101567095235e-07 1.66296635187603e-07 8.7541027944338e-09 1.55152499842918e-09 6.79776466579893e-10
"2174" 43876 6.17016390902895e-09 1.05504678405637e-08 1.27026309185856e-08 1.03102940948025e-07 1.67238906850745e-07 8.72957002526116e-09 1.54517084529751e-09 6.80751359673833e-10
"2175" 43877 6.07485796204671e-09 1.05453871545993e-08 1.26978600634998e-08 1.03102433068038e-07 1.67046203694147e-07 8.70503725608853e-09 1.53862883489477e-09 6.81726252767773e-10
"2176" 43878 5.97955201506447e-09 1.05403064686349e-08 1.26930892084141e-08 1.0310192518805e-07 1.66853500537548e-07 8.68050448691589e-09 1.53208682449203e-09 6.82701145861713e-10
"2177" 43879 5.88424606808224e-09 1.05352257826704e-08 1.26883183533283e-08 1.03101417308062e-07 1.6666079738095e-07 8.65597171774325e-09 1.52554481408928e-09 6.83676038955653e-10
"2178" 43880 5.7889401211e-09 1.0530145096706e-08 1.26835474982426e-08 1.03100909428074e-07 1.66468094224352e-07 8.63143894857062e-09 1.51900280368654e-09 6.84650932049592e-10
"2179" 43881 5.69363417411776e-09 1.05250644107415e-08 1.26787766431568e-08 1.03100401548087e-07 1.66275391067753e-07 8.60690617939798e-09 1.5124607932838e-09 6.85625825143532e-10
"2180" 43882 5.59832822713552e-09 1.05199837247771e-08 1.26740057880711e-08 1.03099893668099e-07 1.66082687911155e-07 8.58237341022535e-09 1.50591878288106e-09 6.86600718237472e-10
"2181" 43883 5.50302228015328e-09 1.05149030388127e-08 1.26692349329853e-08 1.03099385788111e-07 1.65889984754557e-07 8.55784064105271e-09 1.49937677247832e-09 6.87575611331412e-10
"2182" 43884 5.40771633317105e-09 1.05098223528482e-08 1.26644640778996e-08 1.03098877908124e-07 1.65697281597958e-07 8.53330787188007e-09 1.49283476207558e-09 6.88550504425352e-10
"2183" 43885 5.31241038618881e-09 1.05047416668838e-08 1.26596932228138e-08 1.03098370028136e-07 1.6550457844136e-07 8.50877510270744e-09 1.48629275167284e-09 6.89525397519292e-10
"2184" 43886 5.21710443920657e-09 1.04996609809193e-08 1.26549223677281e-08 1.03097862148148e-07 1.65311875284762e-07 8.4842423335348e-09 1.4797507412701e-09 6.90500290613232e-10
"2185" 43887 5.12179849222433e-09 1.04945802949549e-08 1.26501515126423e-08 1.0309735426816e-07 1.65119172128163e-07 8.45970956436216e-09 1.47320873086735e-09 6.91475183707172e-10
"2186" 43888 5.02649254524209e-09 1.04894996089904e-08 1.26453806575566e-08 1.03096846388173e-07 1.64926468971565e-07 8.43517679518953e-09 1.46666672046461e-09 6.92450076801112e-10
"2187" 43889 5.0146361333095e-09 1.04596455906468e-08 1.26433312770068e-08 1.02950901776731e-07 1.62593489457906e-07 8.31358779011247e-09 1.46460688929977e-09 6.92404850520164e-10
"2188" 43890 5.00936444493649e-09 1.04449954406631e-08 1.25832208916384e-08 1.02577295427216e-07 1.62189299990444e-07 8.30715093280353e-09 1.45195680291549e-09 6.87088796797831e-10
"2189" 43891 5.00409275656348e-09 1.04303452906793e-08 1.252311050627e-08 1.02203689077701e-07 1.61785110522982e-07 8.30071407549458e-09 1.4393067165312e-09 6.81772743075499e-10
"2190" 43892 4.99882106819047e-09 1.04156951406956e-08 1.24630001209016e-08 1.01830082728186e-07 1.6138092105552e-07 8.29427721818564e-09 1.42665663014691e-09 6.76456689353167e-10
"2191" 43893 4.99061369255441e-09 1.04025522431153e-08 1.24344632532963e-08 1.01614767411481e-07 1.61233060418354e-07 8.32326472129034e-09 1.4151270885721e-09 6.70426425665735e-10
"2192" 43894 4.98240631691835e-09 1.03894093455349e-08 1.2405926385691e-08 1.01399452094776e-07 1.61085199781188e-07 8.35225222439505e-09 1.40359754699729e-09 6.64396161978303e-10
"2193" 43895 4.97541740835521e-09 1.03762664479546e-08 1.23841656222666e-08 1.01099330494404e-07 1.60695310920493e-07 8.34610523231348e-09 1.39113531788408e-09 6.5908010825597e-10
"2194" 43896 4.96842849979207e-09 1.03631235503742e-08 1.23624048588422e-08 1.00799208894033e-07 1.60305422059799e-07 8.33995824023191e-09 1.37867308877086e-09 6.53764054533638e-10
"2195" 43897 4.96143959122893e-09 1.03499806527939e-08 1.23406440954178e-08 1.00499087293662e-07 1.59915533199105e-07 8.33381124815034e-09 1.36621085965765e-09 6.48448000811306e-10
"2196" 43898 4.95445068266579e-09 1.03368377552136e-08 1.23188833319934e-08 1.0019896569329e-07 1.5952564433841e-07 8.32766425606877e-09 1.35374863054444e-09 6.43131947088973e-10
"2197" 43899 4.94746177410265e-09 1.03236948576332e-08 1.2297122568569e-08 9.9898844092919e-08 1.59135755477716e-07 8.3215172639872e-09 1.34128640143122e-09 6.37815893366641e-10
"2198" 43900 4.94047286553951e-09 1.03105519600529e-08 1.22753618051446e-08 9.95987224925477e-08 1.58745866617022e-07 8.31537027190563e-09 1.32882417231801e-09 6.32499839644308e-10
"2199" 43901 4.94241104656815e-09 1.03108644035854e-08 1.23154787306075e-08 9.96728284013702e-08 1.58580041815413e-07 8.31458165356105e-09 1.32901202958908e-09 6.33474732738248e-10
"2200" 43902 4.94434922759679e-09 1.03111768471178e-08 1.23555956560704e-08 9.97469343101928e-08 1.58414217013804e-07 8.31379303521647e-09 1.32919988686015e-09 6.34449625832188e-10
"2201" 43903 4.94628740862543e-09 1.03114892906503e-08 1.23957125815332e-08 9.98210402190154e-08 1.58248392212195e-07 8.31300441687189e-09 1.32938774413123e-09 6.35424518926128e-10
"2202" 43904 4.94822558965407e-09 1.03118017341827e-08 1.24358295069961e-08 9.98951461278379e-08 1.58082567410587e-07 8.3122157985273e-09 1.3295756014023e-09 6.36399412020068e-10
"2203" 43905 4.95016377068271e-09 1.03121141777152e-08 1.2475946432459e-08 9.99692520366605e-08 1.57916742608978e-07 8.31142718018272e-09 1.32976345867337e-09 6.37374305114008e-10
"2204" 43906 4.95210195171135e-09 1.03124266212477e-08 1.25160633579219e-08 1.00043357945483e-07 1.57750917807369e-07 8.31063856183814e-09 1.32995131594444e-09 6.38349198207948e-10
"2205" 43907 4.95404013273999e-09 1.03127390647801e-08 1.25561802833848e-08 1.00117463854306e-07 1.5758509300576e-07 8.30984994349356e-09 1.33013917321552e-09 6.39324091301888e-10
"2206" 43908 4.95597831376863e-09 1.03130515083126e-08 1.25962972088476e-08 1.00191569763128e-07 1.57419268204151e-07 8.30906132514898e-09 1.33032703048659e-09 6.40298984395828e-10
"2207" 43909 4.95791649479727e-09 1.03133639518451e-08 1.26364141343105e-08 1.00265675671951e-07 1.57253443402543e-07 8.3082727068044e-09 1.33051488775766e-09 6.41273877489768e-10
"2208" 43910 4.96007563666442e-09 1.02913476459992e-08 1.26364141343105e-08 9.93581275360444e-08 1.5727478398157e-07 8.26589158093375e-09 1.33070274502873e-09 6.42010700595341e-10
"2209" 43911 4.96223477853157e-09 1.02693313401533e-08 1.26364141343105e-08 9.8450579400138e-08 1.57296124560596e-07 8.22351045506311e-09 1.33089060229981e-09 6.42747523700915e-10
"2210" 43912 4.96439392039872e-09 1.02473150343073e-08 1.26364141343105e-08 9.75430312642316e-08 1.57317465139623e-07 8.18112932919247e-09 1.33107845957088e-09 6.43484346806488e-10
"2211" 43913 4.96655306226587e-09 1.02252987284614e-08 1.26364141343105e-08 9.66354831283253e-08 1.5733880571865e-07 8.13874820332183e-09 1.33126631684195e-09 6.44221169912062e-10
"2212" 43914 4.96871220413302e-09 1.02032824226155e-08 1.26364141343105e-08 9.57279349924189e-08 1.57360146297677e-07 8.09636707745119e-09 1.33145417411302e-09 6.44957993017635e-10
"2213" 43915 4.97087134600017e-09 1.01812661167696e-08 1.26364141343105e-08 9.48203868565125e-08 1.57381486876703e-07 8.05398595158054e-09 1.3316420313841e-09 6.45694816123208e-10
"2214" 43916 4.97696368136479e-09 1.01875965768639e-08 1.25939878169943e-08 9.40038877389177e-08 1.57712671114031e-07 8.01775181779147e-09 1.33538597917163e-09 6.45717429263682e-10
"2215" 43917 4.9771846422033e-09 1.01669613894737e-08 1.25556381950503e-08 9.30334419490201e-08 1.58456306074842e-07 8.04646234476075e-09 1.36623725492549e-09 6.45740042404156e-10
"2216" 43918 4.99337206771467e-09 1.01428459233148e-08 1.25431480976302e-08 9.21096797733693e-08 1.58456306074842e-07 8.00400024155257e-09 1.36735779973497e-09 6.46522091790678e-10
"2217" 43919 5.00955949322605e-09 1.01187304571559e-08 1.253065800021e-08 9.11859175977184e-08 1.58456306074842e-07 7.96153813834438e-09 1.36847834454444e-09 6.47304141177199e-10
"2218" 43920 5.02574691873742e-09 1.0094614990997e-08 1.25181679027899e-08 9.02621554220676e-08 1.58456306074842e-07 7.9190760351362e-09 1.36959888935392e-09 6.48086190563721e-10
"2219" 43921 5.0419343442488e-09 1.00704995248381e-08 1.25056778053697e-08 8.93383932464167e-08 1.58456306074842e-07 7.87661393192801e-09 1.37071943416339e-09 6.48868239950243e-10
"2220" 43922 5.05812176976017e-09 1.00463840586792e-08 1.24931877079496e-08 8.84146310707659e-08 1.58456306074842e-07 7.83415182871983e-09 1.37183997897287e-09 6.49650289336764e-10
"2221" 43923 5.07430919527155e-09 1.00222685925203e-08 1.24806976105295e-08 8.7490868895115e-08 1.58456306074842e-07 7.79168972551164e-09 1.37296052378234e-09 6.50432338723286e-10
"2222" 43924 5.09049662078292e-09 9.99815312636144e-09 1.24682075131093e-08 8.65671067194642e-08 1.58456306074842e-07 7.74922762230346e-09 1.37408106859182e-09 6.51214388109807e-10
"2223" 43925 5.10562970861969e-09 9.99825727420559e-09 1.24971028915537e-08 8.66060642238294e-08 1.58365131007183e-07 7.74914664496592e-09 1.36927479587386e-09 6.51259614390755e-10
"2224" 43926 5.11948749794336e-09 9.99836142204975e-09 1.2485176151958e-08 8.65898501840849e-08 1.58293999701723e-07 7.74332356223452e-09 1.37020748341227e-09 6.52041663777277e-10
"2225" 43927 5.13567492345473e-09 9.98937287288824e-09 1.23189944568673e-08 8.62132969502192e-08 1.58302928881438e-07 7.74140952710323e-09 1.37114017095067e-09 6.53061783152165e-10
"2226" 43928 5.13955128551201e-09 9.98605691760074e-09 1.21319841036419e-08 8.5800071671933e-08 1.59172482163924e-07 7.76901579231665e-09 1.37518841576737e-09 6.53299853140531e-10
"2227" 43929 5.14342764756929e-09 9.98274096231325e-09 1.19449737504166e-08 8.53868463936468e-08 1.6004203544641e-07 7.79662205753007e-09 1.37923666058408e-09 6.53537923128898e-10
"2228" 43930 5.14730400962657e-09 9.97942500702576e-09 1.17579633971913e-08 8.49736211153606e-08 1.60911588728896e-07 7.8242283227435e-09 1.38328490540079e-09 6.53775993117264e-10
"2229" 43931 5.15118037168385e-09 9.97610905173827e-09 1.1570953043966e-08 8.45603958370744e-08 1.61781142011382e-07 7.85183458795692e-09 1.38733315021749e-09 6.54014063105631e-10
"2230" 43932 5.15505673374113e-09 9.97279309645078e-09 1.13839426907407e-08 8.41471705587882e-08 1.62650695293868e-07 7.87944085317034e-09 1.3913813950342e-09 6.54252133093997e-10
"2231" 43933 5.15893309579841e-09 9.96947714116329e-09 1.11969323375154e-08 8.3733945280502e-08 1.63520248576354e-07 7.90704711838376e-09 1.39542963985091e-09 6.54490203082364e-10
"2232" 43934 5.16280945785569e-09 9.9661611858758e-09 1.100992198429e-08 8.33207200022159e-08 1.6438980185884e-07 7.93465338359718e-09 1.39947788466761e-09 6.5472827307073e-10
"2233" 43935 5.16308725013439e-09 9.95687118623361e-09 1.08261751939352e-08 8.29737650004246e-08 1.64694062480061e-07 7.96795482098971e-09 1.39960092324267e-09 6.5472827307073e-10
"2234" 43936 5.16336504241309e-09 9.94758118659142e-09 1.06424284035804e-08 8.26268099986333e-08 1.64998323101282e-07 8.00125625838224e-09 1.39972396181774e-09 6.5472827307073e-10
"2235" 43937 5.16364283469178e-09 9.93829118694923e-09 1.04586816132255e-08 8.2279854996842e-08 1.65302583722504e-07 8.03455769577477e-09 1.3998470003928e-09 6.5472827307073e-10
"2236" 43938 5.16392062697048e-09 9.92900118730704e-09 1.02749348228707e-08 8.19328999950507e-08 1.65606844343725e-07 8.0678591331673e-09 1.39997003896786e-09 6.5472827307073e-10
"2237" 43939 5.16419841924918e-09 9.91971118766484e-09 1.00911880325159e-08 8.15859449932594e-08 1.65911104964947e-07 8.10116057055983e-09 1.40009307754292e-09 6.5472827307073e-10
"2238" 43940 5.16447621152788e-09 9.91042118802265e-09 9.90744124216101e-09 8.12389899914681e-08 1.66215365586168e-07 8.13446200795236e-09 1.40021611611798e-09 6.5472827307073e-10
"2239" 43941 5.16475400380657e-09 9.90113118838046e-09 9.72369445180617e-09 8.08920349896769e-08 1.66519626207389e-07 8.16776344534489e-09 1.40033915469304e-09 6.5472827307073e-10
"2240" 43942 5.16503179608527e-09 9.89184118873827e-09 9.53994766145133e-09 8.05450799878856e-08 1.66823886828611e-07 8.20106488273742e-09 1.40046219326811e-09 6.5472827307073e-10
"2241" 43943 5.16530958836397e-09 9.88255118909608e-09 9.3562008710965e-09 8.01981249860943e-08 1.67128147449832e-07 8.23436632012995e-09 1.40058523184317e-09 6.5472827307073e-10
"2242" 43944 5.16558738064267e-09 9.87326118945389e-09 9.17245408074166e-09 7.9851169984303e-08 1.67432408071053e-07 8.26766775752248e-09 1.40070827041823e-09 6.5472827307073e-10
"2243" 43945 5.16586517292136e-09 9.8639711898117e-09 8.98870729038682e-09 7.95042149825117e-08 1.67736668692275e-07 8.300969194915e-09 1.40083130899329e-09 6.5472827307073e-10
"2244" 43946 5.16614296520006e-09 9.85468119016951e-09 8.80496050003198e-09 7.91572599807204e-08 1.68040929313496e-07 8.33427063230753e-09 1.40095434756835e-09 6.5472827307073e-10
"2245" 43947 5.15400239606653e-09 9.85048286954354e-09 8.76089688484871e-09 7.73683877060978e-08 1.68002951658802e-07 8.36732913768744e-09 1.38947642705563e-09 6.45818556382426e-10
"2246" 43948 5.15195055215751e-09 9.85018141906286e-09 8.75287349975613e-09 7.62251671768697e-08 1.66334676795085e-07 8.39401887400399e-09 1.38947642705563e-09 6.4558048639406e-10
"2247" 43949 5.11665910863844e-09 9.84420737470816e-09 8.74945786550656e-09 7.63059104206341e-08 1.66567576396374e-07 8.42070861032054e-09 1.38866677809229e-09 6.41545235175456e-10
"2248" 43950 5.08136766511936e-09 9.83823333035346e-09 8.74604223125699e-09 7.63866536643985e-08 1.66800475997663e-07 8.44739834663709e-09 1.38785712912895e-09 6.37509983956852e-10
"2249" 43951 5.07628556583364e-09 9.83434745325996e-09 8.82069209459529e-09 7.64673969081629e-08 1.66729949250334e-07 8.43866372253999e-09 1.38673658431947e-09 6.34449625832188e-10
"2250" 43952 5.07120346654792e-09 9.83046157616646e-09 8.89534195793359e-09 7.65481401519274e-08 1.66659422503005e-07 8.42992909844289e-09 1.38561603951e-09 6.31389267707524e-10
"2251" 43953 5.05557799051618e-09 9.83377753145395e-09 8.88173458525356e-09 7.65494866241058e-08 1.66636316625982e-07 8.42119447434579e-09 1.38468335197159e-09 6.29632325227063e-10
"2252" 43954 5.03995251448444e-09 9.83709348674144e-09 8.86812721257353e-09 7.65508330962842e-08 1.66613210748959e-07 8.41245985024869e-09 1.38375066443319e-09 6.27875382746601e-10
"2253" 43955 5.0243270384527e-09 9.84040944202893e-09 8.8545198398935e-09 7.65521795684626e-08 1.66590104871936e-07 8.40372522615160e-09 1.38281797689479e-09 6.2611844026614e-10
"2254" 43956 5.00870156242096e-09 9.84372539731642e-09 8.84091246721347e-09 7.6553526040641e-08 1.66566998994913e-07 8.3949906020545e-09 1.38188528935639e-09 6.24361497785678e-10
"2255" 43957 4.99307608638923e-09 9.84704135260392e-09 8.82730509453343e-09 7.65548725128194e-08 1.6654389311789e-07 8.3862559779574e-09 1.38095260181798e-09 6.22604555305217e-10
"2256" 43958 4.97745061035749e-09 9.85035730789141e-09 8.8136977218534e-09 7.65562189849978e-08 1.66520787240868e-07 8.3775213538603e-09 1.38001991427958e-09 6.20847612824755e-10
"2257" 43959 4.96182513432575e-09 9.8536732631789e-09 8.80009034917337e-09 7.65575654571762e-08 1.66497681363845e-07 8.3687867297632e-09 1.37908722674118e-09 6.19090670344294e-10
"2258" 43960 4.94619965829401e-09 9.85698921846639e-09 8.78648297649334e-09 7.65589119293546e-08 1.66474575486822e-07 8.3600521056661e-09 1.37815453920277e-09 6.17333727863832e-10
"2259" 43961 4.93057418226227e-09 9.86030517375388e-09 8.77287560381331e-09 7.6560258401533e-08 1.66451469609799e-07 8.35131748156901e-09 1.37722185166437e-09 6.15576785383371e-10
"2260" 43962 4.91494870623053e-09 9.86362112904137e-09 8.75926823113328e-09 7.65616048737113e-08 1.66428363732776e-07 8.34258285747191e-09 1.37628916412597e-09 6.1381984290291e-10
"2261" 43963 4.8993232301988e-09 9.86693708432886e-09 8.74566085845324e-09 7.65629513458897e-08 1.66405257855753e-07 8.33384823337481e-09 1.37535647658757e-09 6.12062900422448e-10
"2262" 43964 4.88369775416706e-09 9.87025303961635e-09 8.73205348577321e-09 7.65642978180681e-08 1.66382151978731e-07 8.32511360927771e-09 1.37442378904916e-09 6.10305957941987e-10
"2263" 43965 4.86807227813532e-09 9.87356899490385e-09 8.71844611309318e-09 7.65656442902466e-08 1.66359046101708e-07 8.31637898518062e-09 1.37349110151076e-09 6.08549015461525e-10
"2264" 43966 4.85244680210358e-09 9.87688495019134e-09 8.70483874041315e-09 7.65669907624249e-08 1.66335940224685e-07 8.30764436108352e-09 1.37255841397236e-09 6.06792072981064e-10
"2265" 43967 4.83682132607184e-09 9.88020090547883e-09 8.69123136773312e-09 7.65683372346033e-08 1.66312834347662e-07 8.29890973698642e-09 1.37162572643395e-09 6.05035130500602e-10
"2266" 43968 4.8211958500401e-09 9.88351686076632e-09 8.67762399505308e-09 7.65696837067817e-08 1.66289728470639e-07 8.29017511288932e-09 1.37069303889555e-09 6.03278188020141e-10
"2267" 43969 4.83504727444152e-09 9.89260955777198e-09 8.53564246089184e-09 7.65542314870188e-08 1.65811844336012e-07 8.28996622499949e-09 1.37000642850727e-09 6.03346027441563e-10
"2268" 43970 4.85393669653296e-09 9.89949894662051e-09 8.50217163395806e-09 7.60852408855556e-08 1.65740253601607e-07 8.27803019430932e-09 1.35374203172747e-09 6.03346027441563e-10
"2269" 43971 4.87365949546049e-09 9.89949894662051e-09 8.50331017870791e-09 7.54383527229126e-08 1.65752474610617e-07 8.27159333700037e-09 1.35305542133920e-09 6.05386266191339e-10
"2270" 43972 4.87731489667926e-09 9.89399067622767e-09 8.50634603262842e-09 7.47867309690913e-08 1.65970662552588e-07 8.26930845930417e-09 1.35330149848932e-09 6.05408879331813e-10
"2271" 43973 4.87942357202846e-09 9.88500212706616e-09 8.52143863179642e-09 7.41486029300462e-08 1.6595905826921e-07 8.2753744740482e-09 1.35330149848932e-09 6.05408879331813e-10
"2272" 43974 4.88153224737767e-09 9.87601357790465e-09 8.53653123096442e-09 7.35104748910011e-08 1.65947453985831e-07 8.28144048879222e-09 1.35330149848932e-09 6.05408879331813e-10
"2273" 43975 4.88364092272687e-09 9.86702502874314e-09 8.55162383013242e-09 7.28723468519561e-08 1.65935849702452e-07 8.28750650353625e-09 1.35330149848932e-09 6.05408879331813e-10
"2274" 43976 4.88574959807607e-09 9.85803647958163e-09 8.56671642930043e-09 7.2234218812911e-08 1.65924245419074e-07 8.29357251828028e-09 1.35330149848932e-09 6.05408879331813e-10
"2275" 43977 4.88785827342528e-09 9.84904793042012e-09 8.58180902846843e-09 7.15960907738659e-08 1.65912641135695e-07 8.2996385330243e-09 1.35330149848932e-09 6.05408879331813e-10
"2276" 43978 4.88996694877448e-09 9.84005938125861e-09 8.59690162763643e-09 7.09579627348208e-08 1.65901036852316e-07 8.30570454776833e-09 1.35330149848932e-09 6.05408879331813e-10
"2277" 43979 4.89207562412368e-09 9.8310708320971e-09 8.61199422680443e-09 7.03198346957757e-08 1.65889432568937e-07 8.31177056251235e-09 1.35330149848932e-09 6.05408879331813e-10
"2278" 43980 4.89418429947289e-09 9.82208228293559e-09 8.62708682597243e-09 6.96817066567306e-08 1.65877828285559e-07 8.31783657725638e-09 1.35330149848932e-09 6.05408879331813e-10
"2279" 43981 4.89629297482209e-09 9.81309373377408e-09 8.64217942514043e-09 6.90435786176855e-08 1.6586622400218e-07 8.32390259200041e-09 1.35330149848932e-09 6.05408879331813e-10
"2280" 43982 4.89840165017130e-09 9.80410518461257e-09 8.65727202430844e-09 6.84054505786404e-08 1.65854619718801e-07 8.32996860674443e-09 1.35330149848932e-09 6.05408879331813e-10
"2281" 43983 4.9005103255205e-09 9.79511663545106e-09 8.67236462347644e-09 6.77673225395953e-08 1.65843015435423e-07 8.33603462148846e-09 1.35330149848932e-09 6.05408879331813e-10
"2282" 43984 4.88665253619684e-09 9.74726931535454e-09 8.63271335253981e-09 6.50215899910402e-08 1.65804284978135e-07 8.34762096464456e-09 1.35386507030254e-09 6.05386266191339e-10
"2283" 43985 4.75771553444546e-09 9.65655642365989e-09 8.64250404115125e-09 6.40878344993041e-08 1.65632620268305e-07 8.3599149488077e-09 1.35361899315241e-09 6.01589084961101e-10
"2284" 43986 4.75594148281515e-09 9.6526595535146e-09 8.65768331075378e-09 6.4030582043646e-08 1.64731092179365e-07 8.36638585023944e-09 1.35430560354069e-09 6.0080703557458e-10
"2285" 43987 4.75277846979134e-09 9.65495601646411e-09 8.66063249423975e-09 6.41920685311748e-08 1.63804913577657e-07 8.36143236319016e-09 1.35499221392897e-09 6.00761809293632e-10
"2286" 43988 4.74961545676753e-09 9.65725247941362e-09 8.66358167772573e-09 6.43535550187037e-08 1.62878734975948e-07 8.35647887614089e-09 1.35567882431725e-09 6.00716583012684e-10
"2287" 43989 4.74645244374373e-09 9.65954894236313e-09 8.66653086121171e-09 6.45150415062325e-08 1.61952556374239e-07 8.35152538909161e-09 1.35636543470553e-09 6.00671356731736e-10
"2288" 43990 4.74328943071992e-09 9.66184540531264e-09 8.66948004469769e-09 6.46765279937614e-08 1.61026377772531e-07 8.34657190204234e-09 1.35705204509381e-09 6.00626130450788e-10
"2289" 43991 4.74012641769612e-09 9.66414186826215e-09 8.67242922818366e-09 6.48380144812903e-08 1.60100199170822e-07 8.34161841499307e-09 1.35773865548209e-09 6.0058090416984e-10
"2290" 43992 4.73696340467231e-09 9.66643833121166e-09 8.67537841166964e-09 6.49995009688191e-08 1.59174020569113e-07 8.33666492794379e-09 1.35842526587037e-09 6.00535677888892e-10
"2291" 43993 4.73673607891156e-09 9.66643833121166e-09 8.72299869961793e-09 6.50779587526388e-08 1.5828961331979e-07 8.33171144089452e-09 1.3582374085993e-09 5.99515558514004e-10
"2292" 43994 4.73650875315081e-09 9.66643833121166e-09 8.77061898756621e-09 6.51564165364585e-08 1.57405206070467e-07 8.32675795384524e-09 1.35804955132823e-09 5.98495439139116e-10
"2293" 43995 4.73628142739006e-09 9.66643833121166e-09 8.8182392755145e-09 6.52348743202781e-08 1.56520798821144e-07 8.32180446679597e-09 1.35786169405715e-09 5.97475319764228e-10
"2294" 43996 4.73605410162931e-09 9.66643833121166e-09 8.86585956346279e-09 6.53133321040978e-08 1.55636391571821e-07 8.31685097974669e-09 1.35767383678608e-09 5.9645520038934e-10
"2295" 43997 4.73582677586856e-09 9.66643833121166e-09 8.91347985141107e-09 6.53917898879175e-08 1.54751984322498e-07 8.31189749269742e-09 1.35748597951501e-09 5.95435081014452e-10
"2296" 43998 4.73559945010781e-09 9.66643833121166e-09 8.96110013935936e-09 6.54702476717371e-08 1.53867577073175e-07 8.30694400564814e-09 1.35729812224393e-09 5.94414961639564e-10
"2297" 43999 4.73537212434705e-09 9.66643833121166e-09 9.00872042730764e-09 6.55487054555568e-08 1.52983169823853e-07 8.30199051859887e-09 1.35711026497286e-09 5.93394842264676e-10
"2298" 44000 4.7351447985863e-09 9.66643833121166e-09 9.05634071525593e-09 6.56271632393765e-08 1.5209876257453e-07 8.2970370315496e-09 1.35692240770179e-09 5.92374722889788e-10
"2299" 44001 4.73491747282555e-09 9.66643833121166e-09 9.10396100320422e-09 6.57056210231962e-08 1.51214355325207e-07 8.29208354450032e-09 1.35673455043072e-09 5.913546035149e-10
"2300" 44002 4.7346901470648e-09 9.66643833121166e-09 9.1515812911525e-09 6.57840788070158e-08 1.50329948075884e-07 8.28713005745105e-09 1.35654669315964e-09 5.90334484140012e-10
"2301" 44003 4.73446282130405e-09 9.66643833121166e-09 9.19920157910079e-09 6.58625365908355e-08 1.49445540826561e-07 8.28217657040177e-09 1.35635883588857e-09 5.89314364765124e-10
"2302" 44004 4.67404413283733e-09 9.65425996071038e-09 9.2454666462129e-09 6.59681224645102e-08 1.48650074865732e-07 8.24783069356008e-09 1.35635883588857e-09 5.85369566108416e-10
"2303" 44005 4.61362544437062e-09 9.6420815902091e-09 9.291731713325e-09 6.60737083381848e-08 1.47854608904903e-07 8.21348481671839e-09 1.35635883588857e-09 5.81424767451708e-10
"2304" 44006 4.61140947106328e-09 9.64597846035439e-09 9.31036995239437e-09 6.53948559540686e-08 1.47700065034689e-07 8.18394336134284e-09 1.35429900472373e-09 5.8040464807682e-10
"2305" 44007 4.60919349775594e-09 9.64987533049967e-09 9.32900819146374e-09 6.47160035699523e-08 1.47545521164475e-07 8.15440190596729e-09 1.35223917355889e-09 5.79384528701932e-10
"2306" 44008 4.6069775244486e-09 9.65377220064496e-09 9.3476464305331e-09 6.40371511858361e-08 1.47390977294261e-07 8.12486045059174e-09 1.35017934239405e-09 5.78364409327044e-10
"2307" 44009 4.6129057304149e-09 9.70307759055964e-09 9.3476464305331e-09 6.37391341203798e-08 1.47841826070825e-07 8.09839249125698e-09 1.35017934239405e-09 5.77604973080996e-10
"2308" 44010 4.6188339363812e-09 9.75238298047433e-09 9.3476464305331e-09 6.34411170549234e-08 1.48292674847389e-07 8.07192453192221e-09 1.35017934239405e-09 5.76845536834949e-10
"2309" 44011 4.61274160101658e-09 9.75318318407222e-09 9.31798125480427e-09 6.26566787971325e-08 1.48496510690918e-07 8.09074923982379e-09 1.35404632875665e-09 5.76800310554001e-10
"2310" 44012 4.60664926565196e-09 9.75398338767011e-09 9.28831607907543e-09 6.18722405393416e-08 1.48700346534448e-07 8.10957394772536e-09 1.35791331511924e-09 5.76755084273053e-10
"2311" 44013 4.60055693028734e-09 9.754783591268e-09 9.2586509033466e-09 6.10878022815507e-08 1.48904182377977e-07 8.12839865562694e-09 1.36178030148184e-09 5.76709857992105e-10
"2312" 44014 4.59446459492273e-09 9.75558379486588e-09 9.22898572761776e-09 6.03033640237598e-08 1.49108018221507e-07 8.14722336352851e-09 1.36564728784443e-09 5.76664631711157e-10
"2313" 44015 4.58837225955811e-09 9.75638399846377e-09 9.19932055188893e-09 5.95189257659689e-08 1.49311854065037e-07 8.16604807143009e-09 1.36951427420703e-09 5.76619405430209e-10
"2314" 44016 4.58227992419349e-09 9.75718420206166e-09 9.16965537616009e-09 5.8734487508178e-08 1.49515689908566e-07 8.18487277933166e-09 1.37338126056962e-09 5.76574179149261e-10
"2315" 44017 4.57618758882887e-09 9.75798440565955e-09 9.13999020043126e-09 5.79500492503872e-08 1.49719525752096e-07 8.20369748723324e-09 1.37724824693221e-09 5.76528952868313e-10
"2316" 44018 4.57009525346425e-09 9.75878460925744e-09 9.11032502470243e-09 5.71656109925963e-08 1.49923361595625e-07 8.22252219513482e-09 1.38111523329481e-09 5.76483726587364e-10
"2317" 44019 4.56400291809964e-09 9.75958481285533e-09 9.08065984897359e-09 5.63811727348054e-08 1.50127197439155e-07 8.24134690303639e-09 1.3849822196574e-09 5.76438500306416e-10
"2318" 44020 4.55791058273502e-09 9.76038501645321e-09 9.05099467324475e-09 5.55967344770145e-08 1.50331033282685e-07 8.26017161093797e-09 1.38884920602e-09 5.76393274025468e-10
"2319" 44021 4.5518182473704e-09 9.7611852200511e-09 9.02132949751592e-09 5.48122962192236e-08 1.50534869126214e-07 8.27899631883954e-09 1.39271619238259e-09 5.7634804774452e-10
"2320" 44022 4.54572591200578e-09 9.76198542364899e-09 8.99166432178709e-09 5.40278579614327e-08 1.50738704969744e-07 8.29782102674112e-09 1.39658317874519e-09 5.76302821463572e-10
"2321" 44023 4.53963357664117e-09 9.76278562724688e-09 8.96199914605825e-09 5.32434197036418e-08 1.50942540813273e-07 8.31664573464270e-09 1.40045016510778e-09 5.76257595182624e-10
"2322" 44024 4.53354124127655e-09 9.76358583084477e-09 8.93233397032942e-09 5.24589814458509e-08 1.51146376656803e-07 8.33547044254427e-09 1.40431715147037e-09 5.76212368901676e-10
"2323" 44025 4.52744890591193e-09 9.76438603444265e-09 8.90266879460058e-09 5.167454318806e-08 1.51350212500333e-07 8.35429515044585e-09 1.40818413783297e-09 5.76167142620728e-10
"2324" 44026 4.52135657054731e-09 9.76518623804054e-09 8.87300361887175e-09 5.08901049302691e-08 1.51554048343862e-07 8.37311985834742e-09 1.41205112419556e-09 5.7612191633978e-10
"2325" 44027 4.4497698123525e-09 9.72346629272811e-09 8.86714858711706e-09 5.02562885014941e-08 1.51554048343862e-07 8.391944566249e-09 1.41554899483297e-09 5.610462571212e-10
"2326" 44028 4.37818305415769e-09 9.68174634741568e-09 8.86129355536236e-09 4.96224720727191e-08 1.51554048343862e-07 8.41076927415057e-09 1.41904686547038e-09 5.45970597902621e-10
"2327" 44029 4.32164709267049e-09 9.68195464310399e-09 8.8491934748976e-09 4.95723610747456e-08 1.51611740471827e-07 8.40471152534544e-09 1.41843167259507e-09 5.45925371621673e-10
"2328" 44030 4.26898749324058e-09 9.6834618955074e-09 8.83777652128276e-09 4.95156438796867e-08 1.52229665312098e-07 8.35794375378832e-09 1.41301020700181e-09 5.44905252246785e-10
"2329" 44031 4.21267249259189e-09 9.71217028756531e-09 8.84153883727044e-09 4.94297633175769e-08 1.51996578435786e-07 8.30265024602394e-09 1.40758874140854e-09 5.44860025965837e-10
"2330" 44032 4.1564143233834e-09 9.71127692917505e-09 8.84530115325813e-09 4.96786464926888e-08 1.51696637422044e-07 8.27249039291778e-09 1.40192119866515e-09 5.46050375907669e-10
"2331" 44033 4.1001561541749e-09 9.71038357078479e-09 8.84906346924581e-09 4.99275296678006e-08 1.51396696408301e-07 8.24233053981163e-09 1.39625365592176e-09 5.47240725849501e-10
"2332" 44034 4.0438979849664e-09 9.70949021239453e-09 8.8528257852335e-09 5.01764128429125e-08 1.51096755394559e-07 8.21217068670547e-09 1.39058611317837e-09 5.48431075791334e-10
"2333" 44035 3.98763981575791e-09 9.70859685400427e-09 8.85658810122118e-09 5.04252960180243e-08 1.50796814380816e-07 8.18201083359932e-09 1.38491857043499e-09 5.49621425733166e-10
"2334" 44036 3.93138164654941e-09 9.70770349561402e-09 8.86035041720887e-09 5.06741791931362e-08 1.50496873367074e-07 8.15185098049317e-09 1.3792510276916e-09 5.50811775674998e-10
"2335" 44037 3.87512347734091e-09 9.70681013722376e-09 8.86411273319655e-09 5.0923062368248e-08 1.50196932353331e-07 8.12169112738701e-09 1.37358348494821e-09 5.52002125616831e-10
"2336" 44038 3.81886530813242e-09 9.7059167788335e-09 8.86787504918423e-09 5.11719455433599e-08 1.49896991339589e-07 8.09153127428086e-09 1.36791594220482e-09 5.53192475558663e-10
"2337" 44039 3.7475563422163e-09 9.68954008770625e-09 8.8483582766686e-09 5.14600256663348e-08 1.49891033458852e-07 8.09234104765628e-09 1.35614032347988e-09 5.46357549344236e-10
"2338" 44040 3.67624737630019e-09 9.67316339657901e-09 8.82884150415296e-09 5.17481057893096e-08 1.49885075578115e-07 8.09315082103171e-09 1.34436470475495e-09 5.39522623129808e-10
"2339" 44041 3.60493841038407e-09 9.65678670545177e-09 8.80932473163732e-09 5.20361859122845e-08 1.49879117697379e-07 8.09396059440713e-09 1.33258908603002e-09 5.32687696915381e-10
"2340" 44042 3.53362944446796e-09 9.64041001432452e-09 8.78980795912168e-09 5.23242660352594e-08 1.49873159816642e-07 8.09477036778256e-09 1.32081346730508e-09 5.25852770700954e-10
"2341" 44043 3.46232047855184e-09 9.62403332319728e-09 8.77029118660604e-09 5.26123461582343e-08 1.49867201935905e-07 8.09558014115799e-09 1.30903784858015e-09 5.19017844486526e-10
"2342" 44044 3.39289286222418e-09 9.61694663171223e-09 8.73486868242069e-09 5.27262116561307e-08 1.49843950929698e-07 8.07707934260658e-09 1.29881670908588e-09 5.19017844486526e-10
"2343" 44045 3.32346524589652e-09 9.60985994022717e-09 8.69944617823535e-09 5.28400771540271e-08 1.4982069992349e-07 8.05857854405518e-09 1.28859556959162e-09 5.19017844486526e-10
"2344" 44046 3.31953205239905e-09 9.41093439782408e-09 8.69736449533199e-09 5.29714628991194e-08 1.47823390309935e-07 7.99185238187088e-09 1.29015004882229e-09 5.27088346923734e-10
"2345" 44047 3.31559885890158e-09 9.21200885542098e-09 8.69528281242864e-09 5.31028486442117e-08 1.45826080696379e-07 7.9251262196866e-09 1.29170452805296e-09 5.35158849360942e-10
"2346" 44048 3.31166566540411e-09 9.01308331301788e-09 8.69320112952528e-09 5.32342343893039e-08 1.43828771082823e-07 7.85840005750231e-09 1.29325900728364e-09 5.4322935179815e-10
"2347" 44049 3.30773247190664e-09 8.81415777061479e-09 8.69111944662192e-09 5.33656201343962e-08 1.41831461469268e-07 7.79167389531802e-09 1.29481348651431e-09 5.51299854235358e-10
"2348" 44050 3.30801662910758e-09 8.6214857369435e-09 8.6888100547686e-09 5.40188954492322e-08 1.39978252182413e-07 7.72103868553361e-09 1.29424991470109e-09 5.50324961141418e-10
"2349" 44051 3.30297863141757e-09 8.41924423925291e-09 8.68672837186524e-09 5.41189950386176e-08 1.37955995860774e-07 7.64919708162496e-09 1.29543527820658e-09 5.49588138035844e-10
"2350" 44052 3.29794063372755e-09 8.21700274156232e-09 8.68464668896188e-09 5.4219094628003e-08 1.35933739539134e-07 7.57735547771631e-09 1.29662064171206e-09 5.48851314930271e-10
"2351" 44053 3.29290263603753e-09 8.01476124387173e-09 8.68256500605853e-09 5.43191942173883e-08 1.33911483217495e-07 7.50551387380766e-09 1.29780600521755e-09 5.48114491824697e-10
"2352" 44054 3.28786463834752e-09 7.81251974618115e-09 8.68048332315517e-09 5.44192938067737e-08 1.31889226895856e-07 7.43367226989901e-09 1.29899136872304e-09 5.47377668719124e-10
"2353" 44055 3.2828266406575e-09 7.61027824849056e-09 8.67840164025182e-09 5.45193933961591e-08 1.29866970574217e-07 7.36183066599036e-09 1.30017673222852e-09 5.4664084561355e-10
"2354" 44056 3.27778864296749e-09 7.40803675079997e-09 8.67631995734846e-09 5.46194929855445e-08 1.27844714252577e-07 7.28998906208171e-09 1.30136209573401e-09 5.45904022507977e-10
"2355" 44057 3.27275064527747e-09 7.20579525310938e-09 8.6742382744451e-09 5.47195925749299e-08 1.25822457930938e-07 7.21814745817307e-09 1.3025474592395e-09 5.45167199402403e-10
"2356" 44058 3.26771264758746e-09 7.00355375541879e-09 8.67215659154175e-09 5.48196921643152e-08 1.23800201609299e-07 7.14630585426442e-09 1.30373282274498e-09 5.4443037629683e-10
"2357" 44059 3.26267464989744e-09 6.80131225772821e-09 8.67007490863839e-09 5.49197917537006e-08 1.2177794528766e-07 7.07446425035577e-09 1.30491818625047e-09 5.43693553191257e-10
"2358" 44060 3.25763665220742e-09 6.59907076003762e-09 8.66799322573503e-09 5.5019891343086e-08 1.1975568896602e-07 7.00262264644712e-09 1.30610354975596e-09 5.42956730085683e-10
"2359" 44061 3.25259865451741e-09 6.39682926234703e-09 8.66591154283168e-09 5.51199909324714e-08 1.17733432644381e-07 6.93078104253847e-09 1.30728891326144e-09 5.4221990698011e-10
"2360" 44062 3.25365299219201e-09 6.40280330670173e-09 8.66395986558011e-09 5.52318066566759e-08 1.1729260448489e-07 6.91113367216952e-09 1.30691979753626e-09 5.4221990698011e-10
"2361" 44063 3.25470732986661e-09 6.40877735105643e-09 8.66200818832855e-09 5.53436223808803e-08 1.16851776325399e-07 6.89148630180056e-09 1.30655068181107e-09 5.4221990698011e-10
"2362" 44064 3.24938517497566e-09 6.39837470428389e-09 8.63229967738245e-09 5.49506945808458e-08 1.1632569447648e-07 6.85697847028379e-09 1.28305766424025e-09 5.40179668230334e-10
"2363" 44065 3.2440630200847e-09 6.38797205751134e-09 8.60259116643635e-09 5.45577667808113e-08 1.15799612627561e-07 6.82247063876701e-09 1.25956464666944e-09 5.38139429480558e-10
"2364" 44066 3.23796431979784e-09 6.37248872477436e-09 8.59304945626485e-09 5.4131554055356e-08 1.15825475078258e-07 6.7911982579661e-09 1.23401179793378e-09 5.36099190730782e-10
"2365" 44067 3.23264216490689e-09 6.36477714622437e-09 8.56945598837703e-09 5.36006579365104e-08 1.1534759094363e-07 6.7622107548614e-09 1.21438576672555e-09 5.34058951981006e-10
"2366" 44068 3.22732001001593e-09 6.35706556767439e-09 8.54586252048921e-09 5.30697618176649e-08 1.14869706809002e-07 6.7332232517567e-09 1.19475973551733e-09 5.3201871323123e-10
"2367" 44069 3.22199785512498e-09 6.34935398912441e-09 8.52226905260139e-09 5.25388656988193e-08 1.14391822674375e-07 6.70423574865199e-09 1.17513370430911e-09 5.29978474481454e-10
"2368" 44070 3.21667570023402e-09 6.34164241057442e-09 8.49867558471356e-09 5.20079695799737e-08 1.13913938539747e-07 6.67524824554729e-09 1.15550767310088e-09 5.27938235731678e-10
"2369" 44071 3.21135354534307e-09 6.33393083202444e-09 8.47508211682574e-09 5.14770734611281e-08 1.1343605440512e-07 6.64626074244259e-09 1.13588164189266e-09 5.25897996981902e-10
"2370" 44072 3.20603139045211e-09 6.32621925347446e-09 8.45148864893792e-09 5.09461773422825e-08 1.12958170270492e-07 6.61727323933788e-09 1.11625561068443e-09 5.23857758232126e-10
"2371" 44073 3.20070923556116e-09 6.31850767492447e-09 8.42789518105010e-09 5.04152812234369e-08 1.12480286135864e-07 6.58828573623318e-09 1.09662957947621e-09 5.2181751948235e-10
"2372" 44074 3.1953870806702e-09 6.31079609637449e-09 8.40430171316227e-09 4.98843851045913e-08 1.12002402001237e-07 6.55929823312848e-09 1.07700354826799e-09 5.19777280732574e-10
"2373" 44075 3.19006492577925e-09 6.30308451782451e-09 8.38070824527445e-09 4.93534889857457e-08 1.11524517866609e-07 6.53031073002377e-09 1.05737751705976e-09 5.17737041982798e-10
"2374" 44076 3.18474277088829e-09 6.29537293927453e-09 8.35711477738663e-09 4.88225928669001e-08 1.11046633731981e-07 6.50132322691907e-09 1.03775148585154e-09 5.15696803233022e-10
"2375" 44077 3.17942061599734e-09 6.28766136072454e-09 8.3335213094988e-09 4.82916967480545e-08 1.10568749597354e-07 6.47233572381436e-09 1.01812545464331e-09 5.13656564483246e-10
"2376" 44078 3.17409846110638e-09 6.27994978217456e-09 8.30992784161098e-09 4.7760800629209e-08 1.10090865462726e-07 6.44334822070966e-09 9.98499423435091e-10 5.1161632573347e-10
"2377" 44079 3.16877630621543e-09 6.27223820362458e-09 8.28633437372316e-09 4.72299045103634e-08 1.09612981328099e-07 6.41436071760496e-09 9.78873392226867e-10 5.09576086983694e-10
"2378" 44080 3.16345415132447e-09 6.26452662507459e-09 8.26274090583534e-09 4.66990083915178e-08 1.09135097193471e-07 6.38537321450025e-09 9.59247361018643e-10 5.07535848233918e-10
"2379" 44081 3.15813199643352e-09 6.25681504652461e-09 8.23914743794751e-09 4.61681122726722e-08 1.08657213058843e-07 6.35638571139555e-09 9.39621329810419e-10 5.05495609484142e-10
"2380" 44082 3.15280984154256e-09 6.24910346797463e-09 8.21555397005969e-09 4.56372161538266e-08 1.08179328924216e-07 6.32739820829085e-09 9.19995298602195e-10 5.03455370734366e-10
"2381" 44083 3.14976049139913e-09 6.25757127791536e-09 8.20610996318637e-09 4.55739695338914e-08 1.07387236556305e-07 6.33146921056604e-09 9.17313675745087e-10 5.03693440722732e-10
"2382" 44084 3.12616133041432e-09 6.25438145657559e-09 8.19205820547005e-09 4.46258634814476e-08 1.07165088861345e-07 6.33769717998516e-09 9.19004391184741e-10 5.03693440722732e-10
"2383" 44085 3.11102824257755e-09 6.25046260032674e-09 8.19449760297517e-09 4.4570474504826e-08 1.07204759396249e-07 6.29468939044502e-09 9.05285381053069e-10 4.99986712054391e-10
"2384" 44086 3.09589515474078e-09 6.24654374407789e-09 8.19693700048029e-09 4.45150855282045e-08 1.07244429931152e-07 6.25168160090488e-09 8.91566370921397e-10 4.96279983386049e-10
"2385" 44087 3.0797077292294e-09 6.26924511262575e-09 8.19915972189909e-09 4.45355837976075e-08 1.07430331882188e-07 6.20435987707691e-09 8.74349490152315e-10 4.9335530410423e-10
"2386" 44088 3.06379809599672e-09 6.25666114379963e-09 8.19933306276814e-09 4.48053324618074e-08 1.07441467684398e-07 6.15491523022783e-09 8.5470366249321e-10 4.91620974764242e-10
"2387" 44089 3.05370300584997e-09 6.24497053336378e-09 8.19647054971669e-09 4.47485696323959e-08 1.07850687122482e-07 6.10654906695071e-09 8.35057834834104e-10 4.87676176107534e-10
"2388" 44090 3.04360791570321e-09 6.23327992292792e-09 8.19360803666524e-09 4.46918068029845e-08 1.08259906560566e-07 6.05818290367358e-09 8.15412007174999e-10 4.83731377450827e-10
"2389" 44091 3.03351282555645e-09 6.22158931249207e-09 8.19074552361379e-09 4.4635043973573e-08 1.08669125998651e-07 6.00981674039645e-09 7.95766179515893e-10 4.79786578794119e-10
"2390" 44092 3.0234177354097e-09 6.20989870205621e-09 8.18788301056234e-09 4.45782811441615e-08 1.09078345436735e-07 5.96145057711933e-09 7.76120351856787e-10 4.75841780137411e-10
"2391" 44093 3.01332264526294e-09 6.19820809162036e-09 8.18502049751089e-09 4.452151831475e-08 1.09487564874819e-07 5.9130844138422e-09 7.56474524197682e-10 4.71896981480703e-10
"2392" 44094 3.00322755511618e-09 6.1865174811845e-09 8.18215798445944e-09 4.44647554853386e-08 1.09896784312904e-07 5.86471825056508e-09 7.36828696538576e-10 4.67952182823995e-10
"2393" 44095 2.99313246496943e-09 6.17482687074865e-09 8.17929547140799e-09 4.44079926559271e-08 1.10306003750988e-07 5.81635208728795e-09 7.17182868879471e-10 4.64007384167288e-10
"2394" 44096 2.98303737482267e-09 6.16313626031279e-09 8.17643295835655e-09 4.43512298265156e-08 1.10715223189073e-07 5.76798592401083e-09 6.97537041220365e-10 4.6006258551058e-10
"2395" 44097 2.97294228467591e-09 6.15144564987694e-09 8.17357044530510e-09 4.42944669971042e-08 1.11124442627157e-07 5.7196197607337e-09 6.7789121356126e-10 4.56117786853872e-10
"2396" 44098 2.62001466678066e-09 6.12159163153332e-09 8.15847784613709e-09 4.4290118879352e-08 1.09695608877483e-07 5.72048935641582e-09 6.75462266671236e-10 4.56117786853872e-10
"2397" 44099 2.6103742281554e-09 6.11870326067423e-09 8.14714756295678e-09 4.42909939790247e-08 1.10050252615765e-07 5.69622529743972e-09 6.74587799011884e-10 4.55857103725032e-10
"2398" 44100 2.60073378953015e-09 6.11581488981515e-09 8.13581727977646e-09 4.42918690786975e-08 1.10404896354048e-07 5.67196123846361e-09 6.73713331352531e-10 4.55596420596191e-10
"2399" 44101 2.58500101554028e-09 6.114121327827e-09 8.125625541346e-09 4.43495070077817e-08 1.10761894665676e-07 5.68301478437971e-09 6.73026720964252e-10 4.55596420596191e-10
"2400" 44102 2.5692682415504e-09 6.11242776583885e-09 8.11543380291554e-09 4.44071449368659e-08 1.11118892977305e-07 5.69406833029581e-09 6.72340110575972e-10 4.55596420596191e-10
"2401" 44103 2.55353546756053e-09 6.11073420385071e-09 8.10524206448508e-09 4.44647828659501e-08 1.11475891288933e-07 5.7051218762119e-09 6.71653500187692e-10 4.55596420596191e-10
"2402" 44104 2.53780269357066e-09 6.10904064186256e-09 8.09505032605462e-09 4.45224207950343e-08 1.11832889600562e-07 5.716175422128e-09 6.70966889799413e-10 4.55596420596191e-10
"2403" 44105 2.52206991958079e-09 6.10734707987441e-09 8.08485858762416e-09 4.45800587241186e-08 1.1218988791219e-07 5.72722896804409e-09 6.70280279411133e-10 4.55596420596191e-10
"2404" 44106 2.50633714559091e-09 6.10565351788627e-09 8.0746668491937e-09 4.46376966532028e-08 1.12546886223819e-07 5.73828251396019e-09 6.69593669022853e-10 4.55596420596191e-10
"2405" 44107 2.49060437160104e-09 6.10395995589812e-09 8.06447511076324e-09 4.4695334582287e-08 1.12903884535447e-07 5.74933605987629e-09 6.68907058634574e-10 4.55596420596191e-10
"2406" 44108 2.47592593528577e-09 6.1003755292853e-09 8.1417172392231e-09 4.65935357975343e-08 1.12852522016598e-07 5.77230448145171e-09 6.93585439710879e-10 4.55335737467351e-10
"2407" 44109 2.4612474989705e-09 6.09679110267248e-09 8.21895936768295e-09 4.84917370127816e-08 1.12801159497749e-07 5.79527290302714e-09 7.18263820787183e-10 4.5507505433851e-10
"2408" 44110 2.44656906265523e-09 6.09320667605966e-09 8.29620149614281e-09 5.03899382280289e-08 1.127497969789e-07 5.81824132460256e-09 7.42942201863488e-10 4.5481437120967e-10
"2409" 44111 2.43189062633996e-09 6.08962224944684e-09 8.37344362460267e-09 5.22881394432761e-08 1.12698434460051e-07 5.84120974617798e-09 7.67620582939793e-10 4.54553688080829e-10
"2410" 44112 2.41721219002469e-09 6.08603782283402e-09 8.45068575306252e-09 5.41863406585234e-08 1.12647071941202e-07 5.86417816775341e-09 7.92298964016098e-10 4.54293004951989e-10
"2411" 44113 2.40253375370942e-09 6.0824533962212e-09 8.52792788152238e-09 5.60845418737707e-08 1.12595709422353e-07 5.88714658932883e-09 8.16977345092403e-10 4.54032321823148e-10
"2412" 44114 2.38785531739415e-09 6.07886896960838e-09 8.60517000998223e-09 5.7982743089018e-08 1.12544346903504e-07 5.91011501090426e-09 8.41655726168708e-10 4.53771638694308e-10
"2413" 44115 2.37317688107888e-09 6.07528454299556e-09 8.68241213844209e-09 5.98809443042653e-08 1.12492984384655e-07 5.93308343247968e-09 8.66334107245013e-10 4.53510955565467e-10
"2414" 44116 2.35849844476361e-09 6.07170011638274e-09 8.75965426690195e-09 6.17791455195126e-08 1.12441621865806e-07 5.9560518540551e-09 8.91012488321318e-10 4.53250272436627e-10
"2415" 44117 2.34382000844834e-09 6.06811568976992e-09 8.8368963953618e-09 6.36773467347599e-08 1.12390259346957e-07 5.97902027563053e-09 9.15690869397622e-10 4.52989589307786e-10
"2416" 44118 2.32914157213307e-09 6.0645312631571e-09 8.91413852382166e-09 6.55755479500072e-08 1.12338896828108e-07 6.00198869720595e-09 9.40369250473927e-10 4.52728906178946e-10
"2417" 44119 2.3144631358178e-09 6.06094683654428e-09 8.99138065228152e-09 6.74737491652544e-08 1.12287534309259e-07 6.02495711878138e-09 9.65047631550232e-10 4.52468223050105e-10
"2418" 44120 2.29029566043111e-09 6.06094683654428e-09 9.08072286120613e-09 6.86785573837774e-08 1.12156601006129e-07 6.06453345880777e-09 9.8854064912105e-10 4.52468223050105e-10
"2419" 44121 2.26612818504443e-09 6.06094683654428e-09 9.17006507013075e-09 6.98833656023004e-08 1.12025667703e-07 6.10410979883415e-09 1.01203366669187e-09 4.52468223050105e-10
"2420" 44122 2.26696156188052e-09 6.05905597191961e-09 9.2596783232226e-09 7.17239288884634e-08 1.11284901351432e-07 6.14638879233641e-09 1.03739865815645e-09 4.52468223050105e-10
"2421" 44123 2.30230983683978e-09 6.09350291616224e-09 9.28439930299663e-09 7.18649809946829e-08 1.10595497518714e-07 6.14957730983753e-09 1.04313761841281e-09 4.53443116144045e-10
"2422" 44124 2.33765811179905e-09 6.12794986040488e-09 9.30912028277066e-09 7.20060331009023e-08 1.09906093685996e-07 6.15276582733865e-09 1.04887657866917e-09 4.54418009237985e-10
"2423" 44125 2.34154083877857e-09 6.33407723518897e-09 9.31129966897219e-09 7.20452300487654e-08 1.0942582752774e-07 6.14694274460726e-09 1.04956318905745e-09 4.55392902331925e-10
"2424" 44126 2.34542356575809e-09 6.54020460997306e-09 9.31347905517373e-09 7.20844269966284e-08 1.08945561369484e-07 6.14111966187586e-09 1.05024979944573e-09 4.56367795425865e-10
"2425" 44127 2.34930629273762e-09 6.74633198475714e-09 9.31565844137527e-09 7.21236239444914e-08 1.08465295211228e-07 6.13529657914446e-09 1.05093640983401e-09 4.57342688519805e-10
"2426" 44128 2.35318901971714e-09 6.95245935954123e-09 9.3178378275768e-09 7.21628208923544e-08 1.07985029052972e-07 6.12947349641306e-09 1.05162302022229e-09 4.58317581613745e-10
"2427" 44129 2.35707174669666e-09 7.15858673432532e-09 9.32001721377834e-09 7.22020178402175e-08 1.07504762894717e-07 6.12365041368166e-09 1.05230963061057e-09 4.59292474707685e-10
"2428" 44130 2.36095447367618e-09 7.36471410910941e-09 9.32219659997987e-09 7.22412147880805e-08 1.07024496736461e-07 6.11782733095026e-09 1.05299624099885e-09 4.60267367801624e-10
"2429" 44131 2.3648372006557e-09 7.5708414838935e-09 9.32437598618141e-09 7.22804117359435e-08 1.06544230578205e-07 6.11200424821886e-09 1.05368285138713e-09 4.61242260895564e-10
"2430" 44132 2.36871992763523e-09 7.77696885867759e-09 9.32655537238294e-09 7.23196086838066e-08 1.06063964419949e-07 6.10618116548747e-09 1.05436946177541e-09 4.62217153989504e-10
"2431" 44133 2.37260265461475e-09 7.98309623346168e-09 9.32873475858448e-09 7.23588056316696e-08 1.05583698261693e-07 6.10035808275607e-09 1.05505607216369e-09 4.63192047083444e-10
"2432" 44134 2.37648538159427e-09 8.18922360824577e-09 9.33091414478601e-09 7.23980025795326e-08 1.05103432103437e-07 6.09453500002467e-09 1.05574268255197e-09 4.64166940177384e-10
"2433" 44135 2.38036810857379e-09 8.39535098302986e-09 9.33309353098755e-09 7.24371995273956e-08 1.04623165945181e-07 6.08871191729327e-09 1.05642929294025e-09 4.65141833271324e-10
"2434" 44136 2.38425083555331e-09 8.60147835781395e-09 9.33527291718908e-09 7.24763964752587e-08 1.04142899786926e-07 6.08288883456187e-09 1.05711590332853e-09 4.66116726365264e-10
"2435" 44137 2.38813356253283e-09 8.80760573259804e-09 9.33745230339062e-09 7.25155934231217e-08 1.0366263362867e-07 6.07706575183047e-09 1.05780251371681e-09 4.67091619459204e-10
"2436" 44138 2.39201628951236e-09 9.01373310738212e-09 9.33963168959216e-09 7.25547903709847e-08 1.03182367470414e-07 6.07124266909907e-09 1.05848912410509e-09 4.68066512553144e-10
"2437" 44139 2.39589901649188e-09 9.21986048216621e-09 9.34181107579369e-09 7.25939873188477e-08 1.02702101312158e-07 6.06541958636768e-09 1.05917573449337e-09 4.69041405647084e-10
"2438" 44140 2.3997817434714e-09 9.4259878569503e-09 9.34399046199523e-09 7.26331842667108e-08 1.02221835153902e-07 6.05959650363628e-09 1.05986234488165e-09 4.70016298741024e-10
"2439" 44141 2.40366447045092e-09 9.63211523173439e-09 9.34616984819676e-09 7.26723812145738e-08 1.01741568995646e-07 6.05377342090488e-09 1.06054895526993e-09 4.70991191834964e-10
"2440" 44142 2.3772810217569e-09 9.83435672942498e-09 9.33221579377862e-09 7.21018806634531e-08 1.01773546623766e-07 6.03769829969392e-09 1.05767947514175e-09 4.56096437740176e-10
"2441" 44143 2.37529237421031e-09 1.00383739508443e-08 9.2350779087114e-09 7.00304258218797e-08 1.01089242064177e-07 6.01337441841111e-09 1.05201193239836e-09 4.56051211459228e-10
"2442" 44144 2.37706642584063e-09 1.02340055240635e-08 9.2349479030596e-09 6.92670484747027e-08 9.93392262961897e-08 6.00108043424797e-09 1.05082656889287e-09 4.57026104553168e-10
"2443" 44145 2.37884047747095e-09 1.04296370972826e-08 9.23481789740781e-09 6.85036711275256e-08 9.75892105282021e-08 5.98878645008484e-09 1.04964120538739e-09 4.58000997647108e-10
"2444" 44146 2.38038720334052e-09 1.04367839644047e-08 9.23250850555448e-09 6.77503912492544e-08 9.55730541012057e-08 6.0060127662664e-09 1.05001032111257e-09 4.58261680775949e-10
"2445" 44147 2.45061045983081e-09 1.04594853329526e-08 9.25059362342573e-09 6.70681699998794e-08 9.37330904862663e-08 5.99379975944081e-09 1.04907103475721e-09 4.58499750764315e-10
"2446" 44148 2.5208337163211e-09 1.04821867015004e-08 9.26867874129697e-09 6.63859487505044e-08 9.18931268713268e-08 5.98158675261521e-09 1.04813174840184e-09 4.58737820752682e-10
"2447" 44149 2.59105697281139e-09 1.05048880700483e-08 9.28676385916821e-09 6.57037275011294e-08 9.00531632563874e-08 5.96937374578962e-09 1.04719246204648e-09 4.58975890741048e-10
"2448" 44150 2.66128022930169e-09 1.05275894385962e-08 9.30484897703946e-09 6.50215062517543e-08 8.8213199641448e-08 5.95716073896402e-09 1.04625317569112e-09 4.59213960729415e-10
"2449" 44151 2.73150348579198e-09 1.0550290807144e-08 9.3229340949107e-09 6.43392850023793e-08 8.63732360265086e-08 5.94494773213843e-09 1.04531388933575e-09 4.59452030717781e-10
"2450" 44152 2.80172674228227e-09 1.05729921756919e-08 9.34101921278195e-09 6.36570637530043e-08 8.45332724115691e-08 5.93273472531283e-09 1.04437460298039e-09 4.59690100706147e-10
"2451" 44153 2.87194999877256e-09 1.05956935442397e-08 9.35910433065319e-09 6.29748425036293e-08 8.26933087966297e-08 5.92052171848724e-09 1.04343531662503e-09 4.59928170694514e-10
"2452" 44154 2.94217325526285e-09 1.06183949127876e-08 9.37718944852443e-09 6.22926212542543e-08 8.08533451816903e-08 5.90830871166164e-09 1.04249603026966e-09 4.6016624068288e-10
"2453" 44155 3.01239651175315e-09 1.06410962813354e-08 9.39527456639568e-09 6.16104000048793e-08 7.90133815667509e-08 5.89609570483605e-09 1.0415567439143e-09 4.60404310671247e-10
"2454" 44156 3.08261976824344e-09 1.06637976498833e-08 9.41335968426692e-09 6.09281787555042e-08 7.71734179518114e-08 5.88388269801045e-09 1.04061745755894e-09 4.60642380659613e-10
"2455" 44157 3.14275429950922e-09 1.06990829872573e-08 9.42985083948836e-09 6.11009465128286e-08 7.68744591615229e-08 5.88180670820408e-09 1.03967817120357e-09 4.60642380659613e-10
"2456" 44158 3.20615914175693e-09 1.07225133907142e-08 9.44390259720469e-09 6.12766885351152e-08 7.63282973415114e-08 5.86959370137849e-09 1.03836976912302e-09 4.56935651991272e-10
"2457" 44159 3.19934072751436e-09 1.07115518151875e-08 9.46228082497047e-09 6.14207514137789e-08 7.62753720824693e-08 5.85816931289747e-09 1.03612867950407e-09 4.53251536463405e-10
"2458" 44160 3.19235181895122e-09 1.06996968812704e-08 9.45824746481555e-09 6.14880374502493e-08 7.55828942610384e-08 5.8619504499453e-09 1.03388758988512e-09 4.49544807795063e-10
"2459" 44161 3.18536291038808e-09 1.06878419473534e-08 9.45421410466063e-09 6.15553234867196e-08 7.48904164396074e-08 5.86573158699312e-09 1.03164650026617e-09 4.45838079126722e-10
"2460" 44162 3.17837400182494e-09 1.06759870134364e-08 9.45018074450571e-09 6.162260952319e-08 7.41979386181765e-08 5.86951272404094e-09 1.02940541064722e-09 4.42131350458381e-10
"2461" 44163 3.1713850932618e-09 1.06641320795193e-08 9.44614738435079e-09 6.16898955596604e-08 7.35054607967456e-08 5.87329386108877e-09 1.02716432102827e-09 4.38424621790040e-10
"2462" 44164 3.16439618469866e-09 1.06522771456023e-08 9.44211402419587e-09 6.17571815961307e-08 7.28129829753146e-08 5.87707499813659e-09 1.02492323140932e-09 4.34717893121698e-10
"2463" 44165 3.15740727613552e-09 1.06404222116853e-08 9.43808066404095e-09 6.18244676326011e-08 7.21205051538837e-08 5.88085613518441e-09 1.02268214179037e-09 4.31011164453357e-10
"2464" 44166 3.15041836757238e-09 1.06285672777683e-08 9.43404730388603e-09 6.18917536690714e-08 7.14280273324528e-08 5.88463727223224e-09 1.02044105217142e-09 4.27304435785016e-10
"2465" 44167 3.14154810942079e-09 1.06411292604908e-08 9.78862767162924e-09 6.20951719259278e-08 7.07245195138251e-08 5.90275433912677e-09 1.02980092164025e-09 4.23597707116674e-10
"2466" 44168 3.1326778512692e-09 1.06536912432133e-08 1.01432080393725e-08 6.22985901827841e-08 7.00210116951974e-08 5.92087140602131e-09 1.03916079110908e-09 4.19890978448333e-10
"2467" 44169 3.1238075931176e-09 1.06662532259359e-08 1.04977884071157e-08 6.25020084396404e-08 6.93175038765697e-08 5.93898847291585e-09 1.04852066057791e-09 4.16184249779992e-10
"2468" 44170 3.11493733496601e-09 1.06788152086584e-08 1.08523687748589e-08 6.27054266964967e-08 6.8613996057942e-08 5.95710553981038e-09 1.05788053004674e-09 4.1247752111165e-10
"2469" 44171 3.10606707681442e-09 1.0691377191381e-08 1.12069491426021e-08 6.2908844953353e-08 6.79104882393143e-08 5.97522260670492e-09 1.06724039951557e-09 4.08770792443309e-10
"2470" 44172 3.09719681866283e-09 1.07039391741035e-08 1.15615295103453e-08 6.31122632102093e-08 6.72069804206867e-08 5.99333967359946e-09 1.07660026898441e-09 4.05064063774968e-10
"2471" 44173 3.08832656051124e-09 1.07165011568261e-08 1.19161098780885e-08 6.33156814670656e-08 6.6503472602059e-08 6.01145674049399e-09 1.08596013845324e-09 4.01357335106626e-10
"2472" 44174 3.07945630235965e-09 1.07290631395486e-08 1.22706902458317e-08 6.35190997239219e-08 6.57999647834313e-08 6.02957380738853e-09 1.09532000792207e-09 3.97650606438285e-10
"2473" 44175 3.07058604420805e-09 1.07416251222712e-08 1.26252706135749e-08 6.37225179807782e-08 6.50964569648036e-08 6.04769087428307e-09 1.1046798773909e-09 3.93943877769944e-10
"2474" 44176 3.06171578605646e-09 1.07541871049937e-08 1.29798509813181e-08 6.39259362376346e-08 6.43929491461759e-08 6.0658079411776e-09 1.11403974685973e-09 3.90237149101602e-10
"2475" 44177 3.05284552790487e-09 1.07667490877163e-08 1.33344313490614e-08 6.41293544944909e-08 6.36894413275482e-08 6.08392500807214e-09 1.12339961632856e-09 3.86530420433261e-10
"2476" 44178 3.04397526975328e-09 1.07793110704388e-08 1.36890117168046e-08 6.43327727513472e-08 6.29859335089205e-08 6.10204207496668e-09 1.13275948579739e-09 3.8282369176492e-10
"2477" 44179 3.04014937421395e-09 1.07555792165012e-08 1.401952192927e-08 6.44950210588576e-08 6.22025705845876e-08 6.13053909089306e-09 1.14454830215625e-09 3.8282369176492e-10
"2478" 44180 3.03162010470348e-09 1.07434610216369e-08 1.41992345632326e-08 6.47010646147322e-08 6.22268553059227e-08 6.15903610681945e-09 1.15602622266897e-09 3.82801078624446e-10
"2479" 44181 3.02309083519302e-09 1.07313428267727e-08 1.43789471971952e-08 6.49071081706067e-08 6.22511400272578e-08 6.18753312274584e-09 1.16750414318169e-09 3.82778465483972e-10
"2480" 44182 3.03047119891523e-09 1.07594812970246e-08 1.4198777552858e-08 6.53315159354933e-08 6.39246533563456e-08 6.22083456013837e-09 1.16962219422558e-09 3.82755852343498e-10
"2481" 44183 3.03785156263744e-09 1.07876197672765e-08 1.40186079085208e-08 6.575592370038e-08 6.55981666854333e-08 6.2541359975309e-09 1.17174024526947e-09 3.82733239203024e-10
"2482" 44184 3.04477727483815e-09 1.08157582375284e-08 1.38792603822237e-08 6.58907642098106e-08 6.55982815426697e-08 6.33208228345943e-09 1.18407943580762e-09 3.84750864812326e-10
"2483" 44185 3.05170298703886e-09 1.08438967077803e-08 1.37399128559266e-08 6.60256047192413e-08 6.5598396399906e-08 6.41002856938796e-09 1.19641862634578e-09 3.86768490421627e-10
"2484" 44186 3.05862869923957e-09 1.08720351780322e-08 1.36005653296295e-08 6.6160445228672e-08 6.55985112571424e-08 6.48797485531649e-09 1.20875781688393e-09 3.88786116030929e-10
"2485" 44187 3.06555441144028e-09 1.09001736482841e-08 1.34612178033324e-08 6.62952857381026e-08 6.55986261143788e-08 6.56592114124502e-09 1.22109700742208e-09 3.90803741640231e-10
"2486" 44188 3.07248012364099e-09 1.0928312118536e-08 1.33218702770353e-08 6.64301262475333e-08 6.55987409716152e-08 6.64386742717356e-09 1.23343619796023e-09 3.92821367249533e-10
"2487" 44189 3.0794058358417e-09 1.09564505887879e-08 1.31825227507382e-08 6.65649667569639e-08 6.55988558288516e-08 6.72181371310209e-09 1.24577538849839e-09 3.94838992858835e-10
"2488" 44190 3.08633154804241e-09 1.09845890590398e-08 1.3043175224441e-08 6.66998072663946e-08 6.5598970686088e-08 6.79975999903062e-09 1.25811457903654e-09 3.96856618468137e-10
"2489" 44191 3.09325726024312e-09 1.10127275292917e-08 1.29038276981439e-08 6.68346477758253e-08 6.55990855433244e-08 6.87770628495915e-09 1.27045376957469e-09 3.98874244077439e-10
"2490" 44192 3.10018297244383e-09 1.10408659995436e-08 1.27644801718468e-08 6.69694882852559e-08 6.55992004005608e-08 6.95565257088768e-09 1.28279296011284e-09 4.00891869686741e-10
"2491" 44193 3.10710868464454e-09 1.10690044697955e-08 1.26251326455497e-08 6.71043287946866e-08 6.55993152577971e-08 7.03359885681621e-09 1.295132150651e-09 4.02909495296043e-10
"2492" 44194 3.11403439684525e-09 1.10971429400474e-08 1.24857851192526e-08 6.72391693041172e-08 6.55994301150335e-08 7.11154514274474e-09 1.30747134118915e-09 4.04927120905345e-10
"2493" 44195 3.12096010904596e-09 1.11252814102993e-08 1.23464375929555e-08 6.73740098135479e-08 6.55995449722699e-08 7.18949142867327e-09 1.3198105317273e-09 4.06944746514647e-10
"2494" 44196 3.12788582124667e-09 1.11534198805512e-08 1.22070900666584e-08 6.75088503229786e-08 6.55996598295063e-08 7.2674377146018e-09 1.33214972226545e-09 4.08962372123949e-10
"2495" 44197 3.13481153344738e-09 1.11815583508031e-08 1.20677425403613e-08 6.76436908324092e-08 6.55997746867427e-08 7.34538400053033e-09 1.34448891280361e-09 4.10979997733251e-10
"2496" 44198 3.14173724564809e-09 1.1209696821055e-08 1.19283950140642e-08 6.77785313418399e-08 6.55998895439791e-08 7.42333028645886e-09 1.35682810334176e-09 4.12997623342553e-10
"2497" 44199 3.1486629578488e-09 1.12378352913069e-08 1.17890474877671e-08 6.79133718512705e-08 6.56000044012155e-08 7.50127657238739e-09 1.36916729387991e-09 4.15015248951855e-10
"2498" 44200 3.15558867004951e-09 1.12659737615588e-08 1.164969996147e-08 6.80482123607012e-08 6.56001192584519e-08 7.57922285831592e-09 1.38150648441806e-09 4.17032874561157e-10
"2499" 44201 3.12880740127417e-09 1.1330450040678e-08 1.16876595664586e-08 6.7939465927409e-08 6.55526983881455e-08 7.65326009664434e-09 1.39415657080235e-09 4.18336290205359e-10
"2500" 44202 3.14066381320676e-09 1.13927230116401e-08 1.17174547478393e-08 6.79669977444311e-08 6.52974728690971e-08 7.67013672529183e-09 1.40437771029661e-09 4.19594479568614e-10
"2501" 44203 3.15252022513935e-09 1.14549959826021e-08 1.17472499292199e-08 6.79945295614532e-08 6.50422473500486e-08 7.68701335393933e-09 1.41459884979088e-09 4.20852668931868e-10
"2502" 44204 3.15502035564763e-09 1.1452792674445e-08 1.17708323642441e-08 6.79108888249356e-08 6.55419102729234e-08 7.63025763094612e-09 1.41422973406569e-09 4.22043018873701e-10
"2503" 44205 3.18100598426034e-09 1.14758504587325e-08 1.17791590958575e-08 6.78080780374524e-08 6.61520154752844e-08 7.57089312090653e-09 1.41180078717567e-09 4.23301208236955e-10
"2504" 44206 3.17735058304157e-09 1.14772315771881e-08 1.17673623619136e-08 6.77666412639972e-08 6.59255937275743e-08 7.51006639563813e-09 1.41024630794499e-09 4.24491558178788e-10
"2505" 44207 3.1736951818228e-09 1.14786126956438e-08 1.17555656279697e-08 6.7725204490542e-08 6.56991719798642e-08 7.44923967036972e-09 1.40869182871432e-09 4.2568190812062e-10
"2506" 44208 3.17003978060403e-09 1.14799938140995e-08 1.17437688940257e-08 6.76837677170868e-08 6.54727502321541e-08 7.38841294510131e-09 1.40713734948365e-09 4.26872258062452e-10
"2507" 44209 3.16638437938526e-09 1.14813749325552e-08 1.17319721600818e-08 6.76423309436316e-08 6.5246328484444e-08 7.3275862198329e-09 1.40558287025298e-09 4.28062608004285e-10
"2508" 44210 3.16272897816649e-09 1.14827560510109e-08 1.17201754261379e-08 6.76008941701764e-08 6.50199067367339e-08 7.2667594945645e-09 1.40402839102231e-09 4.29252957946117e-10
"2509" 44211 3.15907357694772e-09 1.14841371694665e-08 1.1708378692194e-08 6.75594573967212e-08 6.47934849890238e-08 7.20593276929609e-09 1.40247391179164e-09 4.3044330788795e-10
"2510" 44212 3.15541817572895e-09 1.14855182879222e-08 1.16965819582501e-08 6.7518020623266e-08 6.45670632413136e-08 7.14510604402768e-09 1.40091943256097e-09 4.31633657829782e-10
"2511" 44213 3.15176277451018e-09 1.14868994063779e-08 1.16847852243062e-08 6.74765838498108e-08 6.43406414936035e-08 7.08427931875927e-09 1.39936495333029e-09 4.32824007771614e-10
"2512" 44214 3.1481073732914e-09 1.14882805248336e-08 1.16729884903623e-08 6.74351470763556e-08 6.41142197458934e-08 7.02345259349086e-09 1.39781047409962e-09 4.34014357713447e-10
"2513" 44215 3.14422464631188e-09 1.14860882097282e-08 1.16729884903623e-08 6.71999766609123e-08 6.41241373796194e-08 7.01331557647164e-09 1.39662511059414e-09 4.35986757041801e-10
"2514" 44216 3.24043989633713e-09 1.14919690992906e-08 1.16790601982033e-08 6.69138786662908e-08 6.44823781947355e-08 7.00724956172761e-09 1.39830922721683e-09 4.41926568167336e-10
"2515" 44217 3.24043989633713e-09 1.14897767841852e-08 1.1679016862986e-08 6.66318931031686e-08 6.44876619212218e-08 7.00348131377174e-09 1.39867834294201e-09 4.4168849817897e-10
"2516" 44218 3.24043989633713e-09 1.14875844690799e-08 1.16789735277688e-08 6.63499075400465e-08 6.44929456477081e-08 6.99971306581587e-09 1.3990474586672e-09 4.41450428190603e-10
"2517" 44219 3.24043989633713e-09 1.14853921539745e-08 1.16789301925515e-08 6.60679219769243e-08 6.44982293741944e-08 6.99594481786e-09 1.39941657439238e-09 4.41212358202237e-10
"2518" 44220 3.24043989633713e-09 1.14831998388691e-08 1.16788868573342e-08 6.57859364138021e-08 6.45035131006807e-08 6.99217656990412e-09 1.39978569011757e-09 4.4097428821387e-10
"2519" 44221 3.24043989633713e-09 1.14810075237638e-08 1.1678843522117e-08 6.55039508506799e-08 6.4508796827167e-08 6.98840832194825e-09 1.40015480584275e-09 4.40736218225504e-10
"2520" 44222 3.24454358415516e-09 1.13175646213712e-08 1.16727284790587e-08 6.5517408057974e-08 6.41159969177788e-08 6.9815067556449e-09 1.40258375273278e-09 4.40736218225504e-10
"2521" 44223 3.24864727197319e-09 1.11541217189786e-08 1.16666134360004e-08 6.5530865265268e-08 6.37231970083906e-08 6.97460518934154e-09 1.4050126996228e-09 4.40736218225504e-10
"2522" 44224 3.25275095979122e-09 1.0990678816586e-08 1.16604983929421e-08 6.55443224725621e-08 6.33303970990024e-08 6.96770362303819e-09 1.40744164651283e-09 4.40736218225504e-10
"2523" 44225 3.26477150112213e-09 1.08441223514896e-08 1.16544266851011e-08 6.55394664748222e-08 6.29479380433927e-08 6.9645703046907e-09 1.40744164651283e-09 4.41756337600392e-10
"2524" 44226 3.27679204245305e-09 1.06975658863933e-08 1.16483549772601e-08 6.55346104770823e-08 6.25654789877829e-08 6.96143698634322e-09 1.40744164651283e-09 4.4277645697528e-10
"2525" 44227 3.28881258378396e-09 1.05510094212969e-08 1.16422832694191e-08 6.55297544793425e-08 6.21830199321731e-08 6.95830366799574e-09 1.40744164651283e-09 4.43796576350168e-10
"2526" 44228 3.30083312511488e-09 1.04044529562005e-08 1.16362115615781e-08 6.55248984816026e-08 6.18005608765634e-08 6.95517034964825e-09 1.40744164651283e-09 4.44816695725056e-10
"2527" 44229 3.31285366644579e-09 1.02578964911042e-08 1.16301398537371e-08 6.55200424838627e-08 6.14181018209536e-08 6.95203703130077e-09 1.40744164651283e-09 4.45836815099944e-10
"2528" 44230 3.3248742077767e-09 1.01113400260078e-08 1.16240681458961e-08 6.55151864861228e-08 6.10356427653439e-08 6.94890371295329e-09 1.40744164651283e-09 4.46856934474832e-10
"2529" 44231 3.33689474910762e-09 9.96478356091145e-09 1.16179964380551e-08 6.55103304883829e-08 6.06531837097341e-08 6.94577039460581e-09 1.40744164651283e-09 4.4787705384972e-10
"2530" 44232 3.34891529043853e-09 9.81822709581508e-09 1.1611924730214e-08 6.55054744906431e-08 6.02707246541243e-08 6.94263707625832e-09 1.40744164651283e-09 4.48897173224608e-10
"2531" 44233 3.36093583176944e-09 9.67167063071872e-09 1.1605853022373e-08 6.55006184929032e-08 5.98882655985146e-08 6.93950375791084e-09 1.40744164651283e-09 4.49917292599496e-10
"2532" 44234 3.37295637310036e-09 9.52511416562236e-09 1.1599781314532e-08 6.54957624951633e-08 5.95058065429048e-08 6.93637043956336e-09 1.40744164651283e-09 4.50937411974384e-10
"2533" 44235 3.38497691443127e-09 9.37855770052599e-09 1.1593709606691e-08 6.54909064974234e-08 5.9123347487295e-08 6.93323712121587e-09 1.40744164651283e-09 4.51957531349272e-10
"2534" 44236 3.39699745576218e-09 9.23200123542963e-09 1.158763789885e-08 6.54860504996835e-08 5.87408884316853e-08 6.93010380286839e-09 1.40744164651283e-09 4.5297765072416e-10
"2535" 44237 3.39986994666281e-09 9.25247209933868e-09 1.15244152257529e-08 6.54361386804808e-08 5.8740199288267e-08 6.94024081988762e-09 1.39479156012854e-09 4.37947217786528e-10
"2536" 44238 3.40274243756343e-09 9.27294296324774e-09 1.14611925526557e-08 6.5386226861278e-08 5.87395101448486e-08 6.95037783690684e-09 1.38214147374425e-09 4.22916784848897e-10
"2537" 44239 3.37985026068986e-09 9.27169318911788e-09 1.14696603227846e-08 6.57388125649062e-08 5.87315965758148e-08 6.95943637035411e-09 1.38058699451358e-09 4.23154854837263e-10
"2538" 44240 3.35695808381628e-09 9.27044341498802e-09 1.14781280929134e-08 6.60913982685344e-08 5.87236830067809e-08 6.96849490380138e-09 1.37903251528291e-09 4.2339292482563e-10
"2539" 44241 3.33201406303369e-09 9.34278981346469e-09 1.14946192481349e-08 6.60027243664922e-08 5.90706731624508e-08 6.96784708510104e-09 1.37903251528291e-09 4.24413044200518e-10
"2540" 44242 3.3070700422511e-09 9.41513621194137e-09 1.15111104033563e-08 6.591405046445e-08 5.94176633181207e-08 6.96719926640070e-09 1.37903251528291e-09 4.25433163575406e-10
"2541" 44243 3.28212602146851e-09 9.48748261041805e-09 1.15276015585778e-08 6.58253765624078e-08 5.97646534737906e-08 6.96655144770035e-09 1.37903251528291e-09 4.26453282950294e-10
"2542" 44244 3.25718200068592e-09 9.55982900889473e-09 1.15440927137992e-08 6.57367026603656e-08 6.01116436294604e-08 6.96590362900001e-09 1.37903251528291e-09 4.27473402325182e-10
"2543" 44245 3.23223797990333e-09 9.63217540737141e-09 1.15605838690207e-08 6.56480287583234e-08 6.04586337851303e-08 6.96525581029967e-09 1.37903251528291e-09 4.2849352170007e-10
"2544" 44246 3.20729395912074e-09 9.70452180584809e-09 1.15770750242421e-08 6.55593548562812e-08 6.08056239408002e-08 6.96460799159933e-09 1.37903251528291e-09 4.29513641074958e-10
"2545" 44247 3.18234993833815e-09 9.77686820432477e-09 1.15935661794635e-08 6.5470680954239e-08 6.11526140964701e-08 6.96396017289899e-09 1.37903251528291e-09 4.30533760449846e-10
"2546" 44248 3.15740591755556e-09 9.84921460280144e-09 1.1610057334685e-08 6.53820070521968e-08 6.14996042521399e-08 6.96331235419865e-09 1.37903251528291e-09 4.31553879824734e-10
"2547" 44249 3.13246189677297e-09 9.92156100127812e-09 1.16265484899064e-08 6.52933331501546e-08 6.18465944078098e-08 6.96266453549831e-09 1.37903251528291e-09 4.32573999199622e-10
"2548" 44250 3.10751787599038e-09 9.9939073997548e-09 1.16430396451279e-08 6.52046592481124e-08 6.21935845634797e-08 6.96201671679797e-09 1.37903251528291e-09 4.3359411857451e-10
"2549" 44251 3.08257385520778e-09 1.00662537982315e-08 1.16595308003493e-08 6.51159853460702e-08 6.25405747191495e-08 6.96136889809763e-09 1.37903251528291e-09 4.34614237949398e-10
"2550" 44252 3.05762983442519e-09 1.01386001967082e-08 1.16760219555708e-08 6.5027311444028e-08 6.28875648748194e-08 6.96072107939729e-09 1.37903251528291e-09 4.35634357324286e-10
"2551" 44253 3.0326858136426e-09 1.02109465951848e-08 1.16925131107922e-08 6.49386375419858e-08 6.32345550304893e-08 6.96007326069695e-09 1.37903251528291e-09 4.36654476699174e-10
"2552" 44254 3.00774179286001e-09 1.02832929936615e-08 1.17090042660136e-08 6.48499636399436e-08 6.35815451861592e-08 6.95942544199661e-09 1.37903251528291e-09 4.37674596074062e-10
"2553" 44255 2.98279777207742e-09 1.03556393921382e-08 1.17254954212351e-08 6.47612897379014e-08 6.3928535341829e-08 6.95877762329627e-09 1.37903251528291e-09 4.3869471544895e-10
"2554" 44256 2.95785375129483e-09 1.04279857906149e-08 1.17419865764565e-08 6.46726158358592e-08 6.42755254974989e-08 6.95812980459593e-09 1.37903251528291e-09 4.39714834823838e-10
"2555" 44257 2.93290973051224e-09 1.05003321890916e-08 1.1758477731678e-08 6.4583941933817e-08 6.46225156531688e-08 6.95748198589559e-09 1.37903251528291e-09 4.40734954198726e-10
"2556" 44258 2.90796570972965e-09 1.05726785875682e-08 1.17749688868994e-08 6.44952680317748e-08 6.49695058088387e-08 6.95683416719525e-09 1.37903251528291e-09 4.41755073573614e-10
"2557" 44259 2.88302168894706e-09 1.06450249860449e-08 1.17914600421209e-08 6.44065941297326e-08 6.53164959645086e-08 6.9561863484949e-09 1.37903251528291e-09 4.42775192948502e-10
"2558" 44260 2.84892961773418e-09 1.05841059370569e-08 1.18893346258816e-08 6.42544781862294e-08 6.56966544664995e-08 6.98579589211605e-09 1.37342979123553e-09 4.46459308476369e-10
"2559" 44261 2.84915694349493e-09 1.05626485599652e-08 1.19779937079563e-08 6.41676403826123e-08 6.56977094013521e-08 6.95066139692977e-09 1.37262014227219e-09 4.42446670398239e-10
"2560" 44262 2.84938426925568e-09 1.05411911828735e-08 1.2066652790031e-08 6.40808025789951e-08 6.56987643362047e-08 6.9155269017435e-09 1.37181049330885e-09 4.38434032320109e-10
"2561" 44263 2.84961159501643e-09 1.05197338057818e-08 1.21553118721057e-08 6.3993964775378e-08 6.56998192710573e-08 6.88039240655723e-09 1.37100084434551e-09 4.34421394241979e-10
"2562" 44264 2.84983892077718e-09 1.04982764286901e-08 1.22439709541804e-08 6.39071269717609e-08 6.57008742059099e-08 6.84525791137096e-09 1.37019119538217e-09 4.30408756163849e-10
"2563" 44265 2.85006624653793e-09 1.04768190515984e-08 1.23326300362551e-08 6.38202891681438e-08 6.57019291407625e-08 6.81012341618468e-09 1.36938154641882e-09 4.26396118085719e-10
"2564" 44266 2.85029357229869e-09 1.04553616745067e-08 1.24212891183298e-08 6.37334513645267e-08 6.57029840756151e-08 6.77498892099841e-09 1.36857189745548e-09 4.2238348000759e-10
"2565" 44267 2.85052089805944e-09 1.04339042974151e-08 1.25099482004045e-08 6.36466135609096e-08 6.57040390104677e-08 6.73985442581214e-09 1.36776224849214e-09 4.1837084192946e-10
"2566" 44268 2.85074822382019e-09 1.04124469203234e-08 1.25986072824792e-08 6.35597757572924e-08 6.57050939453203e-08 6.70471993062587e-09 1.3669525995288e-09 4.1435820385133e-10
"2567" 44269 2.85097554958094e-09 1.03909895432317e-08 1.26872663645539e-08 6.34729379536753e-08 6.57061488801729e-08 6.66958543543959e-09 1.36614295056546e-09 4.103455657732e-10
"2568" 44270 2.85120287534169e-09 1.036953216614e-08 1.27759254466286e-08 6.33861001500582e-08 6.57072038150255e-08 6.63445094025332e-09 1.36533330160212e-09 4.0633292769507e-10
"2569" 44271 2.85143020110244e-09 1.03480747890483e-08 1.28645845287033e-08 6.32992623464411e-08 6.57082587498781e-08 6.59931644506705e-09 1.36452365263878e-09 4.0232028961694e-10
"2570" 44272 2.85165752686319e-09 1.03266174119566e-08 1.2953243610778e-08 6.3212424542824e-08 6.57093136847307e-08 6.56418194988078e-09 1.36371400367544e-09 3.9830765153881e-10
"2571" 44273 2.84994030667306e-09 1.03259213562029e-08 1.29946290866425e-08 6.37205004248397e-08 6.46476284165498e-08 6.58952449242884e-09 1.3878486093894e-09 4.03510639558772e-10
"2572" 44274 2.84822308648293e-09 1.03447588337608e-08 1.30026958069524e-08 6.37292057872145e-08 6.35859431483688e-08 6.58973338031867e-09 1.38797164796447e-09 4.02535746464833e-10
"2573" 44275 2.8465058662928e-09 1.03635963113188e-08 1.30107625272622e-08 6.37379111495894e-08 6.25242578801879e-08 6.5899422682085e-09 1.38809468653953e-09 4.01560853370893e-10
"2574" 44276 2.84478864610267e-09 1.03824337888767e-08 1.3018829247572e-08 6.37466165119642e-08 6.1462572612007e-08 6.59015115609833e-09 1.38821772511459e-09 4.00585960276953e-10
"2575" 44277 2.84307142591254e-09 1.04012712664346e-08 1.30268959678819e-08 6.3755321874339e-08 6.0400887343826e-08 6.59036004398817e-09 1.38834076368965e-09 3.99611067183013e-10
"2576" 44278 2.84135420572241e-09 1.04201087439925e-08 1.30319268342712e-08 6.37659089694915e-08 6.04741768953856e-08 6.590568931878e-09 1.38865165953579e-09 3.98636174089073e-10
"2577" 44279 2.83963698553228e-09 1.04389462215505e-08 1.30369577006605e-08 6.3776496064644e-08 6.05474664469453e-08 6.59077781976783e-09 1.38896255538192e-09 3.97661280995133e-10
"2578" 44280 2.83791976534215e-09 1.04577836991084e-08 1.30419885670499e-08 6.37870831597965e-08 6.06207559985049e-08 6.59098670765766e-09 1.38927345122805e-09 3.96686387901193e-10
"2579" 44281 2.83620254515202e-09 1.04766211766663e-08 1.30470194334392e-08 6.3797670254949e-08 6.06940455500645e-08 6.5911955955475e-09 1.38958434707419e-09 3.95711494807253e-10
"2580" 44282 2.83620254515202e-09 1.0532618652793e-08 1.3043170447017e-08 6.38257045823333e-08 6.15476296805766e-08 6.59722756616873e-09 1.39612635747693e-09 3.97014910451456e-10
"2581" 44283 2.83620254515202e-09 1.05886161289197e-08 1.30393214605948e-08 6.38537389097175e-08 6.24012138110886e-08 6.60325953678996e-09 1.40266836787967e-09 3.98318326095658e-10
"2582" 44284 2.83620254515202e-09 1.06446136050464e-08 1.30354724741726e-08 6.38817732371017e-08 6.32547979416007e-08 6.60929150741119e-09 1.40921037828241e-09 3.99621741739861e-10
"2583" 44285 2.83620254515202e-09 1.07006110811731e-08 1.30316234877504e-08 6.3909807564486e-08 6.41083820721128e-08 6.61532347803242e-09 1.41575238868515e-09 4.00925157384063e-10
"2584" 44286 2.83620254515202e-09 1.07566085572998e-08 1.30277745013282e-08 6.39378418918702e-08 6.49619662026248e-08 6.62135544865365e-09 1.42229439908789e-09 4.02228573028266e-10
"2585" 44287 2.83620254515202e-09 1.08126060334265e-08 1.30239255149059e-08 6.39658762192544e-08 6.58155503331369e-08 6.62738741927488e-09 1.42883640949064e-09 4.03531988672468e-10
"2586" 44288 2.83620254515202e-09 1.08686035095531e-08 1.30200765284837e-08 6.39939105466386e-08 6.66691344636489e-08 6.63341938989611e-09 1.43537841989338e-09 4.04835404316671e-10
"2587" 44289 2.83620254515202e-09 1.09246009856798e-08 1.30162275420615e-08 6.40219448740229e-08 6.7522718594161e-08 6.63945136051734e-09 1.44192043029612e-09 4.06138819960873e-10
"2588" 44290 2.83620254515202e-09 1.09805984618065e-08 1.30123785556393e-08 6.40499792014071e-08 6.83763027246731e-08 6.64548333113857e-09 1.44846244069886e-09 4.07442235605076e-10
"2589" 44291 2.83620254515202e-09 1.10365959379332e-08 1.30085295692171e-08 6.40780135287913e-08 6.92298868551851e-08 6.6515153017598e-09 1.4550044511016e-09 4.08745651249278e-10
"2590" 44292 2.83620254515202e-09 1.10925934140599e-08 1.30046805827949e-08 6.41060478561756e-08 7.00834709856972e-08 6.65754727238103e-09 1.46154646150434e-09 4.10049066893481e-10
"2591" 44293 2.83620254515202e-09 1.11485908901866e-08 1.30008315963727e-08 6.41340821835598e-08 7.09370551162092e-08 6.66357924300227e-09 1.46808847190708e-09 4.11352482537683e-10
"2592" 44294 2.83913823241507e-09 1.12030811139099e-08 1.29654090921873e-08 6.40038254781341e-08 7.15343104164253e-08 6.63418685320985e-09 1.47350993750035e-09 4.13370108146985e-10
"2593" 44295 2.84207391967813e-09 1.12575713376332e-08 1.2929986588002e-08 6.38735687727084e-08 7.21315657166414e-08 6.60479446341743e-09 1.47893140309362e-09 4.15387733756287e-10
"2594" 44296 2.84379113986826e-09 1.13120615613564e-08 1.28877879796357e-08 6.3828118350949e-08 7.29708492403857e-08 6.61053656881129e-09 1.48528555622528e-09 4.1669114940049e-10
"2595" 44297 2.84163199800111e-09 1.13098582531993e-08 1.28494383576917e-08 6.41782978004514e-08 7.32828177575594e-08 6.61439868319665e-09 1.49102451648164e-09 4.21894137420452e-10
"2596" 44298 2.83947285613396e-09 1.13076549450422e-08 1.28110887357477e-08 6.45284772499538e-08 7.35947862747331e-08 6.61826079758202e-09 1.496763476738e-09 4.27097125440414e-10
"2597" 44299 2.84119007632409e-09 1.13360017109824e-08 1.27933833982055e-08 6.45160578136212e-08 7.35767163052772e-08 6.62179900261722e-09 1.49745008712628e-09 4.26382915475315e-10
"2598" 44300 2.84290729651422e-09 1.13643484769226e-08 1.27756780606633e-08 6.45036383772885e-08 7.35586463358214e-08 6.62533720765241e-09 1.49813669751456e-09 4.25668705510216e-10
"2599" 44301 2.84462451670435e-09 1.13926952428628e-08 1.27579727231212e-08 6.44912189409559e-08 7.35405763663656e-08 6.62887541268761e-09 1.49882330790284e-09 4.24954495545116e-10
"2600" 44302 2.84634173689448e-09 1.1421042008803e-08 1.2740267385579e-08 6.44787995046232e-08 7.35225063969097e-08 6.6324136177228e-09 1.49950991829112e-09 4.24240285580017e-10
"2601" 44303 2.84805895708461e-09 1.14493887747432e-08 1.27225620480368e-08 6.44663800682906e-08 7.35044364274539e-08 6.635951822758e-09 1.5001965286794e-09 4.23526075614917e-10
"2602" 44304 2.84977617727474e-09 1.14777355406834e-08 1.27048567104946e-08 6.4453960631958e-08 7.3486366457998e-08 6.6394900277932e-09 1.50088313906768e-09 4.22811865649818e-10
"2603" 44305 2.85149339746487e-09 1.15060823066236e-08 1.26871513729525e-08 6.44415411956253e-08 7.34682964885422e-08 6.64302823282839e-09 1.50156974945596e-09 4.22097655684719e-10
"2604" 44306 2.853210617655e-09 1.15344290725639e-08 1.26694460354103e-08 6.44291217592927e-08 7.34502265190864e-08 6.64656643786359e-09 1.50225635984424e-09 4.21383445719619e-10
"2605" 44307 2.85492783784513e-09 1.15627758385041e-08 1.26517406978681e-08 6.441670232296e-08 7.34321565496305e-08 6.65010464289878e-09 1.50294297023252e-09 4.2066923575452e-10
"2606" 44308 2.85664505803526e-09 1.15911226044443e-08 1.26340353603259e-08 6.44042828866274e-08 7.34140865801747e-08 6.65364284793398e-09 1.5036295806208e-09 4.1995502578942e-10
"2607" 44309 2.85836227822539e-09 1.16194693703845e-08 1.26163300227837e-08 6.43918634502948e-08 7.33960166107189e-08 6.65718105296918e-09 1.50431619100908e-09 4.19240815824321e-10
"2608" 44310 2.86007949841552e-09 1.16478161363247e-08 1.25986246852416e-08 6.43794440139621e-08 7.3377946641263e-08 6.66071925800437e-09 1.50500280139736e-09 4.18526605859221e-10
"2609" 44311 2.86179671860565e-09 1.16761629022649e-08 1.25809193476994e-08 6.43670245776295e-08 7.33598766718072e-08 6.66425746303957e-09 1.50568941178564e-09 4.17812395894122e-10
"2610" 44312 2.86351393879579e-09 1.17045096682051e-08 1.25632140101572e-08 6.43546051412969e-08 7.33418067023513e-08 6.66779566807476e-09 1.50637602217392e-09 4.17098185929023e-10
"2611" 44313 2.86523115898592e-09 1.17328564341453e-08 1.2545508672615e-08 6.43421857049642e-08 7.33237367328955e-08 6.67133387310996e-09 1.5070626325622e-09 4.16383975963923e-10
"2612" 44314 2.86694837917605e-09 1.17612032000855e-08 1.25278033350729e-08 6.43297662686316e-08 7.33056667634397e-08 6.67487207814516e-09 1.50774924295048e-09 4.15669765998824e-10
"2613" 44315 2.86866559936618e-09 1.17895499660258e-08 1.25100979975307e-08 6.43173468322989e-08 7.32875967939838e-08 6.67841028318035e-09 1.50843585333876e-09 4.14955556033724e-10
"2614" 44316 2.87038281955631e-09 1.1817896731966e-08 1.24923926599885e-08 6.43049273959663e-08 7.3269526824528e-08 6.68194848821555e-09 1.50912246372704e-09 4.14241346068625e-10
"2615" 44317 2.86816684624897e-09 1.1817896731966e-08 1.25171136397625e-08 6.42014589413222e-08 7.29416131967716e-08 6.67933970116917e-09 1.50625298359886e-09 4.14241346068625e-10
"2616" 44318 2.87182224746774e-09 1.18448623794505e-08 1.25377579241644e-08 6.42519371589807e-08 7.22012488455316e-08 6.61178625336445e-09 1.47627617550435e-09 4.14241346068625e-10
"2617" 44319 2.85657549675059e-09 1.18601044373438e-08 1.2532976036215e-08 6.42021386194691e-08 7.22563988315154e-08 6.61249389437149e-09 1.47546652654101e-09 4.13221226693737e-10
"2618" 44320 2.84060903207773e-09 1.18804711534087e-08 1.25032675252689e-08 6.4490218742444e-08 7.23275301369748e-08 6.61228500648166e-09 1.47640581289637e-09 4.13176000412789e-10
"2619" 44321 2.82464256740486e-09 1.19008378694736e-08 1.24735590143228e-08 6.47782988654188e-08 7.23986614424343e-08 6.61207611859182e-09 1.47734509925174e-09 4.13130774131841e-10
"2620" 44322 2.808676102732e-09 1.19212045855385e-08 1.24438505033767e-08 6.50663789883937e-08 7.24697927478938e-08 6.61186723070199e-09 1.4782843856071e-09 4.13085547850893e-10
"2621" 44323 2.79270963805913e-09 1.19415713016034e-08 1.24141419924306e-08 6.53544591113686e-08 7.25409240533533e-08 6.61165834281216e-09 1.47922367196246e-09 4.13040321569945e-10
"2622" 44324 2.77674317338627e-09 1.19619380176683e-08 1.23844334814845e-08 6.56425392343435e-08 7.26120553588128e-08 6.61144945492233e-09 1.48016295831783e-09 4.12995095288997e-10
"2623" 44325 2.7607767087134e-09 1.19823047337332e-08 1.23547249705384e-08 6.59306193573183e-08 7.26831866642723e-08 6.61124056703249e-09 1.48110224467319e-09 4.12949869008048e-10
"2624" 44326 2.74481024404054e-09 1.20026714497981e-08 1.23250164595923e-08 6.62186994802932e-08 7.27543179697318e-08 6.61103167914266e-09 1.48204153102855e-09 4.129046427271e-10
"2625" 44327 2.72884377936767e-09 1.2023038165863e-08 1.22953079486462e-08 6.65067796032681e-08 7.28254492751912e-08 6.61082279125283e-09 1.48298081738392e-09 4.12859416446152e-10
"2626" 44328 2.71287731469481e-09 1.20434048819279e-08 1.22655994377001e-08 6.6794859726243e-08 7.28965805806507e-08 6.610613903363e-09 1.48392010373928e-09 4.12814190165204e-10
"2627" 44329 2.70922191347604e-09 1.20580990041188e-08 1.22567195848885e-08 6.71196118936383e-08 7.21070877833391e-08 6.58088471512846e-09 1.48174383281634e-09 4.13551013270778e-10
"2628" 44330 2.70556651225726e-09 1.20727931263097e-08 1.2247839732077e-08 6.74443640610337e-08 7.13175949860274e-08 6.55115552689392e-09 1.4795675618934e-09 4.14287836376351e-10
"2629" 44331 2.70191111103849e-09 1.20874872485006e-08 1.22389598792654e-08 6.77691162284291e-08 7.05281021887157e-08 6.52142633865938e-09 1.47739129097046e-09 4.15024659481925e-10
"2630" 44332 2.70213843679925e-09 1.20815132041459e-08 1.22337556720071e-08 6.77739813530395e-08 6.96671335142354e-08 6.49198701565222e-09 1.47402965654203e-09 4.15047272622399e-10
"2631" 44333 2.70236576256e-09 1.20755391597912e-08 1.22285514647487e-08 6.77788464776499e-08 6.88061648397551e-08 6.46254769264506e-09 1.47066802211361e-09 4.15069885762873e-10
"2632" 44334 2.70259308832075e-09 1.20695651154365e-08 1.22233472574903e-08 6.77837116022603e-08 6.79451961652748e-08 6.43310836963789e-09 1.46730638768518e-09 4.15092498903347e-10
"2633" 44335 2.7028204140815e-09 1.20635910710818e-08 1.22181430502319e-08 6.77885767268707e-08 6.70842274907945e-08 6.40366904663073e-09 1.46394475325675e-09 4.15115112043821e-10
