"time" "channel1" "channel2" "channel3" "channel4" "channel5" "channel6" "channel7" "channel8"
"1" 20594 1.61976986864305e-09 9.13111305443822e-09 2.70513491504149e-08 1.25347007823514e-07 2.23593144792691e-07 1.78062383397292e-08 4.6745873255247e-09 1.23038055907257e-09
"2" 20595 1.61986228507586e-09 9.13275195922255e-09 2.70267726788082e-08 1.25482205181516e-07 2.22981676277626e-07 1.77849882790215e-08 4.6745873255247e-09 1.23014342962692e-09
"3" 20596 1.61995470150867e-09 9.13439086400688e-09 2.70021962072014e-08 1.25617402539518e-07 2.2237020776256e-07 1.77637382183138e-08 4.6745873255247e-09 1.22990630018127e-09
"4" 20597 1.62004711794148e-09 9.13602976879121e-09 2.69776197355947e-08 1.2575259989752e-07 2.21758739247494e-07 1.77424881576062e-08 4.6745873255247e-09 1.22966917073562e-09
"5" 20598 1.6116423959052e-09 9.06814818324055e-09 2.6722097554595e-08 1.23340973216973e-07 2.22358281177316e-07 1.77314253721481e-08 4.67099153972811e-09 1.22966917073562e-09
"6" 20599 1.60547252563309e-09 9.05975103646594e-09 2.65789917641741e-08 1.23214189995096e-07 2.20203229287213e-07 1.77283214152749e-08 4.63501199416639e-09 1.22869615872712e-09
"7" 20600 1.59930265536099e-09 9.05135388969133e-09 2.64358859737532e-08 1.23087406773218e-07 2.1804817739711e-07 1.77252174584016e-08 4.59903244860466e-09 1.22772314671861e-09
"8" 20601 1.59313278508888e-09 9.04295674291672e-09 2.62927801833322e-08 1.2296062355134e-07 2.15893125507008e-07 1.77221135015283e-08 4.56305290304294e-09 1.22675013471011e-09
"9" 20602 1.58696291481678e-09 9.03455959614211e-09 2.61496743929113e-08 1.22833840329463e-07 2.13738073616905e-07 1.77190095446551e-08 4.52707335748121e-09 1.2257771227016e-09
"10" 20603 1.58079304454468e-09 9.0261624493675e-09 2.60065686024904e-08 1.22707057107585e-07 2.11583021726803e-07 1.77159055877818e-08 4.49109381191949e-09 1.2248041106931e-09
"11" 20604 1.57462317427257e-09 9.01776530259289e-09 2.58634628120694e-08 1.22580273885708e-07 2.094279698367e-07 1.77128016309085e-08 4.45511426635777e-09 1.22383109868459e-09
"12" 20605 1.56845330400047e-09 9.00936815581828e-09 2.57203570216485e-08 1.2245349066383e-07 2.07272917946598e-07 1.77096976740352e-08 4.41913472079604e-09 1.22285808667609e-09
"13" 20606 1.56228343372836e-09 9.00097100904367e-09 2.55772512312276e-08 1.22326707441953e-07 2.05117866056495e-07 1.7706593717162e-08 4.38315517523432e-09 1.22188507466758e-09
"14" 20607 1.55611356345626e-09 8.99257386226906e-09 2.54341454408067e-08 1.22199924220075e-07 2.02962814166392e-07 1.77034897602887e-08 4.3471756296726e-09 1.22091206265907e-09
"15" 20608 1.54994369318415e-09 8.98417671549445e-09 2.52910396503857e-08 1.22073140998198e-07 2.0080776227629e-07 1.77003858034154e-08 4.31119608411087e-09 1.21993905065057e-09
"16" 20609 1.54377382291205e-09 8.97577956871984e-09 2.51479338599648e-08 1.2194635777632e-07 1.98652710386187e-07 1.76972818465422e-08 4.27521653854915e-09 1.21896603864206e-09
"17" 20610 1.53760395263995e-09 8.96738242194523e-09 2.50048280695439e-08 1.21819574554442e-07 1.96497658496085e-07 1.76941778896689e-08 4.23923699298743e-09 1.21799302663356e-09
"18" 20611 1.53143408236784e-09 8.95898527517062e-09 2.48617222791229e-08 1.21692791332565e-07 1.94342606605982e-07 1.76910739327956e-08 4.2032574474257e-09 1.21702001462505e-09
"19" 20612 1.51983367328612e-09 8.93290746764315e-09 2.48368973459718e-08 1.21869589229862e-07 1.94569406694035e-07 1.76998551655731e-08 4.19438440529211e-09 1.20488629304416e-09
"20" 20613 1.50823326420439e-09 8.90682966011568e-09 2.48120724128206e-08 1.2204638712716e-07 1.94796206782087e-07 1.77086363983506e-08 4.18551136315853e-09 1.19275257146327e-09
"21" 20614 1.49663285512266e-09 8.88075185258821e-09 2.47872474796694e-08 1.22223185024457e-07 1.9502300687014e-07 1.77174176311281e-08 4.17663832102494e-09 1.18061884988238e-09
"22" 20615 1.48503244604093e-09 8.85467404506074e-09 2.47624225465182e-08 1.22399982921754e-07 1.95249806958192e-07 1.77261988639056e-08 4.16776527889135e-09 1.16848512830149e-09
"23" 20616 1.47343203695921e-09 8.82859623753327e-09 2.47375976133671e-08 1.22576780819052e-07 1.95476607046245e-07 1.77349800966831e-08 4.15889223675776e-09 1.1563514067206e-09
"24" 20617 1.46800149814958e-09 8.81467147246316e-09 2.47482968742468e-08 1.23722939818252e-07 1.95237049821609e-07 1.77356963944231e-08 4.14974084554908e-09 1.14447930881126e-09
"25" 20618 1.45630867263505e-09 8.79677734945851e-09 2.47272747048607e-08 1.23713552511751e-07 1.94877013206965e-07 1.77917052925841e-08 4.1408098583825e-09 1.13258271667602e-09
"26" 20619 1.45440607659903e-09 8.75300905357389e-09 2.45873753704984e-08 1.23698723422323e-07 1.94757416277752e-07 1.78477354120357e-08 4.13715612755293e-09 1.13184683411317e-09
"27" 20620 1.45250348056301e-09 8.70924075768927e-09 2.4447476036136e-08 1.23683894332896e-07 1.9463781934854e-07 1.79037655314873e-08 4.13350239672336e-09 1.13111095155031e-09
"28" 20621 1.45060088452699e-09 8.66547246180465e-09 2.43075767017736e-08 1.23669065243469e-07 1.94518222419328e-07 1.79597956509389e-08 4.12984866589378e-09 1.13037506898745e-09
"29" 20622 1.44869828849098e-09 8.62170416592003e-09 2.41676773674113e-08 1.23654236154042e-07 1.94398625490115e-07 1.80158257703905e-08 4.12619493506421e-09 1.1296391864246e-09
"30" 20623 1.44679569245496e-09 8.57793587003542e-09 2.40277780330489e-08 1.23639407064615e-07 1.94279028560903e-07 1.8071855889842e-08 4.12254120423464e-09 1.12890330386174e-09
"31" 20624 1.44489309641894e-09 8.5341675741508e-09 2.38878786986865e-08 1.23624577975188e-07 1.94159431631691e-07 1.81278860092936e-08 4.11888747340507e-09 1.12816742129889e-09
"32" 20625 1.44299050038292e-09 8.49039927826618e-09 2.37479793643241e-08 1.23609748885761e-07 1.94039834702478e-07 1.81839161287452e-08 4.11523374257549e-09 1.12743153873603e-09
"33" 20626 1.44108790434691e-09 8.44663098238156e-09 2.36080800299618e-08 1.23594919796333e-07 1.93920237773266e-07 1.82399462481968e-08 4.11158001174592e-09 1.12669565617317e-09
"34" 20627 1.43918530831089e-09 8.40286268649694e-09 2.34681806955994e-08 1.23580090706906e-07 1.93800640844053e-07 1.82959763676484e-08 4.10792628091635e-09 1.12595977361032e-09
"35" 20628 1.43728271227487e-09 8.35909439061232e-09 2.3328281361237e-08 1.23565261617479e-07 1.93681043914841e-07 1.83520064871e-08 4.10427255008677e-09 1.12522389104746e-09
"36" 20629 1.43538011623885e-09 8.31532609472771e-09 2.31883820268747e-08 1.23550432528052e-07 1.93561446985629e-07 1.84080366065515e-08 4.1006188192572e-09 1.1244880084846e-09
"37" 20630 1.43347752020283e-09 8.27155779884309e-09 2.30484826925123e-08 1.23535603438625e-07 1.93441850056416e-07 1.84640667260031e-08 4.09696508842763e-09 1.12375212592175e-09
"38" 20631 1.43375476950126e-09 8.21796691365133e-09 2.29465267793035e-08 1.23666427046413e-07 1.93217644746237e-07 1.84938858065828e-08 4.10928283343851e-09 1.12277911391324e-09
"39" 20632 1.4340320187997e-09 8.16232002677594e-09 2.28047948474903e-08 1.23772722748732e-07 1.92978502797271e-07 1.84958595977611e-08 4.10634825976826e-09 1.13085714069219e-09
"40" 20633 1.43430926809813e-09 8.10667313990055e-09 2.26630629156772e-08 1.23879018451051e-07 1.92739360848305e-07 1.84978333889393e-08 4.103413686098e-09 1.13893516747113e-09
"41" 20634 1.43430926809813e-09 8.10667313990055e-09 2.26295088879607e-08 1.23856760115096e-07 1.92781887443544e-07 1.84510195915108e-08 4.09826369591681e-09 1.14772458258703e-09
"42" 20635 1.43669228177477e-09 8.09479454890978e-09 2.25676768395185e-08 1.23957115281372e-07 1.92348361552514e-07 1.8213910205788e-08 4.06294536248141e-09 1.15580260936597e-09
"43" 20636 1.43907529545142e-09 8.08291595791901e-09 2.25058447910762e-08 1.24057470447648e-07 1.91914835661483e-07 1.79768008200652e-08 4.02762702904602e-09 1.16388063614492e-09
"44" 20637 1.44145830912807e-09 8.07103736692824e-09 2.24440127426339e-08 1.24157825613923e-07 1.91481309770453e-07 1.77396914343423e-08 3.99230869561063e-09 1.17195866292387e-09
"45" 20638 1.44384132280471e-09 8.05915877593747e-09 2.23821806941917e-08 1.24258180780199e-07 1.91047783879423e-07 1.75025820486195e-08 3.95699036217524e-09 1.18003668970281e-09
"46" 20639 1.44622433648136e-09 8.0472801849467e-09 2.23203486457494e-08 1.24358535946475e-07 1.90614257988393e-07 1.72654726628967e-08 3.92167202873984e-09 1.18811471648176e-09
"47" 20640 1.44860735015801e-09 8.03540159395593e-09 2.22585165973072e-08 1.2445889111275e-07 1.90180732097362e-07 1.70283632771739e-08 3.88635369530445e-09 1.1961927432607e-09
"48" 20641 1.45099036383465e-09 8.02352300296516e-09 2.21966845488649e-08 1.24559246279026e-07 1.89747206206332e-07 1.67912538914511e-08 3.85103536186906e-09 1.20427077003965e-09
"49" 20642 1.4533733775113e-09 8.01164441197439e-09 2.21348525004226e-08 1.24659601445302e-07 1.89313680315302e-07 1.65541445057282e-08 3.81571702843367e-09 1.2123487968186e-09
"50" 20643 1.45575639118795e-09 7.99976582098362e-09 2.20730204519804e-08 1.24759956611577e-07 1.88880154424272e-07 1.63170351200054e-08 3.78039869499827e-09 1.22042682359754e-09
"51" 20644 1.45813940486459e-09 7.98788722999285e-09 2.20111884035381e-08 1.24860311777853e-07 1.88446628533241e-07 1.60799257342826e-08 3.74508036156288e-09 1.22850485037649e-09
"52" 20645 1.46052241854124e-09 7.97600863900208e-09 2.19493563550959e-08 1.24960666944129e-07 1.88013102642211e-07 1.58428163485598e-08 3.70976202812749e-09 1.23658287715543e-09
"53" 20646 1.46290543221789e-09 7.96413004801131e-09 2.18875243066536e-08 1.25061022110404e-07 1.87579576751181e-07 1.56057069628369e-08 3.6744436946921e-09 1.24466090393438e-09
"54" 20647 1.46528844589453e-09 7.95225145702054e-09 2.18256922582114e-08 1.2516137727668e-07 1.87146050860151e-07 1.53685975771141e-08 3.6391253612567e-09 1.25273893071333e-09
"55" 20648 1.46767145957118e-09 7.94037286602977e-09 2.17638602097691e-08 1.25261732442956e-07 1.8671252496912e-07 1.51314881913913e-08 3.60380702782131e-09 1.26081695749227e-09
"56" 20649 1.47005447324783e-09 7.92849427503899e-09 2.17020281613268e-08 1.25362087609231e-07 1.8627899907809e-07 1.48943788056685e-08 3.56848869438592e-09 1.26889498427122e-09
"57" 20650 1.47243748692447e-09 7.91661568404822e-09 2.16401961128846e-08 1.25462442775507e-07 1.8584547318706e-07 1.46572694199457e-08 3.53317036095053e-09 1.27697301105016e-09
"58" 20651 1.47482050060112e-09 7.90473709305745e-09 2.15783640644423e-08 1.25562797941783e-07 1.8541194729603e-07 1.44201600342228e-08 3.49785202751513e-09 1.28505103782911e-09
"59" 20652 1.47720351427777e-09 7.89285850206668e-09 2.15165320160001e-08 1.25663153108058e-07 1.84978421404999e-07 1.41830506485e-08 3.46253369407974e-09 1.29312906460805e-09
"60" 20653 1.48137837208104e-09 7.88294442893734e-09 2.14547745060211e-08 1.25635569706275e-07 1.85548971822985e-07 1.39558738825402e-08 3.42649620348503e-09 1.29317805305987e-09
"61" 20654 1.48555322988432e-09 7.873030355808e-09 2.13930169960422e-08 1.25607986304491e-07 1.8611952224097e-07 1.37286971165804e-08 3.39045871289032e-09 1.29322704151169e-09
"62" 20655 1.48972808768759e-09 7.86311628267866e-09 2.13312594860633e-08 1.25580402902708e-07 1.86690072658956e-07 1.35015203506207e-08 3.35442122229561e-09 1.29327602996351e-09
"63" 20656 1.49390294549087e-09 7.85320220954932e-09 2.12695019760843e-08 1.25552819500925e-07 1.87260623076941e-07 1.32743435846609e-08 3.3183837317009e-09 1.29332501841532e-09
"64" 20657 1.49787463495195e-09 7.84633181673373e-09 2.12360224868312e-08 1.24847486041601e-07 1.88307225981196e-07 1.32661937644612e-08 3.31644666426506e-09 1.29337400686714e-09
"65" 20658 1.50175390798022e-09 7.84750246300825e-09 2.12360970252945e-08 1.24840672265288e-07 1.87014873177065e-07 1.32293125867957e-08 3.29672831970872e-09 1.29035699393799e-09
"66" 20659 1.50563318100848e-09 7.84867310928277e-09 2.12361715637578e-08 1.24833858488975e-07 1.85722520372934e-07 1.31924314091302e-08 3.27700997515239e-09 1.28733998100884e-09
"67" 20660 1.50951245403675e-09 7.84984375555729e-09 2.12362461022211e-08 1.24827044712662e-07 1.84430167568802e-07 1.31555502314647e-08 3.25729163059606e-09 1.28432296807969e-09
"68" 20661 1.51339172706502e-09 7.85101440183181e-09 2.12363206406845e-08 1.2482023093635e-07 1.83137814764671e-07 1.31186690537992e-08 3.23757328603972e-09 1.28130595515054e-09
"69" 20662 1.51727100009329e-09 7.85218504810633e-09 2.12363951791478e-08 1.24813417160037e-07 1.8184546196054e-07 1.30817878761337e-08 3.21785494148339e-09 1.27828894222139e-09
"70" 20663 1.52115027312155e-09 7.85335569438085e-09 2.12364697176111e-08 1.24806603383724e-07 1.80553109156408e-07 1.30449066984682e-08 3.19813659692705e-09 1.27527192929224e-09
"71" 20664 1.52502954614982e-09 7.85452634065537e-09 2.12365442560744e-08 1.24799789607411e-07 1.79260756352277e-07 1.30080255208027e-08 3.17841825237072e-09 1.27225491636309e-09
"72" 20665 1.52890881917809e-09 7.85569698692988e-09 2.12366187945378e-08 1.24792975831098e-07 1.77968403548145e-07 1.29711443431373e-08 3.15869990781438e-09 1.26923790343394e-09
"73" 20666 1.53278809220636e-09 7.85686763320441e-09 2.12366933330011e-08 1.24786162054786e-07 1.76676050744014e-07 1.29342631654718e-08 3.13898156325805e-09 1.26622089050479e-09
"74" 20667 1.53666736523462e-09 7.85803827947893e-09 2.12367678714644e-08 1.24779348278473e-07 1.75383697939883e-07 1.28973819878063e-08 3.11926321870172e-09 1.26320387757564e-09
"75" 20668 1.54054663826289e-09 7.85920892575344e-09 2.12368424099277e-08 1.2477253450216e-07 1.74091345135751e-07 1.28605008101408e-08 3.09954487414538e-09 1.26018686464649e-09
"76" 20669 1.54442591129116e-09 7.86037957202796e-09 2.12369169483911e-08 1.24765720725847e-07 1.7279899233162e-07 1.28236196324753e-08 3.07982652958905e-09 1.25716985171733e-09
"77" 20670 1.53227100361257e-09 7.78150576269017e-09 2.09842345491113e-08 1.23891042951612e-07 1.72374210404136e-07 1.28154698122756e-08 3.06431861401248e-09 1.2221346623833e-09
"78" 20671 1.52011609593398e-09 7.70263195335238e-09 2.07315521498314e-08 1.23016365177377e-07 1.71949428476651e-07 1.28073199920759e-08 3.04881069843591e-09 1.18709947304927e-09
"79" 20672 1.5079611882554e-09 7.62375814401459e-09 2.04788697505516e-08 1.22141687403142e-07 1.71524646549167e-07 1.27991701718762e-08 3.03330278285934e-09 1.15206428371524e-09
"80" 20673 1.49580628057681e-09 7.5448843346768e-09 2.02261873512718e-08 1.21267009628907e-07 1.71099864621682e-07 1.27910203516764e-08 3.01779486728278e-09 1.11702909438121e-09
"81" 20674 1.48365137289822e-09 7.46601052533901e-09 1.9973504951992e-08 1.20392331854672e-07 1.70675082694198e-07 1.27828705314767e-08 3.00228695170621e-09 1.08199390504718e-09
"82" 20675 1.47149646521963e-09 7.38713671600122e-09 1.97208225527122e-08 1.19517654080437e-07 1.70250300766714e-07 1.2774720711277e-08 2.98677903612964e-09 1.04695871571315e-09
"83" 20676 1.45536986807997e-09 7.32640098652728e-09 1.94681401534324e-08 1.18676998997146e-07 1.689548923079e-07 1.2754664480136e-08 2.97105071651096e-09 1.01192352637911e-09
"84" 20677 1.44114586697632e-09 7.26116665139418e-09 1.9249235397259e-08 1.181221034249e-07 1.68076726957094e-07 1.2754473488521e-08 2.96170167343984e-09 9.79807373070599e-10
"85" 20678 1.44304846301234e-09 7.26467859021774e-09 1.92495335511123e-08 1.16451159594805e-07 1.68586337597442e-07 1.27255511394403e-08 2.95606430623127e-09 9.81467279190143e-10
"86" 20679 1.44495105904835e-09 7.2681905290413e-09 1.92498317049656e-08 1.14780215764711e-07 1.6909594823779e-07 1.26966287903596e-08 2.9504269390227e-09 9.83127185309688e-10
"87" 20680 1.44685365508437e-09 7.27170246786486e-09 1.92501298588189e-08 1.13109271934616e-07 1.69605558878138e-07 1.26677064412789e-08 2.94478957181414e-09 9.84787091429232e-10
"88" 20681 1.44875625112039e-09 7.27521440668842e-09 1.92504280126722e-08 1.11438328104521e-07 1.70115169518486e-07 1.26387840921981e-08 2.93915220460557e-09 9.86446997548777e-10
"89" 20682 1.45065884715641e-09 7.27872634551198e-09 1.92507261665255e-08 1.09767384274427e-07 1.70624780158834e-07 1.26098617431174e-08 2.933514837397e-09 9.88106903668321e-10
"90" 20683 1.45256144319242e-09 7.28223828433554e-09 1.92510243203788e-08 1.08096440444332e-07 1.71134390799182e-07 1.25809393940367e-08 2.92787747018844e-09 9.89766809787866e-10
"91" 20684 1.45446403922844e-09 7.2857502231591e-09 1.92513224742321e-08 1.06425496614238e-07 1.7164400143953e-07 1.2552017044956e-08 2.92224010297987e-09 9.9142671590741e-10
"92" 20685 1.45636663526446e-09 7.28926216198266e-09 1.92516206280854e-08 1.04754552784143e-07 1.72153612079879e-07 1.25230946958752e-08 2.91660273577131e-09 9.93086622026955e-10
"93" 20686 1.45826923130048e-09 7.29277410080622e-09 1.92519187819387e-08 1.03083608954049e-07 1.72663222720227e-07 1.24941723467945e-08 2.91096536856274e-09 9.94746528146499e-10
"94" 20687 1.4601718273365e-09 7.29628603962978e-09 1.9252216935792e-08 1.01412665123954e-07 1.73172833360575e-07 1.24652499977138e-08 2.90532800135417e-09 9.96406434266044e-10
"95" 20688 1.46207442337251e-09 7.29979797845333e-09 1.92525150896453e-08 9.97417212938597e-08 1.73682444000923e-07 1.2436327648633e-08 2.89969063414561e-09 9.98066340385588e-10
"96" 20689 1.46216683980532e-09 7.28843880758288e-09 1.92230504714843e-08 9.7834127503146e-08 1.73641361755576e-07 1.23875400600262e-08 2.88861355159092e-09 9.99824223408767e-10
"97" 20690 1.46434668513977e-09 7.28016363923787e-09 1.92230504714843e-08 9.58856527438123e-08 1.7376168541721e-07 1.233948999045e-08 2.88070282283843e-09 9.99750740731041e-10
"98" 20691 1.46652653047422e-09 7.27188847089285e-09 1.92230504714843e-08 9.39371779844786e-08 1.73882009078843e-07 1.22914399208737e-08 2.87279209408593e-09 9.99677258053316e-10
"99" 20692 1.46870637580867e-09 7.26361330254784e-09 1.92230504714843e-08 9.1988703225145e-08 1.74002332740477e-07 1.22433898512974e-08 2.86488136533344e-09 9.9960377537559e-10
"100" 20693 1.46870637580867e-09 7.26135366621671e-09 1.9233749732364e-08 9.16927629319322e-08 1.74092022017496e-07 1.21633771396388e-08 2.85697063658095e-09 1.00078942260384e-09
"101" 20694 1.46691453168204e-09 7.24932260218894e-09 1.92394729701346e-08 9.16518819633122e-08 1.73678033782115e-07 1.2152208247728e-08 2.84061629768926e-09 9.99056033806566e-10
"102" 20695 1.46512268755541e-09 7.23729153816118e-09 1.92451962079053e-08 9.16110009946923e-08 1.73264045546734e-07 1.21410393558172e-08 2.82426195879757e-09 9.97322645009296e-10
"103" 20696 1.46333084342878e-09 7.22526047413341e-09 1.92509194456759e-08 9.15701200260724e-08 1.72850057311352e-07 1.21298704639065e-08 2.80790761990588e-09 9.95589256212026e-10
"104" 20697 1.46153899930215e-09 7.21322941010565e-09 1.92566426834466e-08 9.15292390574524e-08 1.72436069075971e-07 1.21187015719957e-08 2.79155328101418e-09 9.93855867414755e-10
"105" 20698 1.45974715517552e-09 7.20119834607788e-09 1.92623659212173e-08 9.14883580888325e-08 1.7202208084059e-07 1.21075326800849e-08 2.77519894212249e-09 9.92122478617485e-10
"106" 20699 1.45795531104889e-09 7.18916728205011e-09 1.92680891589879e-08 9.14474771202125e-08 1.71608092605209e-07 1.20963637881741e-08 2.7588446032308e-09 9.90389089820215e-10
"107" 20700 1.45616346692226e-09 7.17713621802235e-09 1.92738123967586e-08 9.14065961515926e-08 1.71194104369828e-07 1.20851948962633e-08 2.7424902643391e-09 9.88655701022945e-10
"108" 20701 1.45437162279563e-09 7.16510515399458e-09 1.92795356345292e-08 9.13657151829727e-08 1.70780116134447e-07 1.20740260043525e-08 2.72613592544741e-09 9.86922312225675e-10
"109" 20702 1.452579778669e-09 7.15307408996682e-09 1.92852588722999e-08 9.13248342143527e-08 1.70366127899066e-07 1.20628571124418e-08 2.70978158655572e-09 9.85188923428405e-10
"110" 20703 1.45078793454237e-09 7.14104302593905e-09 1.92909821100706e-08 9.12839532457328e-08 1.69952139663685e-07 1.2051688220531e-08 2.69342724766403e-09 9.83455534631134e-10
"111" 20704 1.44899609041574e-09 7.12901196191129e-09 1.92967053478412e-08 9.12430722771128e-08 1.69538151428304e-07 1.20405193286202e-08 2.67707290877233e-09 9.81722145833864e-10
"112" 20705 1.44720424628911e-09 7.11698089788352e-09 1.93024285856119e-08 9.12021913084929e-08 1.69124163192923e-07 1.20293504367094e-08 2.66071856988064e-09 9.79988757036594e-10
"113" 20706 1.44541240216248e-09 7.10494983385575e-09 1.93081518233825e-08 9.1161310339873e-08 1.68710174957542e-07 1.20181815447986e-08 2.64436423098895e-09 9.78255368239324e-10
"114" 20707 1.44362055803586e-09 7.09291876982799e-09 1.93138750611532e-08 9.1120429371253e-08 1.68296186722161e-07 1.20070126528879e-08 2.62800989209726e-09 9.76521979442054e-10
"115" 20708 1.44182871390923e-09 7.08088770580022e-09 1.93195982989239e-08 9.10795484026331e-08 1.6788219848678e-07 1.19958437609771e-08 2.61165555320556e-09 9.74788590644784e-10
"116" 20709 1.4400368697826e-09 7.06885664177246e-09 1.93253215366945e-08 9.10386674340131e-08 1.67468210251399e-07 1.19846748690663e-08 2.59530121431387e-09 9.73055201847514e-10
"117" 20710 1.43824502565597e-09 7.05682557774469e-09 1.93310447744652e-08 9.09977864653932e-08 1.67054222016018e-07 1.19735059771555e-08 2.57894687542218e-09 9.71321813050243e-10
"118" 20711 1.43407016785269e-09 7.04171051119149e-09 1.93100589592966e-08 9.13523739066123e-08 1.67129942704066e-07 1.19702746925389e-08 2.56081792810377e-09 9.67642400235962e-10
"119" 20712 1.42989531004941e-09 7.02659544463828e-09 1.92890731441281e-08 9.17069613478315e-08 1.67205663392114e-07 1.19670434079224e-08 2.54268898078536e-09 9.63962987421681e-10
"120" 20713 1.42572045224614e-09 7.01148037808508e-09 1.92680873289595e-08 9.20615487890506e-08 1.67281384080163e-07 1.19638121233058e-08 2.52456003346695e-09 9.602835746074e-10
"121" 20714 1.42154559444286e-09 6.99636531153187e-09 1.9247101513791e-08 9.24161362302697e-08 1.67357104768211e-07 1.19605808386892e-08 2.50643108614854e-09 9.56604161793119e-10
"122" 20715 1.41916258076622e-09 6.9911741457123e-09 1.92360659148122e-08 9.23908627290102e-08 1.6765739413265e-07 1.19394368844343e-08 2.50854198868334e-09 9.55843785004355e-10
"123" 20716 1.41825749096461e-09 6.95604796525601e-09 1.92360659148122e-08 9.2836197212446e-08 1.67065371375895e-07 1.19123132244902e-08 2.4909345466618e-09 9.56105408675912e-10
"124" 20717 1.41735240116301e-09 6.92092178479973e-09 1.92360659148122e-08 9.32815316958817e-08 1.6647334861914e-07 1.18851895645461e-08 2.47332710464027e-09 9.5636703234747e-10
"125" 20718 1.4164473113614e-09 6.88579560434345e-09 1.92360659148122e-08 9.37268661793175e-08 1.65881325862385e-07 1.18580659046019e-08 2.45571966261874e-09 9.56628656019028e-10
"126" 20719 1.4155422215598e-09 6.85066942388717e-09 1.92360659148122e-08 9.41722006627533e-08 1.65289303105631e-07 1.18309422446578e-08 2.4381122205972e-09 9.56890279690586e-10
"127" 20720 1.4146371317582e-09 6.81554324343089e-09 1.92360659148122e-08 9.46175351461891e-08 1.64697280348876e-07 1.18038185847137e-08 2.42050477857567e-09 9.57151903362144e-10
"128" 20721 1.41373204195659e-09 6.7804170629746e-09 1.92360659148122e-08 9.50628696296249e-08 1.64105257592121e-07 1.17766949247695e-08 2.40289733655414e-09 9.57413527033701e-10
"129" 20722 1.41282695215499e-09 6.74529088251832e-09 1.92360659148122e-08 9.55082041130606e-08 1.63513234835366e-07 1.17495712648254e-08 2.3852898945326e-09 9.57675150705259e-10
"130" 20723 1.41192186235338e-09 6.71016470206204e-09 1.92360659148122e-08 9.59535385964964e-08 1.62921212078612e-07 1.17224476048813e-08 2.36768245251107e-09 9.57936774376817e-10
"131" 20724 1.41101677255178e-09 6.67503852160576e-09 1.92360659148122e-08 9.63988730799322e-08 1.62329189321857e-07 1.16953239449372e-08 2.35007501048953e-09 9.58198398048375e-10
"132" 20725 1.41011168275018e-09 6.63991234114947e-09 1.92360659148122e-08 9.6844207563368e-08 1.61737166565102e-07 1.1668200284993e-08 2.332467568468e-09 9.58460021719932e-10
"133" 20726 1.40920659294857e-09 6.60478616069319e-09 1.92360659148122e-08 9.72895420468038e-08 1.61145143808347e-07 1.16410766250489e-08 2.31486012644647e-09 9.5872164539149e-10
"134" 20727 1.40830150314697e-09 6.56965998023691e-09 1.92360659148122e-08 9.77348765302395e-08 1.60553121051593e-07 1.16139529651048e-08 2.29725268442493e-09 9.58983269063048e-10
"135" 20728 1.40739641334537e-09 6.53453379978063e-09 1.92360659148122e-08 9.81802110136753e-08 1.59961098294838e-07 1.15868293051606e-08 2.2796452424034e-09 9.59244892734606e-10
"136" 20729 1.40719324500317e-09 6.51966269008661e-09 1.92090587080197e-08 9.86185092139832e-08 1.60420856076506e-07 1.15599603007031e-08 2.26955428999329e-09 9.59269386960514e-10
"137" 20730 1.40699007666097e-09 6.5047915803926e-09 1.91820515012272e-08 9.90568074142911e-08 1.60880613858173e-07 1.15330912962456e-08 2.25946333758318e-09 9.59293881186423e-10
"138" 20731 1.40678690831877e-09 6.48992047069859e-09 1.91550442944347e-08 9.94951056145989e-08 1.61340371639841e-07 1.15062222917881e-08 2.24937238517306e-09 9.59318375412331e-10
"139" 20732 1.40658373997657e-09 6.47504936100458e-09 1.91280370876422e-08 9.99334038149068e-08 1.61800129421509e-07 1.14793532873305e-08 2.23928143276295e-09 9.5934286963824e-10
"140" 20733 1.40638057163437e-09 6.46017825131057e-09 1.91010298808497e-08 1.00371702015215e-07 1.62259887203177e-07 1.1452484282873e-08 2.22919048035284e-09 9.59367363864148e-10
"141" 20734 1.40647298806718e-09 6.44839114414199e-09 1.91547594786728e-08 1.00379850832418e-07 1.62480373262232e-07 1.14177201137024e-08 2.21892569284377e-09 9.61411364784794e-10
"142" 20735 1.40656540449999e-09 6.43660403697342e-09 1.92084890764959e-08 1.00387999649621e-07 1.62700859321287e-07 1.13829559445317e-08 2.2086609053347e-09 9.63455365705438e-10
"143" 20736 1.4066578209328e-09 6.42481692980485e-09 1.9262218674319e-08 1.00396148466825e-07 1.62921345380342e-07 1.13481917753611e-08 2.19839611782563e-09 9.65499366626084e-10
"144" 20737 1.40095003282475e-09 6.365271501814e-09 1.90283683227776e-08 9.87617495994716e-08 1.63380861149555e-07 1.13131729507039e-08 2.19174986829281e-09 9.6751887332082e-10
"145" 20738 1.3952422447167e-09 6.30572607382315e-09 1.87945179712362e-08 9.71273507321184e-08 1.63840376918769e-07 1.12781541260466e-08 2.18510361876e-09 9.69538380015557e-10
"146" 20739 1.38953445660864e-09 6.2461806458323e-09 1.85606676196947e-08 9.54929518647652e-08 1.64299892687983e-07 1.12431353013894e-08 2.17845736922718e-09 9.71557886710293e-10
"147" 20740 1.38382666850059e-09 6.18663521784146e-09 1.83268172681533e-08 9.3858552997412e-08 1.64759408457197e-07 1.12081164767321e-08 2.17181111969437e-09 9.73577393405029e-10
"148" 20741 1.37811888039254e-09 6.12708978985061e-09 1.80929669166119e-08 9.22241541300588e-08 1.6521892422641e-07 1.11730976520749e-08 2.16516487016155e-09 9.75596900099766e-10
"149" 20742 1.37241109228448e-09 6.06754436185976e-09 1.78591165650705e-08 9.05897552627056e-08 1.65678439995624e-07 1.11380788274177e-08 2.15851862062874e-09 9.77616406794503e-10
"150" 20743 1.36670330417643e-09 6.00799893386892e-09 1.76252662135291e-08 8.89553563953524e-08 1.66137955764838e-07 1.11030600027604e-08 2.15187237109592e-09 9.79635913489239e-10
"151" 20744 1.36099551606838e-09 5.94845350587807e-09 1.73914158619877e-08 8.73209575279992e-08 1.66597471534051e-07 1.10680411781032e-08 2.14522612156311e-09 9.81655420183975e-10
"152" 20745 1.35528772796032e-09 5.88890807788722e-09 1.71575655104463e-08 8.5686558660646e-08 1.67056987303265e-07 1.10330223534459e-08 2.13857987203029e-09 9.83674926878712e-10
"153" 20746 1.34957993985227e-09 5.82936264989638e-09 1.69237151589049e-08 8.40521597932927e-08 1.67516503072479e-07 1.09980035287887e-08 2.13193362249748e-09 9.85694433573448e-10
"154" 20747 1.34738175904124e-09 5.77207685823666e-09 1.664877979058e-08 8.24273262378925e-08 1.67531335892348e-07 1.09980035287887e-08 2.12406946268814e-09 9.85694433573448e-10
"155" 20748 1.35696882017757e-09 5.72854269160695e-09 1.64573464701272e-08 8.07746162474157e-08 1.6772618701954e-07 1.09780109615193e-08 2.11759704825428e-09 9.94336883333891e-10
"156" 20749 1.36655588131389e-09 5.68500852497723e-09 1.62659131496745e-08 7.91219062569389e-08 1.67921038146732e-07 1.09580183942499e-08 2.11112463382043e-09 1.00297933309433e-09
"157" 20750 1.37614294245021e-09 5.64147435834752e-09 1.60744798292217e-08 7.74691962664621e-08 1.68115889273924e-07 1.09380258269806e-08 2.10465221938657e-09 1.01162178285478e-09
"158" 20751 1.38573000358653e-09 5.5979401917178e-09 1.5883046508769e-08 7.58164862759852e-08 1.68310740401116e-07 1.09180332597112e-08 2.09817980495271e-09 1.02026423261522e-09
"159" 20752 1.40041534780431e-09 5.61773784336909e-09 1.60142797789663e-08 7.58149010139076e-08 1.68464639056608e-07 1.09090344823109e-08 2.08478279191095e-09 1.02814630558689e-09
"160" 20753 1.40730547501240e-09 5.61301493605932e-09 1.61261744003018e-08 7.5796589890784e-08 1.68624759148701e-07 1.09211318848672e-08 2.08102454710523e-09 1.03705037901890e-09
"161" 20754 1.41419560222048e-09 5.60829202874955e-09 1.62380690216373e-08 7.57782787676604e-08 1.68784879240794e-07 1.09332292874234e-08 2.07726630229952e-09 1.04595445245090e-09
"162" 20755 1.42108572942857e-09 5.60356912143979e-09 1.63499636429727e-08 7.57599676445368e-08 1.68944999332886e-07 1.09453266899797e-08 2.07350805749381e-09 1.05485852588289e-09
"163" 20756 1.42797585663666e-09 5.59884621413002e-09 1.64618582643082e-08 7.57416565214132e-08 1.69105119424979e-07 1.0957424092536e-08 2.0697498126881e-09 1.06376259931489e-09
"164" 20757 1.43486598384475e-09 5.59412330682025e-09 1.65737528856436e-08 7.57233453982896e-08 1.69265239517072e-07 1.09695214950923e-08 2.06599156788239e-09 1.07266667274690e-09
"165" 20758 1.44175611105283e-09 5.58940039951049e-09 1.66856475069791e-08 7.5705034275166e-08 1.69425359609164e-07 1.09816188976485e-08 2.06223332307668e-09 1.08157074617890e-09
"166" 20759 1.44864623826092e-09 5.58467749220072e-09 1.67975421283145e-08 7.56867231520424e-08 1.69585479701257e-07 1.09937163002048e-08 2.05847507827097e-09 1.0904748196109e-09
"167" 20760 1.45553636546901e-09 5.57995458489095e-09 1.690943674965e-08 7.56684120289187e-08 1.6974559979335e-07 1.10058137027611e-08 2.05471683346526e-09 1.0993788930429e-09
"168" 20761 1.4624264926771e-09 5.57523167758119e-09 1.70213313709854e-08 7.56501009057951e-08 1.69905719885442e-07 1.10179111053173e-08 2.05095858865955e-09 1.1082829664749e-09
"169" 20762 1.46931661988518e-09 5.57050877027142e-09 1.71332259923209e-08 7.56317897826715e-08 1.70065839977535e-07 1.10300085078736e-08 2.04720034385384e-09 1.11718703990690e-09
"170" 20763 1.47620674709327e-09 5.56578586296165e-09 1.72451206136564e-08 7.56134786595479e-08 1.70225960069628e-07 1.10421059104299e-08 2.04344209904813e-09 1.12609111333890e-09
"171" 20764 1.48309687430136e-09 5.56106295565188e-09 1.73570152349918e-08 7.55951675364243e-08 1.7038608016172e-07 1.10542033129861e-08 2.03968385424242e-09 1.1349951867709e-09
"172" 20765 1.48998700150945e-09 5.55634004834212e-09 1.74689098563273e-08 7.55768564133007e-08 1.70546200253813e-07 1.10663007155424e-08 2.0359256094367e-09 1.1438992602029e-09
"173" 20766 1.49687712871753e-09 5.55161714103235e-09 1.75808044776627e-08 7.55585452901771e-08 1.70706320345906e-07 1.10783981180987e-08 2.03216736463099e-09 1.1528033336349e-09
"174" 20767 1.50376725592562e-09 5.54689423372258e-09 1.76926990989982e-08 7.55402341670535e-08 1.70866440437998e-07 1.10904955206549e-08 2.02840911982528e-09 1.1617074070669e-09
"175" 20768 1.51065738313371e-09 5.54217132641282e-09 1.78045937203336e-08 7.55219230439299e-08 1.71026560530091e-07 1.11025929232112e-08 2.02465087501957e-09 1.1706114804989e-09
"176" 20769 1.5175475103418e-09 5.53744841910305e-09 1.79164883416691e-08 7.55036119208063e-08 1.71186680622184e-07 1.11146903257675e-08 2.02089263021386e-09 1.1795155539309e-09
"177" 20770 1.50914278830551e-09 5.52498941877717e-09 1.78971496928072e-08 7.57009233627772e-08 1.71260628663807e-07 1.11130189643742e-08 2.02722533781826e-09 1.17975268337654e-09
"178" 20771 1.50153240416144e-09 5.50240288307014e-09 1.78831349132165e-08 7.59808833907344e-08 1.71464927338866e-07 1.11152527427563e-08 2.02135619047775e-09 1.18203381374284e-09
"179" 20772 1.49392202001737e-09 5.47981634736312e-09 1.78691201336258e-08 7.62608434186916e-08 1.71669226013926e-07 1.11174865211385e-08 2.01548704313724e-09 1.18431494410913e-09
"180" 20773 1.4863116358733e-09 5.4572298116561e-09 1.78551053540352e-08 7.65408034466488e-08 1.71873524688985e-07 1.11197202995206e-08 2.00961789579673e-09 1.18659607447543e-09
"181" 20774 1.48710597376551e-09 5.45035941884051e-09 1.78591202251273e-08 7.67452015327206e-08 1.71631355846696e-07 1.10540122157926e-08 2.00878284857144e-09 1.18861558117016e-09
"182" 20775 1.48581288275609e-09 5.45232393670194e-09 1.7809493374951e-08 7.69829547892913e-08 1.71510816127338e-07 1.105115235655e-08 2.00806369141212e-09 1.19089671153646e-09
"183" 20776 1.48451979174667e-09 5.45428845456337e-09 1.77598665247747e-08 7.7220708045862e-08 1.7139027640798e-07 1.10482924973073e-08 2.0073445342528e-09 1.19317784190275e-09
"184" 20777 1.48322670073724e-09 5.4562529724248e-09 1.77102396745984e-08 7.74584613024327e-08 1.71269736688622e-07 1.10454326380646e-08 2.00662537709349e-09 1.19545897226905e-09
"185" 20778 1.48193360972782e-09 5.45821749028623e-09 1.76606128244221e-08 7.76962145590034e-08 1.71149196969264e-07 1.1042572778822e-08 2.00590621993417e-09 1.19774010263534e-09
"186" 20779 1.4806405187184e-09 5.46018200814766e-09 1.76109859742459e-08 7.7933967815574e-08 1.71028657249906e-07 1.10397129195793e-08 2.00518706277485e-09 1.20002123300164e-09
"187" 20780 1.47934742770898e-09 5.46214652600909e-09 1.75613591240696e-08 7.81717210721447e-08 1.70908117530548e-07 1.10368530603366e-08 2.00446790561554e-09 1.20230236336793e-09
"188" 20781 1.47805433669955e-09 5.46411104387051e-09 1.75117322738933e-08 7.84094743287154e-08 1.7078757781119e-07 1.1033993201094e-08 2.00374874845622e-09 1.20458349373422e-09
"189" 20782 1.47676124569013e-09 5.46607556173194e-09 1.7462105423717e-08 7.86472275852861e-08 1.70667038091831e-07 1.10311333418513e-08 2.0030295912969e-09 1.20686462410052e-09
"190" 20783 1.47546815468071e-09 5.46804007959337e-09 1.74124785735407e-08 7.88849808418568e-08 1.70546498372473e-07 1.10282734826086e-08 2.00231043413758e-09 1.20914575446681e-09
"191" 20784 1.47417506367129e-09 5.4700045974548e-09 1.73628517233644e-08 7.91227340984275e-08 1.70425958653115e-07 1.1025413623366e-08 2.00159127697827e-09 1.21142688483311e-09
"192" 20785 1.47288197266186e-09 5.47196911531623e-09 1.73132248731882e-08 7.93604873549981e-08 1.70305418933757e-07 1.10225537641233e-08 2.00087211981895e-09 1.2137080151994e-09
"193" 20786 1.47158888165244e-09 5.47393363317766e-09 1.72635980230119e-08 7.95982406115688e-08 1.70184879214399e-07 1.10196939048807e-08 2.00015296265963e-09 1.21598914556569e-09
"194" 20787 1.47029579064302e-09 5.47589815103909e-09 1.72139711728356e-08 7.98359938681395e-08 1.70064339495041e-07 1.1016834045638e-08 1.99943380550031e-09 1.21827027593199e-09
"195" 20788 1.47029579064302e-09 5.45776007117524e-09 1.72192950421068e-08 8.01338552688291e-08 1.6776181310568e-07 1.095112596191e-08 1.99859875827502e-09 1.22031427685263e-09
"196" 20789 1.47029579064302e-09 5.43962199131140e-09 1.7224618911378e-08 8.04317166695188e-08 1.65459286716319e-07 1.08854178781819e-08 1.99776371104973e-09 1.22235827777328e-09
"197" 20790 1.47029579064302e-09 5.42148391144755e-09 1.72299427806493e-08 8.07295780702084e-08 1.63156760326958e-07 1.08197097944539e-08 1.99692866382444e-09 1.22440227869392e-09
"198" 20791 1.47029579064302e-09 5.4033458315837e-09 1.72352666499205e-08 8.1027439470898e-08 1.60854233937597e-07 1.07540017107259e-08 1.99609361659915e-09 1.22644627961457e-09
"199" 20792 1.46920586797580e-09 5.45481972587704e-09 1.72405905191917e-08 8.10283924757694e-08 1.58312625928618e-07 1.06861447337779e-08 1.99609361659915e-09 1.22620915016892e-09
"200" 20793 1.46831911365077e-09 5.47682585224895e-09 1.72457901576907e-08 8.10508271279198e-08 1.557901290731e-07 1.06182028716678e-08 1.99503816533175e-09 1.22620915016892e-09
"201" 20794 1.46743235932574e-09 5.49883197862085e-09 1.72509897961897e-08 8.10732617800701e-08 1.53267632217581e-07 1.05502610095576e-08 1.99398271406435e-09 1.22620915016892e-09
"202" 20795 1.46654560500072e-09 5.52083810499276e-09 1.72532217621399e-08 8.10275637368631e-08 1.53271651003878e-07 1.05480272311754e-08 1.99398271406435e-09 1.22618465594301e-09
"203" 20796 1.46294358127088e-09 5.54311868283126e-09 1.72571124024598e-08 8.02569347420343e-08 1.52969008874021e-07 1.05032455570795e-08 1.98987679906073e-09 1.22421413770009e-09
"204" 20797 1.46205682694586e-09 5.58522740692844e-09 1.72511522112078e-08 8.01936913369991e-08 1.52665432373908e-07 1.04950479625814e-08 1.98349752251317e-09 1.22342926668542e-09
"205" 20798 1.46117007262083e-09 5.62733613102562e-09 1.72451920199557e-08 8.01304479319639e-08 1.52361855873795e-07 1.04868503680834e-08 1.97711824596562e-09 1.22264439567075e-09
"206" 20799 1.4602833182958e-09 5.66944485512280e-09 1.72392318287037e-08 8.00672045269286e-08 1.52058279373682e-07 1.04786527735853e-08 1.97073896941807e-09 1.22185952465607e-09
"207" 20800 1.45939656397078e-09 5.71155357921998e-09 1.72332716374517e-08 8.00039611218933e-08 1.51754702873569e-07 1.04704551790872e-08 1.96435969287051e-09 1.2210746536414e-09
"208" 20801 1.45850980964575e-09 5.75366230331716e-09 1.72273114461996e-08 7.99407177168581e-08 1.51451126373456e-07 1.04622575845891e-08 1.95798041632296e-09 1.22028978262673e-09
"209" 20802 1.45762305532073e-09 5.79577102741434e-09 1.72213512549476e-08 7.98774743118228e-08 1.51147549873343e-07 1.0454059990091e-08 1.95160113977541e-09 1.21950491161205e-09
"210" 20803 1.4567363009957e-09 5.83787975151152e-09 1.72153910636955e-08 7.98142309067876e-08 1.5084397337323e-07 1.04458623955929e-08 1.94522186322786e-09 1.21872004059738e-09
"211" 20804 1.45584954667068e-09 5.8799884756087e-09 1.72094308724435e-08 7.97509875017523e-08 1.50540396873117e-07 1.04376648010948e-08 1.9388425866803e-09 1.21793516958271e-09
"212" 20805 1.45496279234565e-09 5.92209719970588e-09 1.72034706811914e-08 7.96877440967171e-08 1.50236820373004e-07 1.04294672065967e-08 1.93246331013275e-09 1.21715029856803e-09
"213" 20806 1.45597863405664e-09 5.93093211038290e-09 1.71936198496195e-08 7.96016117877773e-08 1.50417564717688e-07 1.04182983146859e-08 1.92841534016211e-09 1.22006933459355e-09
"214" 20807 1.45597863405664e-09 5.93069798112799e-09 1.71876596583675e-08 7.96426875488404e-08 1.50275350634987e-07 1.04264481348857e-08 1.93405270737067e-09 1.2230863475227e-09
"215" 20808 1.45597863405664e-09 5.93046385187309e-09 1.71816994671154e-08 7.96837633099034e-08 1.50133136552285e-07 1.04345979550854e-08 1.93969007457924e-09 1.22610336045185e-09
"216" 20809 1.45597863405664e-09 5.93022972261818e-09 1.71757392758634e-08 7.97248390709665e-08 1.49990922469583e-07 1.04427477752851e-08 1.94532744178781e-09 1.229120373381e-09
"217" 20810 1.45597863405664e-09 5.92999559336328e-09 1.71697790846113e-08 7.97659148320295e-08 1.49848708386881e-07 1.04508975954848e-08 1.95096480899637e-09 1.23213738631015e-09
"218" 20811 1.45597863405664e-09 5.92976146410838e-09 1.71638188933593e-08 7.98069905930926e-08 1.49706494304179e-07 1.04590474156845e-08 1.95660217620494e-09 1.2351543992393e-09
"219" 20812 1.45597863405664e-09 5.92952733485347e-09 1.71578587021073e-08 7.98480663541556e-08 1.49564280221478e-07 1.04671972358842e-08 1.9622395434135e-09 1.23817141216845e-09
"220" 20813 1.45597863405664e-09 5.92929320559857e-09 1.71518985108552e-08 7.98891421152187e-08 1.49422066138776e-07 1.04753470560839e-08 1.96787691062207e-09 1.2411884250976e-09
"221" 20814 1.45597863405664e-09 5.92905907634366e-09 1.71459383196032e-08 7.99302178762817e-08 1.49279852056074e-07 1.04834968762836e-08 1.97351427783064e-09 1.24420543802675e-09
"222" 20815 1.45597863405664e-09 5.92882494708876e-09 1.71399781283511e-08 7.99712936373448e-08 1.49137637973372e-07 1.04916466964834e-08 1.9791516450392e-09 1.2472224509559e-09
"223" 20816 1.45597863405664e-09 5.92859081783386e-09 1.71340179370991e-08 8.00123693984078e-08 1.4899542389067e-07 1.04997965166831e-08 1.98478901224777e-09 1.25023946388505e-09
"224" 20817 1.45597863405664e-09 5.92835668857895e-09 1.71280577458471e-08 8.00534451594709e-08 1.48853209807969e-07 1.05079463368828e-08 1.99042637945634e-09 1.2532564768142e-09
"225" 20818 1.45597863405664e-09 5.92812255932405e-09 1.7122097554595e-08 8.00945209205339e-08 1.48710995725267e-07 1.05160961570825e-08 1.9960637466649e-09 1.25627348974335e-09
"226" 20819 1.45468554304722e-09 5.90778583234387e-09 1.68232183765874e-08 7.85689744986969e-08 1.48109669227441e-07 1.04801222687719e-08 2.00592291894307e-09 1.2592905026725e-09
"227" 20820 1.4533924520378e-09 5.88744910536369e-09 1.65243391985799e-08 7.70434280768599e-08 1.47508342729616e-07 1.04441483804614e-08 2.01578209122124e-09 1.26230751560165e-09
"228" 20821 1.45209936102837e-09 5.86711237838351e-09 1.62254600205723e-08 7.55178816550228e-08 1.46907016231791e-07 1.04081744921508e-08 2.0256412634994e-09 1.26532452853081e-09
"229" 20822 1.45080627001895e-09 5.84677565140333e-09 1.59265808425648e-08 7.39923352331858e-08 1.46305689733965e-07 1.03722006038403e-08 2.03550043577757e-09 1.26834154145996e-09
"230" 20823 1.44951317900953e-09 5.82643892442315e-09 1.56277016645572e-08 7.24667888113488e-08 1.4570436323614e-07 1.03362267155297e-08 2.04535960805574e-09 1.27135855438911e-09
"231" 20824 1.44822008800011e-09 5.80610219744298e-09 1.53288224865496e-08 7.09412423895118e-08 1.45103036738314e-07 1.03002528272192e-08 2.0552187803339e-09 1.27437556731826e-09
"232" 20825 1.44692699699068e-09 5.7857654704628e-09 1.50299433085421e-08 6.94156959676747e-08 1.44501710240489e-07 1.02642789389086e-08 2.06507795261207e-09 1.27739258024741e-09
"233" 20826 1.44563390598126e-09 5.76542874348262e-09 1.47310641305345e-08 6.78901495458377e-08 1.43900383742663e-07 1.02283050505981e-08 2.07493712489024e-09 1.28040959317656e-09
"234" 20827 1.44434081497184e-09 5.74509201650244e-09 1.44321849525269e-08 6.63646031240007e-08 1.43299057244838e-07 1.01923311622875e-08 2.08479629716841e-09 1.28342660610571e-09
"235" 20828 1.44304772396242e-09 5.72475528952226e-09 1.41333057745194e-08 6.48390567021637e-08 1.42697730747013e-07 1.0156357273977e-08 2.09465546944657e-09 1.28644361903486e-09
"236" 20829 1.44066471028577e-09 5.71348760247401e-09 1.38483419914847e-08 6.3577109696266e-08 1.41914959126811e-07 1.01041208561308e-08 2.09249799796862e-09 1.28542161857454e-09
"237" 20830 1.43828169660912e-09 5.70221991542575e-09 1.35633782084501e-08 6.23151626903684e-08 1.41132187506609e-07 1.00518844382847e-08 2.09034052649067e-09 1.28439961811421e-09
"238" 20831 1.43589868293248e-09 5.69095222837749e-09 1.32784144254154e-08 6.10532156844708e-08 1.40349415886408e-07 9.9996480204385e-09 2.08818305501272e-09 1.28337761765389e-09
"239" 20832 1.43351566925583e-09 5.67968454132924e-09 1.29934506423808e-08 5.97912686785732e-08 1.39566644266206e-07 9.94741160259234e-09 2.08602558353477e-09 1.28235561719357e-09
"240" 20833 1.43261057945423e-09 5.67986750897363e-09 1.29774790345671e-08 6.01303301062909e-08 1.39327395691693e-07 9.94923151301949e-09 2.08574723445967e-09 1.28138260518506e-09
"241" 20834 1.43170548965262e-09 5.68005047661803e-09 1.29615074267534e-08 6.04693915340087e-08 1.39088147117179e-07 9.95105142344664e-09 2.08546888538457e-09 1.28040959317656e-09
"242" 20835 1.43080039985102e-09 5.68023344426242e-09 1.29455358189398e-08 6.08084529617264e-08 1.38848898542666e-07 9.95287133387379e-09 2.08519053630948e-09 1.27943658116805e-09
"243" 20836 1.42989531004941e-09 5.68041641190682e-09 1.29295642111261e-08 6.11475143894442e-08 1.38609649968152e-07 9.95469124430094e-09 2.08491218723438e-09 1.27846356915955e-09
"244" 20837 1.42899022024781e-09 5.68059937955121e-09 1.29135926033125e-08 6.14865758171619e-08 1.38370401393639e-07 9.95651115472809e-09 2.08463383815928e-09 1.27749055715104e-09
"245" 20838 1.42808513044621e-09 5.6807823471956e-09 1.28976209954988e-08 6.18256372448797e-08 1.38131152819126e-07 9.95833106515524e-09 2.08435548908419e-09 1.27651754514254e-09
"246" 20839 1.4271800406446e-09 5.68096531484e-09 1.28816493876852e-08 6.21646986725974e-08 1.37891904244612e-07 9.96015097558239e-09 2.08407714000909e-09 1.27554453313403e-09
"247" 20840 1.426274950843e-09 5.68114828248439e-09 1.28656777798715e-08 6.25037601003152e-08 1.37652655670099e-07 9.96197088600954e-09 2.08379879093399e-09 1.27457152112553e-09
"248" 20841 1.42210009303972e-09 5.65412413033302e-09 1.28656777798715e-08 6.26297573953925e-08 1.37652393316175e-07 9.96502706858443e-09 2.07770923955137e-09 1.26226633996327e-09
"249" 20842 1.40148471784519e-09 5.62746591347043e-09 1.28699047582905e-08 6.26492532683266e-08 1.37648455200696e-07 9.96277206891173e-09 2.07770923955137e-09 1.26124433950295e-09
"250" 20843 1.38086934265067e-09 5.60080769660785e-09 1.28741317367096e-08 6.26687491412607e-08 1.37644517085217e-07 9.96051706923902e-09 2.07770923955137e-09 1.26022233904263e-09
"251" 20844 1.36025396745614e-09 5.57414947974526e-09 1.28783587151286e-08 6.26882450141948e-08 1.37640578969738e-07 9.95826206956631e-09 2.07770923955137e-09 1.25920033858231e-09
"252" 20845 1.33963859226161e-09 5.54749126288268e-09 1.28825856935477e-08 6.27077408871289e-08 1.37636640854259e-07 9.95600706989361e-09 2.07770923955137e-09 1.25817833812198e-09
"253" 20846 1.31902321706708e-09 5.52083304602009e-09 1.28868126719667e-08 6.27272367600629e-08 1.3763270273878e-07 9.9537520702209e-09 2.07770923955137e-09 1.25715633766166e-09
"254" 20847 1.29840784187255e-09 5.49417482915751e-09 1.28910396503857e-08 6.2746732632997e-08 1.37628764623301e-07 9.95149707054820e-09 2.07770923955137e-09 1.25613433720134e-09
"255" 20848 1.27779246667802e-09 5.46751661229492e-09 1.28952666288048e-08 6.27662285059311e-08 1.37624826507822e-07 9.94924207087549e-09 2.07770923955137e-09 1.25511233674102e-09
"256" 20849 1.25717709148349e-09 5.44085839543234e-09 1.28994936072238e-08 6.27857243788652e-08 1.37620888392343e-07 9.94698707120278e-09 2.07770923955137e-09 1.25409033628069e-09
"257" 20850 1.23656171628897e-09 5.40536526789273e-09 1.29326846206583e-08 6.31257699043403e-08 1.37632806557698e-07 9.94093836992465e-09 2.07986671102932e-09 1.25332995949193e-09
"258" 20851 1.21614950943664e-09 5.3817507313439e-09 1.30377954675884e-08 6.35200905168648e-08 1.37824016297953e-07 1.00244742381288e-08 2.08397262603295e-09 1.25328097104011e-09
"259" 20852 1.19573730258431e-09 5.35813619479507e-09 1.31429063145185e-08 6.39144111293894e-08 1.38015226038209e-07 1.0108010106333e-08 2.08807854103658e-09 1.25323198258830e-09
"260" 20853 1.17532509573198e-09 5.33452165824623e-09 1.32480171614486e-08 6.4308731741914e-08 1.38206435778464e-07 1.01915459745372e-08 2.09218445604021e-09 1.25318299413648e-09
"261" 20854 1.15491288887965e-09 5.3109071216974e-09 1.33531280083787e-08 6.47030523544386e-08 1.3839764551872e-07 1.02750818427413e-08 2.09629037104384e-09 1.25313400568466e-09
"262" 20855 1.15511605722184e-09 5.28729258514856e-09 1.34718924506459e-08 6.52380994213606e-08 1.38493302298307e-07 1.03626926210454e-08 2.09823881456951e-09 1.25182588732687e-09
"263" 20856 1.15511605722184e-09 5.29914068153193e-09 1.35438122841414e-08 6.59431692510201e-08 1.38463621930358e-07 1.04522559692371e-08 2.10128927830574e-09 1.25182588732687e-09
"264" 20857 1.15511605722184e-09 5.31098877791531e-09 1.3615732117637e-08 6.66482390806797e-08 1.3843394156241e-07 1.05418193174289e-08 2.10433974204197e-09 1.25182588732687e-09
"265" 20858 1.15511605722184e-09 5.32283687429868e-09 1.36876519511326e-08 6.73533089103392e-08 1.38404261194462e-07 1.06313826656206e-08 2.1073902057782e-09 1.25182588732687e-09
"266" 20859 1.15511605722184e-09 5.33468497068205e-09 1.37595717846282e-08 6.80583787399988e-08 1.38374580826513e-07 1.07209460138124e-08 2.11044066951443e-09 1.25182588732687e-09
"267" 20860 1.15511605722184e-09 5.34653306706542e-09 1.38314916181237e-08 6.87634485696584e-08 1.38344900458565e-07 1.08105093620041e-08 2.11349113325065e-09 1.25182588732687e-09
"268" 20861 1.15511605722184e-09 5.35838116344879e-09 1.39034114516193e-08 6.94685183993179e-08 1.38315220090617e-07 1.09000727101959e-08 2.11654159698688e-09 1.25182588732687e-09
"269" 20862 1.15511605722184e-09 5.37022925983216e-09 1.39753312851149e-08 7.01735882289775e-08 1.38285539722668e-07 1.09896360583877e-08 2.11959206072311e-09 1.25182588732687e-09
"270" 20863 1.15511605722184e-09 5.38207735621553e-09 1.40472511186105e-08 7.0878658058637e-08 1.3825585935472e-07 1.10791994065794e-08 2.12264252445934e-09 1.25182588732687e-09
"271" 20864 1.15511605722184e-09 5.38207735621553e-09 1.40071024076895e-08 7.10363883096395e-08 1.38655121395779e-07 1.10829718868943e-08 2.12158707319194e-09 1.25085287531837e-09
"272" 20865 1.15511605722184e-09 5.38797090979982e-09 1.39642229777011e-08 7.10275719719908e-08 1.38585829087106e-07 1.10849881206537e-08 2.12080997099963e-09 1.25014148698142e-09
"273" 20866 1.15511605722184e-09 5.39386446338411e-09 1.39213435477127e-08 7.10187556343421e-08 1.38516536778434e-07 1.1087004354413e-08 2.12003286880733e-09 1.24943009864447e-09
"274" 20867 1.15511605722184e-09 5.39975801696839e-09 1.38784641177243e-08 7.10099392966934e-08 1.38447244469762e-07 1.10890205881724e-08 2.11925576661503e-09 1.24871871030752e-09
"275" 20868 1.15511605722184e-09 5.40565157055268e-09 1.38355846877359e-08 7.10011229590448e-08 1.3837795216109e-07 1.10910368219318e-08 2.11847866442272e-09 1.24800732197058e-09
"276" 20869 1.15511605722184e-09 5.41154512413697e-09 1.37927052577475e-08 7.09923066213961e-08 1.38308659852417e-07 1.10930530556912e-08 2.11770156223042e-09 1.24729593363363e-09
"277" 20870 1.15511605722184e-09 5.41743867772125e-09 1.37498258277591e-08 7.09834902837474e-08 1.38239367543745e-07 1.10950692894506e-08 2.11692446003812e-09 1.24658454529668e-09
"278" 20871 1.15511605722184e-09 5.42333223130554e-09 1.37069463977707e-08 7.09746739460987e-08 1.38170075235073e-07 1.10970855232099e-08 2.11614735784581e-09 1.24587315695973e-09
"279" 20872 1.15511605722184e-09 5.42922578488983e-09 1.36640669677823e-08 7.096585760845e-08 1.381007829264e-07 1.10991017569693e-08 2.11537025565351e-09 1.24516176862279e-09
"280" 20873 1.15511605722184e-09 5.43511933847411e-09 1.36211875377939e-08 7.09570412708013e-08 1.38031490617728e-07 1.11011179907287e-08 2.1145931534612e-09 1.24445038028584e-09
"281" 20874 1.15511605722184e-09 5.4410128920584e-09 1.35783081078055e-08 7.09482249331527e-08 1.37962198309056e-07 1.11031342244881e-08 2.1138160512689e-09 1.24373899194889e-09
"282" 20875 1.15511605722184e-09 5.44690644564269e-09 1.35354286778172e-08 7.0939408595504e-08 1.37892906000383e-07 1.11051504582474e-08 2.1130389490766e-09 1.24302760361194e-09
"283" 20876 1.15511605722184e-09 5.45279999922697e-09 1.34925492478288e-08 7.09305922578553e-08 1.37823613691711e-07 1.11071666920068e-08 2.11226184688429e-09 1.24231621527499e-09
"284" 20877 1.15511605722184e-09 5.45869355281126e-09 1.34496698178404e-08 7.09217759202066e-08 1.37754321383039e-07 1.11091829257662e-08 2.11148474469199e-09 1.24160482693805e-09
"285" 20878 1.15151403349201e-09 5.46092269453499e-09 1.3455605162938e-08 7.06922084333353e-08 1.37727711397982e-07 1.11024179267481e-08 2.11082353256566e-09 1.2408934386011e-09
"286" 20879 1.15151403349201e-09 5.46708087198158e-09 1.34414661525751e-08 7.06296770501084e-08 1.37235280729662e-07 1.10240871343388e-08 2.11004643037336e-09 1.24091793282701e-09
"287" 20880 1.15151403349201e-09 5.47323904942817e-09 1.34273271422122e-08 7.05671456668814e-08 1.36742850061343e-07 1.09457563419294e-08 2.10926932818105e-09 1.24094242705292e-09
"288" 20881 1.15151403349201e-09 5.47939722687476e-09 1.34131881318493e-08 7.05046142836545e-08 1.36250419393024e-07 1.08674255495201e-08 2.10849222598875e-09 1.24096692127883e-09
"289" 20882 1.15151403349201e-09 5.48555540432135e-09 1.33990491214864e-08 7.04420829004275e-08 1.35757988724705e-07 1.07890947571108e-08 2.10771512379645e-09 1.24099141550473e-09
"290" 20883 1.15151403349201e-09 5.49171358176794e-09 1.33849101111235e-08 7.03795515172006e-08 1.35265558056385e-07 1.07107639647015e-08 2.10693802160414e-09 1.24101590973064e-09
"291" 20884 1.15151403349201e-09 5.49787175921453e-09 1.33707711007606e-08 7.03170201339736e-08 1.34773127388066e-07 1.06324331722921e-08 2.10616091941184e-09 1.24104040395655e-09
"292" 20885 1.15131086514981e-09 5.50016189015306e-09 1.33504597918188e-08 7.07209992315303e-08 1.34189208841573e-07 1.05520649248329e-08 2.10897960301612e-09 1.24182527497122e-09
"293" 20886 1.15110769680761e-09 5.50245202109159e-09 1.33301484828769e-08 7.1124978329087e-08 1.3360529029508e-07 1.04716966773736e-08 2.1117982866204e-09 1.2426101459859e-09
"294" 20887 1.15507938626869e-09 5.50245202109159e-09 1.33121188321941e-08 7.10184491925719e-08 1.33029614152386e-07 1.03951221315198e-08 2.1117982866204e-09 1.24237301654025e-09
"295" 20888 1.15905107572977e-09 5.50245202109159e-09 1.32940891815113e-08 7.09119200560567e-08 1.32453938009691e-07 1.0318547585666e-08 2.1117982866204e-09 1.2421358870946e-09
"296" 20889 1.16302276519084e-09 5.50245202109159e-09 1.32760595308286e-08 7.08053909195415e-08 1.31878261866997e-07 1.02419730398122e-08 2.1117982866204e-09 1.24189875764895e-09
"297" 20890 1.16699445465192e-09 5.50245202109159e-09 1.32580298801458e-08 7.06988617830263e-08 1.31302585724303e-07 1.01653984939583e-08 2.1117982866204e-09 1.2416616282033e-09
"298" 20891 1.170966144113e-09 5.50245202109159e-09 1.3240000229463e-08 7.05923326465111e-08 1.30726909581608e-07 1.00888239481045e-08 2.1117982866204e-09 1.24142449875765e-09
"299" 20892 1.17493783357408e-09 5.50245202109159e-09 1.32219705787802e-08 7.04858035099959e-08 1.30151233438914e-07 1.00122494022507e-08 2.1117982866204e-09 1.241187369312e-09
"300" 20893 1.17890952303515e-09 5.50245202109159e-09 1.32039409280975e-08 7.03792743734807e-08 1.2957555729622e-07 9.93567485639687e-09 2.1117982866204e-09 1.24095023986635e-09
"301" 20894 1.18288121249623e-09 5.50245202109159e-09 1.31859112774147e-08 7.02727452369655e-08 1.28999881153525e-07 9.85910031054304e-09 2.1117982866204e-09 1.2407131104207e-09
"302" 20895 1.18685290195731e-09 5.50245202109159e-09 1.31678816267319e-08 7.01662161004503e-08 1.28424205010831e-07 9.78252576468922e-09 2.1117982866204e-09 1.24047598097505e-09
"303" 20896 1.19082459141839e-09 5.50245202109159e-09 1.31498519760491e-08 7.00596869639351e-08 1.27848528868137e-07 9.70595121883539e-09 2.1117982866204e-09 1.24023885152941e-09
"304" 20897 1.19479628087947e-09 5.50245202109159e-09 1.31318223253664e-08 6.995315782742e-08 1.27272852725442e-07 9.62937667298157e-09 2.1117982866204e-09 1.24000172208376e-09
"305" 20898 1.19876797034054e-09 5.50245202109159e-09 1.31137926746836e-08 6.98466286909048e-08 1.26697176582748e-07 9.55280212712774e-09 2.1117982866204e-09 1.23976459263811e-09
"306" 20899 1.20273965980162e-09 5.50245202109159e-09 1.30957630240008e-08 6.97400995543896e-08 1.26121500440053e-07 9.47622758127392e-09 2.1117982866204e-09 1.23952746319246e-09
"307" 20900 1.20310932553286e-09 5.50218739722929e-09 1.30732312571718e-08 6.9514548117571e-08 1.23443051698796e-07 9.38029721244578e-09 2.11257538881271e-09 1.23855445118395e-09
"308" 20901 1.20081872828903e-09 5.46609420514599e-09 1.29949385258333e-08 6.95079753243212e-08 1.23383720419318e-07 9.34829212778233e-09 2.08898290938469e-09 1.2295034123965e-09
"309" 20902 1.19852813104519e-09 5.43000101306269e-09 1.29166457944948e-08 6.95014025310715e-08 1.23324389139839e-07 9.31628704311888e-09 2.06539042995667e-09 1.22045237360905e-09
"310" 20903 1.19623753380135e-09 5.39390782097939e-09 1.28383530631564e-08 6.94948297378218e-08 1.23265057860361e-07 9.28428195845544e-09 2.04179795052865e-09 1.2114013348216e-09
"311" 20904 1.19394693655752e-09 5.3578146288961e-09 1.27600603318179e-08 6.9488256944572e-08 1.23205726580883e-07 9.25227687379199e-09 2.01820547110064e-09 1.20235029603415e-09
"312" 20905 1.19165633931368e-09 5.3217214368128e-09 1.26817676004794e-08 6.94816841513223e-08 1.23146395301404e-07 9.22027178912854e-09 1.99461299167262e-09 1.1932992572467e-09
"313" 20906 1.18936574206984e-09 5.2856282447295e-09 1.2603474869141e-08 6.94751113580726e-08 1.23087064021926e-07 9.1882667044651e-09 1.9710205122446e-09 1.18424821845924e-09
"314" 20907 1.18707514482601e-09 5.2495350526462e-09 1.25251821378025e-08 6.94685385648228e-08 1.23027732742447e-07 9.15626161980165e-09 1.94742803281658e-09 1.17519717967179e-09
"315" 20908 1.18478454758217e-09 5.21344186056291e-09 1.24468894064641e-08 6.94619657715731e-08 1.22968401462969e-07 9.1242565351382e-09 1.92383555338857e-09 1.16614614088434e-09
"316" 20909 1.17831909253506e-09 5.17837666932142e-09 1.24082981552666e-08 6.95082070692603e-08 1.23076832913977e-07 9.09450645014746e-09 1.90012718389458e-09 1.15811710255721e-09
"317" 20910 1.17275872728955e-09 5.14633449139058e-09 1.23317634829156e-08 6.95273376931663e-08 1.23008843955031e-07 9.05846889796526e-09 1.87781055977607e-09 1.14930319321541e-09
"318" 20911 1.16719836204404e-09 5.11429231345974e-09 1.22552288105646e-08 6.95464683170722e-08 1.22940854996085e-07 9.02243134578305e-09 1.85549393565756e-09 1.14048928387361e-09
"319" 20912 1.16163799679853e-09 5.08225013552889e-09 1.21786941382136e-08 6.95655989409781e-08 1.22872866037139e-07 8.98639379360085e-09 1.83317731153906e-09 1.13167537453181e-09
"320" 20913 1.15607763155302e-09 5.05020795759805e-09 1.21021594658626e-08 6.95847295648841e-08 1.22804877078193e-07 8.95035624141865e-09 1.81086068742055e-09 1.12286146519e-09
"321" 20914 1.14772791594647e-09 5.04518993181858e-09 1.20999026537579e-08 6.96005821856607e-08 1.22868509839361e-07 8.95035624141865e-09 1.80710244261484e-09 1.11680294510579e-09
"322" 20915 1.13673701189134e-09 5.03691476347357e-09 1.20039432860186e-08 6.95945526468912e-08 1.22925973073387e-07 8.75514211754121e-09 1.76691246807335e-09 1.10117795170445e-09
"323" 20916 1.12574610783621e-09 5.02863959512855e-09 1.19079839182794e-08 6.95885231081217e-08 1.22983436307413e-07 8.55992799366378e-09 1.72672249353186e-09 1.08555295830311e-09
"324" 20917 1.11475520378107e-09 5.02036442678354e-09 1.18120245505401e-08 6.95824935693522e-08 1.23040899541439e-07 8.36471386978634e-09 1.68653251899037e-09 1.06992796490177e-09
"325" 20918 1.10376429972594e-09 5.01208925843853e-09 1.17160651828008e-08 6.95764640305827e-08 1.23098362775465e-07 8.1694997459089e-09 1.64634254444888e-09 1.05430297150043e-09
"326" 20919 1.09277339567081e-09 5.00381409009351e-09 1.16201058150615e-08 6.95704344918132e-08 1.23155826009491e-07 7.97428562203147e-09 1.60615256990739e-09 1.03867797809909e-09
"327" 20920 1.08178249161568e-09 4.9955389217485e-09 1.15241464473223e-08 6.95644049530437e-08 1.23213289243518e-07 7.77907149815403e-09 1.5659625953659e-09 1.02305298469775e-09
"328" 20921 1.07079158756055e-09 4.98726375340348e-09 1.1428187079583e-08 6.95583754142742e-08 1.23270752477544e-07 7.5838573742766e-09 1.52577262082441e-09 1.00742799129641e-09
"329" 20922 1.05980068350542e-09 4.97898858505847e-09 1.13322277118437e-08 6.95523458755047e-08 1.2332821571157e-07 7.38864325039916e-09 1.48558264628292e-09 9.91802997895075e-10
"330" 20923 1.04790468964868e-09 4.97573144249293e-09 1.12361689594867e-08 6.95144943780839e-08 1.23385678945596e-07 7.22921202321733e-09 1.44333971423961e-09 9.76178004493735e-10
"331" 20924 1.04790468964868e-09 4.96560390711179e-09 1.11402095917474e-08 6.97083128589774e-08 1.23635286290133e-07 7.03425788654377e-09 1.40187388438861e-09 9.64256918132584e-10
"332" 20925 1.04790468964868e-09 4.95547637173066e-09 1.10442502240081e-08 6.99021313398708e-08 1.23884893634671e-07 6.83930374987021e-09 1.36040805453761e-09 9.52335831771434e-10
"333" 20926 1.04790468964868e-09 4.94534883634952e-09 1.09482908562689e-08 7.00959498207643e-08 1.24134500979208e-07 6.64434961319665e-09 1.31894222468661e-09 9.40414745410283e-10
"334" 20927 1.04790468964868e-09 4.93522130096838e-09 1.08523314885296e-08 7.02897683016577e-08 1.24384108323745e-07 6.4493954765231e-09 1.27747639483561e-09 9.28493659049133e-10
"335" 20928 1.04790468964868e-09 4.92509376558725e-09 1.07563721207903e-08 7.04835867825512e-08 1.24633715668283e-07 6.25444133984954e-09 1.23601056498461e-09 9.16572572687982e-10
"336" 20929 1.04790468964868e-09 4.91496623020611e-09 1.0660412753051e-08 7.06774052634446e-08 1.2488332301282e-07 6.05948720317598e-09 1.19454473513361e-09 9.04651486326832e-10
"337" 20930 1.04790468964868e-09 4.90483869482498e-09 1.05644533853118e-08 7.08712237443381e-08 1.25132930357357e-07 5.86453306650242e-09 1.15307890528261e-09 8.92730399965681e-10
"338" 20931 1.04790468964868e-09 4.89471115944384e-09 1.04684940175725e-08 7.10650422252315e-08 1.25382537701895e-07 5.66957892982887e-09 1.11161307543161e-09 8.80809313604531e-10
"339" 20932 1.04790468964868e-09 4.88458362406271e-09 1.03725346498332e-08 7.1258860706125e-08 1.25632145046432e-07 5.47462479315531e-09 1.07014724558061e-09 8.6888822724338e-10
"340" 20933 1.04790468964868e-09 4.87445608868157e-09 1.02765752820939e-08 7.14526791870184e-08 1.25881752390969e-07 5.27967065648175e-09 1.02868141572961e-09 8.5696714088223e-10
"341" 20934 1.04790468964868e-09 4.86432855330044e-09 1.01806159143547e-08 7.16464976679119e-08 1.26131359735507e-07 5.08471651980819e-09 9.87215585878609e-10 8.45046054521079e-10
"342" 20935 1.04790468964868e-09 4.8542010179193e-09 1.00846565466154e-08 7.18403161488053e-08 1.26380967080044e-07 4.88976238313464e-09 9.45749756027609e-10 8.33124968159929e-10
"343" 20936 1.04790468964868e-09 4.84407348253817e-09 9.9886971788761e-09 7.20341346296988e-08 1.26630574424581e-07 4.69480824646108e-09 9.04283926176608e-10 8.21203881798779e-10
"344" 20937 1.05599549143338e-09 4.79760778642001e-09 9.92869772788462e-09 7.22082515178341e-08 1.26262261031519e-07 4.68277450777646e-09 9.01465242572325e-10 8.24171906276112e-10
"345" 20938 1.06408629321808e-09 4.75114209030185e-09 9.86869827689313e-09 7.23823684059693e-08 1.25893947638456e-07 4.67074076909184e-09 8.98646558968042e-10 8.27139930753445e-10
"346" 20939 1.07217709500278e-09 4.70467639418370e-09 9.80869882590164e-09 7.25564852941046e-08 1.25525634245393e-07 4.65870703040723e-09 8.95827875363759e-10 8.30107955230779e-10
"347" 20940 1.08026789678748e-09 4.65821069806554e-09 9.74869937491015e-09 7.27306021822399e-08 1.25157320852331e-07 4.64667329172261e-09 8.93009191759476e-10 8.33075979708112e-10
"348" 20941 1.08835869857218e-09 4.61174500194738e-09 9.68869992391866e-09 7.29047190703752e-08 1.24789007459268e-07 4.63463955303799e-09 8.90190508155193e-10 8.36044004185445e-10
"349" 20942 1.09644950035688e-09 4.56527930582922e-09 9.62870047292718e-09 7.30788359585105e-08 1.24420694066205e-07 4.62260581435337e-09 8.87371824550909e-10 8.39012028662779e-10
"350" 20943 1.10454030214158e-09 4.51881360971106e-09 9.56870102193569e-09 7.32529528466458e-08 1.24052380673143e-07 4.61057207566875e-09 8.84553140946626e-10 8.41980053140112e-10
"351" 20944 1.11263110392628e-09 4.47234791359291e-09 9.5087015709442e-09 7.34270697347811e-08 1.2368406728008e-07 4.59853833698414e-09 8.81734457342343e-10 8.44948077617445e-10
"352" 20945 1.11300076965752e-09 4.4660264237105e-09 9.55437658042867e-09 7.33678868811616e-08 1.2356554852792e-07 4.5925320782871e-09 8.78799883672088e-10 8.44212195054589e-10
"353" 20946 1.11337043538876e-09 4.45970493382809e-09 9.60005158991315e-09 7.3308704027542e-08 1.2344702977576e-07 4.58652581959007e-09 8.75865310001832e-10 8.43476312491733e-10
"354" 20947 1.11374010112e-09 4.45338344394569e-09 9.64572659939762e-09 7.32495211739224e-08 1.233285110236e-07 4.58051956089303e-09 8.72930736331576e-10 8.42740429928877e-10
"355" 20948 1.11410976685124e-09 4.44706195406328e-09 9.69140160888209e-09 7.31903383203029e-08 1.2320999227144e-07 4.574513302196e-09 8.69996162661321e-10 8.4200454736602e-10
"356" 20949 1.11447943258248e-09 4.44074046418087e-09 9.73707661836657e-09 7.31311554666834e-08 1.2309147351928e-07 4.56850704349897e-09 8.67061588991065e-10 8.41268664803164e-10
"357" 20950 1.11484909831372e-09 4.43441897429847e-09 9.78275162785104e-09 7.30719726130638e-08 1.2297295476712e-07 4.56250078480193e-09 8.64127015320809e-10 8.40532782240308e-10
"358" 20951 1.11521876404496e-09 4.42809748441606e-09 9.82842663733552e-09 7.30127897594443e-08 1.2285443601496e-07 4.5564945261049e-09 8.61192441650554e-10 8.39796899677452e-10
"359" 20952 1.11558842977621e-09 4.42177599453365e-09 9.87410164681999e-09 7.29536069058247e-08 1.227359172628e-07 4.55048826740786e-09 8.58257867980298e-10 8.39061017114596e-10
"360" 20953 1.11595809550745e-09 4.41545450465125e-09 9.91977665630446e-09 7.28944240522051e-08 1.2261739851064e-07 4.54448200871083e-09 8.55323294310043e-10 8.38325134551739e-10
"361" 20954 1.11632776123869e-09 4.40913301476884e-09 9.96545166578894e-09 7.28352411985856e-08 1.2249887975848e-07 4.5384757500138e-09 8.52388720639787e-10 8.37589251988883e-10
"362" 20955 1.11669742696993e-09 4.40281152488643e-09 1.00111266752734e-08 7.27760583449661e-08 1.22380361006321e-07 4.53246949131676e-09 8.49454146969531e-10 8.36853369426027e-10
"363" 20956 1.11706709270117e-09 4.39649003500403e-09 1.00568016847579e-08 7.27168754913465e-08 1.22261842254161e-07 4.52646323261973e-09 8.46519573299276e-10 8.36117486863171e-10
"364" 20957 1.11743675843241e-09 4.39016854512162e-09 1.01024766942424e-08 7.2657692637727e-08 1.22143323502001e-07 4.5204569739227e-09 8.4358499962902e-10 8.35381604300315e-10
"365" 20958 1.11780642416365e-09 4.38384705523921e-09 1.01481517037268e-08 7.25985097841074e-08 1.22024804749841e-07 4.51445071522566e-09 8.40650425958764e-10 8.34645721737459e-10
"366" 20959 1.11780642416365e-09 4.42522289696428e-09 1.02556587616536e-08 7.22306247760518e-08 1.22291127687909e-07 4.5204994165038e-09 8.3550043577757e-10 8.22577670020857e-10
"367" 20960 1.11817608989489e-09 4.46536710320003e-09 1.03614326067473e-08 7.22306247760518e-08 1.22525556381205e-07 4.52652689649138e-09 8.36219592936888e-10 8.21841787458e-10
"368" 20961 1.11854575562613e-09 4.50551130943579e-09 1.0467206451841e-08 7.22306247760518e-08 1.22759985074502e-07 4.53255437647896e-09 8.36938750096205e-10 8.21105904895144e-10
"369" 20962 1.11891542135737e-09 4.54565551567154e-09 1.05729802969348e-08 7.22306247760518e-08 1.22994413767798e-07 4.53858185646655e-09 8.37657907255522e-10 8.20370022332288e-10
"370" 20963 1.11928508708861e-09 4.58579972190729e-09 1.06787541420285e-08 7.22306247760518e-08 1.23228842461095e-07 4.54460933645413e-09 8.3837706441484e-10 8.19634139769432e-10
"371" 20964 1.11965475281985e-09 4.62594392814304e-09 1.07845279871222e-08 7.22306247760518e-08 1.23463271154391e-07 4.55063681644172e-09 8.39096221574157e-10 8.18898257206576e-10
"372" 20965 1.12002441855109e-09 4.66608813437879e-09 1.08903018322159e-08 7.22306247760518e-08 1.23697699847687e-07 4.5566642964293e-09 8.39815378733474e-10 8.18162374643719e-10
"373" 20966 1.12039408428233e-09 4.70623234061454e-09 1.09960756773097e-08 7.22306247760518e-08 1.23932128540984e-07 4.56269177641688e-09 8.40534535892792e-10 8.17426492080863e-10
"374" 20967 1.12076375001357e-09 4.74637654685029e-09 1.11018495224034e-08 7.22306247760518e-08 1.2416655723428e-07 4.56871925640447e-09 8.41253693052109e-10 8.16690609518007e-10
"375" 20968 1.11906432231975e-09 4.75033607718055e-09 1.10989315421635e-08 7.24045300847529e-08 1.24543380998325e-07 4.57737316143866e-09 8.43190760487951e-10 8.16690609518007e-10
"376" 20969 1.11546229858992e-09 4.75206646578708e-09 1.10949912095347e-08 7.24575666825049e-08 1.24297046061253e-07 4.58925835108943e-09 8.43248705520937e-10 8.15717597509502e-10
"377" 20970 1.11186027486008e-09 4.7537968543936e-09 1.10910508769059e-08 7.2510603280257e-08 1.24050711124181e-07 4.6011435407402e-09 8.43306650553923e-10 8.14744585500996e-10
"378" 20971 1.10825825113024e-09 4.75552724300013e-09 1.10871105442772e-08 7.2563639878009e-08 1.2380437618711e-07 4.61302873039097e-09 8.4336459558691e-10 8.13771573492491e-10
"379" 20972 1.10465622740041e-09 4.75725763160665e-09 1.10831702116484e-08 7.2616676475761e-08 1.23558041250038e-07 4.62491392004173e-09 8.43422540619896e-10 8.12798561483986e-10
"380" 20973 1.1048593957426e-09 4.76118666732951e-09 1.10531323019068e-08 7.23358969470215e-08 1.21907105296104e-07 4.63302662937762e-09 8.41543418217041e-10 8.11776561023663e-10
"381" 20974 1.1050625640848e-09 4.70103134719068e-09 1.10531323019068e-08 7.18931653974027e-08 1.21821665591316e-07 4.63625791399419e-09 8.40766316024737e-10 8.11514937352105e-10
"382" 20975 1.105265732427e-09 4.64087602705185e-09 1.10531323019068e-08 7.1450433847784e-08 1.21736225886528e-07 4.63948919861076e-09 8.39989213832433e-10 8.11253313680547e-10
"383" 20976 1.1054689007692e-09 4.58072070691302e-09 1.10531323019068e-08 7.10077022981652e-08 1.21650786181739e-07 4.64272048322733e-09 8.3921211164013e-10 8.1099169000899e-10
"384" 20977 1.1056720691114e-09 4.52056538677419e-09 1.10531323019068e-08 7.05649707485464e-08 1.21565346476951e-07 4.6459517678439e-09 8.38435009447826e-10 8.10730066337432e-10
"385" 20978 1.1058752374536e-09 4.46041006663536e-09 1.10531323019068e-08 7.01222391989277e-08 1.21479906772163e-07 4.64918305246047e-09 8.37657907255522e-10 8.10468442665874e-10
"386" 20979 1.10607840579579e-09 4.40025474649653e-09 1.10531323019068e-08 6.96795076493089e-08 1.21394467067375e-07 4.65241433707705e-09 8.36880805063219e-10 8.10206818994316e-10
"387" 20980 1.10628157413799e-09 4.34009942635771e-09 1.10531323019068e-08 6.92367760996902e-08 1.21309027362586e-07 4.65564562169362e-09 8.36103702870915e-10 8.09945195322759e-10
"388" 20981 1.11553637954615e-09 4.2963517974762e-09 1.10554139601659e-08 6.89283350938221e-08 1.21521504610407e-07 4.6477504569805e-09 8.35987812804943e-10 8.09683571651201e-10
"389" 20982 1.11583196432116e-09 4.2385780920981e-09 1.10576210799617e-08 6.85468443879027e-08 1.21829926946466e-07 4.64104912183404e-09 8.34932361537543e-10 8.09683571651201e-10
"390" 20983 1.11612754909617e-09 4.18080438671999e-09 1.10598281997574e-08 6.81653536819834e-08 1.22138349282525e-07 4.63434778668757e-09 8.33876910270142e-10 8.09683571651201e-10
"391" 20984 1.11642313387118e-09 4.12303068134189e-09 1.10620353195532e-08 6.7783862976064e-08 1.22446771618585e-07 4.6276464515411e-09 8.32821459002742e-10 8.09683571651201e-10
"392" 20985 1.11671871864618e-09 4.06525697596379e-09 1.1064242439349e-08 6.74023722701446e-08 1.22755193954644e-07 4.62094511639463e-09 8.31766007735342e-10 8.09683571651201e-10
"393" 20986 1.11701430342119e-09 4.00748327058569e-09 1.10664495591447e-08 6.70208815642253e-08 1.23063616290703e-07 4.61424378124816e-09 8.30710556467942e-10 8.09683571651201e-10
"394" 20987 1.1173098881962e-09 3.94970956520759e-09 1.10686566789405e-08 6.66393908583059e-08 1.23372038626763e-07 4.60754244610169e-09 8.29655105200541e-10 8.09683571651201e-10
"395" 20988 1.11760547297121e-09 3.89193585982949e-09 1.10708637987363e-08 6.62579001523865e-08 1.23680460962822e-07 4.60084111095522e-09 8.28599653933141e-10 8.09683571651201e-10
"396" 20989 1.11790105774622e-09 3.83416215445139e-09 1.1073070918532e-08 6.58764094464672e-08 1.23988883298882e-07 4.59413977580875e-09 8.27544202665741e-10 8.09683571651201e-10
"397" 20990 1.11819664252123e-09 3.77638844907328e-09 1.10752780383278e-08 6.54949187405478e-08 1.24297305634941e-07 4.58743844066228e-09 8.26488751398341e-10 8.09683571651201e-10
"398" 20991 1.11849222729624e-09 3.71861474369518e-09 1.10774851581236e-08 6.51134280346284e-08 1.24605727971e-07 4.58073710551581e-09 8.2543330013094e-10 8.09683571651201e-10
"399" 20992 1.11878781207124e-09 3.66084103831708e-09 1.10796922779194e-08 6.47319373287091e-08 1.2491415030706e-07 4.57403577036934e-09 8.2437784886354e-10 8.09683571651201e-10
"400" 20993 1.11908339684625e-09 3.60306733293898e-09 1.10818993977151e-08 6.43504466227897e-08 1.25222572643119e-07 4.56733443522287e-09 8.2332239759614e-10 8.09683571651201e-10
"401" 20994 1.11937898162126e-09 3.54529362756088e-09 1.10841065175109e-08 6.39689559168703e-08 1.25530994979178e-07 4.56063310007641e-09 8.2226694632874e-10 8.09683571651201e-10
"402" 20995 1.11756880201805e-09 3.54767524232161e-09 1.10841065175109e-08 6.39324948890842e-08 1.25806335461236e-07 4.56186937222415e-09 8.06538626710061e-10 8.08923194862436e-10
"403" 20996 1.11756880201805e-09 3.55005685708233e-09 1.10860766838253e-08 6.3842988025422e-08 1.25469927539466e-07 4.55504070933438e-09 8.06260277634965e-10 8.09184818533994e-10
"404" 20997 1.11756880201805e-09 3.55243847184306e-09 1.10880468501397e-08 6.37534811617598e-08 1.25133519617695e-07 4.54821204644461e-09 8.05981928559868e-10 8.09446442205552e-10
"405" 20998 1.11756880201805e-09 3.55482008660379e-09 1.1090017016454e-08 6.36639742980976e-08 1.24797111695925e-07 4.54138338355484e-09 8.05703579484771e-10 8.09708065877109e-10
"406" 20999 1.11756880201805e-09 3.55720170136452e-09 1.10919871827684e-08 6.35744674344354e-08 1.24460703774154e-07 4.53455472066507e-09 8.05425230409675e-10 8.09969689548667e-10
"407" 21000 1.11756880201805e-09 3.55958331612524e-09 1.10939573490828e-08 6.34849605707733e-08 1.24124295852383e-07 4.5277260577753e-09 8.05146881334578e-10 8.10231313220225e-10
"408" 21001 1.11756880201805e-09 3.56196493088597e-09 1.10959275153972e-08 6.33954537071111e-08 1.23787887930613e-07 4.52089739488553e-09 8.04868532259482e-10 8.10492936891783e-10
"409" 21002 1.11756880201805e-09 3.5643465456467e-09 1.10978976817116e-08 6.33059468434489e-08 1.23451480008842e-07 4.51406873199576e-09 8.04590183184385e-10 8.1075456056334e-10
"410" 21003 1.11756880201805e-09 3.56672816040742e-09 1.1099867848026e-08 6.32164399797867e-08 1.23115072087072e-07 4.50724006910599e-09 8.04311834109288e-10 8.11016184234898e-10
"411" 21004 1.11965623091969e-09 3.58758430750792e-09 1.11197185880965e-08 6.31513795677347e-08 1.22362277563361e-07 4.49917513406848e-09 8.04253889076302e-10 8.13297314601192e-10
"412" 21005 1.12174365982133e-09 3.60844045460842e-09 1.1139569328167e-08 6.30863191556827e-08 1.21609483039651e-07 4.49111019903097e-09 8.04195944043316e-10 8.15578444967487e-10
"413" 21006 1.12383108872297e-09 3.62929660170891e-09 1.11594200682375e-08 6.30212587436307e-08 1.20856688515941e-07 4.48304526399345e-09 8.0413799901033e-10 8.17859575333781e-10
"414" 21007 1.12591851762461e-09 3.65015274880941e-09 1.1179270808308e-08 6.29561983315787e-08 1.2010389399223e-07 4.47498032895594e-09 8.04080053977343e-10 8.20140705700075e-10
"415" 21008 1.12800594652624e-09 3.6710088959099e-09 1.11991215483785e-08 6.28911379195267e-08 1.1935109946852e-07 4.46691539391843e-09 8.04022108944357e-10 8.22421836066369e-10
"416" 21009 1.13009337542788e-09 3.6918650430104e-09 1.12189722884491e-08 6.28260775074747e-08 1.18598304944809e-07 4.45885045888092e-09 8.03964163911371e-10 8.24702966432664e-10
"417" 21010 1.13218080432952e-09 3.7127211901109e-09 1.12388230285196e-08 6.27610170954227e-08 1.17845510421099e-07 4.45078552384341e-09 8.03906218878385e-10 8.26984096798958e-10
"418" 21011 1.13426823323116e-09 3.73357733721139e-09 1.12586737685901e-08 6.26959566833707e-08 1.17092715897388e-07 4.44272058880589e-09 8.03848273845398e-10 8.29265227165252e-10
"419" 21012 1.1363556621328e-09 3.75443348431189e-09 1.12785245086606e-08 6.26308962713187e-08 1.16339921373678e-07 4.43465565376838e-09 8.03790328812412e-10 8.31546357531547e-10
"420" 21013 1.13844309103443e-09 3.77528963141239e-09 1.12983752487311e-08 6.25658358592667e-08 1.15587126849967e-07 4.42659071873087e-09 8.03732383779426e-10 8.33827487897841e-10
"421" 21014 1.14053051993607e-09 3.79614577851288e-09 1.13182259888016e-08 6.25007754472147e-08 1.14834332326257e-07 4.41852578369336e-09 8.0367443874644e-10 8.36108618264135e-10
"422" 21015 1.14261794883771e-09 3.81700192561338e-09 1.13380767288721e-08 6.24357150351627e-08 1.14081537802546e-07 4.41046084865585e-09 8.03616493713453e-10 8.38389748630429e-10
"423" 21016 1.14470537773935e-09 3.83785807271387e-09 1.13579274689426e-08 6.23706546231107e-08 1.13328743278836e-07 4.40239591361833e-09 8.03558548680467e-10 8.40670878996724e-10
"424" 21017 1.14679280664099e-09 3.85871421981437e-09 1.13777782090132e-08 6.23055942110587e-08 1.12575948755125e-07 4.39433097858082e-09 8.03500603647481e-10 8.42952009363018e-10
"425" 21018 1.14271036527052e-09 3.8674173244575e-09 1.13621047550528e-08 6.12711726971043e-08 1.12289511544103e-07 4.39433097858082e-09 8.03721007689591e-10 8.44971516057754e-10
"426" 21019 1.14489021060497e-09 3.88008978703518e-09 1.13781527313582e-08 6.13922974888506e-08 1.12123553723089e-07 4.33903837815977e-09 8.03721007689591e-10 8.47015516978399e-10
"427" 21020 1.14707005593942e-09 3.89276224961286e-09 1.13942007076635e-08 6.15134222805969e-08 1.11957595902076e-07 4.28374577773873e-09 8.03721007689591e-10 8.49059517899044e-10
"428" 21021 1.14924990127387e-09 3.90543471219054e-09 1.14102486839689e-08 6.16345470723432e-08 1.11791638081062e-07 4.22845317731768e-09 8.03721007689591e-10 8.51103518819689e-10
"429" 21022 1.15142974660831e-09 3.91810717476822e-09 1.14262966602742e-08 6.17556718640895e-08 1.11625680260049e-07 4.17316057689663e-09 8.03721007689591e-10 8.53147519740334e-10
"430" 21023 1.15360959194276e-09 3.9307796373459e-09 1.14423446365796e-08 6.18767966558358e-08 1.11459722439036e-07 4.11786797647559e-09 8.03721007689591e-10 8.5519152066098e-10
"431" 21024 1.15578943727721e-09 3.94345209992358e-09 1.14583926128849e-08 6.19979214475821e-08 1.11293764618022e-07 4.06257537605454e-09 8.03721007689591e-10 8.57235521581625e-10
"432" 21025 1.15796928261166e-09 3.95612456250126e-09 1.14744405891903e-08 6.21190462393284e-08 1.11127806797009e-07 4.00728277563349e-09 8.03721007689591e-10 8.5927952250227e-10
"433" 21026 1.16014912794611e-09 3.96879702507894e-09 1.14904885654956e-08 6.22401710310747e-08 1.10961848975996e-07 3.95199017521244e-09 8.03721007689591e-10 8.61323523422915e-10
"434" 21027 1.16085104940551e-09 3.96879702507894e-09 1.14904885654956e-08 6.3494225300566e-08 1.1080573644368e-07 3.92055283925513e-09 8.04440164848908e-10 8.61086393977265e-10
"435" 21028 1.16155297086492e-09 3.96879702507894e-09 1.14904885654956e-08 6.47482795700574e-08 1.10649623911364e-07 3.88911550329782e-09 8.05159322008226e-10 8.60849264531616e-10
"436" 21029 1.16225489232432e-09 3.96879702507894e-09 1.14904885654956e-08 6.60023338395488e-08 1.10493511379048e-07 3.85767816734051e-09 8.05878479167543e-10 8.60612135085967e-10
"437" 21030 1.16295681378373e-09 3.96879702507894e-09 1.14904885654956e-08 6.72563881090402e-08 1.10337398846732e-07 3.82624083138319e-09 8.0659763632686e-10 8.60375005640318e-10
"438" 21031 1.16365873524313e-09 3.96879702507894e-09 1.14904885654956e-08 6.85104423785316e-08 1.10181286314416e-07 3.79480349542588e-09 8.07316793486178e-10 8.60137876194669e-10
"439" 21032 1.16218081136809e-09 3.97861961438608e-09 1.14525451443421e-08 6.96188439508075e-08 1.10129782163067e-07 3.78957719834048e-09 7.92064474805037e-10 8.60137876194669e-10
"440" 21033 1.16070288749305e-09 3.99049820537685e-09 1.14543777417928e-08 7.07517734285526e-08 1.10093214650505e-07 3.81219619065647e-09 7.92064474805037e-10 8.51086837407217e-10
"441" 21034 1.159224963618e-09 4.00237679636762e-09 1.14562103392436e-08 7.18847029062977e-08 1.10056647137943e-07 3.83481518297247e-09 7.92064474805037e-10 8.42035798619766e-10
"442" 21035 1.15774703974296e-09 4.01425538735839e-09 1.14580429366944e-08 7.30176323840428e-08 1.10020079625381e-07 3.85743417528846e-09 7.92064474805037e-10 8.32984759832315e-10
"443" 21036 1.15626911586792e-09 4.02613397834916e-09 1.14598755341451e-08 7.41505618617879e-08 1.09983512112819e-07 3.88005316760445e-09 7.92064474805037e-10 8.23933721044863e-10
"444" 21037 1.15479119199288e-09 4.03801256933993e-09 1.14617081315959e-08 7.5283491339533e-08 1.09946944600257e-07 3.90267215992044e-09 7.92064474805037e-10 8.14882682257412e-10
"445" 21038 1.15331326811783e-09 4.0498911603307e-09 1.14635407290467e-08 7.64164208172781e-08 1.09910377087695e-07 3.92529115223644e-09 7.92064474805037e-10 8.0583164346996e-10
"446" 21039 1.15183534424279e-09 4.06176975132147e-09 1.14653733264975e-08 7.75493502950232e-08 1.09873809575133e-07 3.94791014455243e-09 7.92064474805037e-10 7.96780604682509e-10
"447" 21040 1.15591778561326e-09 4.06250263369359e-09 1.15529551058903e-08 7.79288829409697e-08 1.09850180882259e-07 3.94797380842408e-09 7.92064474805037e-10 7.87991189566615e-10
"448" 21041 1.16986453741847e-09 4.08260523141886e-09 1.16711729327598e-08 7.80084516947837e-08 1.09810540180175e-07 3.94803747229573e-09 7.94999048475293e-10 7.81221281145458e-10
"449" 21042 1.18381128922369e-09 4.10270782914414e-09 1.17893907596293e-08 7.80880204485978e-08 1.09770899478092e-07 3.94810113616738e-09 7.97933622145548e-10 7.74451372724301e-10
"450" 21043 1.19775804102891e-09 4.12281042686941e-09 1.19076085864987e-08 7.81675892024118e-08 1.09731258776009e-07 3.94816480003903e-09 8.00868195815804e-10 7.67681464303144e-10
"451" 21044 1.21170479283413e-09 4.14291302459468e-09 1.20258264133682e-08 7.82471579562258e-08 1.09691618073925e-07 3.94822846391068e-09 8.0380276948606e-10 7.60911555881987e-10
"452" 21045 1.22565154463934e-09 4.16301562231996e-09 1.21440442402377e-08 7.83267267100398e-08 1.09651977371842e-07 3.94829212778233e-09 8.06737343156315e-10 7.5414164746083e-10
"453" 21046 1.23959829644456e-09 4.18311822004523e-09 1.22622620671071e-08 7.84062954638538e-08 1.09612336669759e-07 3.94835579165398e-09 8.09671916826571e-10 7.47371739039673e-10
"454" 21047 1.25354504824978e-09 4.20322081777051e-09 1.23804798939766e-08 7.84858642176679e-08 1.09572695967675e-07 3.94841945552563e-09 8.12606490496827e-10 7.40601830618516e-10
"455" 21048 1.267491800055e-09 4.22332341549578e-09 1.2498697720846e-08 7.85654329714819e-08 1.09533055265592e-07 3.94848311939728e-09 8.15541064167082e-10 7.33831922197359e-10
"456" 21049 1.28143855186021e-09 4.24342601322106e-09 1.26169155477155e-08 7.86450017252959e-08 1.09493414563509e-07 3.94854678326893e-09 8.18475637837338e-10 7.27062013776202e-10
"457" 21050 1.29538530366543e-09 4.26352861094633e-09 1.2735133374585e-08 7.87245704791099e-08 1.09453773861425e-07 3.94861044714058e-09 8.21410211507593e-10 7.20292105355045e-10
"458" 21051 1.30933205547065e-09 4.28363120867161e-09 1.28533512014544e-08 7.8804139232924e-08 1.09414133159342e-07 3.94867411101223e-09 8.24344785177849e-10 7.13522196933887e-10
"459" 21052 1.32327880727587e-09 4.30373380639688e-09 1.29715690283239e-08 7.8883707986738e-08 1.09374492457259e-07 3.94873777488388e-09 8.27279358848105e-10 7.0675228851273e-10
"460" 21053 1.33722555908108e-09 4.32383640412216e-09 1.30897868551934e-08 7.8963276740552e-08 1.09334851755175e-07 3.94880143875553e-09 8.3021393251836e-10 6.99982380091573e-10
"461" 21054 1.34938046675967e-09 4.341974483986e-09 1.32079301435995e-08 7.91707840624252e-08 1.08291134744076e-07 3.93893248286414e-09 8.33867663347933e-10 7.01241509997545e-10
"462" 21055 1.36153537443826e-09 4.36011256384985e-09 1.33260734320056e-08 7.93782913842983e-08 1.07247417732977e-07 3.92906352697275e-09 8.37521394177506e-10 7.02500639903517e-10
"463" 21056 1.37369028211685e-09 4.37825064371369e-09 1.34442167204118e-08 7.95857987061714e-08 1.06203700721878e-07 3.91919457108137e-09 8.41175125007079e-10 7.03759769809488e-10
"464" 21057 1.38584518979543e-09 4.39638872357754e-09 1.35623600088179e-08 7.97933060280446e-08 1.05159983710779e-07 3.90932561518998e-09 8.44828855836652e-10 7.0501889971546e-10
"465" 21058 1.39800009747402e-09 4.41452680344139e-09 1.3680503297224e-08 8.00008133499177e-08 1.0411626669968e-07 3.89945665929859e-09 8.48482586666225e-10 7.06278029621432e-10
"466" 21059 1.41015500515261e-09 4.43266488330523e-09 1.37986465856302e-08 8.02083206717908e-08 1.0307254968858e-07 3.8895877034072e-09 8.52136317495798e-10 7.07537159527404e-10
"467" 21060 1.4223099128312e-09 4.45080296316908e-09 1.39167898740363e-08 8.0415827993664e-08 1.02028832677481e-07 3.87971874751581e-09 8.55790048325371e-10 7.08796289433375e-10
"468" 21061 1.43446482050979e-09 4.46894104303292e-09 1.40349331624424e-08 8.06233353155371e-08 1.00985115666382e-07 3.86984979162442e-09 8.59443779154944e-10 7.10055419339347e-10
"469" 21062 1.44661972818837e-09 4.48707912289677e-09 1.41530764508486e-08 8.08308426374102e-08 9.99413986552831e-08 3.85998083573303e-09 8.63097509984517e-10 7.11314549245319e-10
"470" 21063 1.4433499601867e-09 4.48514509964274e-09 1.41711061015314e-08 8.08214645690333e-08 9.89009365168105e-08 3.84809564608226e-09 8.62877105942407e-10 7.11265560793502e-10
"471" 21064 1.44008019218503e-09 4.48321107638871e-09 1.41891357522141e-08 8.08120865006564e-08 9.78604743783379e-08 3.8362104564315e-09 8.62656701900296e-10 7.11216572341685e-10
"472" 21065 1.43681042418336e-09 4.48127705313468e-09 1.42071654028969e-08 8.08027084322795e-08 9.68200122398653e-08 3.82432526678073e-09 8.62436297858186e-10 7.11167583889868e-10
"473" 21066 1.43354065618168e-09 4.47934302988065e-09 1.42251950535797e-08 8.07933303639026e-08 9.57795501013926e-08 3.81244007712996e-09 8.62215893816076e-10 7.1111859543805e-10
"474" 21067 1.43027088818001e-09 4.47740900662662e-09 1.42432247042625e-08 8.07839522955257e-08 9.473908796292e-08 3.80055488747919e-09 8.61995489773965e-10 7.11069606986233e-10
"475" 21068 1.42700112017834e-09 4.47547498337259e-09 1.42612543549452e-08 8.07745742271488e-08 9.36986258244474e-08 3.78866969782843e-09 8.61775085731855e-10 7.11020618534416e-10
"476" 21069 1.42373135217667e-09 4.47354096011856e-09 1.4279284005628e-08 8.07651961587719e-08 9.26581636859748e-08 3.77678450817766e-09 8.61554681689745e-10 7.10971630082599e-10
"477" 21070 1.42046158417500e-09 4.47160693686453e-09 1.42973136563108e-08 8.0755818090395e-08 9.16177015475022e-08 3.76489931852689e-09 8.61334277647634e-10 7.10922641630782e-10
"478" 21071 1.41719181617332e-09 4.4696729136105e-09 1.43153433069936e-08 8.07464400220181e-08 9.05772394090296e-08 3.75301412887613e-09 8.61113873605524e-10 7.10873653178965e-10
"479" 21072 1.41392204817165e-09 4.46773889035647e-09 1.43333729576764e-08 8.07370619536412e-08 8.95367772705569e-08 3.74112893922536e-09 8.60893469563414e-10 7.10824664727148e-10
"480" 21073 1.41065228016998e-09 4.46580486710244e-09 1.43514026083591e-08 8.07276838852643e-08 8.84963151320843e-08 3.72924374957459e-09 8.60673065521303e-10 7.10775676275331e-10
"481" 21074 1.40738251216831e-09 4.46387084384841e-09 1.43694322590419e-08 8.07183058168874e-08 8.74558529936117e-08 3.71735855992382e-09 8.60452661479193e-10 7.10726687823514e-10
"482" 21075 1.40411274416663e-09 4.46193682059438e-09 1.43874619097247e-08 8.07089277485105e-08 8.64153908551391e-08 3.70547337027306e-09 8.60232257437082e-10 7.10677699371696e-10
"483" 21076 1.40084297616496e-09 4.46000279734035e-09 1.44054915604075e-08 8.06995496801336e-08 8.53749287166665e-08 3.69358818062229e-09 8.60011853394972e-10 7.10628710919879e-10
"484" 21077 1.40154489762437e-09 4.43993069422248e-09 1.44235212110902e-08 8.06561489208126e-08 8.52050931095229e-08 3.69360940191284e-09 8.60011853394972e-10 7.10579722468062e-10
"485" 21078 1.40034422304775e-09 4.42435719676375e-09 1.44077732186666e-08 8.03269886504471e-08 8.46180143943717e-08 3.67376538367731e-09 8.53632576847419e-10 7.07611697990729e-10
"486" 21079 1.39914354847114e-09 4.40878369930503e-09 1.43920252262429e-08 7.99978283800815e-08 8.40309356792206e-08 3.65392136544178e-09 8.47253300299866e-10 7.04643673513396e-10
"487" 21080 1.39794287389453e-09 4.39321020184631e-09 1.43762772338192e-08 7.96686681097159e-08 8.34438569640694e-08 3.63407734720625e-09 8.40874023752313e-10 7.01675649036062e-10
"488" 21081 1.39674219931792e-09 4.37763670438758e-09 1.43605292413955e-08 7.93395078393503e-08 8.28567782489183e-08 3.61423332897072e-09 8.3449474720476e-10 6.98707624558729e-10
"489" 21082 1.3955415247413e-09 4.36206320692886e-09 1.43447812489718e-08 7.90103475689848e-08 8.22696995337671e-08 3.59438931073519e-09 8.28115470657207e-10 6.95739600081395e-10
"490" 21083 1.39434085016469e-09 4.34648970947013e-09 1.43290332565481e-08 7.86811872986192e-08 8.16826208186159e-08 3.57454529249967e-09 8.21736194109654e-10 6.92771575604062e-10
"491" 21084 1.39314017558808e-09 4.33091621201141e-09 1.43132852641245e-08 7.83520270282536e-08 8.10955421034648e-08 3.55470127426414e-09 8.15356917562101e-10 6.89803551126729e-10
"492" 21085 1.39123757955206e-09 4.31727673780672e-09 1.43132852641245e-08 7.81824417302792e-08 8.05597858565574e-08 3.56465511531773e-09 8.13083556018177e-10 6.86099644086539e-10
"493" 21086 1.39783212198514e-09 4.30363726360202e-09 1.42772259627589e-08 7.79274269070494e-08 7.99907141630843e-08 3.55669628673296e-09 8.10810194474252e-10 6.86099644086539e-10
"494" 21087 1.40442666441822e-09 4.28999778939733e-09 1.42411666613934e-08 7.76724120838196e-08 7.94216424696112e-08 3.5487374581482e-09 8.08536832930328e-10 6.86099644086539e-10
"495" 21088 1.4110212068513e-09 4.27635831519263e-09 1.42051073600278e-08 7.74173972605898e-08 7.88525707761382e-08 3.54077862956344e-09 8.06263471386403e-10 6.86099644086539e-10
"496" 21089 1.41761574928438e-09 4.26271884098794e-09 1.41690480586622e-08 7.716238243736e-08 7.82834990826651e-08 3.53281980097868e-09 8.03990109842479e-10 6.86099644086539e-10
"497" 21090 1.42602047132066e-09 4.26395047647726e-09 1.41627515293111e-08 7.71440175747494e-08 7.82651202748864e-08 3.54472621192e-09 8.07156463644679e-10 6.86001667182905e-10
"498" 21091 1.43233776445531e-09 4.26209810944113e-09 1.41269903817988e-08 7.71665336807587e-08 7.8085335560128e-08 3.55589510383078e-09 8.07156463644679e-10 6.87735055980175e-10
"499" 21092 1.43865505758996e-09 4.26024574240501e-09 1.40912292342865e-08 7.7189049786768e-08 7.79055508453696e-08 3.56706399574156e-09 8.07156463644679e-10 6.89468444777445e-10
"500" 21093 1.44497235072461e-09 4.25839337536889e-09 1.40554680867743e-08 7.72115658927773e-08 7.77257661306111e-08 3.57823288765234e-09 8.07156463644679e-10 6.91201833574716e-10
"501" 21094 1.45128964385926e-09 4.25654100833277e-09 1.4019706939262e-08 7.72340819987866e-08 7.75459814158527e-08 3.58940177956312e-09 8.07156463644679e-10 6.92935222371986e-10
"502" 21095 1.45760693699391e-09 4.25468864129665e-09 1.39839457917498e-08 7.72565981047959e-08 7.73661967010943e-08 3.60057067147391e-09 8.07156463644679e-10 6.94668611169256e-10
"503" 21096 1.46392423012856e-09 4.25283627426053e-09 1.39481846442375e-08 7.72791142108053e-08 7.71864119863359e-08 3.61173956338469e-09 8.07156463644679e-10 6.96401999966526e-10
"504" 21097 1.4702415232632e-09 4.25098390722441e-09 1.39124234967253e-08 7.73016303168146e-08 7.70066272715775e-08 3.62290845529547e-09 8.07156463644679e-10 6.98135388763796e-10
"505" 21098 1.47655881639785e-09 4.24913154018829e-09 1.3876662349213e-08 7.73241464228239e-08 7.68268425568191e-08 3.63407734720625e-09 8.07156463644679e-10 6.99868777561066e-10
"506" 21099 1.47447138749622e-09 4.26116260421605e-09 1.38828843401009e-08 7.78598240576952e-08 7.66207824618547e-08 3.64914604717521e-09 8.03050548641051e-10 6.97922753544055e-10
"507" 21100 1.47419413819778e-09 4.26104062578646e-09 1.39281448129662e-08 7.92248962417567e-08 7.6635508656177e-08 3.65708365446942e-09 8.08096024846107e-10 6.95952235301136e-10
"508" 21101 1.47391688889935e-09 4.26091864735686e-09 1.39734052858314e-08 8.05899684258181e-08 7.66502348504993e-08 3.66502126176364e-09 8.13141501051163e-10 6.93981717058217e-10
"509" 21102 1.47363963960092e-09 4.26079666892726e-09 1.40186657586967e-08 8.19550406098796e-08 7.66649610448215e-08 3.67295886905785e-09 8.18186977256219e-10 6.92011198815297e-10
"510" 21103 1.47336239030249e-09 4.26067469049767e-09 1.40639262315619e-08 8.3320112793941e-08 7.66796872391438e-08 3.68089647635206e-09 8.23232453461275e-10 6.90040680572378e-10
"511" 21104 1.47308514100406e-09 4.26055271206807e-09 1.41091867044272e-08 8.46851849780024e-08 7.66944134334661e-08 3.68883408364627e-09 8.28277929666331e-10 6.88070162329459e-10
"512" 21105 1.47280789170563e-09 4.26043073363847e-09 1.41544471772924e-08 8.60502571620639e-08 7.67091396277883e-08 3.69677169094048e-09 8.33323405871388e-10 6.86099644086539e-10
"513" 21106 1.4725306424072e-09 4.26030875520888e-09 1.41997076501577e-08 8.74153293461253e-08 7.67238658221106e-08 3.70470929823469e-09 8.38368882076444e-10 6.8412912584362e-10
"514" 21107 1.47123755139778e-09 4.25845638817276e-09 1.41662281609045e-08 8.74017740092347e-08 7.65696788579658e-08 3.70399300049471e-09 8.34262967072815e-10 6.82943478615374e-10
"515" 21108 1.46994446038836e-09 4.25660402113664e-09 1.41327486716514e-08 8.73882186723441e-08 7.6415491893821e-08 3.70327670275472e-09 8.30157052069187e-10 6.81757831387128e-10
"516" 21109 1.46865136937893e-09 4.25475165410051e-09 1.40992691823982e-08 8.73746633354534e-08 7.62613049296761e-08 3.70256040501474e-09 8.26051137065558e-10 6.80572184158882e-10
"517" 21110 1.46735827836951e-09 4.25289928706439e-09 1.4065789693145e-08 8.73611079985628e-08 7.61071179655313e-08 3.70184410727475e-09 8.2194522206193e-10 6.79386536930636e-10
"518" 21111 1.46606518736009e-09 4.25104692002827e-09 1.40323102038919e-08 8.73475526616722e-08 7.59529310013865e-08 3.70112780953477e-09 8.17839307058302e-10 6.7820088970239e-10
"519" 21112 1.46715511002731e-09 4.25227855551759e-09 1.40255397675779e-08 8.69385289149425e-08 7.53090351138122e-08 3.69247390450057e-09 8.15508000481391e-10 6.78961266491154e-10
"520" 21113 1.46824503269454e-09 4.25351019100691e-09 1.4018769331264e-08 8.65295051682128e-08 7.46651392262379e-08 3.68381999946637e-09 8.1317669390448e-10 6.79721643279919e-10
"521" 21114 1.46933495536176e-09 4.25474182649622e-09 1.401199889495e-08 8.61204814214831e-08 7.40212433386636e-08 3.67516609443218e-09 8.10845387327569e-10 6.80482020068684e-10
"522" 21115 1.47042487802899e-09 4.25597346198554e-09 1.40052284586361e-08 8.57114576747534e-08 7.33773474510892e-08 3.66651218939798e-09 8.08514080750658e-10 6.81242396857449e-10
"523" 21116 1.47151480069621e-09 4.25720509747486e-09 1.39984580223221e-08 8.53024339280237e-08 7.27334515635149e-08 3.65785828436378e-09 8.06182774173748e-10 6.82002773646213e-10
"524" 21117 1.47260472336343e-09 4.25843673296418e-09 1.39916875860081e-08 8.4893410181294e-08 7.20895556759406e-08 3.64920437932958e-09 8.03851467596837e-10 6.82763150434978e-10
"525" 21118 1.47369464603066e-09 4.2596683684535e-09 1.39849171496942e-08 8.44843864345642e-08 7.14456597883663e-08 3.64055047429539e-09 8.01520161019926e-10 6.83523527223743e-10
"526" 21119 1.47478456869788e-09 4.26090000394281e-09 1.39781467133802e-08 8.40753626878345e-08 7.0801763900792e-08 3.63189656926119e-09 7.99188854443015e-10 6.84283904012508e-10
"527" 21120 1.47587449136511e-09 4.26213163943213e-09 1.39713762770663e-08 8.36663389411048e-08 7.01578680132176e-08 3.62324266422699e-09 7.96857547866104e-10 6.85044280801272e-10
"528" 21121 1.47696441403233e-09 4.26336327492145e-09 1.39646058407523e-08 8.32573151943751e-08 6.95139721256433e-08 3.6145887591928e-09 7.94526241289194e-10 6.85804657590037e-10
"529" 21122 1.47786950383393e-09 4.26263039254934e-09 1.39578354044384e-08 8.28264092880993e-08 6.95969327930547e-08 3.66194375231963e-09 8.04211578468402e-10 6.86565034378802e-10
"530" 21123 1.47877459363554e-09 4.26189751017723e-09 1.39510649681244e-08 8.23955033818235e-08 6.9679893460466e-08 3.70929874544647e-09 8.1389691564761e-10 6.87325411167567e-10
"531" 21124 1.47967968343714e-09 4.26116462780512e-09 1.39442945318104e-08 8.19645974755477e-08 6.97628541278774e-08 3.7566537385733e-09 8.23582252826819e-10 6.88085787956331e-10
"532" 21125 1.48058477323875e-09 4.26043174543301e-09 1.39375240954965e-08 8.15336915692719e-08 6.98458147952887e-08 3.80400873170014e-09 8.33267590006027e-10 6.88846164745096e-10
"533" 21126 1.48148986304035e-09 4.2596988630609e-09 1.39307536591825e-08 8.11027856629961e-08 6.99287754627001e-08 3.85136372482698e-09 8.42952927185235e-10 6.89606541533861e-10
"534" 21127 1.48239495284195e-09 4.25896598068878e-09 1.39239832228686e-08 8.06718797567203e-08 7.00117361301114e-08 3.89871871795381e-09 8.52638264364444e-10 6.90366918322626e-10
"535" 21128 1.48330004264356e-09 4.25823309831667e-09 1.39172127865546e-08 8.02409738504445e-08 7.00946967975227e-08 3.94607371108065e-09 8.62323601543652e-10 6.9112729511139e-10
"536" 21129 1.48420513244516e-09 4.25750021594456e-09 1.39104423502407e-08 7.98100679441687e-08 7.01776574649341e-08 3.99342870420748e-09 8.7200893872286e-10 6.91887671900155e-10
"537" 21130 1.48511022224676e-09 4.25676733357245e-09 1.39036719139267e-08 7.93791620378929e-08 7.02606181323454e-08 4.04078369733432e-09 8.81694275902069e-10 6.9264804868892e-10
"538" 21131 1.48601531204837e-09 4.25603445120034e-09 1.38969014776128e-08 7.89482561316171e-08 7.03435787997568e-08 4.08813869046116e-09 8.91379613081277e-10 6.93408425477685e-10
"539" 21132 1.48692040184997e-09 4.25530156882823e-09 1.38901310412988e-08 7.85173502253413e-08 7.04265394671681e-08 4.13549368358799e-09 9.01064950260485e-10 6.94168802266449e-10
"540" 21133 1.48782549165158e-09 4.25456868645612e-09 1.38833606049848e-08 7.80864443190655e-08 7.05095001345795e-08 4.18284867671483e-09 9.10750287439694e-10 6.94929179055214e-10
"541" 21134 1.48873058145318e-09 4.25383580408401e-09 1.38765901686709e-08 7.76555384127897e-08 7.05924608019908e-08 4.23020366984166e-09 9.20435624618902e-10 6.95689555843979e-10
"542" 21135 1.48934008647978e-09 4.25001891918646e-09 1.37890829277413e-08 7.76547818896184e-08 7.09146931920149e-08 4.28545382768161e-09 9.30294796897069e-10 6.94430425938007e-10
"543" 21136 1.48994959150637e-09 4.24620203428891e-09 1.37015756868117e-08 7.76540253664471e-08 7.1236925582039e-08 4.34070398552156e-09 9.40153969175236e-10 6.93171296032035e-10
"544" 21137 1.49055909653297e-09 4.24238514939136e-09 1.36140684458822e-08 7.76532688432757e-08 7.15591579720631e-08 4.3959541433615e-09 9.50013141453404e-10 6.91912166126064e-10
"545" 21138 1.49116860155956e-09 4.23856826449381e-09 1.35265612049526e-08 7.76525123201044e-08 7.18813903620872e-08 4.45120430120145e-09 9.59872313731571e-10 6.90653036220092e-10
"546" 21139 1.49177810658616e-09 4.23475137959626e-09 1.3439053964023e-08 7.76517557969331e-08 7.22036227521113e-08 4.5064544590414e-09 9.69731486009738e-10 6.8939390631412e-10
"547" 21140 1.49238761161275e-09 4.23093449469871e-09 1.33515467230935e-08 7.76509992737618e-08 7.25258551421354e-08 4.56170461688135e-09 9.79590658287905e-10 6.88134776408148e-10
"548" 21141 1.49299711663935e-09 4.22711760980116e-09 1.32640394821639e-08 7.76502427505904e-08 7.28480875321595e-08 4.61695477472129e-09 9.89449830566072e-10 6.86875646502177e-10
"549" 21142 1.49360662166594e-09 4.22330072490361e-09 1.31765322412343e-08 7.76494862274191e-08 7.31703199221836e-08 4.67220493256124e-09 9.99309002844239e-10 6.85616516596205e-10
"550" 21143 1.49421612669254e-09 4.21948384000606e-09 1.30890250003048e-08 7.76487297042478e-08 7.34925523122077e-08 4.72745509040119e-09 1.00916817512241e-09 6.84357386690233e-10
"551" 21144 1.49421612669254e-09 4.26452409359168e-09 1.30551594806436e-08 7.76381223846974e-08 7.30680790348451e-08 4.72741264782009e-09 1.00806615491185e-09 6.82076256323939e-10
"552" 21145 1.49421612669254e-09 4.26047307943923e-09 1.30376515992041e-08 7.76213965236514e-08 7.35964977917912e-08 4.72867014125838e-09 1.006187032509e-09 6.80817126417967e-10
"553" 21146 1.49421612669254e-09 4.25642206528677e-09 1.30201437177646e-08 7.76046706626055e-08 7.41249165487374e-08 4.72992763469667e-09 1.00430791010614e-09 6.79557996511996e-10
"554" 21147 1.49421612669254e-09 4.25237105113432e-09 1.30026358363251e-08 7.75879448015595e-08 7.46533353056836e-08 4.73118512813496e-09 1.00242878770329e-09 6.78298866606024e-10
"555" 21148 1.49070651939551e-09 4.24606040065073e-09 1.3026212971669e-08 7.75616536285606e-08 7.56264370119739e-08 4.69742379691602e-09 1.00176757557696e-09 6.79059243394789e-10
"556" 21149 1.47541167015114e-09 4.22599812513715e-09 1.29662880591409e-08 7.75632388906383e-08 7.64195204109419e-08 4.68365503296645e-09 9.99714618075143e-10 6.71177170423111e-10
"557" 21150 1.46011682090676e-09 4.20593584962356e-09 1.29063631466127e-08 7.75648241527159e-08 7.72126038099099e-08 4.66988626901688e-09 9.97661660573329e-10 6.63295097451434e-10
"558" 21151 1.44482197166239e-09 4.18587357410997e-09 1.28464382340845e-08 7.75664094147936e-08 7.80056872088779e-08 4.65611750506732e-09 9.95608703071515e-10 6.55413024479756e-10
"559" 21152 1.42952712241801e-09 4.16581129859639e-09 1.27865133215564e-08 7.75679946768713e-08 7.87987706078459e-08 4.64234874111775e-09 9.935557455697e-10 6.47530951508079e-10
"560" 21153 1.41423227317364e-09 4.1457490230828e-09 1.27265884090282e-08 7.75695799389489e-08 7.95918540068139e-08 4.62857997716818e-09 9.91502788067886e-10 6.39648878536401e-10
"561" 21154 1.39893742392926e-09 4.12568674756921e-09 1.26666634965001e-08 7.75711652010266e-08 8.0384937405782e-08 4.61481121321861e-09 9.89449830566072e-10 6.31766805564724e-10
"562" 21155 1.38364257468489e-09 4.10562447205563e-09 1.26067385839719e-08 7.75727504631042e-08 8.117802080475e-08 4.60104244926905e-09 9.87396873064258e-10 6.23884732593046e-10
"563" 21156 1.36834772544052e-09 4.08556219654204e-09 1.25468136714437e-08 7.75743357251819e-08 8.1971104203718e-08 4.58727368531948e-09 9.85343915562444e-10 6.16002659621369e-10
"564" 21157 1.35305287619614e-09 4.06549992102845e-09 1.24868887589156e-08 7.75759209872596e-08 8.2764187602686e-08 4.57350492136991e-09 9.83290958060629e-10 6.08120586649691e-10
"565" 21158 1.33775802695177e-09 4.04948865966732e-09 1.23609793579894e-08 7.75895300636372e-08 8.45006270924459e-08 4.56149240397584e-09 9.80959651483719e-10 6.00238513678014e-10
"566" 21159 1.32246317770739e-09 4.03347739830619e-09 1.22350699570633e-08 7.76031391400148e-08 8.62370665822058e-08 4.54947988658178e-09 9.78628344906808e-10 5.92356440706336e-10
"567" 21160 1.30716832846302e-09 4.01746613694505e-09 1.21091605561372e-08 7.76167482163925e-08 8.79735060719658e-08 4.53746736918771e-09 9.76297038329897e-10 5.84474367734659e-10
"568" 21161 1.29187347921864e-09 4.00145487558392e-09 1.1983251155211e-08 7.76303572927701e-08 8.97099455617257e-08 4.52545485179364e-09 9.73965731752986e-10 5.76592294762981e-10
"569" 21162 1.27657862997427e-09 3.98544361422279e-09 1.18573417542849e-08 7.76439663691478e-08 9.14463850514856e-08 4.51344233439957e-09 9.71634425176075e-10 5.68710221791304e-10
"570" 21163 1.2612837807299e-09 3.96943235286165e-09 1.17314323533588e-08 7.76575754455254e-08 9.31828245412456e-08 4.50142981700551e-09 9.69303118599164e-10 5.60828148819626e-10
"571" 21164 1.24598893148552e-09 3.95342109150052e-09 1.16055229524326e-08 7.76711845219031e-08 9.49192640310055e-08 4.48941729961144e-09 9.66971812022254e-10 5.52946075847949e-10
"572" 21165 1.23069408224115e-09 3.93740983013939e-09 1.14796135515065e-08 7.76847935982807e-08 9.66557035207654e-08 4.47740478221737e-09 9.64640505445343e-10 5.45064002876271e-10
"573" 21166 1.21600873802337e-09 4.01740312414119e-09 1.13535799198081e-08 7.77182008190096e-08 9.80970397001448e-08 4.56132263365144e-09 9.62309198868432e-10 5.3836757713284e-10
"574" 21167 1.20132339380559e-09 4.09739641814299e-09 1.12275462881098e-08 7.77516080397384e-08 9.95383758795242e-08 4.64524048508552e-09 9.59977892291521e-10 5.31671151389408e-10
"575" 21168 1.18663804958781e-09 4.17738971214479e-09 1.11015126564115e-08 7.77850152604673e-08 1.00979712058904e-07 4.72915833651959e-09 9.57646585714611e-10 5.24974725645977e-10
"576" 21169 1.17195270537003e-09 4.25738300614659e-09 1.09754790247131e-08 7.78184224811962e-08 1.02421048238283e-07 4.81307618795366e-09 9.553152791377e-10 5.18278299902545e-10
"577" 21170 1.15726736115225e-09 4.33737630014839e-09 1.08494453930148e-08 7.7851829701925e-08 1.03862384417662e-07 4.89699403938774e-09 9.52983972560789e-10 5.11581874159114e-10
"578" 21171 1.15787686617885e-09 4.42510568716631e-09 1.08546450315138e-08 7.76696143575595e-08 1.05389892647511e-07 4.99468065477138e-09 9.40561713573766e-10 5.13552392402033e-10
"579" 21172 1.15769203331323e-09 4.52296260956537e-09 1.08545208007416e-08 7.74047504272075e-08 1.06787050243924e-07 5.08846213037956e-09 9.40341309531655e-10 5.13478909724308e-10
"580" 21173 1.15750720044761e-09 4.62081953196442e-09 1.08543965699694e-08 7.71398864968556e-08 1.08184207840336e-07 5.18224360598775e-09 9.40120905489545e-10 5.13405427046582e-10
"581" 21174 1.15732236758199e-09 4.71867645436347e-09 1.08542723391971e-08 7.68750225665037e-08 1.09581365436749e-07 5.27602508159593e-09 9.39900501447435e-10 5.13331944368856e-10
"582" 21175 1.15713753471637e-09 4.81653337676253e-09 1.08541481084249e-08 7.66101586361517e-08 1.10978523033161e-07 5.36980655720412e-09 9.39680097405324e-10 5.13258461691131e-10
"583" 21176 1.15695270185075e-09 4.91439029916158e-09 1.08540238776527e-08 7.63452947057998e-08 1.12375680629574e-07 5.46358803281231e-09 9.39459693363214e-10 5.13184979013405e-10
"584" 21177 1.15676786898513e-09 5.01224722156064e-09 1.08538996468805e-08 7.60804307754479e-08 1.13772838225987e-07 5.55736950842049e-09 9.39239289321104e-10 5.13111496335679e-10
"585" 21178 1.15658303611951e-09 5.11010414395969e-09 1.08537754161083e-08 7.58155668450959e-08 1.15169995822399e-07 5.65115098402868e-09 9.39018885278993e-10 5.13038013657954e-10
"586" 21179 1.15639820325389e-09 5.20796106635875e-09 1.08536511853361e-08 7.5550702914744e-08 1.16567153418812e-07 5.74493245963686e-09 9.38798481236883e-10 5.12964530980228e-10
"587" 21180 1.15560386536167e-09 5.20599654849732e-09 1.08632153711178e-08 7.53911111553617e-08 1.16416878615417e-07 5.73875109889815e-09 9.38578077194773e-10 5.10683400613934e-10
"588" 21181 1.15480952746945e-09 5.20403203063589e-09 1.08727795568994e-08 7.52315193959795e-08 1.16266603812021e-07 5.73256973815944e-09 9.38357673152662e-10 5.08402270247639e-10
"589" 21182 1.15371960480223e-09 5.20576241924241e-09 1.08753860451946e-08 7.49337914993789e-08 1.16030592575295e-07 5.73267584461219e-09 9.40294740588504e-10 5.08402270247639e-10
"590" 21183 1.15262968213501e-09 5.20749280784894e-09 1.08779925334899e-08 7.46360636027783e-08 1.15794581338569e-07 5.73278195106494e-09 9.42231808024346e-10 5.08402270247639e-10
"591" 21184 1.15153975946778e-09 5.20922319645546e-09 1.08805990217851e-08 7.43383357061778e-08 1.15558570101843e-07 5.73288805751769e-09 9.44168875460187e-10 5.08402270247639e-10
"592" 21185 1.15044983680056e-09 5.21095358506199e-09 1.08832055100803e-08 7.40406078095772e-08 1.15322558865117e-07 5.73299416397044e-09 9.46105942896029e-10 5.08402270247639e-10
"593" 21186 1.14935991413333e-09 5.21268397366851e-09 1.08858119983755e-08 7.37428799129766e-08 1.15086547628391e-07 5.73310027042319e-09 9.48043010331871e-10 5.08402270247639e-10
"594" 21187 1.14826999146611e-09 5.21441436227504e-09 1.08884184866707e-08 7.3445152016376e-08 1.14850536391665e-07 5.73320637687594e-09 9.49980077767712e-10 5.08402270247639e-10
"595" 21188 1.14718006879889e-09 5.21614475088156e-09 1.08910249749659e-08 7.31474241197754e-08 1.14614525154939e-07 5.73331248332869e-09 9.51917145203554e-10 5.08402270247639e-10
"596" 21189 1.14609014613166e-09 5.21787513948809e-09 1.08936314632611e-08 7.28496962231749e-08 1.14378513918212e-07 5.73341858978144e-09 9.53854212639396e-10 5.08402270247639e-10
"597" 21190 1.14500022346444e-09 5.21960552809461e-09 1.08962379515563e-08 7.25519683265743e-08 1.14142502681486e-07 5.73352469623419e-09 9.55791280075237e-10 5.08402270247639e-10
"598" 21191 1.14391030079721e-09 5.22133591670114e-09 1.08988444398515e-08 7.22542404299737e-08 1.1390649144476e-07 5.73363080268694e-09 9.57728347511079e-10 5.08402270247639e-10
"599" 21192 1.14282037812999e-09 5.22306630530766e-09 1.09014509281467e-08 7.19565125333731e-08 1.13670480208034e-07 5.73373690913969e-09 9.59665414946921e-10 5.08402270247639e-10
"600" 21193 1.14282037812999e-09 5.155184719757e-09 1.09040574164419e-08 7.19556930325908e-08 1.13673550590925e-07 5.7359919088124e-09 9.60767435157472e-10 5.10683400613934e-10
"601" 21194 1.14261720978779e-09 5.11677090212778e-09 1.09067881355094e-08 7.19333918845295e-08 1.13657509820357e-07 5.73833179364731e-09 9.62924906635424e-10 5.12727401534579e-10
"602" 21195 1.14241404144559e-09 5.07835708449855e-09 1.09095188545768e-08 7.19110907364683e-08 1.13641469049788e-07 5.74067167848221e-09 9.65082378113376e-10 5.14771402455224e-10
"603" 21196 1.14221087310339e-09 5.03994326686933e-09 1.09122495736442e-08 7.1888789588407e-08 1.13625428279219e-07 5.74301156331712e-09 9.67239849591329e-10 5.16815403375869e-10
"604" 21197 1.1420077047612e-09 5.0015294492401e-09 1.09149802927116e-08 7.18664884403457e-08 1.13609387508651e-07 5.74535144815203e-09 9.6939732106928e-10 5.18859404296514e-10
"605" 21198 1.141804536419e-09 4.96311563161087e-09 1.0917711011779e-08 7.18441872922845e-08 1.13593346738082e-07 5.74769133298693e-09 9.71554792547232e-10 5.20903405217159e-10
"606" 21199 1.1416013680768e-09 4.92470181398165e-09 1.09204417308464e-08 7.18218861442232e-08 1.13577305967513e-07 5.75003121782184e-09 9.73712264025185e-10 5.22947406137804e-10
"607" 21200 1.1413981997346e-09 4.88628799635242e-09 1.09231724499139e-08 7.17995849961619e-08 1.13561265196945e-07 5.75237110265675e-09 9.75869735503137e-10 5.24991407058449e-10
"608" 21201 1.1411950313924e-09 4.84787417872319e-09 1.09259031689813e-08 7.17772838481007e-08 1.13545224426376e-07 5.75471098749165e-09 9.78027206981089e-10 5.27035407979094e-10
"609" 21202 1.1409918630502e-09 4.80958233952356e-09 1.09355915855352e-08 7.17878466662881e-08 1.13550209150918e-07 5.75479587265385e-09 9.78966768182516e-10 5.27059902205003e-10
"610" 21203 1.14169378450961e-09 4.77612555845901e-09 1.09384713815292e-08 7.18320761645154e-08 1.13530126445953e-07 5.76689327521012e-09 9.78966768182516e-10 5.27084396430911e-10
"611" 21204 1.14239570596901e-09 4.74266877739445e-09 1.09413511775233e-08 7.18763056627427e-08 1.13510043740988e-07 5.77899067776639e-09 9.78966768182516e-10 5.2710889065682e-10
"612" 21205 1.14309762742842e-09 4.7092119963299e-09 1.09442309735174e-08 7.19205351609701e-08 1.13489961036023e-07 5.79108808032266e-09 9.78966768182516e-10 5.27133384882728e-10
"613" 21206 1.14379954888783e-09 4.67575521526534e-09 1.09471107695114e-08 7.19647646591974e-08 1.13469878331058e-07 5.80318548287893e-09 9.78966768182516e-10 5.27157879108637e-10
"614" 21207 1.14259887431121e-09 4.67557224762095e-09 1.09538812058254e-08 7.20318830613293e-08 1.12965474781296e-07 5.81825418284789e-09 9.76635461605605e-10 5.23478466294356e-10
"615" 21208 1.14241404144559e-09 4.68445831990848e-09 1.09567610018195e-08 7.19717933934583e-08 1.1278402965892e-07 5.81400417070635e-09 9.64618817849486e-10 5.19701076576441e-10
"616" 21209 1.14222920857997e-09 4.693344392196e-09 1.09596407978135e-08 7.19117037255873e-08 1.12602584536544e-07 5.80975415856482e-09 9.52602174093367e-10 5.15923686858526e-10
"617" 21210 1.14204437571435e-09 4.70223046448353e-09 1.09625205938076e-08 7.18516140577164e-08 1.12421139414168e-07 5.80550414642328e-09 9.40585530337248e-10 5.1214629714061e-10
"618" 21211 1.14185954284873e-09 4.71111653677106e-09 1.09654003898017e-08 7.17915243898454e-08 1.12239694291792e-07 5.80125413428175e-09 9.28568886581129e-10 5.08368907422695e-10
"619" 21212 1.14167470998311e-09 4.72000260905859e-09 1.09682801857957e-08 7.17314347219744e-08 1.12058249169415e-07 5.79700412214021e-09 9.1655224282501e-10 5.0459151770478e-10
"620" 21213 1.14148987711749e-09 4.72888868134612e-09 1.09711599817898e-08 7.16713450541035e-08 1.11876804047039e-07 5.79275410999868e-09 9.04535599068891e-10 5.00814127986865e-10
"621" 21214 1.14130504425187e-09 4.73777475363365e-09 1.09740397777839e-08 7.16112553862325e-08 1.11695358924663e-07 5.78850409785714e-09 8.92518955312771e-10 4.97036738268949e-10
"622" 21215 1.14438997938792e-09 4.7418257677861e-09 1.09688401392848e-08 7.15069362201342e-08 1.11562609924668e-07 5.77712299304086e-09 8.8144187275808e-10 4.97036738268949e-10
"623" 21216 1.15200036353199e-09 4.76188804329969e-09 1.09787273250743e-08 7.14067145579476e-08 1.11864528823794e-07 5.76897317284115e-09 8.71756535578872e-10 4.96938761365315e-10
"624" 21217 1.15961074767606e-09 4.78195031881327e-09 1.09886145108637e-08 7.1306492895761e-08 1.12166447722919e-07 5.76082335264144e-09 8.62071198399663e-10 4.96840784461681e-10
"625" 21218 1.16722113182014e-09 4.80201259432686e-09 1.09985016966531e-08 7.12062712335743e-08 1.12468366622044e-07 5.75267353244172e-09 8.52385861220455e-10 4.96742807558047e-10
"626" 21219 1.17483151596421e-09 4.82207486984045e-09 1.10083888824425e-08 7.11060495713877e-08 1.12770285521169e-07 5.74452371224201e-09 8.42700524041247e-10 4.96644830654413e-10
"627" 21220 1.18244190010828e-09 4.84213714535403e-09 1.10182760682319e-08 7.10058279092011e-08 1.13072204420295e-07 5.7363738920423e-09 8.33015186862038e-10 4.96546853750778e-10
"628" 21221 1.19005228425235e-09 4.86219942086762e-09 1.10281632540213e-08 7.09056062470145e-08 1.1337412331942e-07 5.72822407184259e-09 8.2332984968283e-10 4.96448876847144e-10
"629" 21222 1.19766266839642e-09 4.88226169638121e-09 1.10380504398107e-08 7.08053845848279e-08 1.13676042218545e-07 5.72007425164287e-09 8.13644512503622e-10 4.9635089994351e-10
"630" 21223 1.20074760353247e-09 5.00329539142669e-09 1.10878015207592e-08 7.07924539562765e-08 1.13494597096169e-07 5.71207298047701e-09 8.03785340225454e-10 4.94593016920331e-10
"631" 21224 1.20383253866852e-09 5.12432908647217e-09 1.11375526017077e-08 7.07795233277251e-08 1.13313151973793e-07 5.70407170931115e-09 7.93926167947287e-10 4.92835133897152e-10
"632" 21225 1.20691747380458e-09 5.24536278151765e-09 1.11873036826562e-08 7.07665926991737e-08 1.13131706851417e-07 5.69607043814529e-09 7.8406699566912e-10 4.91077250873974e-10
"633" 21226 1.21000240894063e-09 5.36639647656313e-09 1.12370547636047e-08 7.07536620706223e-08 1.12950261729041e-07 5.68806916697943e-09 7.74207823390953e-10 4.89319367850795e-10
"634" 21227 1.21308734407668e-09 5.48743017160861e-09 1.12868058445531e-08 7.07407314420709e-08 1.12768816606665e-07 5.68006789581357e-09 7.64348651112786e-10 4.87561484827616e-10
"635" 21228 1.21617227921273e-09 5.60846386665409e-09 1.13365569255016e-08 7.07278008135195e-08 1.12587371484289e-07 5.6720666246477e-09 7.54489478834619e-10 4.85803601804438e-10
"636" 21229 1.21925721434878e-09 5.72949756169957e-09 1.13863080064501e-08 7.07148701849681e-08 1.12405926361913e-07 5.66406535348184e-09 7.44630306556452e-10 4.84045718781259e-10
"637" 21230 1.22343207215206e-09 5.84146221681312e-09 1.14221436924257e-08 7.04383401404773e-08 1.12405926361913e-07 5.67232661185158e-09 7.46787778034404e-10 4.86326849147553e-10
"638" 21231 1.22760692995534e-09 5.95342687192668e-09 1.14579793784013e-08 7.01618100959865e-08 1.12405926361913e-07 5.68058787022132e-09 7.48945249512356e-10 4.88607979513847e-10
"639" 21232 1.23178178775861e-09 6.06539152704024e-09 1.14938150643769e-08 6.98852800514957e-08 1.12405926361913e-07 5.68884912859106e-09 7.51102720990308e-10 4.90889109880142e-10
"640" 21233 1.23595664556189e-09 6.17735618215379e-09 1.15296507503524e-08 6.96087500070049e-08 1.12405926361913e-07 5.6971103869608e-09 7.5326019246826e-10 4.93170240246436e-10
"641" 21234 1.24013150336517e-09 6.28932083726735e-09 1.1565486436328e-08 6.93322199625141e-08 1.12405926361913e-07 5.70537164533054e-09 7.55417663946212e-10 4.9545137061273e-10
"642" 21235 1.24430636116844e-09 6.40128549238091e-09 1.16013221223036e-08 6.90556899180232e-08 1.12405926361913e-07 5.71363290370028e-09 7.57575135424164e-10 4.97732500979024e-10
"643" 21236 1.24848121897172e-09 6.51325014749446e-09 1.16371578082792e-08 6.87791598735324e-08 1.12405926361913e-07 5.72189416207003e-09 7.59732606902116e-10 5.00013631345319e-10
"644" 21237 1.25265607677499e-09 6.62521480260802e-09 1.16729934942547e-08 6.85026298290416e-08 1.12405926361913e-07 5.73015542043977e-09 7.61890078380068e-10 5.02294761711613e-10
"645" 21238 1.25476184115321e-09 6.65809218613199e-09 1.17019575292702e-08 6.82991494846022e-08 1.14424708523781e-07 5.76812965293642e-09 7.71041469588752e-10 5.04502409400182e-10
"646" 21239 1.25566693095481e-09 6.72954669972101e-09 1.17921057826841e-08 6.81702596009286e-08 1.14426913980715e-07 5.88456200558571e-09 8.35345428855136e-10 5.13406482832182e-10
"647" 21240 1.25657202075642e-09 6.80100121331003e-09 1.1882254036098e-08 6.80413697172551e-08 1.14429119437648e-07 6.00099435823499e-09 8.9964938812152e-10 5.22310556264181e-10
"648" 21241 1.25747711055802e-09 6.87245572689904e-09 1.19724022895119e-08 6.79124798335815e-08 1.14431324894582e-07 6.11742671088427e-09 9.63953347387904e-10 5.31214629696182e-10
"649" 21242 1.25838220035963e-09 6.94391024048806e-09 1.20625505429258e-08 6.7783589949908e-08 1.14433530351515e-07 6.23385906353356e-09 1.02825730665429e-09 5.40118703128182e-10
"650" 21243 1.25928729016123e-09 7.01536475407708e-09 1.21526987963396e-08 6.76547000662344e-08 1.14435735808449e-07 6.35029141618284e-09 1.09256126592067e-09 5.49022776560182e-10
"651" 21244 1.26019237996283e-09 7.08681926766609e-09 1.22428470497535e-08 6.75258101825609e-08 1.14437941265382e-07 6.46672376883212e-09 1.15686522518706e-09 5.57926849992182e-10
"652" 21245 1.26109746976444e-09 7.15827378125511e-09 1.23329953031674e-08 6.73969202988873e-08 1.14440146722316e-07 6.5831561214814e-09 1.22116918445344e-09 5.66830923424182e-10
"653" 21246 1.26200255956604e-09 7.22972829484412e-09 1.24231435565813e-08 6.72680304152138e-08 1.14442352179249e-07 6.69958847413069e-09 1.28547314371982e-09 5.75734996856182e-10
"654" 21247 1.26290764936764e-09 7.30118280843314e-09 1.25132918099952e-08 6.71391405315403e-08 1.14444557636183e-07 6.81602082677997e-09 1.34977710298621e-09 5.84639070288182e-10
"655" 21248 1.26381273916925e-09 7.37263732202216e-09 1.26034400634091e-08 6.70102506478667e-08 1.14446763093116e-07 6.93245317942925e-09 1.41408106225259e-09 5.93543143720182e-10
"656" 21249 1.26471782897085e-09 7.44409183561117e-09 1.26935883168229e-08 6.68813607641932e-08 1.14448968550049e-07 7.04888553207853e-09 1.47838502151897e-09 6.02447217152182e-10
"657" 21250 1.26562291877246e-09 7.51554634920019e-09 1.27837365702368e-08 6.67524708805196e-08 1.14451174006983e-07 7.16531788472782e-09 1.54268898078536e-09 6.11351290584182e-10
"658" 21251 1.26652800857406e-09 7.59583577346623e-09 1.28449207886352e-08 6.63030313443051e-08 1.14437523183083e-07 7.28554393898253e-09 1.60483546857379e-09 6.19993740344624e-10
"659" 21252 1.26722993003346e-09 7.66424660674149e-09 1.28341851735381e-08 6.57993167210411e-08 1.14244580784282e-07 7.31618542375493e-09 1.66503351283655e-09 6.27924801768119e-10
"660" 21253 1.26793185149287e-09 7.73265744001676e-09 1.28234495584409e-08 6.52956020977771e-08 1.14051638385481e-07 7.34682690852734e-09 1.7252315570993e-09 6.35855863191613e-10
"661" 21254 1.26863377295228e-09 7.80106827329202e-09 1.28127139433437e-08 6.47918874745131e-08 1.13858695986679e-07 7.37746839329974e-09 1.78542960136206e-09 6.43786924615108e-10
"662" 21255 1.26933569441168e-09 7.86947910656729e-09 1.28019783282465e-08 6.4288172851249e-08 1.13665753587878e-07 7.40810987807214e-09 1.84562764562481e-09 6.51717986038602e-10
"663" 21256 1.27003761587109e-09 7.93788993984255e-09 1.27912427131494e-08 6.3784458227985e-08 1.13472811189077e-07 7.43875136284455e-09 1.90582568988757e-09 6.59649047462097e-10
"664" 21257 1.27073953733049e-09 8.00630077311782e-09 1.27805070980522e-08 6.3280743604721e-08 1.13279868790276e-07 7.46939284761695e-09 1.96602373415032e-09 6.67580108885592e-10
"665" 21258 1.2714414587899e-09 8.07471160639308e-09 1.2769771482955e-08 6.2777028981457e-08 1.13086926391475e-07 7.50003433238936e-09 2.02622177841308e-09 6.75511170309086e-10
"666" 21259 1.2721433802493e-09 8.14312243966835e-09 1.27590358678579e-08 6.22733143581929e-08 1.12893983992673e-07 7.53067581716176e-09 2.08641982267583e-09 6.83442231732581e-10
"667" 21260 1.27284530170871e-09 8.21153327294361e-09 1.27483002527607e-08 6.17695997349289e-08 1.12701041593872e-07 7.56131730193417e-09 2.14661786693859e-09 6.91373293156075e-10
"668" 21261 1.27373205603373e-09 8.20347156685039e-09 1.26394611805288e-08 6.10147528343987e-08 1.13032977577368e-07 7.48363914339318e-09 2.14251195193496e-09 6.9040028114757e-10
"669" 21262 1.27770374549481e-09 8.20719696792574e-09 1.2543303043554e-08 6.07228991177167e-08 1.13705143857617e-07 7.40272970023562e-09 2.14073734350824e-09 6.90449269599387e-10
