time,channel1,channel2,channel3,channel4,channel5,channel6,channel7,channel8,class
59148,6.035902824078414e-8,1.4014194416320667e-9,1.3493287967715115e-9,2.818480775492464e-9,4.1583284583272175e-8,1.418270360164685e-7,2.3527777636397773e-8,4.996829418236482e-8,6
59149,6.036684558729667e-8,1.3991230916892775e-9,1.3485611011234352e-9,2.8200041660070924e-9,4.1576033240440865e-8,1.418323582476057e-7,2.3396266765477487e-8,4.998857338090533e-8,6
59150,6.037466293380921e-8,1.3968267417464882e-9,1.3477934054753591e-9,2.821527556521721e-9,4.1568781897609555e-8,1.418376804787429e-7,2.3264755894557198e-8,5.0008852579445836e-8,6
59151,6.038248028032174e-8,1.394530391803699e-9,1.3470257098272828e-9,2.823050947036349e-9,4.156153055477824e-8,1.4184300270988012e-7,2.3133245023636912e-8,5.0029131777986345e-8,6
59152,6.039029762683427e-8,1.3922340418609097e-9,1.3462580141792065e-9,2.8245743375509777e-9,4.155427921194693e-8,1.418483249410173e-7,2.3001734152716627e-8,5.004941097652685e-8,6
59153,6.03981149733468e-8,1.3899376919181205e-9,1.3454903185311304e-9,2.8260977280656063e-9,4.154702786911562e-8,1.418536471721545e-7,2.2870223281796338e-8,5.0069690175067355e-8,6
59154,6.040593231985933e-8,1.3876413419753312e-9,1.344722622883054e-9,2.827621118580235e-9,4.153977652628431e-8,1.418589694032917e-7,2.2738712410876052e-8,5.0089969373607864e-8,6
59155,6.0436289343906e-8,1.3866784763511558e-9,1.3447095789015436e-9,2.8269136856489355e-9,4.148902024412005e-8,1.4177748691179092e-7,2.273794246956083e-8,5.006149474022995e-8,6
59156,6.046664636795268e-8,1.3857156107269804e-9,1.344696534920033e-9,2.8262062527176365e-9,4.14382639619558e-8,1.4169600442029011e-7,2.2737172528245608e-8,5.003302010685203e-8,6
59157,6.049700339199936e-8,1.384752745102805e-9,1.3446834909385226e-9,2.825498819786337e-9,4.1387507679791544e-8,1.416145219287893e-7,2.2736402586930383e-8,5.0004545473474114e-8,6
59158,6.052736041604603e-8,1.3837898794786296e-9,1.344670446957012e-9,2.824791386855038e-9,4.1336751397627294e-8,1.415330394372885e-7,2.273563264561516e-8,4.9976070840096203e-8,6
59159,6.055771744009271e-8,1.382827013854454e-9,1.3446574029755014e-9,2.8240839539237387e-9,4.1285995115463036e-8,1.414515569457877e-7,2.273486270429994e-8,4.994759620671829e-8,6
59160,6.058807446413938e-8,1.3818641482302786e-9,1.344644358993991e-9,2.8233765209924398e-9,4.123523883329878e-8,1.4137007445428688e-7,2.2734092762984717e-8,4.991912157334037e-8,6
59161,6.061843148818606e-8,1.3809012826061032e-9,1.3446313150124804e-9,2.8226690880611404e-9,4.118448255113453e-8,1.4128859196278608e-7,2.2733322821669494e-8,4.9890646939962453e-8,6
59162,6.064878851223273e-8,1.3799384169819278e-9,1.34461827103097e-9,2.8219616551298414e-9,4.113372626897027e-8,1.4120710947128527e-7,2.273255288035427e-8,4.986217230658454e-8,6
59163,6.067914553627941e-8,1.3789755513577524e-9,1.3446052270494594e-9,2.821254222198542e-9,4.108296998680602e-8,1.4112562697978446e-7,2.2731782939039047e-8,4.983369767320662e-8,6
59164,6.070950256032608e-8,1.378012685733577e-9,1.344592183067949e-9,2.820546789267243e-9,4.1032213704641764e-8,1.4104414448828365e-7,2.2731012997723825e-8,4.9805223039828703e-8,6
59165,6.073985958437276e-8,1.3770498201094016e-9,1.3445791390864384e-9,2.8198393563359436e-9,4.0981457422477507e-8,1.4096266199678284e-7,2.2730243056408603e-8,4.977674840645079e-8,6
59166,6.077021660841944e-8,1.3760869544852262e-9,1.344566095104928e-9,2.8191319234046446e-9,4.0930701140313256e-8,1.4088117950528204e-7,2.272947311509338e-8,4.974827377307287e-8,6
59167,6.080057363246611e-8,1.3751240888610508e-9,1.3445530511234174e-9,2.8184244904733452e-9,4.0879944858149e-8,1.4079969701378123e-7,2.2728703173778155e-8,4.9719799139694953e-8,6
59168,6.083093065651279e-8,1.3741612232368754e-9,1.3445400071419068e-9,2.8177170575420463e-9,4.082918857598475e-8,1.4071821452228042e-7,2.2727933232462933e-8,4.9691324506317037e-8,6
59169,6.086128768055946e-8,1.3731983576127e-9,1.3445269631603964e-9,2.817009624610747e-9,4.077843229382049e-8,1.4063673203077961e-7,2.272716329114771e-8,4.966284987293912e-8,6
59170,6.090709540821069e-8,1.3722354919885246e-9,1.3447698177282445e-9,2.817666979961015e-9,4.0687888141197306e-8,1.382050842856504e-7,2.2438878896834204e-8,4.960249046107935e-8,6
59171,6.095290313586191e-8,1.371272626364349e-9,1.345012672296093e-9,2.818324335311283e-9,4.059734398857412e-8,1.357734365405212e-7,2.2150594502520693e-8,4.9542131049219576e-8,6
59172,6.119580960490032e-8,1.3724329076317702e-9,1.3412394139632641e-9,2.8171953580068154e-9,4.0048909785964536e-8,1.3648252769394243e-7,2.216022567120211e-8,4.9502010847894716e-8,6
59173,6.130391890008693e-8,1.3714007607871177e-9,1.3374661556304356e-9,2.8154361565150875e-9,3.973711347561955e-8,1.3658406401695156e-7,2.2160152965737402e-8,4.939644486631182e-8,6
59174,6.141202819527355e-8,1.3703686139424651e-9,1.3336928972976068e-9,2.813676955023359e-9,3.942531716527456e-8,1.3668560033996069e-7,2.2160080260272694e-8,4.929087888472891e-8,6
59175,6.152013749046017e-8,1.3693364670978126e-9,1.3299196389647782e-9,2.8119177535316307e-9,3.911352085492957e-8,1.3678713666296979e-7,2.2160007554807987e-8,4.9185312903146015e-8,6
59176,6.162824678564678e-8,1.3683043202531602e-9,1.3261463806319495e-9,2.8101585520399028e-9,3.8801724544584584e-8,1.368886729859789e-7,2.215993484934328e-8,4.907974692156311e-8,6
59177,6.171888907870227e-8,1.3661118921410866e-9,1.3201874311884868e-9,2.7952731672677317e-9,3.901576524395701e-8,1.3700133084413565e-7,2.194147589143875e-8,4.9026086685189124e-8,6
59178,6.180953137175777e-8,1.363919464029013e-9,1.3142284817450241e-9,2.780387782495561e-9,3.9229805943329425e-8,1.3711398870229238e-7,2.1723016933534215e-8,4.897242644881514e-8,6
59179,6.190017366481327e-8,1.3617270359169394e-9,1.3082695323015612e-9,2.76550239772339e-9,3.944384664270184e-8,1.3722664656044912e-7,2.1504557975629685e-8,4.891876621244115e-8,6
59180,6.199081595786878e-8,1.3595346078048657e-9,1.3023105828580986e-9,2.750617012951219e-9,3.9657887342074266e-8,1.3733930441860585e-7,2.1286099017725155e-8,4.8865105976067165e-8,6
59181,6.208145825092428e-8,1.3573421796927921e-9,1.2963516334146357e-9,2.7357316281790484e-9,3.9871928041446683e-8,1.374519622767626e-7,2.106764005982062e-8,4.881144573969318e-8,6
59182,6.217210054397978e-8,1.3551497515807185e-9,1.290392683971173e-9,2.7208462434068773e-9,4.00859687408191e-8,1.3756462013491932e-7,2.084918110191609e-8,4.875778550331919e-8,6
59183,6.226274283703528e-8,1.352957323468645e-9,1.2844337345277101e-9,2.7059608586347063e-9,4.0300009440191525e-8,1.3767727799307606e-7,2.063072214401156e-8,4.870412526694521e-8,6
59184,6.235338513009078e-8,1.3507648953565713e-9,1.2784747850842475e-9,2.6910754738625356e-9,4.051405013956394e-8,1.377899358512328e-7,2.0412263186107027e-8,4.865046503057122e-8,6
59185,6.244402742314629e-8,1.3485724672444977e-9,1.2725158356407846e-9,2.6761900890903646e-9,4.0728090838936366e-8,1.3790259370938953e-7,2.0193804228202497e-8,4.8596804794197234e-8,6
59186,6.253466971620179e-8,1.346380039132424e-9,1.266556886197322e-9,2.661304704318194e-9,4.094213153830878e-8,1.3801525156754627e-7,1.9975345270297967e-8,4.854314455782325e-8,6
59187,6.262531200925729e-8,1.3441876110203504e-9,1.2605979367538592e-9,2.646419319546023e-9,4.11561722376812e-8,1.38127909425703e-7,1.9756886312393433e-8,4.848948432144926e-8,6
59188,6.271595430231279e-8,1.3419951829082768e-9,1.2546389873103964e-9,2.631533934773852e-9,4.1370212937053624e-8,1.3824056728385974e-7,1.9538427354488903e-8,4.8435824085075276e-8,6
59189,6.280659659536829e-8,1.3398027547962032e-9,1.2486800378669337e-9,2.6166485500016813e-9,4.158425363642604e-8,1.3835322514201647e-7,1.9319968396584373e-8,4.838216384870129e-8,6
59190,6.28972388884238e-8,1.3376103266841296e-9,1.2427210884234708e-9,2.6017631652295102e-9,4.179829433579846e-8,1.384658830001732e-7,1.910150943867984e-8,4.8328503612327303e-8,6
59191,6.29878811814793e-8,1.3354178985720562e-9,1.2367621389800081e-9,2.586877780457339e-9,4.201233503517088e-8,1.3857854085832994e-7,1.888305048077531e-8,4.827484337595331e-8,6
59192,6.311815153233015e-8,1.3354178985720562e-9,1.2329888806471794e-9,2.577324262486368e-9,4.2365219170571706e-8,1.3869891100638987e-7,1.8825291814262015e-8,4.826510883491293e-8,6
59193,6.25295635230221e-8,1.3314971548548774e-9,1.231006912159862e-9,2.576222416344908e-9,4.2554667664583125e-8,1.3851368786651001e-7,1.882926729810673e-8,4.799553877147164e-8,6
59194,6.194097551371405e-8,1.3275764111376986e-9,1.2290249436725447e-9,2.575120570203448e-9,4.274411615859454e-8,1.3832846472663016e-7,1.8833242781951444e-8,4.772596870803035e-8,6
59195,6.1352387504406e-8,1.3236556674205199e-9,1.2270429751852273e-9,2.5740187240619877e-9,4.2933564652605957e-8,1.381432415867503e-7,1.8837218265796158e-8,4.7456398644589055e-8,6
59196,6.076379949509794e-8,1.3197349237033411e-9,1.2250610066979097e-9,2.572916877920528e-9,4.312301314661737e-8,1.3795801844687043e-7,1.8841193749640872e-8,4.7186828581147766e-8,6
59197,6.017521148578989e-8,1.3158141799861621e-9,1.2230790382105924e-9,2.5718150317790677e-9,4.331246164062878e-8,1.3777279530699057e-7,1.8845169233485587e-8,4.6917258517706477e-8,6
59198,5.958662347648184e-8,1.3118934362689834e-9,1.221097069723275e-9,2.5707131856376075e-9,4.35019101346402e-8,1.3758757216711072e-7,1.88491447173303e-8,4.664768845426518e-8,6
59199,5.899803546717379e-8,1.3079726925518046e-9,1.2191151012359575e-9,2.5696113394961477e-9,4.369135862865161e-8,1.3740234902723086e-7,1.8853120201175015e-8,4.637811839082389e-8,6
59200,5.8409447457865735e-8,1.3040519488346258e-9,1.2171331327486401e-9,2.5685094933546875e-9,4.3880807122663026e-8,1.37217125887351e-7,1.885709568501973e-8,4.61085483273826e-8,6
59201,5.782085944855768e-8,1.300131205117447e-9,1.2151511642613228e-9,2.5674076472132273e-9,4.4070255616674445e-8,1.3703190274747115e-7,1.8861071168864444e-8,4.583897826394131e-8,6
59202,5.7148448986472246e-8,1.3002697675584014e-9,1.2139368914220815e-9,2.5729982714095506e-9,4.391618182715772e-8,1.3673402174943454e-7,1.895874462584724e-8,4.550424122141088e-8,6
59203,5.643440481109377e-8,1.3024968362807135e-9,1.2206504925321101e-9,2.6123768212508786e-9,4.395681078357828e-8,1.364282945815087e-7,1.896554322784777e-8,4.5254638993167566e-8,6
59204,5.571770416676647e-8,1.3024968362807135e-9,1.2194101317298479e-9,2.6130341766011467e-9,4.404255747447426e-8,1.3682036169064347e-7,1.898358558662487e-8,4.489890118818536e-8,6
59205,5.500100352243918e-8,1.3024968362807135e-9,1.2181697709275856e-9,2.613691531951415e-9,4.412830416537024e-8,1.372124287997782e-7,1.900162794540197e-8,4.454316338320316e-8,6
59206,5.4295155315443133e-8,1.3007685206756083e-9,1.21594494787242e-9,2.6128254967870545e-9,4.398155836999376e-8,1.369118381295935e-7,1.900342447513749e-8,4.419568157041941e-8,6
59207,5.358930710844709e-8,1.2990402050705032e-9,1.2137201248172544e-9,2.611959461622694e-9,4.383481257461728e-8,1.3661124745940878e-7,1.900522100487301e-8,4.3848199757635664e-8,6
59208,5.2883458901451054e-8,1.297311889465398e-9,1.2114953017620886e-9,2.6110934264583337e-9,4.36880667792408e-8,1.3631065678922407e-7,1.900701753460853e-8,4.350071794485192e-8,6
59209,5.217761069445501e-8,1.2955835738602929e-9,1.2092704787069231e-9,2.6102273912939733e-9,4.354132098386431e-8,1.3601006611903935e-7,1.900881406434405e-8,4.315323613206817e-8,6
59210,5.147176248745897e-8,1.2938552582551877e-9,1.2070456556517574e-9,2.609361356129613e-9,4.339457518848783e-8,1.3570947544885463e-7,1.901061059407957e-8,4.2805754319284425e-8,6
59211,5.0765914280462924e-8,1.2921269426500826e-9,1.2048208325965917e-9,2.608495320965253e-9,4.324782939311135e-8,1.3540888477866992e-7,1.901240712381509e-8,4.245827250650068e-8,6
59212,5.006006607346689e-8,1.2903986270449774e-9,1.2025960095414261e-9,2.6076292858008924e-9,4.310108359773487e-8,1.3510829410848518e-7,1.9014203653550607e-8,4.2110790693716925e-8,6
59213,4.9354217866470844e-8,1.2886703114398723e-9,1.2003711864862604e-9,2.606763250636532e-9,4.2954337802358385e-8,1.3480770343830046e-7,1.9016000183286127e-8,4.176330888093318e-8,6
59214,4.924826628711584e-8,1.2885663896091566e-9,1.1981072314865633e-9,2.606763250636532e-9,4.296838058016742e-8,1.3329917417946739e-7,1.8939090415585662e-8,4.1292407670419045e-8,6
59215,4.926374891980699e-8,1.2816773397807889e-9,1.1858421261797053e-9,2.5810138219378377e-9,4.2849829601671714e-8,1.331852793290091e-7,1.8930839177512335e-8,4.12407070254945e-8,6
59216,4.927923155249815e-8,1.2747882899524211e-9,1.1735770208728476e-9,2.5552643932391434e-9,4.2731278623176006e-8,1.3307138447855083e-7,1.8922587939439008e-8,4.118900638056995e-8,6
59217,4.92947141851893e-8,1.2678992401240534e-9,1.1613119155659896e-9,2.5295149645404486e-9,4.2612727644680305e-8,1.3295748962809255e-7,1.8914336701365678e-8,4.11373057356454e-8,6
59218,4.931019681788046e-8,1.2610101902956856e-9,1.1490468102591318e-9,2.5037655358417543e-9,4.24941766661846e-8,1.3284359477763427e-7,1.890608546329235e-8,4.108560509072086e-8,6
59219,4.9325679450571614e-8,1.2541211404673179e-9,1.1367817049522739e-9,2.47801610714306e-9,4.237562568768889e-8,1.32729699927176e-7,1.8897834225219025e-8,4.103390444579631e-8,6
59220,4.934116208326277e-8,1.2472320906389501e-9,1.124516599645416e-9,2.4522666784443656e-9,4.225707470919318e-8,1.3261580507671771e-7,1.8889582987145698e-8,4.098220380087176e-8,6
59221,4.9356644715953926e-8,1.2403430408105826e-9,1.1122514943385582e-9,2.426517249745671e-9,4.213852373069748e-8,1.3250191022625944e-7,1.888133174907237e-8,4.093050315594722e-8,6
59222,4.9372127348645085e-8,1.2334539909822148e-9,1.0999863890317002e-9,2.4007678210469765e-9,4.201997275220177e-8,1.3238801537580116e-7,1.887308051099904e-8,4.087880251102267e-8,6
59223,4.938760998133624e-8,1.226564941153847e-9,1.0877212837248424e-9,2.3750183923482822e-9,4.1901421773706064e-8,1.3227412052534288e-7,1.8864829272925714e-8,4.082710186609812e-8,6
59224,4.94030926140274e-8,1.2196758913254793e-9,1.0754561784179845e-9,2.349268963649588e-9,4.1782870795210356e-8,1.321602256748846e-7,1.8856578034852387e-8,4.0775401221173575e-8,6
59225,4.941857524671855e-8,1.2127868414971116e-9,1.0631910731111267e-9,2.3235195349508935e-9,4.1664319816714654e-8,1.3204633082442632e-7,1.884832679677906e-8,4.0723700576249026e-8,6
59226,4.943405787940971e-8,1.2058977916687438e-09,1.0509259678042688e-9,2.297770106252199e-9,4.1545768838218946e-8,1.3193243597396804e-7,1.884007555870573e-8,4.0671999931324476e-8,6
59227,4.944954051210086e-8,1.199008741840376e-9,1.0386608624974108e-9,2.2720206775535045e-9,4.142721785972324e-8,1.3181854112350977e-7,1.8831824320632404e-8,4.0620299286399933e-8,6
59228,4.943697283898113e-8,1.199008741840376e-9,1.0384180079295626e-9,2.271154642389144e-9,4.1330957468883986e-8,1.318224642084544e-7,1.8755176292604886e-8,4.058357894550129e-8,6
59229,4.942440516586139e-8,1.199008741840376e-9,1.0381751533617145e-9,2.2702886072247836e-9,4.123469707804473e-8,1.3182638729339904e-7,1.8678528264577368e-8,4.054685860460264e-8,6
59230,4.940185178736865e-8,1.2031373292189861e-9,1.0401962537935634e-9,2.2698169852705845e-9,4.112439390939644e-8,1.3191363232208326e-7,1.8604131896123752e-8,4.0500127780340474e-8,6
59231,4.937929840887591e-8,1.201977047951565e-9,1.0402092977750738e-9,2.268950950106224e-9,4.101788965702263e-8,1.3225164646190255e-7,1.8529662822205428e-8,4.047124580523959e-8,6
59232,4.935674503038316e-8,1.200816766684144e-9,1.0402223417565844e-9,2.2680849149418636e-9,4.091138540464882e-8,1.3258966060172184e-7,1.8455193748287104e-8,4.0442363830138695e-8,6
59233,4.933419165189042e-8,1.199656485416723e-9,1.0402353857380948e-9,2.2672188797775032e-9,4.0804881152275016e-8,1.3292767474154115e-7,1.8380724674368777e-8,4.041348185503781e-8,6
59234,4.9311638273397674e-8,1.198496204149302e-9,1.0402484297196055e-9,2.266352844613143e-9,4.069837689990121e-8,1.3326568888136044e-7,1.8306255600450453e-8,4.0384599879936923e-8,6
59235,4.928908489490493e-8,1.1973359228818809e-9,1.0402614737011159e-9,2.265486809448783e-9,4.05918726475274e-8,1.3360370302117973e-7,1.823178652653213e-8,4.035571790483604e-8,6
59236,4.929141595712819e-8,1.196071719783744e-9,1.0395068220345501e-9,2.2657226204258822e-09,4.059359990002412e-8,1.3301797263526064e-7,1.8117126381378417e-8,4.031185562570925e-8,6
59237,4.929374701935144e-8,1.1948075166856073e-9,1.0387521703679844e-9,2.265958431402982e-9,4.0595327152520844e-8,1.3243224224934155e-7,1.8002466236224705e-8,4.026799334658246e-8,6
59238,4.92960780815747e-8,1.1935433135874706e-9,1.0379975187014187e-9,2.266194242380082e-9,4.0597054405017565e-8,1.3184651186342245e-7,1.7887806091070993e-8,4.022413106745567e-8,6
59239,4.9298409143797955e-8,1.192279110489334e-9,1.037242867034853e-9,2.2664300533571816e-9,4.059878165751429e-8,1.3126078147750336e-7,1.777314594591728e-8,4.018026878832888e-8,6
59240,4.930074020602121e-8,1.1910149073911972e-9,1.0364882153682873e-9,2.2666658643342814e-9,4.0600508910011014e-8,1.3067505109158427e-7,1.7658485800763565e-8,4.013640650920208e-8,6
59241,4.930307126824447e-8,1.1897507042930603e-9,1.0357335637017216e-9,2.266901675311381e-9,4.0602236162507735e-8,1.3008932070566518e-7,1.7543825655609853e-8,4.009254423007529e-8,6
59242,4.930540233046772e-8,1.1884865011949236e-9,1.0349789120351559e-9,2.267137486288481e-9,4.0603963415004457e-8,1.2950359031974608e-7,1.742916551045614e-8,4.00486819509485e-8,6
59243,4.932204517275607e-8,1.1861901512521344e-9,1.0342242603685902e-9,2.2714676621102826e-9,4.06572932317186e-8,1.2872214599264173e-7,1.7312268246821466e-8,4.007489305536641e-8,6
59244,4.9348836423780207e-8,1.184160498173068e-9,1.0372298230533424e-9,2.2925968416840604e-9,4.066926434574987e-8,1.281550853786214e-7,1.722166458003722e-8,4.0046927459783434e-8,6
59245,4.9348836423780207e-8,1.1821308450940015e-9,1.0372298230533424e-9,2.2950634761070878e-9,4.0701876485468116e-8,1.2750187245604925e-7,1.7269195893058494e-8,4.002497489679436e-8,6
59246,4.9348836423780207e-8,1.180101192014935e-9,1.0372298230533424e-9,2.297530110530115e-9,4.073448862518636e-8,1.268486595334771e-7,1.731672720607977e-8,4.0003022333805287e-8,6
59247,4.9348836423780207e-8,1.1780715389358684e-9,1.0372298230533424e-9,2.2999967449531425e-9,4.07671007649046e-8,1.2619544661090497e-7,1.7364258519101043e-8,3.998106977081621e-8,6
59248,4.9348836423780207e-8,1.176041885856802e-9,1.0372298230533424e-9,2.30246337937617e-9,4.0799712904622845e-8,1.255422336883328e-7,1.7411789832122318e-8,3.9959117207827145e-8,6
59249,4.9348836423780207e-8,1.1740122327777355e-9,1.0372298230533424e-9,2.304930013799197e-9,4.083232504434109e-8,1.2488902076576066e-7,1.745932114514359e-8,3.993716464483807e-8,6
59250,4.9348836423780207e-8,1.171982579698669e-9,1.0372298230533424e-9,2.307396648222225e-9,4.086493718405933e-8,1.2423580784318852e-7,1.7506852458164864e-8,3.9915212081849e-8,6
59251,4.90619469510975e-8,1.1681899704042588e-9,1.0319733493504034e-9,2.2969499639238858e-9,4.060876815125981e-8,1.243534598261783e-7,1.7650231616247528e-8,3.9876284202365194e-8,6
59252,4.877505747841478e-8,1.1643973611098488e-9,1.0267168756474642e-9,2.2865032796255465e-09,4.035259911846029e-8,1.244711118091681e-7,1.7793610774330192e-8,3.983735632288139e-8,6
59253,4.848816800573207e-8,1.1606047518154385e-9,1.0214604019445253e-9,2.2760565953272073e-9,4.009643008566077e-8,1.2458876379215788e-7,1.7936989932412856e-8,3.979842844339759e-8,6
59254,4.820127853304935e-8,1.1568121425210284e-9,1.016203928241586e-9,2.265609911028868e-9,3.984026105286125e-8,1.2470641577514767e-7,1.808036909049552e-8,3.9759500563913786e-08,6
59255,4.7914389060366645e-8,1.1530195332266181e-9,1.010947454538647e-9,2.2551632267305294e-09,3.958409202006172e-8,1.2482406775813746e-7,1.8223748248578184e-8,3.9720572684429976e-8,6
59256,4.762749958768393e-8,1.1492269239322079e-9,1.005690980835708e-9,2.24471654243219e-9,3.93279229872622e-8,1.2494171974112725e-7,1.8367127406660848e-8,3.968164480494617e-8,6
59257,4.7340610115001215e-8,1.1454343146377978e-9,1.000434507132769e-9,2.234269858133851e-9,3.9071753954462677e-8,1.2505937172411704e-7,1.8510506564743512e-8,3.964271692546237e-8,6
59258,4.70537206423185e-8,1.1416417053433875e-9,9.951780334298297e-10,2.2238231738355117e-9,3.8815584921663155e-8,1.2517702370710682e-7,1.8653885722826176e-8,3.960378904597857e-8,6
59259,4.676683116963579e-8,1.1378490960489775e-9,9.899215597268908e-10,2.213376489537173e-9,3.8559415888863634e-8,1.252946756900966e-7,1.879726488090884e-8,3.9564861166494764e-8,6
59260,4.6479941696953076e-8,1.1340564867545672e-9,9.846650860239516e-10,2.2029298052388337e-9,3.830324685606411e-8,1.254123276730864e-7,1.89406440389915e-8,3.952593328701096e-8,6
59261,4.619305222427036e-8,1.130263877460157e-9,9.794086123210126e-10,2.1924831209404945e-9,3.804707782326459e-8,1.255299796560762e-7,1.9084023197074164e-8,3.948700540752716e-8,6
59262,4.5906162751587646e-8,1.1264712681657469e-9,9.741521386180734e-10,2.1820364366421553e-9,3.779090879046507e-8,1.2564763163906598e-7,1.9227402355156828e-8,3.944807752804335e-8,6
59263,4.561927327890493e-8,1.1226786588713366e-9,9.688956649151344e-10,2.171589752343816e-9,3.753473975766555e-8,1.2576528362205576e-7,1.9370781513239492e-8,3.9409149648559546e-8,6
59264,4.533238380622222e-8,1.1188860495769265e-9,9.636391912121952e-10,2.1611430680454773e-9,3.727857072486603e-8,1.2588293560504555e-7,1.9514160671322156e-8,3.937022176907574e-8,6
59265,4.504549433353951e-8,1.1150934402825162e-9,9.583827175092563e-10,2.150696383747138e-9,3.702240169206651e-8,1.2600058758803534e-7,1.965753982940482e-8,3.933129388959194e-8,6
59266,4.486242306836767e-8,1.1112661903778675e-9,9.523585481582408e-10,2.138413289213032e-9,3.681215679131365e-8,1.260264558101371e-7,1.9674768623587874e-8,3.927518559332904e-8,6
59267,4.4597001265782596e-8,1.1095032341625239e-9,9.483554792390744e-10,2.127966604914693e-9,3.653664980507899e-8,1.2662395545089007e-7,1.9680012801865017e-8,3.93380816176262e-8,6
59268,4.433157946319752e-8,1.10774027794718e-9,9.443524103199081e-10,2.1175199206163538e-9,3.6261142818844334e-8,1.2722145509164304e-7,1.9685256980142163e-8,3.940097764192336e-8,6
59269,4.406615766061244e-8,1.1059773217318364e-9,9.403493414007418e-10,2.107073236318015e-9,3.598563583260967e-8,1.2781895473239602e-7,1.9690501158419305e-8,3.946387366622053e-8,6
59270,4.380073585802737e-8,1.1042143655164926e-9,9.363462724815752e-10,2.0966265520196758e-9,3.5710128846375016e-8,1.2841645437314902e-7,1.969574533669645e-8,3.9526769690517686e-8,6
59271,4.3535314055442297e-8,1.102451409301149e-9,9.32343203562409e-10,2.0861798677213366e-9,3.543462186014036e-8,1.29013954013902e-7,1.9700989514973594e-8,3.958966571481485e-8,6
59272,4.354829227951855e-8,1.104515702990454e-9,9.336226963092028e-10,2.080507850035991e-9,3.5262591919185875e-8,1.295557809381849e-7,1.9706379104180152e-8,3.972949369272975e-8,6
59273,4.3567428887392935e-8,1.1028913092160645e-9,9.269482271437058e-10,2.0680890996868478e-9,3.527122298557795e-8,1.289451949229815e-7,1.964647056574355e-8,3.986442269202105e-8,6
59274,4.358656549526732e-8,1.1012669154416748e-9,9.202737579782088e-10,2.055670349337704e-9,3.5279854051970026e-8,1.283346089077781e-7,1.9586562027306944e-8,3.9999351691312355e-8,6
59275,4.3605702103141704e-8,1.0996425216672853e-9,9.135992888127119e-10,2.043251598988561e-9,3.52884851183621e-8,1.277240228925747e-7,1.952665348887034e-8,4.0134280690603654e-8,6
59276,4.362483871101609e-8,1.0980181278928958e-9,9.069248196472149e-10,2.030832848639417e-9,3.529711618475417e-8,1.2711343687737129e-7,1.946674495043374e-8,4.0269209689894954e-8,6
59277,4.364397531889047e-8,1.0963937341185063e-9,9.002503504817179e-10,2.0184140982902734e-9,3.530574725114625e-8,1.2650285086216788e-7,1.9406836411997134e-8,4.040413868918625e-8,6
59278,4.366311192676486e-8,1.0947693403441167e-9,8.93575881316221e-10,2.00599534794113e-9,3.531437831753832e-8,1.2589226484696447e-7,1.934692787356053e-8,4.053906768847755e-8,6
59279,4.368224853463924e-8,1.0931449465697272e-9,8.869014121507241e-10,1.9935765975919865e-9,3.532300938393039e-8,1.2528167883176107e-7,1.9287019335123926e-8,4.067399668776886e-8,6
59280,4.3701385142513627e-8,1.0915205527953377e-9,8.802269429852271e-10,1.981157847242843e-9,3.533164045032247e-8,1.2467109281655766e-7,1.9227110796687323e-8,4.080892568706016e-8,6
59281,4.371569692257872e-8,1.0878318653316433e-9,8.715313733878812e-10,1.966508273447772e-9,3.532630746865106e-8,1.2331676029751756e-7,1.9161958079973575e-8,4.0800001262479514e-8,6
59282,4.373310006653661e-8,1.08487398723864e-9,8.62592949222687e-10,1.952724734817061e-9,3.532630746865106e-8,1.220629232347642e-7,1.910204954153697e-8,4.0863297202667686e-8,6
59283,4.3750503210494506e-8,1.0819161091456365e-9,8.536545250574929e-10,1.9389411961863503e-9,3.532630746865106e-8,1.2080908617201082e-7,1.9042141003100367e-8,4.092659314285585e-8,6
59284,4.37679063544524e-8,1.0789582310526332e-9,8.447161008922988e-10,1.9251576575556394e-9,3.532630746865106e-8,1.1955524910925745e-7,1.898223246466376e-8,4.098988908304402e-8,6
59285,4.37853094984103e-8,1.0760003529596298e-9,8.357776767271046e-10,1.9113741189249286e-9,3.532630746865106e-8,1.1830141204650406e-7,1.892232392622716e-8,4.105318502323219e-8,6
59286,4.380504370459145e-8,1.074666868641016e-9,8.29510652808241e-10,1.8913467854926106e-9,3.500691124732049e-8,1.1840975367268003e-7,1.8832040163487625e-8,4.1125164866697246e-8,6
59287,4.38247779107726e-8,1.0733333843224021e-9,8.232436288893775e-10,1.871319452060293e-9,3.468751502598992e-8,1.18518095298856e-7,1.8741756400748094e-8,4.11971447101623e-8,6
59288,4.384451211695375e-8,1.0719999000037883e-9,8.169766049705139e-10,1.851292118627975e-9,3.436811880465936e-8,1.1862643692503198e-7,1.865147263800856e-8,4.1269124553627355e-8,6
59289,4.3864246323134904e-8,1.0706664156851744e-9,8.107095810516503e-10,1.831264785195657e-9,3.4048722583328794e-8,1.1873477855120796e-7,1.856118887526903e-8,4.134110439709241e-8,6
59290,4.3883980529316055e-8,1.0693329313665608e-9,8.044425571327867e-10,1.8112374517633392e-9,3.372932636199823e-8,1.1884312017738393e-7,1.8470905112529495e-8,4.1413084240557465e-8,6
59291,4.3903714735497206e-8,1.067999447047947e-9,7.981755332139232e-10,1.7912101183310214e-9,3.3409930140667665e-8,1.189514618035599e-7,1.8380621349789964e-8,4.1485064084022516e-8,6
59292,4.392344894167836e-8,1.066665962729333e-9,7.919085092950596e-10,1.7711827848987034e-9,3.30905339193371e-8,1.1905980342973587e-7,1.829033758705043e-8,4.1557043927487574e-8,6
59293,4.336879596115844e-8,1.0673967721000242e-9,7.857067052837487e-10,1.7641459789317906e-9,3.3041847222513993e-8,1.1740666314493989e-7,1.8096371340303614e-8,4.148541086838444e-8,6
59294,4.281414298063853e-8,1.0681275814707154e-9,7.795049012724376e-10,1.757109172964878e-9,3.299316052569088e-8,1.1575352286014391e-7,1.7902405093556795e-8,4.1413777809281305e-8,6
59295,4.2259490000118616e-8,1.0688583908414067e-9,7.733030972611267e-10,1.750072366997965e-9,3.294447382886777e-8,1.1410038257534792e-7,1.7708438846809975e-8,4.134214475017818e-8,6
59296,4.170483701959871e-8,1.0695892002120978e-9,7.671012932498156e-10,1.7430355610310522e-9,3.289578713204466e-8,1.1244724229055193e-7,1.7514472600063156e-8,4.127051169107504e-8,6
59297,4.115018403907879e-8,1.070320009582789e-9,7.608994892385047e-10,1.7359987550641395e-9,3.284710043522155e-8,1.1079410200575595e-7,1.7320506353316337e-8,4.119887863197191e-8,6
59298,4.0595531058558876e-8,1.0710508189534803e-9,7.546976852271937e-10,1.7289619490972267e-9,3.279841373839844e-8,1.0914096172095997e-7,1.712654010656952e-8,4.112724557286878e-8,6
59299,4.004087807803897e-8,1.0717816283241714e-9,7.484958812158827e-10,1.7219251431303138e-9,3.274972704157533e-8,1.0748782143616397e-7,1.69325738598227e-8,4.1055612513765646e-8,6
59300,3.948622509751905e-8,1.0725124376948627e-9,7.422940772045717e-10,1.7148883371634011e-9,3.2701040344752225e-08,1.0583468115136799e-7,1.6738607613075882e-8,4.098397945466251e-8,6
59301,3.893157211699914e-8,1.073243247065554e-9,7.360922731932607e-10,1.7078515311964883e-9,3.2652353647929115e-8,1.0418154086657201e-7,1.6544641366329062e-8,4.0912346395559384e-8,6
59302,3.8376919136479227e-8,1.073974056436245e-9,7.298904691819497e-10,1.7008147252295754e-9,3.2603666951106004e-8,1.0252840058177603e-7,1.6350675119582246e-8,4.084071333645625e-8,6
59303,3.782226615595932e-8,1.0747048658069363e-9,7.236886651706387e-10,1.6937779192626625e-9,3.2554980254282894e-8,1.0087526029698003e-7,1.6156708872835427e-8,4.0769080277353115e-8,6
59304,3.724387830129173e-8,1.0747048658069363e-9,7.174868611593277e-10,1.6862694913415503e-9,3.249762260658579e-8,9.916945959540017e-8,1.5941422019317307e-8,4.064111611119302e-8,6
59305,3.6756826125246236e-8,1.0747395064171748e-9,7.115279117158649e-10,1.6783666502102772e-9,3.244064821543333e-8,9.877510993284152e-8,1.5747295820548133e-8,4.049726268732108e-8,6
59306,3.626977394920074e-8,1.0747741470274134e-9,7.055689622724021e-10,1.6704638090790041e-9,3.2383673824280874e-8,9.838076027028288e-8,1.5553169621778956e-8,4.0353409263449136e-8,6
59307,3.578272177315525e-8,1.074808787637652e-9,6.996100128289394e-10,1.6625609679477309e-9,3.232669943312842e-8,9.798641060772423e-8,1.5359043423009782e-8,4.020955583957719e-8,6
59308,3.5833375614673504e-8,1.0750754845013747e-9,6.996100128289394e-10,1.6603301445018033e-9,3.228403557975711e-8,9.914571836649227e-8,1.5245322619718717e-8,4.020955583957719e-8,6
59309,3.5922542934435124e-8,1.074379315740922e-9,6.996100128289394e-10,1.6605659554789029e-9,3.2208072842542094e-8,9.998456076330237e-8,1.5080109560654603e-8,4.0193524897787786e-8,6
59310,3.6011710254196743e-8,1.0736831469804693e-9,6.996100128289394e-10,1.6608017664560027e-9,3.213211010532707e-8,1.0082340316011248e-7,1.4914896501590493e-8,4.017749395599839e-8,6
59311,3.610087757395836e-8,1.0729869782200167e-9,6.996100128289394e-10,1.6610375774331025e-9,3.205614736811206e-8,1.0166224555692258e-7,1.474968344252638e-8,4.016146301420899e-8,6
59312,3.619004489371998e-8,1.072290809459564e-9,6.996100128289394e-10,1.6612733884102023e-9,3.1980184630897044e-8,1.0250108795373268e-7,1.458447038346227e-8,4.014543207241959e-8,6
59313,3.62792122134816e-8,1.0715946406991113e-9,6.996100128289394e-10,1.6615091993873019e-9,3.190422189368202e-8,1.0333993035054278e-7,1.4419257324398158e-8,4.012940113063018e-8,6
59314,3.636837953324322e-8,1.0708984719386588e-9,6.996100128289394e-10,1.6617450103644017e-9,3.182825915646701e-8,1.0417877274735288e-7,1.4254044265334046e-8,4.011337018884078e-8,6
59315,3.645754685300484e-8,1.0702023031782062e-9,6.996100128289394e-10,1.6619808213415015e-9,3.1752296419251994e-8,1.0501761514416298e-7,1.4088831206269934e-8,4.0097339247051384e-8,6
59316,3.654671417276646e-8,1.0695061344177534e-9,6.996100128289394e-10,1.662216632318601e-9,3.167633368203697e-8,1.0585645754097309e-7,1.3923618147205823e-8,4.0081308305261984e-8,6
59317,3.65570359278939e-8,1.0724640125107567e-9,7.003516205139947e-10,1.662216632318601e-9,3.1649940690525236e-08,1.060295097860609e-7,1.376413347844312e-8,4.0081308305261984e-8,6
59318,3.655886823699995e-8,1.0717332031400657e-9,7.040727029207812e-10,1.6734792742002694e-09,3.1749383669512604e-8,1.0550906610434695e-7,1.3700913253869238e-8,4.0137497728241394e-8,6
59319,3.6560700546106e-8,1.0710023937693744e-9,7.077937853275679e-10,1.6847419160819378e-9,3.1848826648499966e-8,1.04988622422633e-7,1.3637693029295357e-8,4.0193687151220804e-8,6
59320,3.656253285521205e-8,1.0702715843986831e-9,7.115148677343544e-10,1.6960045579636062e-9,3.1948269627487333e-8,1.0446817874091905e-7,1.3574472804721476e-8,4.0249876574200214e-8,6
59321,3.6564365164318095e-8,1.069540775027992e-9,7.152359501411411e-10,1.7072671998452746e-9,3.2047712606474695e-8,1.0394773505920509e-7,1.3511252580147593e-8,4.0306065997179623e-8,6
59322,3.656619747342414e-8,1.0688099656573008e-9,7.189570325479276e-10,1.718529841726943e-9,3.2147155585462056e-8,1.0342729137749115e-7,1.3448032355573712e-8,4.036225542015903e-8,6
59323,3.656802978253019e-8,1.0680791562866095e-9,7.226781149547142e-10,1.7297924836086116e-9,3.2246598564449424e-8,1.029068476957772e-7,1.338481213099983e-8,4.041844484313844e-8,6
59324,3.6569862091636244e-8,1.0673483469159184e-9,7.263991973615008e-10,1.74105512549028e-9,3.2346041543436785e-8,1.0238640401406325e-7,1.3321591906425948e-8,4.047463426611785e-8,6
59325,3.657169440074229e-8,1.0666175375452272e-9,7.301202797682874e-10,1.7523177673719483e-9,3.244548452242415e-8,1.0186596033234929e-7,1.3258371681852067e-8,4.053082368909726e-8,6
59326,3.657352670984834e-8,1.0658867281745359e-9,7.33841362175074e-10,1.7635804092536167e-9,3.2544927501411514e-8,1.0134551665063534e-7,1.3195151457278185e-8,4.058701311207667e-8,6
59327,3.657535901895439e-8,1.0651559188038448e-9,7.375624445818606e-10,1.7748430511352851e-9,3.264437048039888e-8,1.008250729689214e-7,1.3131931232704304e-8,4.064320253505608e-8,6
59328,3.6577191328060435e-8,1.0644251094331535e-9,7.412835269886472e-10,1.7861056930169535e-9,3.274381345938624e-8,1.0030462928720745e-7,1.3068711008130421e-8,4.069939195803549e-8,6
59329,3.657902363716649e-8,1.0636943000624623e-9,7.450046093954338e-10,1.7973683348986219e-9,3.284325643837361e-8,9.978418560549349e-8,1.300549078355654e-8,4.075558138101491e-8,6
59330,3.657902363716649e-8,1.0636596594522238e-9,7.479840841171652e-10,1.7973683348986219e-9,3.2951254871662425e-8,9.967152774733676e-8,1.308157753813789e-8,4.081887732120307e-8,6
59331,3.6533269124659616e-8,1.0636596594522238e-9,7.509635588388965e-10,1.8004923246719174e-9,3.260865136462315e-8,9.895131505876792e-8,1.315766429271924e-8,4.0890082469227775e-8,6
59332,3.648751461215274e-8,1.0636596594522238e-9,7.539430335606279e-10,1.803616314445213e-9,3.226604785758388e-8,9.823110237019906e-8,1.3233751047300591e-8,4.096128761725248e-8,6
59333,3.644176009964587e-8,1.0636596594522238e-9,7.569225082823593e-10,1.8067403042185084e-9,3.192344435054461e-8,9.751088968163022e-8,1.3309837801881941e-8,4.103249276527718e-8,6
59334,3.6396005587138995e-8,1.0636596594522238e-9,7.599019830040907e-10,1.809864293991804e-9,3.158084084350534e-8,9.679067699306136e-8,1.3385924556463291e-8,4.110369791330188e-8,6
59335,3.635025107463212e-8,1.0636596594522238e-9,7.62881457725822e-10,1.8129882837650995e-9,3.123823733646607e-8,9.607046430449252e-8,1.3462011311044642e-8,4.117490306132659e-8,6
59336,3.630449656212525e-8,1.0636596594522238e-9,7.658609324475535e-10,1.816112273538395e-9,3.08956338294268e-8,9.535025161592366e-8,1.353809806562599e-8,4.124610820935129e-8,6
59337,3.6258742049618374e-8,1.0636596594522238e-9,7.688404071692848e-10,1.8192362633116905e-9,3.055303032238753e-8,9.463003892735482e-8,1.361418482020734e-8,4.1317313357375994e-8,6
59338,3.621298753711151e-8,1.0636596594522238e-9,7.718198818910162e-10,1.822360253084986e-9,3.021042681534826e-8,9.390982623878596e-8,1.369027157478869e-8,4.1388518505400697e-8,6
59339,3.6163232356638106e-8,1.0656200313108133e-9,7.718198818910162e-10,1.8142216009766131e-9,2.9701701753452057e-8,9.347025409571356e-8,1.3676321028599837e-8,4.1388518505400697e-8,6
59340,3.614236228484723e-8,1.0675804031694026e-9,7.718198818910162e-10,1.80631875984534e-9,2.921994924436696e-8,9.276653702683954e-8,1.3622542938499132e-8,4.1429532808747565e-8,6
59341,3.612149221305636e-8,1.069540775027992e-9,7.718198818910162e-10,1.7984159187140668e-9,2.873819673528186e-8,9.206281995796553e-8,1.3568764848398427e-8,4.1470547112094434e-8,6
59342,3.610062214126549e-8,1.0715011468865813e-9,7.718198818910162e-10,1.7905130775827937e-9,2.8256444226196765e-8,9.135910288909151e-8,1.3514986758297722e-8,4.15115614154413e-8,6
59343,3.607975206947461e-8,1.0734615187451708e-9,7.718198818910162e-10,1.7826102364515206e-9,2.7774691717111665e-8,9.065538582021749e-8,1.3461208668197017e-8,4.155257571878817e-8,6
59344,3.605888199768374e-8,1.07542189060376e-9,7.718198818910162e-10,1.7747073953202474e-9,2.729293920802657e-8,8.995166875134349e-8,1.3407430578096312e-8,4.159359002213504e-8,6
59345,3.603801192589287e-8,1.0773822624623496e-9,7.718198818910162e-10,1.7668045541889743e-9,2.6811186698941473e-8,8.924795168246947e-8,1.3353652487995608e-8,4.163460432548191e-8,6
59346,3.601714185410199e-8,1.0793426343209389e-9,7.718198818910162e-10,1.7589017130577012e-9,2.6329434189856373e-8,8.854423461359546e-8,1.3299874397894903e-8,4.1675618628828776e-8,6
59347,3.5996271782311124e-8,1.0813030061795284e-9,7.718198818910162e-10,1.750998871926428e-9,2.5847681680771277e-8,8.784051754472144e-8,1.3246096307794198e-8,4.1716632932175644e-8,6
59348,3.597540171052025e-8,1.0832633780381176e-9,7.718198818910162e-10,1.7430960307951549e-9,2.536592917168618e-8,8.713680047584742e-8,1.3192318217693491e-8,4.175764723552251e-8,6
59349,3.5954531638729373e-8,1.0852237498967071e-9,7.718198818910162e-10,1.7351931896638818e-9,2.488417666260108e-8,8.643308340697342e-8,1.3138540127592787e-8,4.179866153886938e-8,6
59350,3.5933661566938505e-8,1.0871841217552964e-9,7.718198818910162e-10,1.7272903485326085e-9,2.4402424153515985e-8,8.57293663380994e-8,1.3084762037492082e-8,4.183967584221625e-8,6
59351,3.591279149514763e-8,1.0891444936138859e-9,7.718198818910162e-10,1.7193875074013355e-9,2.392067164443089e-8,8.502564926922538e-8,1.3030983947391377e-8,4.188069014556312e-8,6
59352,3.5891921423356754e-8,1.0911048654724752e-9,7.718198818910162e-10,1.7114846662700624e-9,2.343891913534579e-8,8.432193220035137e-8,1.2977205857290672e-8,4.192170444890999e-8,6
59353,3.590448909647649e-8,1.093030596720826e-9,7.717937939279952e-10,1.7092538428241346e-9,2.3466888155173e-8,8.335532038529926e-8,1.274000294880133e-8,4.194784471128912e-8,6
59354,3.593288609507068e-8,1.0929266748901103e-9,7.717677059649741e-10,1.7077304523095063e-9,2.349692987799628e-8,8.333218351558964e-8,1.2730056968643072e-8,4.198368409368924e-8,6
59355,3.596128309366487e-8,1.0928227530593947e-9,7.717416180019531e-10,1.7062070617948777e-9,2.3526971600819554e-8,8.330904664588003e-8,1.2720110988484817e-8,4.2019523476089365e-8,6
59356,3.598968009225906e-8,1.092718831228679e-9,7.717155300389321e-10,1.7046836712802493e-9,2.355701332364283e-8,8.32859097761704e-8,1.271016500832656e-8,4.205536285848949e-8,6
59357,3.6018077090853244e-8,1.0926149093979634e-9,7.71689442075911e-10,1.7031602807656207e-9,2.358705504646611e-8,8.32627729064608e-8,1.2700219028168304e-8,4.2091202240889613e-8,6
59358,3.6046474089447436e-8,1.0925109875672478e-9,7.7166335411289e-10,1.7016368902509924e-9,2.3617096769289385e-8,8.323963603675117e-8,1.2690273048010047e-8,4.212704162328974e-8,6
59359,3.607487108804162e-8,1.0924070657365322e-9,7.71637266149869e-10,1.7001134997363638e-9,2.364713849211266e-8,8.321649916704156e-8,1.268032706785179e-8,4.216288100568987e-8,6
59360,3.610326808663581e-8,1.0923031439058165e-9,7.71611178186848e-10,1.6985901092217352e-9,2.3677180214935936e-8,8.319336229733194e-8,1.2670381087693534e-8,4.219872038808999e-8,6
59361,3.613166508523e-8,1.092199222075101e-9,7.71585090223827e-10,1.6970667187071069e-9,2.3707221937759215e-8,8.317022542762233e-8,1.2660435107535277e-8,4.2234559770490116e-8,6
59362,3.616006208382419e-8,1.0920953002443853e-9,7.71559002260806e-10,1.6955433281924783e-9,2.373726366058249e-8,8.31470885579127e-8,1.265048912737702e-8,4.227039915289024e-8,6
59363,3.6188459082418374e-8,1.0919913784136696e-9,7.715329142977849e-10,1.69401993767785e-9,2.3767305383405766e-8,8.312395168820309e-8,1.2640543147218764e-8,4.2306238535290364e-8,6
59364,3.621685608101257e-8,1.091887456582954e-9,7.715068263347638e-10,1.6924965471632213e-9,2.3797347106229045e-8,8.310081481849347e-8,1.2630597167060506e-8,4.2342077917690494e-8,6
59365,3.624525307960675e-8,1.0917835347522384e-9,7.714807383717428e-10,1.690973156648593e-9,2.382738882905232e-8,8.307767794878386e-8,1.262065118690225e-8,4.237791730009062e-8,6
59366,3.627365007820094e-8,1.0916796129215227e-9,7.714546504087218e-10,1.6894497661339644e-9,2.3857430551875596e-8,8.305454107907423e-8,1.2610705206743994e-8,4.241375668249074e-8,6
59367,3.6281891676628595e-8,1.0936399847801122e-9,7.72196258093777e-10,1.6872189426880369e-9,2.378181118672331e-8,8.307103669876907e-8,1.2532260648980955e-8,4.243566639862846e-8,6
59368,3.6262168113476314e-8,1.0944400753712805e-9,7.72196258093777e-10,1.686983131710937e-9,2.3791402992522794e-8,8.317049788199436e-8,1.2520246950889164e-8,4.2427704059262845e-8,6
59369,3.623377111488212e-8,1.1063062283535324e-9,7.841141569807026e-10,1.7409569930213212e-9,2.3942523108599896e-8,8.349015526963606e-8,1.2514247372389738e-8,4.269556247839042e-8,6
59370,3.6205374116287935e-8,1.1181723813357843e-9,7.96032055867628e-10,1.7949308543317056e-9,2.4093643224676997e-8,8.380981265727774e-8,1.2508247793890313e-8,4.296342089751799e-8,6
59371,3.617697711769375e-8,1.1300385343180363e-9,8.079499547545536e-10,1.8489047156420898e-9,2.42447633407541e-8,8.412947004491944e-8,1.2502248215390888e-8,4.3231279316645564e-8,6
59372,3.6148580119099556e-8,1.1419046873002882e-9,8.198678536414791e-10,1.902878576952474e-9,2.43958834568312e-8,8.444912743256112e-8,1.2496248636891461e-8,4.3499137735773137e-08,6
59373,3.612018312050537e-8,1.1537708402825401e-9,8.317857525284047e-10,1.9568524382628583e-9,2.45470035729083e-8,8.47687848202028e-8,1.2490249058392036e-8,4.376699615490071e-8,6
59374,3.6091786121911183e-8,1.165636993264792e-9,8.437036514153301e-10,2.0108262995732425e-9,2.46981236889854e-8,8.50884422078445e-8,1.248424947989261e-8,4.403485457402828e-8,6
59375,3.61035828503325e-8,1.165404937011308e-9,8.457117078656686e-10,2.0235038073175092e-9,2.471945561567106e-8,8.553047794333692e-8,1.254392536084215e-8,4.413523820883248e-8,6
59376,3.608102947183975e-8,1.1812715429494012e-9,8.517228332351734e-10,2.027598172162211e-9,2.472371443979913e-8,8.560905843563255e-8,1.2535674122768824e-8,4.415737816159622e-8,6
59377,3.605847609334701e-8,1.1971381488874947e-9,8.577339586046783e-10,2.031692537006913e-9,2.4727973263927197e-8,8.568763892792817e-8,1.2527422884695495e-8,4.417951811435997e-8,6
59378,3.6035922714854264e-8,1.2130047548255882e-9,8.637450839741831e-10,2.035786901851615e-9,2.4732232088055266e-8,8.576621942022381e-8,1.2519171646622169e-8,4.420165806712371e-8,6
59379,3.601336933636152e-8,1.2288713607636814e-9,8.697562093436879e-10,2.039881266696317e-9,2.4736490912183335e-8,8.584479991251943e-8,1.251092040854884e-8,4.422379801988746e-8,6
59380,3.599081595786878e-8,1.244737966701775e-9,8.757673347131927e-10,2.043975631541019e-9,2.4740749736311403e-8,8.592338040481507e-8,1.2502669170475513e-8,4.4245937972651203e-8,6
59381,3.5968262579376034e-8,1.2606045726398684e-9,8.817784600826975e-10,2.048069996385721e-9,2.4745008560439472e-8,8.600196089711069e-8,1.2494417932402187e-8,4.426807792541495e-8,6
59382,3.594570920088329e-8,1.2764711785779617e-9,8.877895854522024e-10,2.052164361230423e-9,2.474926738456754e-8,8.608054138940633e-8,1.2486166694328858e-8,4.4290217878178694e-8,6
59383,3.5923155822390545e-8,1.2923377845160552e-9,8.938007108217072e-10,2.0562587260751248e-09,2.475352620869561e-8,8.615912188170195e-8,1.2477915456255532e-8,4.431235783094244e-8,6
59384,3.5900602443897804e-8,1.3082043904541486e-9,8.99811836191212e-10,2.0603530909198266e-9,2.4757785032823678e-8,8.623770237399759e-8,1.2469664218182203e-8,4.4334497783706185e-8,6
59385,3.5878049065405056e-8,1.324070996392242e-9,9.058229615607168e-10,2.064447455764529e-9,2.4762043856951747e-8,8.631628286629321e-8,1.2461412980108876e-8,4.4356637736469933e-8,6
59386,3.5855495686912315e-8,1.3399376023303354e-9,9.118340869302217e-10,2.0685418206092307e-9,2.476630268107982e-8,8.639486335858884e-8,1.2453161742035548e-8,4.4378777689233675e-8,6
59387,3.583294230841957e-8,1.3558042082684289e-9,9.178452122997265e-10,2.0726361854539326e-9,2.4770561505207888e-8,8.647344385088447e-8,1.2444910503962221e-8,4.4400917641997424e-8,6
59388,3.583596675620942e-8,1.3716708142065221e-9,9.2411223621859e-10,2.0769663612757342e-9,2.4772479866367783e-8,8.650102423889992e-8,1.2423919249760702e-8,4.4379195315634376e-8,6
59389,3.548582836697152e-8,1.3875374201446156e-9,9.301233615880948e-10,2.0769663612757342e-9,2.4776508736569057e-8,8.657029906878167e-8,1.2423977414132469e-8,4.404249868165451e-8,6
59390,3.513568997773361e-8,1.403404026082709e-9,9.361344869575996e-10,2.0769663612757342e-9,2.4780537606770335e-8,8.663957389866343e-8,1.2424035578504235e-8,4.3705802047674645e-8,6
59391,3.478555158849571e-8,1.4192706320208024e-9,9.421456123271045e-10,2.0769663612757342e-9,2.478456647697161e-8,8.670884872854519e-8,1.2424093742876001e-8,4.3369105413694776e-8,6
59392,3.443541319925781e-8,1.4351372379588958e-9,9.481567376966092e-10,2.0769663612757342e-9,2.4788595347172882e-8,8.677812355842694e-8,1.2424151907247768e-8,4.303240877971491e-8,6
59393,3.408527481001991e-8,1.4510038438969893e-9,9.541678630661141e-10,2.0769663612757342e-9,2.479262421737416e-8,8.68473983883087e-8,1.2424210071619534e-8,4.2695712145735044e-8,6
59394,3.373513642078201e-8,1.4668704498350826e-9,9.60178988435619e-10,2.0769663612757342e-9,2.4796653087575433e-8,8.691667321819045e-8,1.2424268235991299e-8,4.2359015511755175e-8,6
59395,3.33849980315441e-8,1.482737055773176e-9,9.661901138051237e-10,2.0769663612757342e-9,2.4800681957776707e-8,8.698594804807221e-8,1.2424326400363065e-8,4.202231887777531e-8,6
59396,3.30348596423062e-8,1.4986036617112695e-9,9.722012391746286e-10,2.0769663612757342e-9,2.4804710827977985e-8,8.705522287795396e-8,1.2424384564734832e-8,4.1685622243795444e-8,6
59397,3.2684721253068297e-8,1.5144702676493628e-9,9.782123645441335e-10,2.0769663612757342e-9,2.480873969817926e-8,8.712449770783572e-8,1.2424442729106598e-8,4.1348925609815575e-8,6
59398,3.2334582863830395e-8,1.5303368735874563e-9,9.842234899136382e-10,2.0769663612757342e-9,2.4812768568380532e-8,8.719377253771747e-8,1.2424500893478364e-8,4.101222897583571e-8,6
59399,3.198444447459249e-8,1.5462034795255498e-9,9.90234615283143e-10,2.0769663612757342e-9,2.481679743858181e-8,8.726304736759923e-8,1.242455905785013e-8,4.067553234185584e-8,6
59400,3.1634306085354586e-8,1.562070085463643e-9,9.962457406526478e-10,2.0769663612757342e-9,2.4820826308783083e-8,8.733232219748097e-8,1.2424617222221895e-8,4.033883570787598e-8,6
59401,3.1284167696116684e-8,1.5779366914017365e-9,1.0022568660221527e-9,2.0769663612757342e-9,2.4824855178984357e-8,8.740159702736274e-8,1.2424675386593662e-8,4.000213907389611e-8,6
59402,3.093402930687878e-8,1.59380329733983e-9,1.0082679913916576e-9,2.0769663612757342e-9,2.4828884049185635e-8,8.747087185724448e-8,1.2424733550965428e-8,3.966544243991624e-8,6
59403,3.0583890917640875e-8,1.6096699032779233e-9,1.0142791167611623e-9,2.0769663612757342e-9,2.483291291938691e-8,8.754014668712624e-8,1.2424791715337194e-8,3.932874580593638e-8,6
59404,3.0233752528402974e-8,1.6255365092160167e-9,1.0202902421306672e-9,2.0769663612757342e-9,2.4836941789588186e-8,8.760942151700799e-8,1.242484987970896e-8,3.899204917195651e-8,6
59405,2.987728240897529e-8,1.626336599807185e-9,1.0222982985810055e-9,2.082189703424904e-9,2.49964682142221e-8,8.770104971766601e-8,1.2429910116345738e-8,3.8619371471498963e-8,6
59406,2.9520812289547605e-8,1.6271366903983534e-9,1.024306355031344e-9,2.0874130455740734e-9,2.515599463885602e-8,8.779267791832401e-8,1.2434970352982515e-8,3.8246693771041416e-8,6
59407,2.9164342170119922e-8,1.6279367809895216e-9,1.0263144114816825e-9,2.092636387723243e-9,2.5315521063489936e-8,8.788430611898201e-8,1.2440030589619293e-8,3.7874016070583875e-8,6
59408,2.8807872050692236e-8,1.6287368715806898e-9,1.0283224679320208e-9,2.0978597298724126e-9,2.5475047488123855e-8,8.797593431964001e-8,1.244509082625607e-8,3.750133837012633e-8,6
59409,2.8451401931264554e-8,1.6295369621718583e-9,1.0303305243823594e-9,2.1030830720215822e-9,2.563457391275777e-8,8.806756252029803e-8,1.2450151062892847e-8,3.712866066966878e-8,6
59410,2.8094931811836868e-8,1.6303370527630265e-9,1.0323385808326978e-9,2.108306414170752e-9,2.579410033739169e-8,8.815919072095603e-8,1.2455211299529625e-8,3.675598296921123e-8,6
59411,2.7659007886439364e-8,1.6252213871681882e-9,1.0343596812645467e-9,2.1153932977186957e-9,2.5944264910152918e-8,8.779930497763363e-8,1.2463249513776702e-8,3.676128186372584e-8,6
59412,2.722308396104186e-8,1.6201057215733497e-9,1.0363807816963957e-9,2.1224801812666396e-9,2.6094429482914146e-8,8.743941923431123e-8,1.247128772802378e-8,3.676658075824044e-8,6
59413,2.6787160035644356e-8,1.6149900559785114e-9,1.0384018821282447e-9,2.129567064814583e-9,2.6244594055675374e-8,8.707953349098884e-8,1.2479325942270858e-8,3.6771879652755046e-8,6
59414,2.6351236110246852e-8,1.609874390383673e-9,1.0404229825600936e-9,2.136653948362527e-9,2.63947586284366e-8,8.671964774766644e-8,1.2487364156517936e-8,3.6777178547269644e-8,6
59415,2.5915312184849348e-8,1.6047587247888346e-9,1.0424440829919426e-9,2.143740831910471e-9,2.654492320119783e-8,8.635976200434405e-8,1.2495402370765013e-8,3.678247744178425e-8,6
59416,2.5479388259451844e-8,1.599643059193996e-9,1.0444651834237916e-9,2.1508277154584148e-9,2.6695087773959057e-8,8.599987626102165e-8,1.250344058501209e-8,3.6787776336298854e-8,6
59417,2.504346433405434e-8,1.5945273935991576e-9,1.0464862838556406e-9,2.1579145990063587e-9,2.6845252346720285e-8,8.563999051769925e-8,1.251147879925917e-8,3.679307523081346e-8,6
59418,2.4607540408656836e-8,1.5894117280043193e-9,1.0485073842874895e-9,2.1650014825543026e-9,2.6995416919481513e-8,8.528010477437686e-8,1.2519517013506247e-8,3.6798374125328063e-8,6
59419,2.4171616483259332e-08,1.5842960624094808e-9,1.0505284847193385e-9,2.1720883661022464e-9,2.714558149224274e-8,8.492021903105447e-8,1.2527555227753324e-8,3.680367301984266e-8,6
59420,2.3761160895925997e-8,1.5784149468337127e-9,1.0512961803674146e-9,2.176314202017002e-9,2.713833014941143e-8,8.445088385484066e-8,1.2526814368623985e-8,3.684495298083495e-8,6
59421,2.335070530859266e-8,1.5725338312579445e-9,1.052063876015491e-9,2.1805400379317575e-9,2.713107880658012e-8,8.398154867862687e-8,1.2526073509494645e-8,3.6886232941827235e-8,6
59422,2.294024972125932e-8,1.5666527156821764e-9,1.0528315716635673e-9,2.184765873846513e-9,2.712382746374881e-8,8.351221350241307e-8,1.2525332650365305e-8,3.692751290281952e-8,6
59423,2.2529794133925982e-8,1.5607716001064082e-9,1.0535992673116434e-9,2.188991709761269e-9,2.7116576120917498e-8,8.304287832619928e-8,1.2524591791235965e-8,3.69687928638118e-8,6
59424,2.2119338546592644e-08,1.5548904845306401e-9,1.0543669629597197e-9,2.1932175456760242e-9,2.7109324778086188e-8,8.257354314998548e-8,1.2523850932106626e-8,3.7010072824804085e-8,6
59425,2.1708882959259305e-8,1.5490093689548719e-9,1.0551346586077958e-9,2.19744338159078e-9,2.7102073435254878e-8,8.210420797377168e-8,1.2523110072977286e-8,3.705135278579637e-8,6
59426,2.1298427371925967e-8,1.5431282533791038e-9,1.0559023542558721e-9,2.2016692175055357e-9,2.7094822092423565e-8,8.163487279755789e-8,1.2522369213847946e-8,3.709263274678865e-8,6
59427,2.088797178459263e-8,1.5372471378033356e-9,1.0566700499039485e-9,2.205895053420291e-9,2.7087570749592255e-8,8.116553762134409e-8,1.2521628354718607e-8,3.7133912707780934e-8,6
59428,2.047751619725929e-8,1.5313660222275675e-9,1.0574377455520246e-9,2.2101208893350467e-9,2.7080319406760945e-8,8.069620244513028e-8,1.2520887495589267e-8,3.717519266877322e-8,6
59429,2.0067060609925952e-8,1.5254849066517993e-9,1.0582054412001009e-9,2.2143467252498024e-9,2.7073068063929635e-8,8.022686726891648e-8,1.2520146636459927e-8,3.72164726297655e-8,6
59430,1.9656605022592614e-8,1.5196037910760312e-9,1.0589731368481772e-9,2.2185725611645578e-9,2.7065816721098322e-8,7.975753209270269e-8,1.2519405777330587e-8,3.7257752590757784e-8,6
59431,1.9246149435259275e-8,1.513722675500263e-9,1.0597408324962533e-9,2.2227983970793135e-9,2.7058565378267012e-8,7.928819691648889e-8,1.2518664918201248e-8,3.7299032551750074e-8,6
59432,1.9271129663235102e-8,1.5117969442519122e-9,1.0597669204592743e-9,2.2294908674170966e-9,2.7058028819104493e-8,7.926467349340412e-8,1.248290955321683e-8,3.7277310225387026e-8,6
59433,1.92897249458768e-8,1.510567381764014e-9,1.0610072812615366e-9,2.2294908674170966e-9,2.705645590844394e-8,7.971343060622633e-8,1.244716872932535e-8,3.7233447946260237e-8,6
59434,1.929323750375499e-8,1.5106713035947296e-9,1.0662898429274968e-9,2.242404186138463e-9,2.7061097989116667e-8,7.968177816669718e-8,1.2411171258328799e-8,3.7171683686443076e-8,6
59435,1.9296750061633178e-8,1.5107752254254452e-9,1.0715724045934568e-9,2.2553175048598297e-9,2.7065740069789393e-8,7.965012572716804e-8,1.2375173787332248e-8,3.7109919426625915e-8,6
59436,1.9300262619511366e-8,1.5108791472561608e-9,1.076854966259417e-9,2.268230823581196e-9,2.7070382150462118e-8,7.96184732876389e-8,1.2339176316335696e-8,3.704815516680876e-8,6
59437,1.9303775177389554e-8,1.5109830690868765e-9,1.0821375279253772e-9,2.2811441423025624e-9,2.7075024231134844e-8,7.958682084810976e-8,1.2303178845339144e-8,3.69863909069916e-8,6
59438,1.9307287735267745e-8,1.5110869909175921e-9,1.0874200895913371e-9,2.294057461023929e-9,2.707966631180757e-8,7.955516840858062e-8,1.2267181374342593e-8,3.692462664717444e-8,6
59439,1.9280496484243605e-8,1.5110869909175921e-9,1.0914231585105035e-9,2.3002783094075124e-9,2.70775936088115e-8,7.783829143160217e-8,1.2218405356506899e-8,3.639875633070937e-8,6
59440,1.9253705233219468e-8,1.5110869909175921e-9,1.09542622742967e-9,2.306499157791096e-9,2.7075520905815435e-8,7.612141445462372e-8,1.2169629338671205e-8,3.5872886014244305e-8,6
59441,1.922691398219533e-8,1.5110869909175921e-9,1.0994292963488363e-9,2.3127200061746794e-9,2.707344820281937e-8,7.440453747764528e-8,1.2120853320835511e-8,3.534701569777924e-8,6
59442,1.9200122731171194e-8,1.5110869909175921e-9,1.1034323652680027e-9,2.3189408545582633e-9,2.70713754998233e-8,7.268766050066683e-8,1.2072077302999817e-8,3.482114538131417e-8,6
59443,1.9173331480147054e-8,1.5110869909175921e-9,1.107435434187169e-9,2.3251617029418467e-9,2.7069302796827236e-8,7.097078352368838e-8,1.2023301285164123e-8,3.42952750648491e-8,6
59444,1.9146540229122917e-8,1.5110869909175921e-9,1.1114385031063355e-9,2.3313825513254302e-9,2.706723009383117e-8,6.925390654670993e-8,1.197452526732843e-8,3.376940474838403e-8,6
59445,1.911974897809878e-8,1.5110869909175921e-9,1.1154415720255019e-9,2.3376033997090137e-9,2.7065157390835102e-8,6.753702956973149e-8,1.1925749249492735e-8,3.324353443191896e-8,6
59446,1.9124085695819733e-08,1.5131166439966588e-9,1.1206980457284408e-9,2.34941487228892e-9,2.7070336030670346e-8,6.738418861564308e-8,1.1876973231657043e-8,3.318977535831877e-8,6
59447,1.910435148963858e-8,1.5131166439966588e-9,1.1229489567466276e-9,2.3527746730393154e-9,2.6942384355038334e-8,6.732366884164798e-8,1.1872954124533504e-8,3.317596223979226e-8,6
59448,1.908461728345743e-8,1.5131166439966588e-9,1.1251998677648143e-9,2.3561344737897107e-9,2.6814432679406318e-8,6.726314906765287e-8,1.1868935017409964e-8,3.316214912126575e-8,6
59449,1.906488307727628e-8,1.5131166439966588e-9,1.127450778783001e-9,2.359494274540106e-9,2.6686481003774302e-8,6.720262929365777e-8,1.1864915910286426e-8,3.314833600273924e-8,6
59450,1.904514887109513e-8,1.5131166439966588e-9,1.1297016898011876e-9,2.3628540752905013e-9,2.6558529328142286e-8,6.714210951966266e-8,1.1860896803162887e-8,3.313452288421273e-8,6
59451,1.9025414664913978e-8,1.5131166439966588e-9,1.1319526008193743e-9,2.366213876040896e-9,2.6430577652510274e-8,6.708158974566756e-8,1.1856877696039349e-8,3.312070976568622e-8,6
59452,1.9005680458732827e-8,1.5131166439966588e-9,1.134203511837561e-9,2.3695736767912915e-9,2.6302625976878258e-8,6.702106997167246e-8,1.185285858891581e-8,3.310689664715971e-8,6
59453,1.8985946252551676e-8,1.5131166439966588e-9,1.1364544228557476e-9,2.372933477541687e-9,2.6174674301246242e-8,6.6960550197677355e-08,1.184883948179227e-8,3.30930835286332e-8,6
59454,1.8966212046370525e-8,1.5131166439966588e-9,1.1387053338739343e-9,2.376293278292082e-9,2.604672262561423e-8,6.690003042368225e-8,1.1844820374668732e-8,3.3079270410106686e-8,6
59455,1.8961560564952884e-8,1.5130127221659431e-9,1.1386531579478923e-9,2.390366890225908e-9,2.655064918656492e-8,6.756102916981161e-8,1.1853071612742059e-8,3.3072270155956097e-8,6
59456,1.8937652344413558e-8,1.5107163722231539e-9,1.1356475952631398e-9,2.3975852448439052e-9,2.6574934786690198e-8,6.802279442903028e-8,1.186931744178364e-8,3.305647973547045e-8,6
59457,1.8913744123874232e-8,1.5084200222803646e-9,1.1326420325783874e-9,2.4048035994619026e-9,2.659922038681548e-8,6.848455968824895e-8,1.188556327082522e-8,3.3040689314984807e-8,6
59458,1.8889835903334906e-8,1.5061236723375754e-9,1.129636469893635e-9,2.4120219540799004e-9,2.662350598694076e-8,6.894632494746763e-8,1.19018090998668e-8,3.302489889449916e-8,6
59459,1.886592768279558e-8,1.5038273223947861e-9,1.1266309072088827e-9,2.4192403086978977e-9,2.6647791587066036e-8,6.94080902066863e-8,1.1918054928908381e-8,3.300910847401352e-8,6
59460,1.8842019462256254e-8,1.5015309724519969e-9,1.1236253445241303e-9,2.426458663315895e-9,2.6672077187191317e-8,6.986985546590497e-8,1.1934300757949962e-8,3.299331805352787e-8,6
59461,1.8818111241716928e-8,1.4992346225092076e-9,1.1206197818393778e-9,2.433677017933893e-9,2.6696362787316598e-8,7.033162072512365e-8,1.1950546586991543e-8,3.297752763304223e-8,6
59462,1.8794203021177602e-8,1.4969382725664184e-9,1.1176142191546254e-9,2.4408953725518902e-9,2.6720648387441875e-8,7.079338598434232e-8,1.1966792416033123e-8,3.2961737212556585e-8,6
59463,1.877029480063828e-8,1.4946419226236291e-9,1.114608656469873e-9,2.4481137271698876e-9,2.6744933987567156e-8,7.125515124356099e-8,1.1983038245074706e-8,3.294594679207094e-8,6
59464,1.8746386580098953e-8,1.4923455726808399e-9,1.1116030937851207e-9,2.455332081787885e-9,2.6769219587692436e-8,7.171691650277967e-8,1.1999284074116286e-8,3.2930156371585295e-8,6
59465,1.8722478359559627e-8,1.4900492227380506e-9,1.1085975311003682e-9,2.4625504364058827e-9,2.6793505187817713e-8,7.217868176199834e-8,1.2015529903157867e-8,3.291436595109965e-8,6
59466,1.86985701390203e-8,1.4877528727952614e-9,1.1055919684156158e-9,2.46976879102388e-9,2.6817790787942994e-8,7.264044702121701e-8,1.2031775732199447e-8,3.2898575530614005e-8,6
59467,1.8674661918480975e-8,1.4854565228524721e-9,1.1025864057308633e-9,2.4769871456418774e-9,2.6842076388068275e-8,7.310221228043568e-8,1.2048021561241028e-8,3.288278511012836e-8,6
59468,1.865075369794165e-8,1.4831601729096829e-9,1.0995808430461109e-9,2.484205500259875e-9,2.6866361988193552e-8,7.356397753965436e-8,1.2064267390282609e-8,3.2866994689642715e-8,6
59469,1.8626845477402323e-8,1.4808638229668936e-9,1.0965752803613586e-9,2.4914238548778725e-9,2.6890647588318833e-8,7.402574279887303e-8,1.208051321932419e-8,3.285120426915707e-8,6
59470,1.8602937256862997e-8,1.4785674730241044e-9,1.0935697176766062e-9,2.49864220949587e-9,2.6914933188444113e-8,7.44875080580917e-8,1.209675904836577e-8,3.2835413848671425e-8,6
59471,1.8405161888797555e-8,1.4785674730241044e-9,1.0943243693431719e-9,2.515178271107739e-9,2.6708448358702115e-8,7.475935868013554e-8,1.2110753217833449e-8,3.1845320927822554e-8,6
59472,1.8286533148104383e-8,1.4724196605846135e-9,1.0931100965039306e-9,2.528563211783305e-9,2.686797478333603e-8,7.515434946871947e-8,1.2059071927852161e-8,3.163609256573134e-8,6
59473,1.816790440741121e-8,1.4662718481451227e-9,1.0918958236646896e-9,2.541948152458871e-9,2.702750120796995e-8,7.55493402573034e-8,1.2007390637870875e-8,3.142686420364013e-8,6
59474,1.8049275666718036e-8,1.4601240357056316e-9,1.0906815508254484e-9,2.5553330931344368e-9,2.7187027632603866e-8,7.594433104588734e-8,1.1955709347889588e-8,3.121763584154892e-8,6
59475,1.7930646926024864e-8,1.4539762232661407e-9,1.0894672779862071e-9,2.568718033810003e-9,2.7346554057237785e-8,7.633932183447127e-8,1.1904028057908302e-8,3.100840747945771e-8,6
59476,1.7812018185331692e-8,1.4478284108266499e-9,1.088253005146966e-9,2.582102974485569e-9,2.75060804818717e-8,7.673431262305521e-8,1.1852346767927015e-8,3.07991791173665e-8,6
59477,1.7693389444638517e-8,1.4416805983871588e-9,1.0870387323077249e-9,2.595487915161135e-9,2.766560690650562e-8,7.712930341163914e-8,1.1800665477945729e-8,3.0589950755275286e-8,6
59478,1.7594017443067027e-8,1.435532785947668e-9,1.0870387323077249e-9,2.592100983247732e-9,2.7672052890984e-8,7.743664753158071e-8,1.1740887809345599e-8,3.042251139197129e-8,6
59479,1.749464544149554e-8,1.429384973508177e-9,1.0870387323077249e-9,2.5887140513343295e-9,2.7678498875462375e-8,7.774399165152226e-8,1.1681110140745469e-8,3.02550720286673e-8,6
59480,1.739527343992405e-8,1.4232371610686862e-9,1.0870387323077249e-9,2.5853271194209266e-9,2.7684944859940755e-8,7.805133577146383e-8,1.1621332472145338e-8,3.008763266536331e-8,6
59481,1.729590143835256e-8,1.4170893486291952e-9,1.0870387323077249e-9,2.5819401875075238e-9,2.7691390844419134e-8,7.835867989140538e-8,1.1561554803545208e-8,2.992019330205932e-8,6
59482,1.7196529436781073e-8,1.4109415361897043e-9,1.0870387323077249e-9,2.578553255594121e-9,2.7697836828897514e-8,7.866602401134695e-8,1.1501777134945078e-8,2.975275393875533e-8,6
59483,1.7097157435209583e-8,1.4047937237502134e-9,1.0870387323077249e-9,2.575166323680718e-9,2.7704282813375893e-8,7.89733681312885e-8,1.1441999466344946e-8,2.9585314575451335e-8,6
59484,1.7085448908948956e-8,1.4024973738074242e-9,1.0890207007950422e-9,2.567027671572345e-9,2.7461546465568876e-8,7.920310758492486e-8,1.1434033957562577e-8,2.9618313407903504e-8,6
59485,1.699671342620159e-8,1.3985766300902454e-9,1.0850437198388969e-9,2.561514256120061e-9,2.741512565884162e-8,7.956896327907073e-8,1.1445190467781498e-8,2.9012166117064005e-8,6
59486,1.6907977943454226e-8,1.3946558863730667e-9,1.0810667388827516e-9,2.5560008406677766e-9,2.7368704852114367e-8,7.993481897321659e-8,1.1456346978000417e-8,2.840601882622451e-8,6
59487,1.6819242460706862e-8,1.3907351426558879e-9,1.0770897579266063e-9,2.5504874252154925e-9,2.732228404538711e-8,8.030067466736246e-8,1.1467503488219338e-8,2.779987153538501e-8,6
59488,1.67305069779595e-8,1.3868143989387091e-9,1.073112776970461e-9,2.544974009763208e-9,2.727586323865986e-8,8.066653036150833e-8,1.1478659998438259e-8,2.7193724244545512e-8,6
59489,1.6641771495212136e-8,1.3828936552215304e-9,1.0691357960143156e-9,2.5394605943109235e-9,2.7229442431932603e-8,8.10323860556542e-8,1.1489816508657178e-8,2.6587576953706017e-8,6
59490,1.6553036012464772e-8,1.3789729115043516e-9,1.06515881505817e-9,2.5339471788586394e-9,2.718302162520535e-8,8.139824174980006e-8,1.1500973018876099e-8,2.5981429662866518e-8,6
59491,1.646430052971741e-8,1.3750521677871728e-9,1.0611818341020248e-9,2.528433763406355e-9,2.7136600818478095e-8,8.176409744394594e-8,1.1512129529095018e-8,2.537528237202702e-8,6
59492,1.6375565046970046e-8,1.371131424069994e-9,1.0572048531458795e-9,2.522920347954071e-9,2.709018001175084e-8,8.21299531380918e-8,1.152328603931394e-8,2.4769135081187524e-8,6
59493,1.6286829564222682e-8,1.3672106803528153e-9,1.0532278721897341e-9,2.5174069325017863e-9,2.7043759205023587e-8,8.249580883223767e-8,1.153444254953286e-8,2.4162987790348025e-8,6
59494,1.619809408147532e-8,1.3632899366356365e-9,1.0492508912335888e-9,2.511893517049502e-9,2.699733839829633e-8,8.286166452638355e-8,1.154559905975178e-8,2.3556840499508527e-8,6
59495,1.6109358598727956e-8,1.3593691929184577e-9,1.0452739102774435e-9,2.5063801015972177e-9,2.695091759156908e-8,8.322752022052941e-8,1.15567555699707e-8,2.2950693208669028e-8,6
59496,1.6020623115980592e-8,1.355448449201279e-9,1.0412969293212982e-9,2.5008666861449332e-9,2.6904496784841823e-8,8.359337591467527e-8,1.156791208018962e-8,2.2344545917829532e-8,6
59497,1.593188763323323e-8,1.3515277054841002e-9,1.0373199483651527e-9,2.495353270692649e-9,2.685807597811457e-8,8.395923160882114e-8,1.157906859040854e-8,2.1738398626990034e-8,6
59498,1.5843152150485866e-8,1.3476069617669214e-9,1.0333429674090073e-9,2.4898398552403647e-9,2.6811655171387314e-8,8.432508730296702e-8,1.1590225100627462e-8,2.1132251336150535e-8,6
59499,1.5754416667738502e-8,1.3436862180497427e-9,1.029365986452862e-9,2.48432643978808e-9,2.6765234364660062e-8,8.469094299711288e-8,1.1601381610846381e-8,2.052610404531104e-8,6
59500,1.566568118499114e-8,1.339765474332564e-9,1.0253890054967167e-9,2.478813024335796e-9,2.6718813557932806e-8,8.505679869125874e-8,1.1612538121065302e-8,1.991995675447154e-8,6
59501,1.5570352423501653e-8,1.3368768774600377e-9,1.0201977517013302e-9,2.4732996088835116e-9,2.666859383493107e-8,8.600774833969837e-8,1.1615545180861486e-8,1.9335478658466004e-8,6
59502,1.547502366201217e-8,1.3339882805875113e-9,1.0150064979059436e-9,2.4677861934312275e-9,2.6618374111929336e-8,8.695869798813797e-8,1.1618552240657668e-8,1.875100056246047e-8,6
59503,1.5379694900522685e-8,1.331099683714985e-9,1.0098152441105572e-9,2.462272777978943e-9,2.65681543889276e-8,8.79096476365776e-8,1.1621559300453852e-8,1.8166522466454932e-8,6
59504,1.52843661390332e-8,1.3282110868424589e-9,1.0046239903151707e-9,2.4567593625266585e-9,2.6517934665925863e-8,8.88605972850172e-8,1.1624566360250035e-8,1.75820443704494e-8,6
59505,1.5242382675027126e-8,1.3270508055750378e-9,1.0034097174759294e-9,2.456523551549559e-9,2.650389188811683e-8,8.984867716435321e-8,1.1628585467373574e-8,1.757382379927033e-8,6
59506,1.5143413639313014e-8,1.3119842902281126e-9,9.954035796375968e-10,2.43975167896059e-9,2.650442844727935e-8,9.072942801033066e-8,1.1583624981360239e-8,1.763752251419527e-8,6
59507,1.5044444603598902e-8,1.2969177748811875e-9,9.87397441799264e-10,2.4229798063716215e-9,2.6504965006441868e-8,9.161017885630813e-8,1.1538664495346903e-8,1.7701221229120207e-8,6
59508,1.494547556788479e-8,1.2818512595342625e-9,9.793913039609313e-10,2.406207933782653e-9,2.6505501565604387e-8,9.249092970228558e-8,1.1493704009333567e-8,1.7764919944045147e-8,6
59509,1.484650653217068e-8,1.2667847441873372e-9,9.713851661225984e-10,2.389436061193684e-9,2.6506038124766906e-8,9.337168054826303e-8,1.144874352332023e-8,1.7828618658970084e-8,6
59510,1.474753749645657e-8,1.2517182288404122e-9,9.633790282842658e-10,2.3726641886047153e-9,2.6506574683929425e-8,9.425243139424048e-8,1.1403783037306894e-8,1.7892317373895025e-8,6
59511,1.4648568460742459e-8,1.2366517134934871e-9,9.553728904459329e-10,2.3558923160157467e-9,2.6507111243091944e-8,9.513318224021794e-8,1.1358822551293558e-8,1.795601608881996e-8,6
59512,1.4549599425028349e-8,1.2215851981465619e-9,9.473667526076002e-10,2.3391204434267776e-9,2.6507647802254463e-8,9.60139330861954e-8,1.1313862065280222e-8,1.8019714803744902e-8,6
59513,1.4450630389314239e-8,1.2065186827996368e-9,9.393606147692676e-10,2.322348570837809e-9,2.650818436141698e-8,9.689468393217284e-8,1.1268901579266887e-8,1.808341351866984e-8,6
59514,1.4340006042483847e-8,1.190686717471782e-9,9.313544769309347e-10,2.30581250922594e-9,2.652000009439378e-8,9.678165270796293e-8,1.1250016573709856e-8,1.8085684473461814e-8,6
59515,1.4229381695653458e-8,1.174854752143927e-9,9.23348339092602e-10,2.289276447614071e-9,2.653181582737058e-8,9.666862148375302e-8,1.1231131568152825e-8,1.8087955428253785e-8,6
59516,1.4118757348823068e-8,1.1590227868160722e-9,9.153422012542692e-10,2.272740386002202e-9,2.6543631560347378e-8,9.65555902595431e-8,1.1212246562595793e-8,1.809022638304576e-8,6
59517,1.4008133001992678e-8,1.1431908214882174e-9,9.073360634159364e-10,2.256204324390333e-9,2.6555447293324173e-8,9.644255903533319e-8,1.1193361557038763e-8,1.809249733783773e-8,6
59518,1.3897508655162288e-8,1.1273588561603624e-9,8.993299255776038e-10,2.239668262778464e-9,2.6567263026300972e-8,9.632952781112327e-8,1.1174476551481732e-8,1.8094768292629706e-8,6
59519,1.3786884308331897e-8,1.1115268908325076e-9,8.91323787739271e-10,2.223132201166595e-9,2.657907875927777e-8,9.621649658691334e-8,1.1155591545924702e-8,1.8097039247421678e-8,6
59520,1.3676259961501507e-8,1.0956949255046528e-9,8.833176499009383e-10,2.206596139554726e-9,2.659089449225457e-8,9.610346536270343e-8,1.1136706540367671e-8,1.809931020221365e-8,6
59521,1.3565635614671117e-8,1.0798629601767978e-9,8.753115120626055e-10,2.190060077942857e-9,2.6602710225231365e-8,9.599043413849351e-8,1.111782153481064e-8,1.8101581157005624e-8,6
59522,1.3455011267840727e-8,1.064030994848943e-9,8.673053742242728e-10,2.173524016330988e-9,2.6614525958208164e-8,9.58774029142836e-8,1.109893652925361e-8,1.8103852111797596e-8,6
59523,1.3344386921010337e-8,1.0481990295210883e-9,8.5929923638594e-10,2.156987954719119e-9,2.6626341691184962e-8,9.576437169007368e-8,1.108005152369658e-8,1.810612306658957e-8,6
59524,1.3233762574179946e-8,1.0323670641932333e-9,8.512930985476072e-10,2.14045189310725e-9,2.663815742416176e-8,9.565134046586377e-8,1.1061166518139549e-8,1.8108394021381542e-8,6
59525,1.3123138227349556e-8,1.0165350988653785e-9,8.432869607092745e-10,2.123915831495381e-9,2.6649973157138556e-8,9.553830924165386e-8,1.1042281512582517e-8,1.8110664976173517e-8,6
59526,1.3012513880519166e-8,1.0007031335375237e-9,8.352808228709417e-10,2.107379769883512e-9,2.6661788890115355e-8,9.542527801744394e-8,1.1023396507025486e-8,1.811293593096549e-8,6
59527,1.2901889533688777e-8,9.848711682096687e-10,8.27274685032609e-10,2.090843708271643e-9,2.6673604623092154e-8,9.531224679323401e-8,1.1004511501468455e-8,1.811520688575746e-8,6
59528,1.2791265186858387e-8,9.690392028818139e-10,8.192685471942763e-10,2.074307646659774e-9,2.668542035606895e-8,9.51992155690241e-8,1.0985626495911425e-8,1.8117477840549435e-8,6
59529,1.2680640840027995e-8,9.53207237553959e-10,8.112624093559436e-10,2.057771585047905e-9,2.6697236089045748e-8,9.508618434481418e-8,1.0966741490354394e-8,1.8119748795341407e-8,6
59530,1.2570016493197605e-8,9.37375272226104e-10,8.032562715176108e-10,2.041235523436036e-9,2.6709051822022547e-8,9.497315312060427e-8,1.0947856484797364e-8,1.8122019750133382e-8,6
59531,1.2459392146367216e-8,9.215433068982493e-10,7.95250133679278e-10,2.024699461824167e-9,2.6720867554999345e-8,9.486012189639435e-8,1.0928971479240333e-8,1.8124290704925353e-8,6
59532,1.2348767799536826e-8,9.057113415703944e-10,7.872439958409453e-10,2.008163400212298e-9,2.673268328797614e-8,9.474709067218444e-8,1.0910086473683303e-8,1.8126561659717328e-8,6
59533,1.2238143452706436e-8,8.898793762425395e-10,7.792378580026125e-10,1.991627338600429e-9,2.674449902095294e-8,9.463405944797452e-8,1.089120146812627e-8,1.81288326145093e-8,6
59534,1.2127519105876045e-8,8.740474109146847e-10,7.712317201642798e-10,1.97509127698856e-9,2.6756314753929738e-8,9.452102822376461e-8,1.087231646256924e-8,1.813110356930127e-8,6
59535,1.2016894759045655e-8,8.582154455868298e-10,7.63225582325947e-10,1.958555215376691e-9,2.6768130486906537e-8,9.440799699955468e-8,1.085343145701221e-8,1.8133374524093246e-8,6
59536,1.1990103508021518e-8,8.572525799626544e-10,7.662050570476785e-10,1.945061750049095e-9,2.664025961945668e-8,9.399477484585716e-8,1.0763268378973404e-8,1.7979510616857774e-8,6
59537,1.18407467065109e-8,8.572525799626544e-10,7.691584438063888e-10,1.9462449896795773e-9,2.6589040311783918e-8,9.3698060101607e-8,1.0682601243822347e-8,1.7813380123130732e-8,6
59538,1.1691389905000282e-8,8.572525799626544e-10,7.721118305650991e-10,1.94742822931006e-9,2.6537821004111152e-8,9.340134535735683e-8,1.060193410867129e-8,1.7647249629403686e-8,6
59539,1.1542033103489666e-8,8.572525799626544e-10,7.750652173238094e-10,1.9486114689405426e-9,2.648660169643839e-8,9.310463061310667e-8,1.0521266973520232e-8,1.7481119135676643e-8,6
59540,1.1392676301979049e-8,8.572525799626544e-10,7.780186040825199e-10,1.9497947085710255e-9,2.6435382388765624e-8,9.28079158688565e-8,1.0440599838369175e-8,1.73149886419496e-8,6
59541,1.124331950046843e-8,8.572525799626544e-10,7.809719908412302e-10,1.950977948201508e-9,2.6384163081092862e-8,9.251120112460633e-8,1.0359932703218118e-8,1.7148858148222558e-8,6
59542,1.124683205834662e-8,8.572525799626544e-10,7.839253775999405e-10,1.956622834723846e-9,2.6369661434648546e-8,9.253040641644929e-8,1.0357710125830099e-8,1.709509907462237e-8,6
59543,1.1185941605931889e-8,8.572525799626544e-10,7.876464600067272e-10,1.960377048684402e-9,2.636697552118103e-8,9.254650039618598e-8,1.0357468019817965e-8,1.7077037699344752e-8,6
59544,1.1125051153517156e-8,8.572525799626544e-10,7.913675424135137e-10,1.964131262644958e-9,2.6364289607713512e-8,9.256259437592265e-8,1.0357225913805832e-8,1.7058976324067132e-8,6
59545,1.1064160701102426e-8,8.572525799626544e-10,7.950886248203004e-10,1.9678854766055143e-9,2.6361603694246e-8,9.257868835565932e-8,1.03569838077937e-8,1.7040914948789516e-8,6
59546,1.1003270248687695e-8,8.572525799626544e-10,7.988097072270869e-10,1.9716396905660704e-9,2.635891778077848e-8,9.2594782335396e-8,1.0356741701781567e-8,1.70228535735119e-8,6
59547,1.0942379796272964e-8,8.572525799626544e-10,8.025307896338735e-10,1.9753939045266265e-9,2.6356231867310964e-8,9.261087631513267e-8,1.0356499595769435e-8,1.700479219823428e-8,6
59548,1.0881489343858232e-8,8.572525799626544e-10,8.062518720406601e-10,1.9791481184871826e-9,2.6353545953843447e-8,9.262697029486936e-8,1.0356257489757302e-8,1.6986730822956663e-8,6
59549,1.082908833746489e-8,8.595489299054436e-10,8.062649160221706e-10,1.9773889169954547e-9,2.64043022360077e-8,9.284323492141908e-8,1.0368285728942035e-8,1.6982482566205557e-8,6
59550,1.0776687331071547e-8,8.618452798482329e-10,8.062779600036811e-10,1.9756297155037263e-9,2.6455058518171955e-8,9.305949954796882e-8,1.0380313968126769e-8,1.697823430945445e-8,6
59551,1.0724286324678203e-8,8.641416297910221e-10,8.062910039851916e-10,1.9738705140119984e-9,2.650581480033621e-8,9.327576417451855e-8,1.0392342207311502e-8,1.6973986052703342e-8,6
59552,1.0671885318284862e-8,8.664379797338114e-10,8.063040479667021e-10,1.97211131252027e-9,2.6556571082500466e-8,9.349202880106829e-8,1.0404370446496236e-8,1.6969737795952236e-8,6
59553,1.0619484311891518e-8,8.687343296766005e-10,8.063170919482127e-10,1.9703521110285416e-9,2.660732736466472e-8,9.370829342761803e-8,1.041639868568097e-8,1.696548953920113e-8,6
59554,1.0567083305498175e-8,8.710306796193898e-10,8.063301359297232e-10,1.9685929095368137e-9,2.6658083646828974e-8,9.392455805416776e-8,1.0428426924865704e-8,1.6961241282450025e-8,6
59555,1.0514682299104833e-8,8.73327029562179e-10,8.063431799112337e-10,1.9668337080450853e-9,2.6708839928993228e-8,9.41408226807175e-8,1.0440455164050437e-8,1.695699302569892e-8,6
59556,1.046228129271149e-8,8.756233795049683e-10,8.063562238927442e-10,1.9650745065533573e-9,2.6759596211157482e-8,9.435708730726722e-8,1.0452483403235171e-8,1.695274476894781e-8,6
59557,1.0409880286318148e-8,8.779197294477575e-10,8.063692678742547e-10,1.963315305061629e-9,2.681035249332174e-8,9.457335193381696e-8,1.0464511642419904e-8,1.6948496512196704e-8,6
59558,1.0357479279924805e-8,8.802160793905468e-10,8.063823118557652e-10,1.9615561035699006e-9,2.6861108775485993e-8,9.47896165603667e-8,1.0476539881604639e-8,1.6944248255445598e-8,6
59559,1.0305078273531462e-8,8.82512429333336e-10,8.063953558372757e-10,1.9597969020781726e-9,2.6911865057650247e-8,9.500588118691643e-8,1.0488568120789372e-8,1.6939999998694492e-8,6
59560,1.025267726713812e-8,8.848087792761253e-10,8.064083998187863e-10,1.9580377005864443e-9,2.69626213398145e-8,9.522214581346617e-8,1.0500596359974105e-8,1.6935751741943386e-8,6
59561,1.0200276260744777e-8,8.871051292189145e-10,8.064214438002968e-10,1.9562784990947163e-9,2.7013377621978754e-8,9.54384104400159e-8,1.0512624599158839e-8,1.6931503485192277e-8,6
59562,1.0147875254351433e-8,8.894014791617038e-10,8.064344877818073e-10,1.954519297602988e-9,2.706413390414301e-8,9.565467506656564e-8,1.0524652838343572e-8,1.692725522844117e-8,6
59563,1.0095474247958092e-8,8.91697829104493e-10,8.064475317633178e-10,1.9527600961112596e-9,2.7114890186307265e-8,9.587093969311536e-8,1.0536681077528306e-8,1.6923006971690065e-8,6
59564,1.0043073241564748e-8,8.939941790472823e-10,8.064605757448284e-10,1.9510008946195316e-9,2.716564646847152e-8,9.60872043196651e-8,1.054870931671304e-8,1.691875871493896e-8,6
59565,9.994499556746283e-9,8.961866071593558e-10,8.101816581516149e-10,1.957380345236176e-9,2.7216402750635773e-8,9.628872225926072e-8,1.058429018858216e-8,1.705456124689681e-8,6
59566,9.945925871927817e-9,8.983790352714294e-10,8.139027405584016e-10,1.963759795852821e-9,2.7267159032800027e-8,9.649024019885633e-8,1.0619871060451281e-8,1.7190363778854667e-8,6
59567,9.89735218710935e-9,9.00571463383503e-10,8.176238229651881e-10,1.9701392464694655e-9,2.7317915314964284e-8,9.669175813845195e-8,1.0655451932320402e-8,1.7326166310812522e-8,6
59568,9.848778502290885e-9,9.027638914955766e-10,8.213449053719748e-10,1.9765186970861104e-9,2.7368671597128538e-8,9.689327607804756e-8,1.0691032804189524e-8,1.7461968842770377e-8,6
59569,9.80020481747242e-9,9.049563196076502e-10,8.250659877787613e-10,1.982898147702755e-9,2.7419427879292792e-8,9.709479401764318e-8,1.0726613676058645e-8,1.759777137472823e-8,6
59570,9.751631132653954e-9,9.071487477197239e-10,8.28787070185548e-10,1.9892775983193994e-9,2.7470184161457046e-8,9.729631195723879e-8,1.0762194547927766e-8,1.7733573906686084e-8,6
59571,9.703057447835487e-9,9.093411758317975e-10,8.325081525923345e-10,1.9956570489360443e-9,2.75209404436213e-8,9.749782989683441e-8,1.0797775419796887e-8,1.786937643864394e-8,6
59572,9.74598520293163e-9,9.103040414559729e-10,8.332497602773897e-10,2.0129047282241964e-9,2.8060932610065373e-8,9.942276895026421e-8,1.0953211899250166e-8,1.824774552367513e-8,6
59573,9.496693788559097e-9,9.090744789680747e-10,8.330069057095415e-10,2.014033705528664e-9,2.8021723261687503e-8,9.883822370323664e-8,1.0953211899250166e-8,1.8104264020506766e-8,6
59574,9.38219954803835e-9,9.100373445922501e-10,8.327640511416933e-10,2.015792907020392e-9,2.7745876021045036e-8,9.886123328662119e-8,1.096291577339629e-8,1.8026228297596452e-8,6
59575,9.267705307517604e-9,9.110002102164256e-10,8.32521196573845e-10,2.0175521085121205e-9,2.747002878040257e-8,9.888424287000573e-8,1.0972619647542414e-8,1.7948192574686134e-8,6
59576,9.153211066996857e-9,9.11963075840601e-10,8.322783420059968e-10,2.019311310003849e-9,2.7194181539760102e-8,9.890725245339028e-8,1.0982323521688538e-8,1.787015685177582e-8,6
59577,9.03871682647611e-9,9.129259414647764e-10,8.320354874381486e-10,2.021070511495577e-9,2.6918334299117635e-8,9.893026203677483e-8,1.0992027395834663e-8,1.7792121128865502e-8,6
59578,8.924222585955364e-9,9.138888070889518e-10,8.317926328703003e-10,2.022829712987305e-9,2.6642487058475172e-8,9.895327162015937e-8,1.1001731269980787e-8,1.7714085405955187e-8,6
59579,8.80972834543462e-9,9.148516727131272e-10,8.315497783024521e-10,2.024588914479033e-9,2.6366639817832705e-8,9.897628120354392e-8,1.101143514412691e-8,1.763604968304487e-8,6
59580,8.695234104913873e-9,9.158145383373026e-10,8.313069237346039e-10,2.0263481159707615e-9,2.609079257719024e-8,9.899929078692847e-8,1.1021139018273035e-8,1.7558013960134555e-8,6
59581,8.580739864393126e-9,9.16777403961478e-10,8.310640691667556e-10,2.0281073174624895e-9,2.581494533654777e-8,9.902230037031303e-8,1.1030842892419159e-8,1.7479978237224237e-8,6
59582,8.46624562387238e-9,9.177402695856535e-10,8.308212145989074e-10,2.029866518954218e-9,2.5539098095905305e-8,9.904530995369756e-8,1.1040546766565282e-8,1.7401942514313923e-8,6
59583,8.351751383351633e-9,9.187031352098289e-10,8.305783600310592e-10,2.031625720445946e-9,2.5263250855262838e-8,9.906831953708211e-8,1.1050250640711406e-8,1.7323906791403605e-8,6
59584,8.2372571428308865e-09,9.196660008340043e-10,8.303355054632109e-10,2.033384921937674e-9,2.4987403614620375e-8,9.909132912046667e-8,1.105995451485753e-8,1.724587106849329e-8,6
59585,8.12276290231014e-9,9.206288664581797e-10,8.300926508953627e-10,2.0351441234294025e-9,2.4711556373977908e-8,9.91143387038512e-8,1.1069658389003654e-8,1.7167835345582973e-8,6
59586,8.008268661789393e-9,9.215917320823551e-10,8.298497963275145e-10,2.0369033249211305e-9,2.443570913333544e-8,9.913734828723576e-8,1.1079362263149778e-8,1.708979962267266e-8,6
59587,7.893774421268649e-9,9.225545977065305e-10,8.296069417596662e-10,2.038662526412859e-9,2.4159861892692974e-8,9.916035787062031e-8,1.1089066137295902e-8,1.701176389976234e-8,6
59588,7.779280180747902e-9,9.23517463330706e-10,8.29364087191818e-10,2.0404217279045872e-9,2.3884014652050507e-8,9.918336745400486e-8,1.1098770011442026e-8,1.6933728176852026e-8,6
59589,7.664785940227155e-9,9.244803289548814e-10,8.291212326239698e-10,2.042180929396315e-9,2.360816741140804e-8,9.92063770373894e-8,1.110847388558815e-8,1.685569245394171e-8,6
59590,7.550291699706409e-9,9.254431945790568e-10,8.288783780561215e-10,2.0439401308880436e-9,2.3332320170765574e-8,9.922938662077395e-8,1.1118177759734273e-8,1.6777656731031394e-8,6
59591,7.435797459185662e-9,9.264060602032322e-10,8.286355234882733e-10,2.0456993323797715e-9,2.305647293012311e-8,9.92523962041585e-8,1.1127881633880397e-8,1.6699621008121076e-8,6
59592,7.321303218664917e-9,9.273689258274076e-10,8.28392668920425e-10,2.0474585338715e-9,2.2780625689480644e-8,9.927540578754304e-8,1.1137585508026521e-8,1.6621585285210762e-8,6
59593,7.20680897814417e-9,9.28331791451583e-10,8.281498143525768e-10,2.049217735363228e-9,2.2504778448838177e-8,9.929841537092759e-8,1.1147289382172645e-8,1.6543549562300444e-8,6
59594,7.0923147376234236e-9,9.292946570757585e-10,8.279069597847286e-10,2.0509769368549562e-9,2.222893120819571e-8,9.932142495431214e-8,1.1156993256318769e-8,1.646551383939013e-8,6
59595,6.977820497102677e-9,9.302575226999339e-10,8.276641052168803e-10,2.0527361383466846e-9,2.1953083967553243e-8,9.934443453769669e-8,1.1166697130464893e-8,1.6387478116479812e-8,6
59596,6.863326256581931e-9,9.312203883241093e-10,8.274212506490321e-10,2.0544953398384126e-9,2.1677236726910777e-8,9.936744412108123e-8,1.1176401004611016e-8,1.6309442393569497e-8,6
59597,6.748832016061185e-9,9.321832539482848e-10,8.271783960811839e-10,2.056254541330141e-9,2.140138948626831e-8,9.939045370446578e-8,1.118610487875714e-8,1.623140667065918e-8,6
59598,6.634337775540438e-9,9.331461195724602e-10,8.269355415133356e-10,2.058013742821869e-9,2.1125542245625846e-8,9.941346328785033e-8,1.1195808752903264e-8,1.6153370947748865e-8,6
59599,6.519843535019692e-9,9.341089851966356e-10,8.266926869454874e-10,2.0597729443135973e-9,2.084969500498338e-8,9.943647287123487e-8,1.1205512627049388e-8,1.6075335224838547e-8,6
59600,6.405349294498946e-9,9.35071850820811e-10,8.264498323776392e-10,2.0615321458053256e-9,2.0573847764340913e-8,9.945948245461942e-8,1.1215216501195512e-8,1.5997299501928233e-8,6
59601,6.314707001443444e-9,9.361039976654636e-10,8.302230907104679e-10,2.0626339919467854e-9,2.0220963628940083e-8,9.934019183936994e-8,1.1211241017350798e-8,1.603923018479301e-8,6
59602,6.180793318438235e-9,9.384003476082526e-10,8.362472600614832e-10,2.0721875099177567e-9,1.9889181466298118e-8,9.923498510480528e-8,1.126126174000091e-8,1.602999439686983e-8,6
59603,6.130702088210409e-9,9.36637391392909e-10,8.415037337644223e-10,2.0750485575509452e-9,1.990092158718429e-8,9.924243622839737e-8,1.1217584489512946e-8,1.608592558803579e-8,6
59604,6.12224457127563e-9,9.327859288962074e-10,8.388323335180917e-10,2.0441216795391283e-9,1.9717958962133182e-8,9.925773352187872e-8,1.1264782094007242e-8,1.605672196491464e-8,6
59605,6.116443523289665e-9,9.311615351218178e-10,8.441148951840518e-10,2.051915996018371e-9,1.948987860260665e-8,9.857523653829943e-8,1.130073594172497e-8,1.6133653918532377e-8,6
59606,6.1106424753037e-9,9.295371413474283e-10,8.493974568500119e-10,2.0597103124976144e-9,1.9261798243080118e-8,9.789273955472016e-8,1.1336689789442697e-8,1.6210585872150113e-8,6
59607,6.094325039740908e-9,9.273447132353546e-10,8.496403114178602e-10,2.0605763476619744e-9,1.9247218906108566e-8,9.788695533729276e-8,1.1344839239865434e-8,1.6240564190711615e-8,6
59608,6.078007604178117e-9,9.251522851232811e-10,8.498831659857083e-10,2.061442382826335e-9,1.9232639569137013e-8,9.788117111986535e-8,1.135298869028817e-8,1.6270542509273117e-8,6
59609,6.061690168615326e-9,9.229598570112075e-10,8.501260205535566e-10,2.0623084179906952e-9,1.921806023216546e-8,9.787538690243795e-8,1.1361138140710907e-8,1.630052082783462e-8,6
59610,6.045372733052535e-9,9.207674288991339e-10,8.503688751214049e-10,2.0631744531550557e-9,1.9203480895193908e-8,9.786960268501054e-8,1.1369287591133644e-8,1.633049914639612e-8,6
59611,6.029055297489744e-9,9.185750007870603e-10,8.50611729689253e-10,2.064040488319416e-9,1.9188901558222352e-8,9.786381846758313e-8,1.1377437041556381e-8,1.6360477464957622e-8,6
59612,6.012737861926953e-9,9.163825726749867e-10,8.508545842571013e-10,2.064906523483776e-9,1.91743222212508e-8,9.785803425015573e-8,1.1385586491979118e-8,1.6390455783519124e-8,6
59613,5.996420426364162e-9,9.141901445629131e-10,8.510974388249496e-10,2.0657725586481365e-9,1.9159742884279247e-8,9.785225003272832e-8,1.1393735942401855e-8,1.6420434102080626e-8,6
59614,5.980102990801371e-9,9.119977164508394e-10,8.513402933927977e-10,2.066638593812497e-9,1.9145163547307695e-8,9.784646581530093e-8,1.1401885392824592e-8,1.6450412420642128e-8,6
59615,5.9750622444849525e-9,9.159531007782568e-10,8.523247556457012e-10,2.0670330070226577e-9,1.9127821645559692e-8,9.784274355033538e-8,1.141013663089792e-8,1.6439110778211346e-8,6
59616,5.970021498168533e-9,9.199084851056741e-10,8.533092178986047e-10,2.0674274202328185e-9,1.9110479743811693e-8,9.783902128536982e-8,1.1418387868971247e-8,1.6427809135780565e-8,6
59617,5.964980751852114e-9,9.238638694330914e-10,8.542936801515082e-10,2.0678218334429797e-9,1.909313784206369e-8,9.783529902040427e-8,1.1426639107044574e-8,1.6416507493349783e-8,6
59618,5.959940005535695e-9,9.278192537605087e-10,8.552781424044115e-10,2.0682162466531406e-9,1.907579594031569e-8,9.783157675543872e-8,1.1434890345117902e-8,1.6405205850919e-8,6
59619,5.954899259219276e-9,9.31774638087926e-10,8.56262604657315e-10,2.0686106598633014e-9,1.905845403856769e-8,9.782785449047318e-8,1.1443141583191229e-8,1.639390420848822e-8,6
59620,5.949858512902857e-9,9.357300224153433e-10,8.572470669102185e-10,2.069005073073462e-9,1.9041112136819688e-8,9.782413222550763e-8,1.1451392821264558e-8,1.638260256605744e-8,6
59621,5.944817766586438e-9,9.396854067427608e-10,8.58231529163122e-10,2.069399486283623e-9,1.902377023507169e-8,9.782040996054207e-8,1.1459644059337884e-8,1.6371300923626657e-8,6
59622,5.9397770202700185e-9,9.43640791070178e-10,8.592159914160253e-10,2.069793899493784e-9,1.9006428333323686e-8,9.781668769557652e-8,1.1467895297411213e-8,1.6359999281195876e-8,6
59623,5.9347362739536e-9,9.475961753975953e-10,8.602004536689288e-10,2.070188312703945e-9,1.8989086431575684e-8,9.781296543061098e-8,1.147614653548454e-8,1.6348697638765094e-8,6
59624,5.929695527637181e-9,9.515515597250127e-10,8.611849159218323e-10,2.070582725914106e-9,1.8971744529827685e-8,9.780924316564543e-8,1.1484397773557866e-8,1.633739599633431e-8,6
59625,5.924654781320761e-9,9.5550694405243e-10,8.621693781747358e-10,2.0709771391242667e-9,1.8954402628079683e-8,9.780552090067987e-8,1.1492649011631195e-8,1.6326094353903528e-8,6
59626,5.9196140350043426e-9,9.594623283798472e-10,8.631538404276391e-10,2.0713715523344275e-9,1.893706072633168e-8,9.780179863571432e-8,1.1500900249704522e-8,1.6314792711472746e-8,6
59627,5.914573288687924e-9,9.634177127072646e-10,8.641383026805426e-10,2.0717659655445883e-9,1.8919718824583682e-8,9.779807637074878e-8,1.150915148777785e-8,1.6303491069041965e-8,6
59628,5.909532542371504e-9,9.673730970346819e-10,8.651227649334461e-10,2.072160378754749e-9,1.890237692283568e-8,9.779435410578323e-8,1.1517402725851177e-8,1.6292189426611183e-8,6
59629,5.904491796055085e-9,9.713284813620991e-10,8.661072271863496e-10,2.07255479196491e-9,1.888503502108768e-8,9.779063184081767e-8,1.1525653963924505e-8,1.6280887784180402e-8,6
59630,5.899451049738667e-9,9.752838656895166e-10,8.67091689439253e-10,2.072949205175071e-9,1.8867693119339678e-8,9.778690957585212e-8,1.1533905201997832e-8,1.626958614174962e-8,6
59631,5.904396008795257e-9,9.751106626383238e-10,8.658121966924593e-10,2.072949205175071e-9,1.886439399540071e-8,9.769986536714698e-8,1.1539904780497257e-8,1.6268294982682367e-8,6
59632,5.909340967851848e-9,9.802263282331623e-10,8.66540760396004e-10,2.073343618385232e-9,1.8857295955187262e-8,9.736205204730678e-8,1.154597706446139e-8,1.624915497445383e-8,6
59633,5.914285926908438e-9,9.853419938280006e-10,8.672693240995487e-10,2.0737380315953928e-9,1.8850197914973814e-8,9.702423872746656e-8,1.1552049348425523e-8,1.623001496622529e-8,6
59634,5.919230885965028e-9,9.90457659422839e-10,8.679978878030934e-10,2.0741324448055536e-9,1.8843099874760366e-8,9.668642540762634e-8,1.1558121632389656e-8,1.621087495799675e-8,6
59635,5.924175845021619e-9,9.955733250176774e-10,8.687264515066381e-10,2.0745268580157144e-9,1.8836001834546918e-8,9.634861208778612e-8,1.1564193916353788e-8,1.6191734949768212e-8,6
59636,5.929120804078209e-9,1.000688990612516e-9,8.694550152101827e-10,2.0749212712258752e-9,1.882890379433347e-8,9.60107987679459e-8,1.1570266200317921e-8,1.6172594941539674e-8,6
59637,5.9340657631348e-9,1.0058046562073542e-9,8.701835789137274e-10,2.0753156844360365e-9,1.8821805754120023e-8,9.567298544810568e-8,1.1576338484282054e-8,1.6153454933311136e-8,6
59638,5.935855500125369e-9,1.0047725093627016e-9,8.709121426172721e-10,2.0805932889112208e-9,1.933444315042664e-8,9.57741333184786e-8,1.157415953017286e-8,1.614936607114728e-8,6
59639,5.937645237115938e-9,1.0037403625180493e-9,8.716407063208168e-10,2.0858708933864055e-9,1.984708054673326e-8,9.587528118885153e-8,1.1571980576063666e-8,1.6145277208983422e-8,6
59640,5.939434974106508e-9,1.0027082156733967e-9,8.723692700243615e-10,2.09114849786159e-9,2.0359717943039874e-8,9.597642905922446e-8,1.156980162195447e-8,1.6141188346819565e-8,6
59641,5.941224711097078e-9,1.0016760688287442e-9,8.730978337279062e-10,2.096426102336775e-9,2.0872355339346493e-8,9.607757692959738e-8,1.1567622667845276e-8,1.6137099484655708e-8,6
59642,5.943014448087647e-9,1.0006439219840916e-9,8.738263974314509e-10,2.101703706811959e-9,2.138499273565311e-8,9.61787247999703e-8,1.156544371373608e-8,1.6133010622491848e-8,6
59643,5.944804185078217e-9,9.996117751394393e-10,8.745549611349956e-10,2.106981311287144e-9,2.189763013195973e-8,9.627987267034322e-8,1.1563264759626887e-8,1.612892176032799e-8,6
59644,5.9322821420036926e-9,9.996117751394393e-10,8.752835248385403e-10,2.1081645509176267e-9,2.2358664964048928e-8,9.657673448190142e-8,1.1563322923998653e-8,1.6054759514619436e-8,6
59645,5.909611690193381e-9,9.993450782757164e-10,8.72251874190767e-10,2.092548786796133e-9,2.2861058498820992e-8,9.665921258037559e-8,1.1537087491519992e-8,1.603477396891177e-8,6
59646,5.913732489407206e-9,9.990783814119936e-10,8.722257862277459e-10,2.0955955678253897e-9,2.3342811007906092e-8,9.682784298740156e-8,1.1372717079235809e-8,1.6008775390610192e-8,6
59647,5.917853288621031e-9,9.988116845482708e-10,8.721996982647249e-10,2.098642348854647e-9,2.3824563516991188e-8,9.699647339442755e-8,1.1208346666951628e-8,1.5982776812308616e-8,6
59648,5.921974087834857e-9,9.98544987684548e-10,8.721736103017038e-10,2.1016891298839036e-9,2.4306316026076287e-8,9.716510380145352e-8,1.1043976254667447e-8,1.595677823400704e-8,6
59649,5.926094887048682e-9,9.982782908208254e-10,8.721475223386828e-10,2.1047359109131608e-9,2.4788068535161384e-8,9.73337342084795e-8,1.0879605842383264e-8,1.5930779655705464e-8,6
59650,5.930215686262508e-9,9.980115939571026e-10,8.721214343756618e-10,2.1077826919424175e-9,2.526982104424648e-8,9.750236461550547e-8,1.0715235430099083e-8,1.590478107740389e-8,6
59651,5.934336485476333e-9,9.977448970933798e-10,8.720953464126407e-10,2.1108294729716746e-9,2.575157355333158e-8,9.767099502253144e-8,1.0550865017814902e-8,1.5878782499102315e-8,6
59652,5.938457284690158e-9,9.97478200229657e-10,8.720692584496197e-10,2.1138762540009314e-9,2.6233326062416675e-8,9.783962542955742e-8,1.038649460553072e-8,1.585278392080074e-8,6
59653,5.9633417254061584e-9,9.97478200229657e-10,8.710587082336952e-10,2.1120398437651646e-9,2.6279250194463336e-8,9.761629623279075e-8,1.0230273643669276e-8,1.58465583620905e-8,6
59654,5.9882261661221585e-9,9.97478200229657e-10,8.700481580177707e-10,2.110203433529398e-9,2.6325174326509997e-8,9.739296703602408e-8,1.0074052681807832e-8,1.584033280338026e-8,6
59655,6.013110606838158e-9,9.97478200229657e-10,8.690376078018462e-10,2.108367023293631e-9,2.637109845855666e-8,9.716963783925742e-8,9.917831719946386e-9,1.583410724467002e-8,6
59656,6.037995047554158e-9,9.97478200229657e-10,8.680270575859218e-10,2.1065306130578644e-9,2.6417022590603322e-8,9.694630864249075e-8,9.761610758084942e-9,1.582788168595978e-8,6
59657,6.062879488270158e-9,9.97478200229657e-10,8.670165073699974e-10,2.1046942028220977e-9,2.6462946722649983e-8,9.672297944572408e-8,9.605389796223498e-9,1.582165612724954e-8,6
59658,6.087763928986158e-9,9.97478200229657e-10,8.660059571540729e-10,2.102857792586331e-9,2.6508870854696644e-8,9.649965024895741e-8,9.449168834362052e-9,1.58154305685393e-8,6
59659,6.112648369702158e-9,9.97478200229657e-10,8.649954069381484e-10,2.101021382350564e-9,2.6554794986743305e-8,9.627632105219074e-8,9.292947872500608e-9,1.5809205009829058e-8,6
59660,6.137532810418158e-9,9.97478200229657e-10,8.639848567222239e-10,2.0991849721147975e-9,2.660071911878997e-8,9.605299185542407e-8,9.136726910639162e-9,1.5802979451118818e-8,6
59661,6.162417251134157e-9,9.97478200229657e-10,8.629743065062994e-10,2.0973485618790307e-9,2.664664325083663e-8,9.58296626586574e-8,8.980505948777718e-9,1.5796753892408578e-8,6
59662,6.187301691850157e-9,9.97478200229657e-10,8.619637562903749e-10,2.0955121516432636e-9,2.669256738288329e-8,9.560633346189073e-8,8.824284986916274e-9,1.5790528333698338e-8,6
59663,6.212186132566157e-9,9.97478200229657e-10,8.609532060744505e-10,2.093675741407497e-9,2.6738491514929952e-8,9.538300426512405e-8,8.668064025054828e-9,1.5784302774988098e-8,6
59664,6.237070573282157e-9,9.97478200229657e-10,8.59942655858526e-10,2.09183933117173e-9,2.6784415646976616e-8,9.515967506835738e-8,8.511843063193384e-9,1.5778077216277858e-8,6
59665,6.261955013998157e-9,9.97478200229657e-10,8.589321056426015e-10,2.0900029209359633e-9,2.6830339779023277e-8,9.493634587159071e-8,8.35562210133194e-9,1.5771851657567618e-8,6
59666,6.286839454714157e-9,9.97478200229657e-10,8.57921555426677e-10,2.0881665107001966e-9,2.6876263911069938e-8,9.471301667482404e-8,8.199401139470495e-9,1.5765626098857378e-8,6
59667,6.267062676417527e-9,9.994385720882465e-10,8.638805048701398e-10,2.111163416417733e-9,2.7127362526078616e-8,9.48934964639989e-8,8.381382770311405e-9,1.585056609753785e-8,6
59668,6.329636435534129e-9,9.993346502575308e-10,8.678183538817536e-10,2.132323911899502e-9,2.744372322656909e-8,9.450234483452252e-8,8.575349017058224e-9,1.5816501775658254e-8,6
59669,6.392210194650732e-9,9.992307284268152e-10,8.717562028933674e-10,2.153484407381272e-9,2.7760083927059566e-8,9.411119320504614e-8,8.769315263805042e-9,1.578243745377866e-8,6
59670,6.454783953767334e-9,9.991268065960996e-10,8.756940519049812e-10,2.1746449028630414e-9,2.807644462755004e-8,9.372004157556974e-8,8.963281510551861e-9,1.5748373131899064e-8,6
59671,6.517357712883936e-9,9.99022884765384e-10,8.79631900916595e-10,2.1958053983448106e-9,2.8392805328040517e-8,9.332888994609335e-8,9.157247757298679e-9,1.571430881001947e-8,6
59672,6.579931472000538e-9,9.989189629346683e-10,8.835697499282088e-10,2.2169658938265803e-9,2.870916602853099e-8,9.293773831661697e-8,9.351214004045498e-9,1.5680244488139873e-8,6
59673,6.76636629264639e-9,9.968893098556019e-10,8.82316345144436e-10,2.2169658938265803e-9,2.8712275083025092e-8,9.224182685228311e-8,9.351214004045498e-9,1.555667026280844e-8,6
59674,6.761541464837099e-9,9.948596567765352e-10,8.803082886940977e-10,2.2169658938265803e-9,2.8738020175674986e-8,9.158972363568744e-8,9.324978571566837e-9,1.5503010026434452e-8,6
59675,6.756716637027808e-9,9.928300036974688e-10,8.783002322437592e-10,2.2169658938265803e-9,2.8763765268324884e-8,9.093762041909177e-8,9.298743139088174e-9,1.5449349790060466e-8,6
59676,6.751891809218518e-9,9.908003506184023e-10,8.762921757934207e-10,2.2169658938265803e-9,2.8789510360974778e-8,9.02855172024961e-8,9.272507706609512e-9,1.539568955368648e-8,6
59677,6.747066981409226e-9,9.887706975393359e-10,8.742841193430823e-10,2.2169658938265803e-9,2.8815255453624672e-8,8.963341398590043e-8,9.24627227413085e-9,1.5342029317312494e-8,6
59678,6.742242153599936e-9,9.867410444602695e-10,8.722760628927438e-10,2.2169658938265803e-9,2.884100054627457e-8,8.898131076930476e-8,9.22003684165219e-9,1.5288369080938507e-8,6
59679,6.737417325790645e-9,9.847113913812028e-10,8.702680064424054e-10,2.2169658938265803e-9,2.8866745638924464e-8,8.83292075527091e-8,9.193801409173526e-9,1.523470884456452e-8,6
59680,6.732592497981354e-9,9.826817383021364e-10,8.68259949992067e-10,2.2169658938265803e-9,2.889249073157436e-8,8.767710433611343e-8,9.167565976694865e-9,1.5181048608190532e-8,6
59681,6.7277676701720635e-9,9.8065208522307e-10,8.662518935417285e-10,2.2169658938265803e-9,2.8918235824224256e-8,8.702500111951774e-8,9.141330544216204e-9,1.5127388371816545e-8,6
59682,6.7277676701720635e-9,9.806867258333084e-10,8.66264937523239e-10,2.219196717272508e-9,2.895794496493764e-8,8.711664440675876e-8,9.120339290014685e-9,1.5217581559314503e-8,6
59683,6.724676306279262e-9,9.799905570728558e-10,8.665208360725978e-10,2.2205615055540754e-9,2.899232112397961e-8,8.710779223771306e-8,9.094103857536023e-9,1.5235554382043648e-8,6
59684,6.72158494238646e-9,9.792943883124032e-10,8.667767346219566e-10,2.2219262938356425e-9,2.902669728302158e-8,8.709894006866736e-8,9.067868425057362e-9,1.5253527204772796e-8,6
59685,6.718493578493658e-9,9.785982195519506e-10,8.670326331713152e-10,2.2232910821172097e-9,2.906107344206355e-8,8.709008789962167e-8,9.041632992578699e-9,1.527150002750194e-8,6
59686,6.715402214600856e-9,9.779020507914978e-10,8.67288531720674e-10,2.2246558703987772e-9,2.9095449601105518e-8,8.708123573057597e-8,9.015397560100038e-9,1.5289472850231086e-8,6
59687,6.712310850708054e-9,9.772058820310452e-10,8.675444302700328e-10,2.2260206586803444e-9,2.9129825760147488e-8,8.707238356153026e-8,8.989162127621376e-9,1.530744567296023e-8,6
59688,6.690224296245908e-9,9.772751632515224e-10,8.678003288193915e-10,2.2378321312602507e-9,2.9279990332908716e-8,8.706219259262403e-8,8.979172524184295e-9,1.530744567296023e-8,6
59689,6.669796704498161e-9,9.785047257394204e-10,8.717642657940264e-10,2.2401172170321938e-9,2.933910992149294e-8,8.731429201069761e-8,8.964819919960952e-9,1.524738277277906e-8,6
59690,6.649369112750414e-9,9.797342882273186e-10,8.757282027686612e-10,2.2424023028041364e-9,2.9398229510077163e-8,8.75663914287712e-8,8.950467315737608e-9,1.5187319872597892e-8,6
59691,6.628941521002668e-9,9.809638507152168e-10,8.79692139743296e-10,2.244687388576079e-9,2.9457349098661384e-8,8.781849084684478e-8,8.936114711514265e-9,1.5127256972416722e-8,6
59692,6.608513929254921e-9,9.82193413203115e-10,8.836560767179308e-10,2.2469724743480217e-9,2.9516468687245606e-8,8.807059026491837e-8,8.921762107290921e-9,1.506719407223555e-8,6
59693,6.588086337507175e-9,9.834229756910133e-10,8.876200136925657e-10,2.2492575601199644e-9,2.957558827582983e-8,8.832268968299195e-8,8.907409503067578e-9,1.500713117205438e-8,6
59694,6.567658745759428e-9,9.846525381789115e-10,8.915839506672005e-10,2.251542645891907e-9,2.9634707864414053e-8,8.857478910106554e-8,8.893056898844234e-9,1.494706827187321e-8,6
59695,6.547231154011681e-9,9.858821006668097e-10,8.955478876418353e-10,2.2538277316638497e-9,2.9693827452998275e-8,8.882688851913912e-8,8.87870429462089e-9,1.488700537169204e-8,6
59696,6.526803562263935e-9,9.871116631547077e-10,8.995118246164702e-10,2.2561128174357923e-9,2.9752947041582497e-8,8.90789879372127e-8,8.864351690397547e-9,1.4826942471510868e-8,6
59697,6.506375970516188e-9,9.88341225642606e-10,9.03475761591105e-10,2.2583979032077354e-9,2.981206663016672e-8,8.933108735528628e-8,8.849999086174203e-9,1.4766879571329699e-8,6
59698,6.485948378768442e-9,9.895707881305041e-10,9.074396985657398e-10,2.260682988979678e-9,2.987118621875095e-8,8.958318677335986e-8,8.835646481950861e-9,1.4706816671148528e-8,6
59699,6.465520787020695e-9,9.908003506184023e-10,9.114036355403747e-10,2.2629680747516207e-9,2.9930305807335165e-8,8.983528619143344e-8,8.821293877727518e-9,1.4646753770967358e-8,6
59700,6.445093195272948e-9,9.920299131063005e-10,9.153675725150095e-10,2.2652531605235634e-9,2.998942539591939e-8,9.008738560950703e-8,8.806941273504174e-9,1.4586690870786187e-8,6
59701,6.424665603525202e-9,9.932594755941988e-10,9.193315094896443e-10,2.267538246295506e-9,3.004854498450361e-8,9.033948502758061e-8,8.79258866928083e-9,1.4526627970605017e-8,6
59702,6.404238011777455e-9,9.94489038082097e-10,9.232954464642791e-10,2.2698233320674487e-9,3.0107664573087834e-8,9.059158444565419e-8,8.778236065057487e-9,1.4466565070423846e-8,6
59703,6.383810420029709e-9,9.95718600569995e-10,9.272593834389139e-10,2.2721084178393913e-9,3.016678416167206e-8,9.084368386372779e-8,8.763883460834144e-9,1.4406502170242677e-8,6
59704,6.363382828281962e-9,9.969481630578932e-10,9.312233204135488e-10,2.2743935036113344e-9,3.022590375025628e-8,9.109578328180137e-8,8.7495308566108e-9,1.4346439270061506e-8,6
59705,6.3666901106818925e-9,9.989085349164827e-10,9.351872573881836e-10,2.2771502113374762e-9,3.0293694289714505e-8,9.140054311665883e-8,8.756498859158757e-9,1.43427074769373e-8,6
59706,6.278661714459725e-9,1.0008342661648335e-9,9.389083397949703e-10,2.2803013322737793e-9,3.036110157262807e-8,9.039385191249507e-8,8.74230620695777e-9,1.4354864941524942e-8,6
59707,6.190633318237559e-9,1.0027599974131843e-9,9.426294222017569e-10,2.2834524532100824e-9,3.0428508855541634e-8,8.938716070833132e-8,8.728113554756783e-9,1.4367022406112581e-8,6
59708,6.102604922015392e-9,1.004685728661535e-9,9.463505046085434e-10,2.2866035741463854e-9,3.04959161384552e-8,8.838046950416756e-8,8.713920902555797e-9,1.4379179870700222e-8,6
59709,6.0145765257932255e-9,1.006611459909886e-9,9.5007158701533e-10,2.2897546950826885e-9,3.056332342136877e-8,8.737377830000381e-8,8.69972825035481e-9,1.4391337335287864e-8,6
59710,5.926548129571058e-9,1.008537191158237e-9,9.537926694221167e-10,2.2929058160189916e-9,3.063073070428234e-8,8.636708709584005e-8,8.685535598153822e-9,1.4403494799875505e-8,6
59711,5.838519733348892e-9,1.0104629224065877e-9,9.575137518289033e-10,2.2960569369552946e-9,3.0698137987195905e-8,8.53603958916763e-8,8.671342945952837e-9,1.4415652264463144e-8,6
59712,5.759674168714709e-9,1.0112283723875175e-9,9.595348522607522e-10,2.305374643949166e-9,3.094141712947528e-8,8.44308275865446e-8,8.666258719698048e-9,1.4515579993001485e-8,6
59713,5.680828604080526e-9,1.0119938223684472e-9,9.615559526926012e-10,2.3146923509430375e-9,3.118469627175466e-8,8.350125928141291e-8,8.661174493443262e-9,1.4615507721539826e-8,6
59714,5.601983039446344e-9,1.012759272349377e-9,9.635770531244502e-10,2.3240100579369094e-9,3.1427975414034036e-8,8.257169097628121e-8,8.656090267188474e-9,1.4715435450078166e-8,6
59715,5.523137474812161e-9,1.0135247223303067e-9,9.655981535562991e-10,2.333327764930781e-9,3.167125455631342e-8,8.164212267114952e-8,8.651006040933687e-9,1.4815363178616507e-8,6
59716,5.444291910177979e-9,1.0142901723112365e-9,9.676192539881481e-10,2.3426454719246523e-9,3.19145336985928e-8,8.071255436601783e-8,8.645921814678899e-9,1.4915290907154848e-8,6
59717,5.3654463455437965e-9,1.0150556222921662e-9,9.696403544199969e-10,2.3519631789185237e-9,3.2157812840872174e-8,7.978298606088613e-8,8.640837588424111e-9,1.5015218635693187e-8,6
59718,5.3654463455437965e-9,1.0121670254196398e-9,9.709198471667907e-10,2.361516696889495e-9,3.2351522237448274e-8,7.951920790747672e-8,8.630024971867915e-9,1.5099115422442127e-8,6
59719,5.373935791565185e-9,1.0129671160108082e-9,9.692198651918532e-10,2.359807572978798e-9,3.241939566352527e-8,7.994892568086908e-8,8.522947911122897e-9,1.5126822786211654e-8,6
59720,5.382425237586573e-9,1.0137672066019765e-9,9.675198832169154e-10,2.3580984490681007e-9,3.248726908960227e-8,8.037864345426144e-8,8.41587085037788e-9,1.5154530149981184e-8,6
59721,5.390914683607961e-9,1.0145672971931447e-9,9.658199012419778e-10,2.3563893251574035e-9,3.2555142515679265e-8,8.08083612276538e-8,8.308793789632862e-9,1.5182237513750714e-8,6
59722,5.3994041296293505e-9,1.0153673877843131e-9,9.641199192670403e-10,2.3546802012467064e-9,3.262301594175626e-8,8.123807900104615e-8,8.201716728887844e-9,1.520994487752024e-8,6
59723,5.407893575650739e-9,1.0161674783754813e-9,9.624199372921025e-10,2.3529710773360093e-9,3.269088936783326e-8,8.16677967744385e-8,8.094639668142826e-9,1.523765224128977e-8,6
59724,5.407200190084144e-9,1.0161674783754813e-9,9.594404625703712e-10,2.3498470875627137e-9,3.2620105270453485e-8,8.249598152165223e-8,7.982686312401398e-9,1.5169386480439227e-8,6
59725,5.406506804517548e-9,1.0161674783754813e-9,9.564609878486398e-10,2.3467230977894182e-9,3.2549321173073715e-8,8.332416626886596e-8,7.87073295665997e-9,1.5101120719588684e-8,6
59726,5.4058134189509525e-9,1.0161674783754813e-9,9.534815131269084e-10,2.3435991080161227e-9,3.2478537075693945e-8,8.415235101607969e-8,7.758779600918542e-9,1.503285495873814e-8,6
59727,5.4051200333843565e-9,1.0161674783754813e-9,9.50502038405177e-10,2.340475118242827e-9,3.240775297831417e-8,8.498053576329342e-8,7.646826245177114e-9,1.4964589197887596e-8,6
59728,5.404426647817761e-9,1.0161674783754813e-9,9.475225636834457e-10,2.3373511284695317e-9,3.23369688809344e-8,8.580872051050716e-8,7.534872889435684e-9,1.489632343703705e-8,6
59729,5.403733262251165e-9,1.0161674783754813e-9,9.445430889617143e-10,2.334227138696236e-9,3.226618478355463e-8,8.663690525772089e-8,7.4229195336942565e-9,1.4828057676186506e-8,6
59730,5.40303987668457e-9,1.0161674783754813e-9,9.415636142399828e-10,2.3311031489229407e-9,3.219540068617485e-8,8.746509000493462e-8,7.3109661779528285e-9,1.4759791915335963e-8,6
59731,5.402346491117974e-9,1.0161674783754813e-9,9.385841395182516e-10,2.327979159149645e-9,3.212461658879508e-8,8.829327475214834e-8,7.1990128222114005e-9,1.4691526154485419e-8,6
59732,5.401653105551379e-9,1.0161674783754813e-9,9.356046647965201e-10,2.3248551693763496e-9,3.2053832491415306e-8,8.912145949936207e-8,7.087059466469972e-9,1.4623260393634875e-8,6
59733,5.400959719984783e-9,1.0161674783754813e-9,9.326251900747887e-10,2.321731179603054e-9,3.1983048394035536e-8,8.99496442465758e-8,6.975106110728544e-9,1.4554994632784331e-8,6
59734,5.400266334418188e-9,1.0161674783754813e-9,9.296457153530574e-10,2.3186071898297586e-9,3.1912264296655766e-8,9.077782899378954e-8,6.863152754987115e-9,1.4486728871933787e-8,6
59735,5.399572948851592e-9,1.0161674783754813e-9,9.266662406313259e-10,2.315483200056463e-9,3.184148019927599e-8,9.160601374100327e-8,6.751199399245687e-9,1.4418463111083243e-8,6
59736,5.398879563284997e-9,1.0161674783754813e-9,9.236867659095946e-10,2.3123592102831676e-9,3.177069610189622e-8,9.2434198488217e-8,6.639246043504259e-9,1.43501973502327e-8,6
59737,5.398186177718401e-9,1.0161674783754813e-9,9.207072911878633e-10,2.309235220509872e-9,3.169991200451645e-8,9.326238323543072e-8,6.52729268776283e-9,1.4281931589382154e-8,6
59738,5.397492792151806e-9,1.0161674783754813e-9,9.177278164661318e-10,2.3061112307365765e-9,3.1629127907136674e-8,9.409056798264445e-8,6.415339332021402e-9,1.421366582853161e-8,6
59739,5.39679940658521e-9,1.0161674783754813e-9,9.147483417444005e-10,2.302987240963281e-9,3.1558343809756904e-8,9.491875272985819e-8,6.303385976279974e-9,1.4145400067681066e-8,6
59740,5.403131136774992e-9,1.0150071971080603e-9,9.147744297074215e-10,2.3054538753863084e-9,3.1550632559072004e-8,9.470197426360824e-8,6.33328208112651e-9,1.4325941270278029e-8,6
59741,5.380577758282247e-9,1.0138469158406392e-9,9.148005176704425e-10,2.307684698832236e-9,3.1515948755576e-8,9.474934072315988e-8,6.403005729884896e-9,1.4465468169528123e-8,6
59742,5.358024379789504e-9,1.0126866345732182e-9,9.148266056334635e-10,2.3099155222781635e-9,3.148126495208e-8,9.479670718271154e-8,6.4727293786432836e-9,1.4604995068778218e-8,6
59743,5.335471001296759e-9,1.011526353305797e-9,9.148526935964846e-10,2.3121463457240914e-9,3.1446581148584e-8,9.48440736422632e-8,6.54245302740167e-9,1.4744521968028312e-8,6
59744,5.312917622804015e-9,1.0103660720383759e-9,9.148787815595056e-10,2.314377169170019e-9,3.141189734508799e-8,9.489144010181485e-8,6.6121766761600575e-9,1.4884048867278408e-8,6
59745,5.290364244311271e-9,1.0092057907709548e-9,9.149048695225266e-10,2.3166079926159466e-9,3.1377213541591995e-8,9.49388065613665e-8,6.681900324918444e-9,1.50235757665285e-8,6
59746,5.267810865818527e-9,1.0080455095035337e-9,9.149309574855476e-10,2.318838816061874e-9,3.134252973809599e-8,9.498617302091815e-8,6.7516239736768315e-9,1.5163102665778595e-8,6
59747,5.2755400101703694e-9,1.0058530813914601e-9,9.142023937820029e-10,2.3192332292720353e-9,3.133662135199844e-8,9.496090066509267e-8,6.758422575677362e-9,1.522100087422596e-8,6
59748,5.246481555096195e-9,1.0039273501431093e-9,9.134738300784582e-10,2.3188659472248817e-9,3.13825454840451e-8,9.560820208391233e-8,6.756456645394417e-9,1.5179229585948435e-8,6
59749,5.217423100022021e-9,1.0020016188947585e-9,9.127452663749135e-10,2.3184986651777284e-9,3.1428469616091766e-8,9.625550350273201e-8,6.754490715111473e-9,1.5137458297670908e-8,6
59750,5.188364644947846e-9,1.0000758876464075e-9,9.120167026713688e-10,2.318131383130575e-9,3.147439374813843e-8,9.690280492155168e-8,6.752524784828527e-9,1.509568700939338e-8,6
59751,5.1593061898736716e-9,9.981501563980567e-10,9.112881389678241e-10,2.317764101083422e-9,3.152031788018509e-8,9.755010634037135e-8,6.750558854545583e-9,1.5053915721115855e-8,6
59752,5.130247734799497e-9,9.96224425149706e-10,9.105595752642794e-10,2.317396819036268e-9,3.156624201223175e-8,9.819740775919102e-8,6.748592924262638e-9,1.501214443283833e-8,6
59753,5.101189279725323e-9,9.94298693901355e-10,9.098310115607347e-10,2.317029536989115e-9,3.161216614427841e-8,9.88447091780107e-8,6.746626993979693e-9,1.4970373144560804e-8,6
59754,5.072130824651148e-9,9.923729626530043e-10,9.0910244785719e-10,2.3166622549419617e-9,3.165809027632507e-8,9.949201059683036e-8,6.744661063696748e-9,1.4928601856283278e-8,6
59755,5.043072369576974e-9,9.904472314046535e-10,9.083738841536453e-10,2.3162949728948084e-9,3.170401440837173e-8,1.0013931201565003e-7,6.742695133413803e-9,1.4886830568005753e-8,6
59756,5.0140139145027994e-9,9.885215001563025e-10,9.076453204501006e-10,2.315927690847655e-9,3.174993854041839e-8,1.007866134344697e-7,6.740729203130858e-9,1.4845059279728226e-8,6
59757,4.984955459428624e-9,9.865957689079517e-10,9.069167567465559e-10,2.3155604088005014e-9,3.179586267246505e-8,1.0143391485328937e-7,6.738763272847914e-9,1.48032879914507e-8,6
59758,4.95589700435445e-9,9.846700376596009e-10,9.061881930430112e-10,2.315193126753348e-9,3.184178680451172e-8,1.0208121627210905e-7,6.736797342564968e-9,1.4761516703173174e-8,6
59759,4.926838549280276e-9,9.8274430641125e-10,9.054596293394665e-10,2.314825844706195e-9,3.188771093655838e-8,1.0272851769092871e-7,6.734831412282024e-9,1.4719745414895649e-8,6
59760,4.897780094206101e-9,9.808185751628993e-10,9.047310656359218e-10,2.3144585626590416e-9,3.193363506860504e-8,1.0337581910974838e-7,6.732865481999078e-9,1.4677974126618122e-8,6
59761,4.8687216391319265e-9,9.788928439145484e-10,9.040025019323771e-10,2.314091280611888e-9,3.1979559200651703e-8,1.0402312052856806e-7,6.730899551716134e-9,1.4636202838340597e-8,6
59762,4.839663184057752e-9,9.769671126661974e-10,9.032739382288324e-10,2.3137239985647347e-9,3.2025483332698364e-8,1.0467042194738772e-7,6.728933621433189e-9,1.459443155006307e-8,6
59763,4.810604728983578e-9,9.750413814178466e-10,9.025453745252877e-10,2.3133567165175814e-9,3.2071407464745025e-8,1.053177233662074e-7,6.726967691150244e-9,1.4552660261785545e-8,6
59764,4.781546273909403e-9,9.731156501694958e-10,9.01816810821743e-10,2.312989434470428e-9,3.2117331596791686e-8,1.0596502478502706e-7,6.725001760867299e-9,1.4510888973508018e-8,6
59765,4.7524878188352286e-9,9.71189918921145e-10,9.010882471181983e-10,2.312622152423275e-9,3.216325572883835e-8,1.0661232620384673e-7,6.7230358305843545e-9,1.4469117685230493e-8,6
59766,4.723429363761054e-9,9.692641876727942e-10,9.003596834146536e-10,2.3122548703761212e-9,3.220917986088501e-8,1.072596276226664e-7,6.721069900301409e-9,1.4427346396952966e-8,6
59767,4.694370908686879e-9,9.673384564244434e-10,8.996311197111089e-10,2.311887588328968e-9,3.2255103992931676e-8,1.0790692904148607e-7,6.7191039700184645e-9,1.4385575108675441e-8,6
59768,4.665312453612705e-9,9.654127251760924e-10,8.989025560075642e-10,2.3115203062818147e-9,3.2301028124978336e-8,1.0855423046030574e-7,6.717138039735519e-9,1.4343803820397915e-8,6
59769,4.6559775616908115e-9,9.646472751951626e-10,8.989025560075642e-10,2.311388835211761e-9,3.2374921276852204e-8,1.091068423205101e-7,6.717138039735519e-9,1.4331904587623725e-8,6
59770,4.655316105210826e-9,9.528157628231494e-10,8.869846571206387e-10,2.2570476918542234e-9,3.2307286118448457e-8,1.0943925797629806e-7,6.711123920143153e-9,1.4044184596356345e-8,6
59771,4.6739113878525236e-9,9.409496098408975e-10,8.750537142522027e-10,2.22184490034662e-9,3.2847088215447665e-8,1.0910144465645784e-7,6.711123920143153e-9,1.376016097719378e-8,6
59772,4.675591636624663e-9,9.290834568586454e-10,8.631227713837666e-10,2.1701018624821633e-9,3.270555990517004e-8,1.090832736376763e-7,6.7536291712814055e-9,1.3473162549837668e-8,6
59773,4.677271885396803e-9,9.172173038763935e-10,8.511918285153306e-10,2.1183588246177066e-9,3.256403159489243e-8,1.0906510261889475e-7,6.7961344224196576e-09,1.3186164122481556e-8,6
59774,4.678952134168942e-9,9.053511508941415e-10,8.392608856468945e-10,2.0666157867532504e-9,3.2422503284614805e-8,1.0904693160011322e-7,6.8386396735579105e-9,1.2899165695125445e-8,6
59775,4.6806323829410825e-9,8.934849979118896e-10,8.273299427784584e-10,2.014872748888794e-9,3.228097497433719e-8,1.0902876058133167e-7,6.881144924696163e-9,1.2612167267769332e-8,6
59776,4.642118904697714e-9,8.937170541653738e-10,8.253088423466096e-10,2.0044260645904546e-9,3.226923485345102e-8,1.088882112146994e-7,6.857974716385451e-9,1.24926436247366e-8,6
59777,4.63795553336841e-9,8.778504482272805e-10,8.192846729955942e-10,2.0025625231916803e-9,3.2274567835122434e-8,1.0911111709126391e-7,6.902731627097605e-9,1.2451363663744317e-8,6
59778,4.633792162039105e-9,8.61983842289187e-10,8.132605036445789e-10,2.000698981792906e-9,3.227990081679385e-8,1.0933402296782843e-7,6.94748853780976e-9,1.2410083702752032e-8,6
59779,4.6296287907098004e-9,8.461172363510936e-10,8.072363342935636e-10,1.9988354403941318e-9,3.228523379846526e-8,1.0955692884439294e-7,6.9922454485219154e-9,1.2368803741759748e-8,6
59780,4.6254654193804955e-9,8.302506304130002e-10,8.012121649425482e-10,1.9969718989953575e-9,3.2290566780136676e-8,1.0977983472095745e-7,7.03700235923407e-9,1.2327523780767465e-8,6
59781,4.621302048051191e-9,8.143840244749068e-10,7.951879955915329e-10,1.995108357596583e-9,3.229589976180809e-8,1.1000274059752198e-7,7.081759269946225e-9,1.228624381977518e-8,6
59782,4.6171386767218865e-9,7.985174185368134e-10,7.891638262405176e-10,1.993244816197809e-9,3.2301232743479504e-8,1.102256464740865e-7,7.126516180658379e-9,1.2244963858782897e-8,6
59783,4.610633600140456e-9,7.833816219694112e-10,7.831396568895022e-10,1.9923015722894097e-9,3.2297894774276915e-8,1.1025925525999641e-7,7.131431006365742e-9,1.2204921925328784e-8,6
59784,4.604128523559025e-9,7.68245825402009e-10,7.771154875384869e-10,1.991358328381011e-9,3.2294556805074326e-8,1.1029286404590633e-7,7.136345832073104e-9,1.216487999187467e-8,6
59785,4.5976234469775945e-9,7.531100288346068e-10,7.710913181874716e-10,1.990415084472612e-9,3.2291218835871744e-8,1.1032647283181625e-7,7.141260657780466e-9,1.2124838058420556e-8,6
59786,4.591118370396165e-9,7.379742322672046e-10,7.650671488364562e-10,1.989471840564213e-9,3.2287880866669155e-8,1.1036008161772617e-7,7.1461754834878285e-9,1.2084796124966443e-8,6
59787,4.584613293814734e-9,7.228384356998024e-10,7.590429794854409e-10,1.988528596655814e-9,3.228454289746657e-8,1.103936904036361e-7,7.151090309195191e-9,1.2044754191512329e-8,6
59788,4.578108217233303e-9,7.077026391324002e-10,7.530188101344256e-10,1.9875853527474154e-9,3.2281204928263984e-8,1.1042729918954601e-7,7.156005134902553e-9,1.2004712258058216e-8,6
59789,4.571603140651873e-9,6.92566842564998e-10,7.469946407834102e-10,1.986642108839016e-9,3.2277866959061396e-8,1.1046090797545593e-7,7.160919960609915e-9,1.1964670324604103e-8,6
59790,4.565098064070443e-9,6.774310459975958e-10,7.409704714323949e-10,1.9856988649306174e-9,3.2274528989858814e-8,1.1049451676136585e-7,7.165834786317278e-9,1.1924628391149988e-8,6
59791,4.558592987489012e-9,6.622952494301935e-10,7.349463020813796e-10,1.9847556210222186e-9,3.2271191020656225e-8,1.1052812554727577e-7,7.17074961202464e-9,1.1884586457695875e-8,6
59792,4.572904767554105e-9,6.464286434921001e-10,7.296637404154194e-10,1.9838123771138195e-9,3.2500806484797996e-8,1.1071618564562882e-7,7.17074961202464e-9,1.1898569255487364e-8,6
59793,4.587216547619198e-9,6.305620375540067e-10,7.243811787494593e-10,1.9828691332054207e-9,3.273042194893977e-8,1.1090424574398187e-7,7.17074961202464e-9,1.1912552053278854e-8,6
59794,4.6015283276842915e-9,6.146954316159132e-10,7.190986170834992e-10,1.981925889297022e-9,3.2960037413081544e-8,1.1109230584233494e-7,7.17074961202464e-9,1.1926534851070345e-8,6
59795,4.615840107749385e-9,5.988288256778198e-10,7.138160554175391e-10,1.9809826453886227e-9,3.3189652877223315e-8,1.1128036594068799e-7,7.17074961202464e-9,1.1940517648861834e-8,6
59796,4.6301518878144785e-9,5.829622197397265e-10,7.085334937515789e-10,1.980039401480224e-9,3.3419268341365086e-8,1.1146842603904104e-07,7.17074961202464e-9,1.1954500446653324e-8,6
59797,4.644463667879572e-9,5.67095613801633e-10,7.032509320856188e-10,1.979096157571825e-9,3.364888380550686e-8,1.116564861373941e-7,7.17074961202464e-9,1.1968483244444815e-8,6
59798,4.658775447944665e-9,5.512290078635396e-10,6.979683704196587e-10,1.978152913663426e-9,3.387849926964863e-8,1.1184454623574715e-7,7.17074961202464e-9,1.1982466042236304e-8,6
59799,4.673087228009759e-9,5.353624019254462e-10,6.926858087536986e-10,1.977209669755027e-9,3.4108114733790406e-8,1.120326063341002e-7,7.17074961202464e-9,1.1996448840027794e-8,6
59800,4.687399008074852e-9,5.194957959873528e-10,6.874032470877384e-10,1.9762664258466284e-9,3.433773019793218e-8,1.1222066643245326e-7,7.17074961202464e-9,1.2010431637819283e-8,6
59801,4.701710788139945e-9,5.036291900492594e-10,6.821206854217783e-10,1.975323181938229e-9,3.456734566207395e-8,1.1240872653080631e-7,7.17074961202464e-9,1.2024414435610774e-8,6
59802,4.716022568205038e-9,4.87762584111166e-10,6.768381237558182e-10,1.9743799380298304e-9,3.479696112621572e-8,1.1259678662915936e-7,7.17074961202464e-9,1.2038397233402264e-8,6
59803,4.730334348270131e-9,4.718959781730725e-10,6.715555620898581e-10,1.9734366941214316e-9,3.502657659035749e-8,1.1278484672751241e-7,7.17074961202464e-9,1.2052380031193753e-8,6
59804,4.744646128335225e-9,4.5602937223497916e-10,6.66273000423898e-10,1.9724934502130324e-9,3.525619205449927e-8,1.1297290682586548e-7,7.17074961202464e-9,1.2066362828985244e-8,6
59805,4.758957908400318e-9,4.4016276629688574e-10,6.609904387579379e-10,1.9715502063046337e-9,3.548580751864104e-8,1.1316096692421853e-7,7.17074961202464e-9,1.2080345626776734e-8,6
59806,4.7796014186551925e-9,4.3936267570571746e-10,6.597109460111441e-10,1.9653836202470653e-9,3.555992542835017e-8,1.1332667365179533e-7,7.165747539759628e-9,1.2130309491045903e-8,6
59807,4.798684811385228e-9,4.423898350191979e-10,6.734592666881125e-10,1.9653836202470653e-9,3.5407688152592875e-8,1.1330432028101908e-7,7.181736721696135e-9,1.212428903262003e-8,6
59808,4.799172921473565e-9,4.43550116286619e-10,6.7515924866305e-10,1.959217034189497e-9,3.534380579067184e-8,1.1319487084812768e-7,7.181736721696135e-9,1.219864895278099e-8,6
59809,4.799661031561902e-9,4.447103975540401e-10,6.768592306379877e-10,1.953050448131928e-9,3.527992342875081e-8,1.1308542141523628e-7,7.181736721696135e-9,1.2273008872941947e-8,6
59810,4.800149141650239e-9,4.458706788214612e-10,6.785592126129254e-10,1.9468838620743597e-9,3.521604106682977e-8,1.1297597198234488e-7,7.181736721696135e-9,1.2347368793102907e-8,6
59811,4.800637251738576e-9,4.4703096008888225e-10,6.80259194587863e-10,1.9407172760167914e-9,3.515215870490873e-8,1.1286652254945347e-7,7.181736721696135e-9,1.2421728713263866e-8,6
59812,4.801125361826913e-9,4.4819124135630336e-10,6.819591765628006e-10,1.934550689959223e-9,3.50882763429877e-8,1.1275707311656207e-7,7.181736721696135e-9,1.2496088633424823e-8,6
