time,channel1,channel2,channel3,channel4,channel5,channel6,channel7,channel8,class
40057,1.0970193494770886e-8,3.955772207511591e-9,1.030660251863154e-8,6.043220196102474e-8,1.0809224547272217e-8,4.0296609744070375e-9,3.797946488297135e-8,6.198151907804219e-9,0
40058,1.102726726863961e-8,3.955841488732068e-9,1.030160194347796e-8,6.047868615608706e-8,1.0812639167783735e-8,3.980120362651471e-9,3.8290750085048145e-8,6.21418284959362e-9,0
40059,1.1084341042508335e-8,3.955910769952546e-9,1.029660136832438e-8,6.052517035114937e-8,1.0816053788295253e-8,3.930579750895906e-9,3.8602035287124944e-8,6.230213791383021e-9,0
40060,1.114141481637706e-8,3.955980051173023e-9,1.0291600793170799e-8,6.057165454621168e-8,1.081946840880677e-8,3.88103913914034e-9,3.8913320489201736e-8,6.246244733172422e-9,0
40061,1.1198488590245783e-8,3.9560493323934995e-9,1.028660021801722e-8,6.061813874127399e-8,1.0822883029318288e-8,3.831498527384774e-9,3.9224605691278536e-8,6.262275674961823e-9,0
40062,1.1255562364114507e-8,3.9561186136139765e-9,1.028159964286364e-8,6.06646229363363e-8,1.0826297649829806e-8,3.781957915629208e-9,3.9535890893355335e-8,6.278306616751224e-9,0
40063,1.1312636137983232e-8,3.9561878948344534e-9,1.0276599067710058e-8,6.071110713139862e-8,1.0829712270341323e-8,3.732417303873643e-9,3.984717609543213e-8,6.294337558540625e-9,0
40064,1.1369709911851957e-8,3.95625717605493e-9,1.0271598492556478e-8,6.075759132646093e-8,1.083312689085284e-8,3.6828766921180766e-09,4.015846129750893e-8,6.310368500330026e-9,0
40065,1.142678368572068e-8,3.956326457275408e-9,1.0266597917402898e-8,6.080407552152324e-8,1.0836541511364359e-8,3.6333360803625108e-9,4.046974649958572e-8,6.326399442119426e-9,0
40066,1.1483857459589404e-8,3.956395738495885e-9,1.0261597342249317e-8,6.085055971658555e-8,1.0839956131875875e-8,3.583795468606945e-9,4.078103170166252e-8,6.342430383908827e-9,0
40067,1.1540931233458129e-8,3.956465019716362e-9,1.0256596767095737e-8,6.089704391164787e-8,1.0843370752387394e-8,3.534254856851379e-9,4.109231690373931e-8,6.358461325698228e-9,0
40068,1.1540931233458129e-8,3.95956146025032e-9,1.0259845184348337e-8,6.089533478773717e-8,1.0840454884993083e-8,3.482503326064895e-9,4.111597132407429e-8,6.362486771655273e-9,0
40069,1.1544931901424655e-8,3.9585985946261446e-9,1.0306840392118537e-8,6.10494536856991e-8,1.083581176510205e-8,3.429240449343779e-9,4.110782187365155e-8,6.368765461894596e-9,0
40070,1.1561249336987446e-8,3.963956744492652e-9,1.0328070009553611e-8,6.108858805507337e-8,1.0839226385613569e-8,3.3796998375882134e-9,4.14949466317297e-8,6.550800064997416e-9,0
40071,1.1577566772550237e-8,3.96931489435916e-9,1.0349299626988683e-8,6.112772242444763e-8,1.0842641006125085e-8,3.3301592258326476e-9,4.1882071389807835e-8,6.732834668100235e-9,0
40072,1.1593884208113028e-8,3.974673044225669e-9,1.0370529244423757e-8,6.116685679382189e-8,1.0846055626636603e-8,3.280618614077082e-9,4.226919614788597e-8,6.9148692712030535e-9,0
40073,1.1610201643675819e-8,3.980031194092177e-9,1.039175886185883e-8,6.120599116319615e-8,1.0849470247148121e-8,3.231078002321516e-9,4.265632090596412e-8,7.096903874305873e-9,0
40074,1.162651907923861e-8,3.985389343958685e-9,1.0412988479293902e-8,6.124512553257041e-8,1.0852884867659638e-8,3.1815373905659503e-9,4.3043445664042255e-8,7.278938477408692e-9,0
40075,1.16428365148014e-8,3.990747493825193e-9,1.0434218096728977e-8,6.128425990194467e-8,1.0856299488171156e-8,3.1319967788103845e-9,4.34305704221204e-8,7.460973080511512e-9,0
40076,1.1651032483183842e-8,3.997068509315877e-9,1.0400519651363728e-8,6.109148244130765e-8,1.0856299488171156e-8,3.135919863755014e-9,4.378108771990912e-8,7.639053079696063e-9,0
40077,1.1666861808658295e-8,3.991291315570825e-9,1.0429781494600155e-8,6.113941281814055e-8,1.0869075960555362e-8,3.1328085516487298e-09,4.402470245006812e-8,7.796238579487005e-9,0
40078,1.168269113413275e-8,3.9855141218257725e-9,1.0459043337836581e-8,6.118734319497345e-8,1.088185243293957e-8,3.1296972395424456e-9,4.4268317180227126e-8,7.953424079277947e-9,0
40079,1.1698520459607203e-8,3.97973692808072e-9,1.0488305181073008e-8,6.123527357180635e-8,1.0894628905323776e-8,3.1265859274361615e-9,4.451193191038613e-8,8.11060957906889e-9,0
40080,1.1714349785081656e-8,3.973959734335667e-9,1.0517567024309435e-8,6.128320394863925e-8,1.0907405377707984e-8,3.1234746153298773e-9,4.475554664054513e-8,8.26779507885983e-9,0
40081,1.173017911055611e-8,3.968182540590614e-9,1.0546828867545862e-8,6.133113432547216e-8,1.092018185009219e-8,3.1203633032235936e-9,4.4999161370704135e-8,8.424980578650773e-9,0
40082,1.1746008436030564e-8,3.962405346845562e-9,1.0576090710782288e-8,6.137906470230506e-8,1.0932958322476397e-8,3.1172519911173094e-9,4.524277610086314e-8,8.582166078441715e-9,0
40083,1.17567970151886e-8,3.954227881327005e-9,1.0575349103097235e-8,6.165192855025332e-8,1.0939404306954775e-8,3.1091380612559446e-9,4.514309818288645e-8,8.582166078441715e-9,0
40084,1.1767585594346634e-8,3.946050415808447e-9,1.057460749541218e-8,6.192479239820159e-8,1.0945850291433155e-8,3.10102413139458e-9,4.504342026490976e-8,8.582166078441715e-9,0
40085,1.1768745803943828e-8,3.934218903436434e-9,1.060372585485199e-8,6.21737829130849e-8,1.0991657887688959e-8,3.092910201533215e-9,4.491783626702419e-8,8.558296770854557e-9,0
40086,1.176990601354102e-8,3.922387391064421e-9,1.0632844214291802e-8,6.242277342796819e-8,1.1037465483944763e-8,3.0847962716718504e-9,4.479225226913862e-8,8.5344274632674e-9,0
40087,1.1771066223138213e-8,3.910555878692407e-9,1.0661962573731612e-8,6.267176394285149e-8,1.1083273080200567e-8,3.0766823418104856e-9,4.4666668271253056e-8,8.510558155680242e-9,0
40088,1.1772226432735407e-8,3.898724366320394e-9,1.0691080933171424e-8,6.292075445773478e-8,1.1129080676456371e-8,3.0685684119491213e-9,4.4541084273367485e-8,8.486688848093083e-9,0
40089,1.1773386642332599e-8,3.8868928539483805e-9,1.0720199292611234e-8,6.316974497261809e-8,1.1174888272712175e-8,3.0604544820877565e-9,4.4415500275481913e-8,8.462819540505926e-9,0
40090,1.177503496201813e-8,3.874818857304697e-9,1.0738037008997091e-8,6.33512681608634e-8,1.1206769626949802e-8,3.057662783363594e-9,4.444461189792029e-8,8.462784119486537e-9,0
40091,1.177668328170366e-8,3.86621191988941e-9,1.076417589371517e-8,6.3600966108678e-8,1.1251886322206916e-8,3.057796663349647e-9,4.4462436140303263e-8,8.459738469254213e-9,0
40092,1.177833160138919e-8,3.857604982474123e-9,1.0790314778433251e-8,6.385066405649259e-8,1.1297003017464032e-8,3.0579305433357e-9,4.4480260382686245e-8,8.456692819021887e-9,0
40093,1.177997992107472e-8,3.8489980450588354e-9,1.081645366315133e-8,6.410036200430719e-8,1.1342119712721148e-8,3.058064423321753e-9,4.449808462506922e-8,8.453647168789563e-9,0
40094,1.178162824076025e-8,3.840391107643548e-9,1.0842592547869411e-8,6.435005995212179e-8,1.1387236407978262e-8,3.058198303307806e-9,4.4515908867452195e-8,8.450601518557237e-9,0
40095,1.178327656044578e-8,3.831784170228261e-9,1.086873143258749e-8,6.459975789993639e-8,1.1432353103235377e-8,3.0583321832938588e-9,4.453373310983518e-8,8.447555868324913e-9,0
40096,1.178492488013131e-8,3.8231772328129736e-9,1.089487031730557e-8,6.484945584775099e-8,1.1477469798492493e-8,3.0584660632799117e-9,4.455155735221815e-8,8.444510218092587e-9,0
40097,1.178657319981684e-8,3.814570295397686e-9,1.092100920202365e-8,6.509915379556559e-8,1.1522586493749609e-8,3.058599943265965e-9,4.4569381594601134e-8,8.441464567860263e-9,0
40098,1.178822151950237e-8,3.805963357982399e-9,1.094714808674173e-8,6.534885174338018e-8,1.1567703189006723e-8,3.058733823252018e-9,4.458720583698411e-8,8.438418917627937e-9,0
40099,1.1789869839187901e-8,3.797356420567112e-9,1.097328697145981e-8,6.559854969119478e-8,1.1612819884263838e-8,3.0588677032380708e-9,4.4605030079367084e-8,8.435373267395613e-9,0
40100,1.1791518158873431e-8,3.7887494831518244e-9,1.0999425856177888e-8,6.584824763900938e-8,1.1657936579520954e-8,3.0590015832241237e-9,4.4622854321750066e-8,8.432327617163287e-9,0
40101,1.1793166478558961e-8,3.780142545736537e-9,1.1025564740895969e-8,6.609794558682398e-8,1.1703053274778068e-8,3.0591354632101766e-9,4.464067856413304e-8,8.429281966930963e-9,0
40102,1.179481479824449e-8,3.77153560832125e-9,1.1051703625614048e-8,6.634764353463858e-8,1.1748169970035184e-8,3.0592693431962295e-9,4.465850280651602e-8,8.426236316698637e-9,0
40103,1.1796463117930022e-8,3.7629286709059626e-9,1.1077842510332129e-8,6.659734148245318e-8,1.17932866652923e-8,3.059403223182283e-9,4.4676327048899e-8,8.423190666466313e-9,0
40104,1.1798111437615552e-8,3.754321733490675e-9,1.1103981395050208e-8,6.684703943026776e-8,1.1838403360549413e-8,3.0595371031683357e-9,4.469415129128197e-8,8.420145016233987e-9,0
40105,1.1797938091223903e-8,3.751769114702349e-9,1.1109034146129831e-8,6.726918487774899e-8,1.1903664406812905e-8,3.0607505159648397e-9,4.478177698045592e-8,8.425150257915751e-9,0
40106,1.1797764744832253e-8,3.749216495914022e-9,1.1114086897209452e-8,6.769133032523022e-8,1.1968925453076395e-8,3.061963928761344e-9,4.486940266962987e-8,8.430155499597515e-9,0
40107,1.1798252854920591e-8,3.749216495914022e-9,1.115218281275899e-8,6.780754398628444e-8,1.1969308709621052e-8,3.0613162090750733e-9,4.489295530231425e-8,8.426388285453922e-9,0
40108,1.1798740965008929e-8,3.749216495914022e-9,1.1190278728308527e-8,6.792375764733866e-8,1.1969691966165707e-8,3.0606684893888025e-9,4.491650793499864e-8,8.422621071310328e-9,0
40109,1.1799229075097265e-8,3.749216495914022e-9,1.1228374643858064e-8,6.803997130839286e-8,1.1970075222710364e-8,3.0600207697025316e-9,4.4940060567683026e-8,8.418853857166734e-9,0
40110,1.1799717185185603e-8,3.749216495914022e-9,1.1266470559407601e-8,6.815618496944707e-8,1.1970458479255021e-8,3.0593730500162612e-9,4.4963613200367414e-8,8.41508664302314e-9,0
40111,1.1800205295273939e-8,3.749216495914022e-9,1.1304566474957137e-8,6.827239863050129e-8,1.1970841735799678e-8,3.0587253303299904e-9,4.49871658330518e-8,8.411319428879546e-9,0
40112,1.17985250465018e-8,3.6370108291163186e-9,1.13043969031975e-8,6.76569540228478e-8,1.1869362820643252e-8,3.0580776106437196e-9,4.50219767636057e-8,8.41133713938924e-9,0
40113,1.1784082492160538e-8,3.6258408448945195e-9,1.1346213901153824e-8,6.777382503925228e-8,1.1833106106486697e-8,3.0426681174203187e-9,4.504886580865605e-8,8.411354849898935e-9,0
40114,1.1769639937819275e-8,3.61467086067272e-9,1.1388030899110148e-8,6.789069605565677e-8,1.1796849392330143e-8,3.027258624196918e-9,4.50757548537064e-8,8.41137256040863e-9,0
40115,1.1755197383478012e-8,3.6035008764509208e-9,1.1429847897066472e-8,6.800756707206124e-8,1.1760592678173588e-8,3.0118491309735173e-9,4.5102643898756755e-8,8.411390270918324e-9,0
40116,1.1740754829136749e-8,3.5923308922291212e-9,1.1471664895022794e-8,6.812443808846572e-8,1.1724335964017035e-8,2.9964396377501164e-9,4.5129532943807114e-8,8.411407981428018e-9,0
40117,1.1726312274795486e-8,3.581160908007322e-9,1.1513481892979118e-8,6.82413091048702e-8,1.1688079249860481e-8,2.981030144526716e-9,4.5156421988857467e-8,8.411425691937712e-9,0
40118,1.1711869720454223e-8,3.569990923785523e-9,1.1555298890935441e-8,6.835818012127468e-8,1.1651822535703926e-8,2.965620651303315e-9,4.518331103390782e-8,8.411443402447406e-9,0
40119,1.17206739301723e-8,3.550910170908889e-9,1.1570963960192175e-8,6.85098595159766e-8,1.166735845520966e-8,2.966156171247527e-9,4.520447168865676e-8,8.427092138855497e-9,0
40120,1.1729478139890377e-8,3.531829418032255e-9,1.1586629029448908e-8,6.866153891067853e-8,1.1682894374715394e-8,2.9666916911917387e-9,4.5225632343405705e-8,8.442740875263586e-9,0
40121,1.1749081571795357e-8,3.5179336119709367e-9,1.1587370637133963e-8,6.866153891067853e-8,1.1645333549088699e-8,2.952063797640662e-9,4.5504730513740434e-8,8.552289455952178e-9,0
40122,1.176868500370034e-8,3.504037805909618e-9,1.1588112244819018e-8,6.866153891067853e-8,1.1607772723462006e-8,2.9374359040895848e-9,4.578382868407516e-8,8.66183803664077e-9,0
40123,1.1788288435605321e-8,3.4901419998482995e-9,1.1588853852504074e-8,6.866153891067853e-8,1.1570211897835313e-8,2.9228080105385076e-9,4.6062926854409886e-8,8.771386617329363e-9,0
40124,1.1807891867510304e-8,3.4762461937869814e-9,1.1589595460189129e-8,6.866153891067853e-8,1.1532651072208618e-8,2.9081801169874304e-9,4.6342025024744615e-8,8.880935198017956e-9,0
40125,1.1827495299415284e-8,3.4623503877256628e-9,1.1590337067874184e-8,6.866153891067853e-8,1.1495090246581925e-8,2.8935522234363537e-9,4.6621123195079345e-8,8.990483778706548e-9,0
40126,1.1847098731320266e-8,3.4484545816643446e-9,1.159107867555924e-8,6.866153891067853e-8,1.1457529420955232e-8,2.8789243298852765e-9,4.6900221365414074e-8,9.10003235939514e-9,0
40127,1.1866702163225248e-8,3.434558775603026e-9,1.1591820283244295e-8,6.866153891067853e-8,1.141996859532854e-8,2.8642964363341994e-9,4.71793195357488e-8,9.209580940083733e-9,0
40128,1.1886305595130228e-8,3.4206629695417075e-9,1.159256189092935e-8,6.866153891067853e-8,1.1382407769701845e-8,2.8496685427831226e-9,4.745841770608353e-8,9.319129520772325e-9,0
40129,1.190590902703521e-8,3.4067671634803893e-9,1.1593303498614404e-8,6.866153891067853e-8,1.1344846944075152e-8,2.8350406492320455e-9,4.773751587641826e-8,9.428678101460918e-9,0
40130,1.1925512458940193e-8,3.3928713574190707e-9,1.1594045106299459e-8,6.866153891067853e-8,1.1307286118448459e-8,2.8204127556809683e-9,4.801661404675299e-8,9.53822668214951e-9,0
40131,1.1945115890845173e-8,3.3789755513577525e-9,1.1594786713984514e-8,6.866153891067853e-8,1.1269725292821766e-8,2.805784862129891e-9,4.829571221708772e-8,9.647775262838103e-9,0
40132,1.1964719322750155e-8,3.365079745296434e-9,1.159552832166957e-8,6.866153891067853e-8,1.1232164467195071e-8,2.7911569685788144e-9,4.857481038742245e-8,9.757323843526695e-9,0
40133,1.1984322754655137e-8,3.3511839392351154e-9,1.1596269929354625e-8,6.866153891067853e-8,1.1194603641568378e-8,2.7765290750277373e-9,4.885390855775718e-8,9.866872424215288e-9,0
40134,1.2003926186560117e-8,3.337288133173797e-9,1.159701153703968e-8,6.866153891067853e-8,1.1157042815941685e-8,2.76190118147666e-9,4.913300672809191e-8,9.97642100490388e-9,0
40135,1.2038796332649127e-8,3.343203889359804e-9,1.1525815300013335e-8,6.831701321608551e-8,1.115738826644103e-8,2.747273287925583e-9,4.9340109956433534e-8,1.0055938135501888e-8,0
40136,1.2047862090919543e-8,3.3470553518565055e-9,1.152654386371688e-8,6.79724875214925e-8,1.1140468466501304e-8,2.73588399280586e-9,4.9496389082666747e-8,1.0153569772906595e-8,0
40137,1.205692784918996e-8,3.350906814353207e-9,1.1527272427420426e-8,6.762796182689948e-8,1.1123548666561579e-8,2.7244946976861366e-9,4.965266820889995e-8,1.0251201410311303e-8,0
40138,1.2065993607460375e-8,3.3547582768499088e-9,1.152800099112397e-8,6.728343613230648e-8,1.1106628866621853e-8,2.713105402566413e-9,4.9808947335133164e-8,1.0348833047716012e-8,0
40139,1.207505936573079e-8,3.3586097393466104e-9,1.1528729554827515e-8,6.693891043771347e-8,1.1089709066682128e-8,2.70171610744669e-9,4.9965226461366376e-8,1.0446464685120719e-8,0
40140,1.2084125124001207e-8,3.362461201843312e-9,1.152945811853106e-8,6.659438474312045e-8,1.1072789266742403e-8,2.6903268123269664e-9,5.012150558759959e-8,1.0544096322525428e-8,0
40141,1.2093190882271623e-8,3.366312664340014e-9,1.1530186682234604e-8,6.624985904852745e-8,1.1055869466802677e-8,2.678937517207243e-9,5.02777847138328e-8,1.0641727959930135e-8,0
40142,1.2074054274397238e-8,3.365048461241877e-9,1.153094133390117e-8,6.591378502576394e-8,1.1155425863925978e-8,2.678937517207243e-9,5.014627384291251e-8,1.0629811016646251e-8,0
40143,1.2051893218733002e-8,3.362752111299088e-9,1.1530928289919659e-8,6.560252137253572e-8,1.1146025166789669e-8,2.6725508398426006e-9,5.001452086598009e-8,1.061863334778333e-8,0
40144,1.2029732163068768e-8,3.3604557613562986e-9,1.1530915245938149e-8,6.52912577193075e-8,1.113662446965336e-8,2.666164162477958e-9,4.988276788904767e-8,1.0607455678920409e-8,0
40145,1.2007571107404532e-8,3.3581594114135094e-9,1.1530902201956639e-8,6.497999406607929e-8,1.1127223772517053e-8,2.659777485113315e-9,4.975101491211525e-8,1.0596278010057488e-8,0
40146,1.1985410051740296e-8,3.35586306147072e-9,1.1530889157975127e-8,6.466873041285107e-8,1.1117823075380743e-8,2.6533908077486722e-9,4.9619261935182835e-8,1.0585100341194566e-8,0
40147,1.1963248996076061e-8,3.353566711527931e-9,1.1530876113993617e-8,6.435746675962285e-8,1.1108422378244435e-8,2.64700413038403e-9,4.948750895825041e-8,1.0573922672331645e-8,0
40148,1.1941087940411825e-8,3.3512703615851416e-9,1.1530863070012107e-8,6.404620310639463e-8,1.1099021681108127e-8,2.640617453019387e-9,4.9355755981318e-8,1.0562745003468724e-8,0
40149,1.1931905108823842e-8,3.3502382147404893e-9,1.1524838900661092e-8,6.391518545405726e-8,1.1053444038779116e-8,2.640617453019387e-9,4.897617068436972e-8,1.0514723020139298e-8,0
40150,1.190067829488919e-8,3.3492060678958365e-9,1.1434932899748729e-8,6.377803671631532e-8,1.106004228665705e-8,2.6457539507605205e-9,4.8964002126823446e-8,1.049558301191076e-8,0
40151,1.1869451480954539e-8,3.348173921051184e-9,1.1345026898836367e-8,6.364088797857336e-8,1.1066640534534984e-8,2.650890448501654e-9,4.8951833569277176e-8,1.047644300368222e-8,0
40152,1.1838224667019887e-8,3.3471417742065318e-9,1.1255120897924006e-8,6.35037392408314e-8,1.1073238782412919e-8,2.656026946242788e-9,4.89396650117309e-8,1.0457302995453683e-8,0
40153,1.1806997853085236e-8,3.346109627361879e-9,1.1165214897011643e-8,6.336659050308946e-8,1.1079837030290853e-8,2.6611634439839214e-9,4.892749645418462e-8,1.0438162987225145e-8,0
40154,1.1775771039150585e-8,3.3450774805172267e-9,1.1075308896099282e-8,6.32294417653475e-8,1.1086435278168787e-8,2.666299941725055e-9,4.8915327896638346e-8,1.0419022978996605e-8,0
40155,1.1746701941047541e-8,3.350193146112065e-9,1.0991361844630383e-8,6.317590200264524e-8,1.1096102696058895e-8,2.6692255204352705e-9,4.890414230423354e-8,1.0398903175043347e-8,0
40156,1.1717632842944496e-8,3.3553088117069033e-9,1.0907414793161482e-8,6.312236223994297e-8,1.1105770113949001e-8,2.6721510991454857e-9,4.889295671182874e-8,1.0378783371090089e-8,0
40157,1.1688563744841452e-8,3.3604244773017418e-9,1.0823467741692584e-08,6.306882247724071e-8,1.111543753183911e-8,2.6750766778557013e-9,4.888177111942393e-8,1.0358663567136831e-8,0
40158,1.1659494646738407e-8,3.3655401428965803e-9,1.0739520690223685e-8,6.301528271453845e-8,1.1125104949729216e-8,2.6780022565659165e-9,4.887058552701913e-8,1.0338543763183573e-8,0
40159,1.1630425548635363e-8,3.3706558084914188e-9,1.0655573638754786e-8,6.296174295183618e-8,1.1134772367619324e-8,2.680927835276132e-9,4.8859399934614327e-08,1.0318423959230315e-8,0
40160,1.1601356450532318e-8,3.375771474086257e-9,1.0571626587285885e-8,6.290820318913393e-8,1.1144439785509432e-8,2.6838534139863472e-9,4.884821434220953e-8,1.0298304155277057e-8,0
40161,1.1572287352429275e-8,3.3808871396810954e-9,1.0487679535816986e-8,6.285466342643165e-8,1.1154107203399538e-8,2.686778992696563e-9,4.883702874980472e-8,1.02781843513238e-8,0
40162,1.154321825432623e-8,3.386002805275934e-9,1.0403732484348088e-8,6.28011236637294e-8,1.1163774621289646e-8,2.689704571406778e-9,4.882584315739992e-8,1.0258064547370542e-8,0
40163,1.1514149156223186e-8,3.3911184708707724e-9,1.0319785432879189e-8,6.274758390102713e-8,1.1173442039179753e-8,2.6926301501169936e-9,4.8814657564995113e-8,1.0237944743417282e-8,0
40164,1.148508005812014e-8,3.3962341364656105e-9,1.0235838381410288e-8,6.269404413832487e-8,1.118310945706986e-8,2.695555728827209e-9,4.8803471972590313e-08,1.0217824939464024e-8,0
40165,1.1456010960017097e-8,3.401349802060449e-9,1.015189132994139e-8,6.26405043756226e-8,1.1192776874959967e-8,2.6984813075374244e-9,4.879228638018551e-8,1.0197705135510766e-8,0
40166,1.1426941861914052e-8,3.4064654676552875e-9,1.006794427847249e-8,6.258696461292034e-8,1.1202444292850075e-8,2.70140688624764e-9,4.878110078778071e-8,1.0177585331557508e-8,0
40167,1.1397872763811008e-8,3.411581133250126e-9,9.983997227003592e-9,6.253342485021808e-8,1.1212111710740182e-8,2.704332464957855e-9,4.87699151953759e-8,1.015746552760425e-8,0
40168,1.1368803665707963e-8,3.4166967988449645e-9,9.900050175534691e-9,6.247988508751581e-8,1.122177912863029e-8,2.7072580436680708e-9,4.87587296029711e-8,1.0137345723650992e-8,0
40169,1.133973456760492e-8,3.4218124644398026e-9,9.816103124065792e-9,6.242634532481355e-8,1.1231446546520398e-8,2.710183622378286e-9,4.8747544010566294e-8,1.0117225919697734e-8,0
40170,1.1310665469501874e-8,3.426928130034641e-9,9.732156072596894e-9,6.237280556211128e-8,1.1241113964410504e-8,2.7131092010885016e-9,4.8736358418161494e-8,1.0097106115744476e-8,0
40171,1.131150027237351e-8,3.436878979786728e-9,9.921930092784247e-9,6.20975626806671e-8,1.1223849753189742e-8,2.706707437140848e-9,4.8727593885878014e-8,1.0100045502918635e-8,0
40172,1.1166950070544175e-8,3.4278667830667636e-9,1.01117041129716e-8,6.188768358874004e-8,1.120658554196898e-8,2.7057768708994605e-9,4.8606992326596645e-8,1.0040018023756852e-8,0
40173,1.1022399868714841e-8,3.4188545863467994e-9,1.0301478133158954e-8,6.167780449681297e-8,1.1189321330748216e-8,2.704846304658073e-9,4.848639076731527e-8,9.979990544595071e-9,0
40174,1.0877849666885505e-8,3.4098423896268352e-9,1.0491252153346306e-8,6.146792540488592e-8,1.1172057119527454e-8,2.7039157384166857e-9,4.83657892080339e-8,9.91996306543329e-9,0
40175,1.073329946505617e-8,3.400830192906871e-9,1.068102617353366e-8,6.125804631295885e-8,1.1154792908306691e-8,2.702985172175298e-9,4.824518764875253e-8,9.859935586271508e-9,0
40176,1.0588749263226836e-8,3.391817996186907e-9,1.0870800193721012e-8,6.10481672210318e-8,1.113752869708593e-8,2.7020546059339104e-9,4.8124586089471153e-8,9.799908107109727e-9,0
40177,1.04441990613975e-8,3.3828057994669426e-9,1.1060574213908366e-8,6.083828812910473e-8,1.1120264485865165e-8,2.701124039692523e-9,4.8003984530189784e-8,9.739880627947945e-9,0
40178,1.0299648859568166e-8,3.3576949405554004e-9,1.1060574213908366e-8,6.060581072941528e-8,1.1092412001828814e-8,2.7023374524890274e-9,4.81077833429406e-8,9.676913761612004e-9,0
40179,1.0154090508475548e-8,3.332816137897343e-9,1.1040689309127638e-8,6.056202479500811e-8,1.1078715713737432e-8,2.707473950230161e-9,4.799909369410043e-8,9.615202633323928e-9,0
40180,1.0010873862635055e-8,3.323803941177379e-9,1.1029486929962747e-8,6.04552373655998e-8,1.1060455035500563e-8,2.7067592905508636e-9,4.79204746432221e-8,9.555245996200924e-9,0
40181,9.867657216794562e-9,3.3147917444574143e-9,1.1018284550797856e-8,6.03484499361915e-8,1.1042194357263692e-8,2.7060446308715663e-9,4.7841855592343755e-8,9.49528935907792e-9,0
40182,9.724440570954069e-9,3.30577954773745e-9,1.1007082171632964e-8,6.024166250678318e-8,1.1023933679026823e-8,2.705329971192269e-9,4.776323654146542e-8,9.435332721954915e-9,0
40183,9.581223925113576e-9,3.296767351017486e-9,1.0995879792468073e-8,6.013487507737487e-8,1.1005673000789954e-8,2.7046153115129718e-9,4.7684617490587084e-8,9.375376084831912e-9,0
40184,9.438007279273083e-9,3.2877551542975217e-9,1.0984677413303182e-8,6.002808764796656e-8,1.0987412322553084e-8,2.703900651833675e-9,4.760599843970875e-8,9.315419447708908e-9,0
40185,9.29479063343259e-9,3.2787429575775575e-9,1.097347503413829e-8,5.992130021855826e-8,1.0969151644316215e-8,2.7031859921543776e-9,4.752737938883041e-8,9.255462810585903e-9,0
40186,9.151573987592097e-9,3.2697307608575933e-9,1.09622726549734e-8,5.981451278914994e-8,1.0950890966079346e-8,2.7024713324750803e-9,4.744876033795208e-8,9.1955061734629e-9,0
40187,9.008357341751604e-9,3.260718564137629e-9,1.0951070275808508e-8,5.970772535974163e-8,1.0932630287842476e-8,2.701756672795783e-9,4.7370141287073735e-8,9.135549536339896e-9,0
40188,8.865140695911111e-9,3.251706367417665e-9,1.0939867896643617e-8,5.9600937930333326e-8,1.0914369609605606e-8,2.7010420131164857e-9,4.72915222361954e-8,9.07559289921689e-9,0
40189,8.721924050070618e-9,3.2426941706977006e-9,1.0928665517478726e-8,5.949415050092502e-8,1.0896108931368737e-8,2.7003273534371885e-9,4.7212903185317064e-8,9.015636262093887e-9,0
40190,8.578707404230125e-9,3.2336819739777364e-9,1.0917463138313834e-8,5.9387363071516707e-8,1.0877848253131868e-8,2.699612693757891e-9,4.713428413443873e-8,8.955679624970883e-9,0
40191,8.435490758389632e-9,3.2246697772577722e-9,1.0906260759148943e-8,5.92805756421084e-8,1.0859587574894999e-8,2.6988980340785943e-9,4.705566508356039e-8,8.895722987847878e-9,0
40192,8.29227411254914e-9,3.215657580537808e-9,1.0895058379984052e-8,5.917378821270009e-8,1.0841326896658128e-8,2.698183374399297e-9,4.697704603268206e-8,8.835766350724875e-9,0
40193,8.149057466708646e-9,3.206645383817844e-9,1.088385600081916e-8,5.906700078329178e-8,1.082306621842126e-8,2.6974687147199997e-9,4.689842698180372e-8,8.77580971360187e-9,0
40194,8.005840820868153e-9,3.1976331870978796e-9,1.0872653621654268e-8,5.896021335388347e-8,1.080480554018439e-8,2.6967540550407024e-9,4.681980793092538e-8,8.715853076478866e-9,0
40195,7.862624175027662e-9,3.1886209903779154e-9,1.0861451242489377e-8,5.885342592447516e-8,1.0786544861947521e-8,2.696039395361405e-9,4.6741188880047044e-8,8.655896439355862e-9,0
40196,7.71940752918717e-9,3.1796087936579512e-9,1.0850248863324485e-8,5.874663849506685e-8,1.0768284183710652e-8,2.695324735682108e-9,4.666256982916871e-8,8.595939802232857e-9,0
40197,7.576190883346676e-9,3.170596596937987e-9,1.0839046484159594e-8,5.863985106565854e-8,1.0750023505473783e-8,2.6946100760028106e-9,4.658395077829037e-8,8.535983165109853e-9,0
40198,7.4329742375061825e-9,3.1615844002180224e-9,1.0827844104994703e-8,5.8533063636250237e-8,1.0731762827236912e-8,2.6938954163235133e-9,4.650533172741204e-8,8.47602652798685e-9,0
40199,7.435315942758308e-9,3.1766509155649476e-9,1.0830580725148587e-8,5.8267985735291244e-8,1.062487843597337e-8,2.6297354039388983e-9,4.645768408564723e-8,8.473861836253042e-9,0
40200,7.437657648010434e-9,3.191717430911873e-9,1.0833317345302469e-8,5.800290783433225e-8,1.0517994044709828e-8,2.565575391554283e-9,4.641003644388242e-8,8.471697144519235e-9,0
40201,7.43999935326256e-9,3.2067839462587977e-9,1.0836053965456353e-8,5.773782993337326e-8,1.0411109653446285e-8,2.5014153791696673e-9,4.6362388802117615e-8,8.46953245278543e-9,0
40202,7.405553459088669e-9,3.2070610711407064e-9,1.08447495350537e-8,5.7862576659746006e-8,1.0417824437115078e-8,2.481733014453494e-9,4.6164751697867176e-8,8.383364711244516e-9,0
40203,7.371107564914777e-9,3.2073381960226146e-9,1.0853445104651044e-8,5.798732338611875e-8,1.0424539220783869e-8,2.4620506497373205e-9,4.596711459361674e-8,8.297196969703605e-9,0
40204,7.336661670740886e-9,3.2076153209045232e-9,1.086214067424839e-8,5.8112070112491495e-8,1.0431254004452661e-8,2.442368285021147e-9,4.57694774893663e-8,8.211029228162692e-9,0
40205,7.318186519346488e-9,3.223713983096101e-9,1.0799120146820016e-8,5.816260277956246e-8,1.0344971793612467e-8,2.433405815494432e-9,4.5809450444207564e-8,8.199165416407891e-9,0
40206,7.29971136795209e-9,3.2398126452876784e-9,1.073609961939164e-8,5.8213135446633425e-8,1.0258689582772273e-8,2.4244433459677176e-9,4.584942339904884e-8,8.187301604653089e-9,0
40207,7.295385293260006e-9,3.240775510911854e-9,1.0666365490853235e-8,5.815821834141464e-8,1.0173403838948187e-8,2.415547816434029e-9,4.584942339904884e-8,8.180443034580052e-9,0
40208,7.291059218567922e-9,3.2417383765360292e-9,1.0596631362314831e-8,5.810330123619586e-8,1.00881180951241e-8,2.4066522869003406e-9,4.584942339904884e-8,8.173584464507016e-9,0
40209,7.270079658558619e-9,3.2439308046481026e-9,1.052491526528911e-8,5.8196269626320484e-8,1.0013576005170079e-8,2.398538357038976e-9,4.596801540476844e-8,8.15991303005806e-9,0
40210,7.249100098549317e-9,3.2461232327601765e-9,1.045319916826339e-8,5.828923801644511e-8,9.93903391521606e-9,2.390424427177611e-9,4.608660741048804e-8,8.146241595609103e-9,0
40211,7.228120538540014e-9,3.24831566087225e-9,1.0381483071237667e-8,5.8382206406569726e-8,9.864491825262039e-9,2.3823104973162464e-9,4.620519941620764e-8,8.132570161160147e-9,0
40212,7.207140978530711e-9,3.2505080889843237e-9,1.0309766974211946e-8,5.847517479669435e-8,9.78994973530802e-9,2.3741965674548816e-9,4.632379142192724e-8,8.118898726711191e-9,0
40213,7.188665827136313e-9,3.3408621124374503e-9,1.0253820298295041e-8,5.8396866372547874e-8,9.695379830138482e-9,2.3653010379211936e-9,4.6327723282493135e-8,8.1032499903031e-9,0
40214,7.190052598269504e-9,3.3408621124374503e-9,1.0209786540184212e-8,5.8172227159480603e-8,9.62505460139399e-9,2.3601645401800596e-9,4.6219905362618774e-8,8.130235790161361e-9,0
40215,7.191439369402695e-9,3.3408621124374503e-9,1.0165752782073382e-8,5.794758794641334e-8,9.554729372649498e-9,2.355028042438926e-9,4.611208744274442e-8,8.157221590019622e-9,0
40216,7.192826140535886e-9,3.3408621124374503e-9,1.0121719023962551e-8,5.7722948733346074e-8,9.484404143905007e-9,2.3498915446977927e-9,4.600426952287006e-8,8.184207389877882e-9,0
40217,7.194212911669077e-9,3.3408621124374503e-9,1.0077685265851721e-8,5.7498309520278803e-8,9.414078915160514e-9,2.344755046956659e-9,4.5896451602995705e-8,8.211193189736141e-9,0
40218,7.195599682802268e-9,3.3408621124374503e-9,1.003365150774089e-8,5.727367030721154e-8,9.3437536864160235e-09,2.3396185492155257e-9,4.5788633683121344e-8,8.238178989594402e-9,0
40219,7.1969864539354595e-9,3.3408621124374503e-9,9.989617749630062e-9,5.7049031094144274e-8,9.273428457671531e-9,2.3344820514743918e-9,4.568081576324699e-8,8.265164789452663e-9,0
40220,7.198373225068651e-9,3.3408621124374503e-9,9.945583991519231e-9,5.6824391881077003e-8,9.20310322892704e-9,2.3293455537332583e-9,4.5572997843372636e-8,8.292150589310923e-9,0
40221,7.199759996201842e-9,3.3408621124374503e-9,9.901550233408401e-9,5.659975266800974e-8,9.132778000182547e-9,2.3242090559921248e-9,4.5465179923498275e-8,8.319136389169182e-9,0
40222,7.201146767335033e-9,3.3408621124374503e-9,9.85751647529757e-9,5.6375113454942474e-8,9.062452771438056e-9,2.3190725582509913e-9,4.535736200362392e-8,8.346122189027443e-9,0
40223,7.18838446176591e-9,3.3521706591002037e-9,9.801551774318305e-9,5.613723953394274e-8,8.987523268066151e-9,2.3140699404959107e-9,4.5423061452690894e-8,8.339362456180608e-9,0
40224,7.175622156196787e-9,3.363479205762957e-9,9.745587073339038e-9,5.5899365612942995e-8,8.912593764694247e-9,2.30906732274083e-9,4.548876090175787e-8,8.33260272333377e-9,0
40225,7.162859850627664e-9,3.3747877524257107e-9,9.689622372359773e-9,5.566149169194326e-8,8.837664261322341e-9,2.304064704985749e-9,4.555446035082484e-8,8.325842990486936e-9,0
40226,7.1500975450585405e-9,3.386096299088464e-9,9.633657671380506e-9,5.5423617770943515e-8,8.762734757950436e-9,2.2990620872306685e-9,4.562015979989182e-8,8.319083257640099e-9,0
40227,7.137335239489418e-9,3.3974048457512176e-9,9.57769297040124e-9,5.518574384994378e-8,8.68780525457853e-9,2.294059469475588e-9,4.568585924895879e-8,8.312323524793264e-9,0
40228,7.124572933920294e-9,3.408713392413971e-9,9.521728269421974e-9,5.4947869928944036e-8,8.612875751206627e-9,2.2890568517205073e-9,4.5751558698025766e-8,8.305563791946427e-9,0
40229,7.111810628351171e-9,3.4200219390767245e-9,9.465763568442708e-9,5.47099960079443e-8,8.537946247834721e-9,2.2840542339654267e-9,4.5817258147092746e-8,8.298804059099592e-9,0
40230,7.099048322782048e-9,3.431330485739478e-9,9.409798867463441e-9,5.447212208694456e-8,8.463016744462816e-9,2.279051616210346e-9,4.588295759615972e-8,8.292044326252755e-9,0
40231,7.0862860172129245e-9,3.4426390324022314e-9,9.353834166484176e-9,5.423424816594482e-8,8.38808724109091e-9,2.2740489984552656e-9,4.594865704522669e-8,8.28528459340592e-9,0
40232,7.073523711643802e-9,3.453947579064985e-9,9.297869465504909e-9,5.399637424494508e-8,8.313157737719006e-9,2.269046380700185e-9,4.6014356494293665e-8,8.278524860559085e-9,0
40233,7.060761406074678e-9,3.4652561257277383e-9,9.241904764525643e-9,5.375850032394534e-8,8.2382282343471e-9,2.2640437629451044e-9,4.6080055943360645e-8,8.271765127712249e-9,0
40234,7.047999100505556e-9,3.4765646723904917e-9,9.185940063546376e-9,5.3520626402945603e-8,8.163298730975195e-9,2.2590411451900238e-9,4.614575539242762e-8,8.265005394865414e-9,0
40235,7.035236794936432e-9,3.487873219053245e-9,9.129975362567111e-9,5.328275248194587e-8,8.088369227603291e-9,2.254038527434943e-9,4.621145484149459e-8,8.258245662018577e-9,0
40236,7.021087718234118e-9,3.499981856307167e-9,9.049537607981022e-9,5.3302779815378184e-8,8.083764952975877e-9,2.2463262375317376e-9,4.619631266229521e-8,8.259501400066442e-9,0
40237,7.028505156819004e-9,3.4997498000536828e-9,8.971081821882252e-9,5.353754230083958e-8,8.0823831509785e-9,2.2386139476285315e-9,4.598058957598885e-8,8.2624407872406e-9,0
40238,7.040963341720308e-9,3.4749853472445265e-9,8.89262603578348e-9,5.370347267138143e-8,8.063928246423534e-9,2.2358222489043692e-9,4.598325274212231e-8,8.26615486985511e-9,0
40239,7.029350602719509e-9,3.45909452871438e-9,8.81596153953022e-9,5.363529791181214e-8,8.044936782706049e-9,2.2380331679352875e-9,4.5979204552812886e-8,8.265914348551355e-9,0
40240,7.017737863718709e-9,3.443203710184234e-9,8.739297043276961e-9,5.3567123152242865e-8,8.025945318988566e-9,2.2402440869662054e-9,4.5975156363503465e-8,8.265673827247599e-9,0
40241,7.006125124717909e-9,3.4273128916540875e-9,8.662632547023702e-9,5.349894839267359e-8,8.00695385527108e-9,2.2424550059971237e-9,4.597110817419404e-8,8.265433305943843e-9,0
40242,6.994512385717109e-9,3.411422073123941e-9,8.585968050770441e-9,5.343077363310431e-8,7.987962391553596e-9,2.244665925028042e-9,4.596705998488462e-8,8.265192784640087e-9,0
40243,6.982899646716309e-9,3.395531254593795e-9,8.509303554517182e-9,5.336259887353503e-8,7.96897092783611e-9,2.24687684405896e-9,4.59630117955752e-8,8.26495226333633e-9,0
40244,6.971286907715509e-9,3.3796404360636485e-9,8.432639058263923e-9,5.329442411396575e-8,7.949979464118627e-9,2.2490877630898783e-9,4.595896360626578e-8,8.264711742032573e-9,0
40245,6.9596741687147085e-9,3.363749617533502e-9,8.355974562010662e-9,5.322624935439647e-8,7.930988000401142e-9,2.2512986821207966e-9,4.5954915416956355e-8,8.264471220728817e-9,0
40246,6.948061429713909e-9,3.347858799003356e-9,8.279310065757403e-9,5.315807459482719e-8,7.911996536683657e-9,2.2535096011517145e-9,4.5950867227646933e-8,8.264230699425061e-9,0
40247,6.936448690713109e-9,3.3319679804732095e-9,8.202645569504144e-9,5.308989983525791e-8,7.893005072966172e-9,2.2557205201826328e-9,4.594681903833751e-8,8.263990178121305e-9,0
40248,6.924835951712309e-9,3.3160771619430627e-9,8.125981073250883e-9,5.302172507568863e-8,7.874013609248689e-9,2.257931439213551e-9,4.594277084902809e-8,8.263749656817549e-9,0
40249,6.913223212711509e-9,3.3001863434129164e-9,8.049316576997624e-9,5.2953550316119354e-8,7.855022145531204e-9,2.260142358244469e-9,4.593872265971867e-8,8.263509135513791e-9,0
40250,6.901610473710709e-9,3.28429552488277e-9,7.972652080744365e-9,5.288537555655007e-8,7.83603068181372e-9,2.2623532772753873e-9,4.5934674470409246e-8,8.263268614210035e-9,0
40251,6.889997734709909e-9,3.2684047063526237e-9,7.895987584491106e-9,5.281720079698079e-8,7.817039218096234e-9,2.2645641963063056e-9,4.5930626281099824e-8,8.26302809290628e-9,0
40252,6.878384995709109e-9,3.2525138878224774e-9,7.819323088237845e-9,5.274902603741151e-8,7.798047754378751e-9,2.2667751153372235e-9,4.59265780917904e-8,8.262787571602523e-9,0
40253,6.857405435699807e-9,3.2590911721586984e-9,7.823083302589163e-9,5.26217083367087e-8,7.800388217346922e-9,2.2608570179237663e-9,4.5605870388901245e-08,8.26051661681055e-9,0
40254,6.778167548237115e-9,3.265772378325635e-9,7.796996593797126e-9,5.25947214060535e-8,7.802498726388302e-9,2.2666412353511706e-9,4.5544136238543236e-8,8.240396812857292e-9,0
40255,6.698929660774424e-9,3.2724535844925714e-9,7.770909885005088e-9,5.256773447539831e-8,7.80460923542968e-9,2.272425452778575e-9,4.548240208818523e-8,8.220277008904034e-9,0
40256,6.619691773311733e-9,3.279134790659508e-9,7.74482317621305e-9,5.254074754474312e-8,7.806719744471058e-9,2.2782096702059793e-9,4.5420667937827226e-8,8.200157204950776e-9,0
40257,6.540453885849042e-9,3.285815996826444e-9,7.718736467421013e-9,5.251376061408793e-8,7.808830253512436e-9,2.2839938876333836e-9,4.535893378746922e-8,8.180037400997518e-9,0
40258,6.46121599838635e-9,3.2924972029933804e-9,7.692649758628974e-9,5.248677368343273e-8,7.810940762553815e-9,2.289778105060788e-9,4.529719963711121e-8,8.159917597044259e-9,0
40259,6.401397553408122e-9,3.2924972029933804e-9,7.682687740266346e-9,5.248165468119061e-8,7.836953615175816e-9,2.295897022453325e-9,4.534306529023344e-8,8.164646896402878e-9,0
40260,6.341579108429894e-9,3.2924972029933804e-9,7.672725721903717e-9,5.2476535678948485e-8,7.862966467797817e-9,2.3020159398458615e-9,4.538893094335567e-8,8.169376195761498e-9,0
40261,6.335884490732627e-9,3.3206698618286412e-9,7.723538301032128e-9,5.378519285719366e-8,8.139585417621133e-9,2.3026636595321323e-9,4.535506880318948e-8,8.155535082047563e-9,0
40262,6.33018987303536e-9,3.3488425206639024e-9,7.77435088016054e-9,5.509385003543883e-8,8.416204367444447e-9,2.303311379218403e-9,4.5321206663023303e-8,8.141693968333628e-9,0
40263,6.402562290174722e-9,3.378940910747514e-9,7.85425573076574e-9,5.6402507213684e-8,8.693475373002833e-9,2.303311379218403e-9,4.533903090540628e-8,8.146957441828842e-9,0
40264,6.474934707314084e-9,3.4090393008311257e-9,7.934160581370941e-9,5.771116439192917e-8,8.970746378561217e-9,2.303311379218403e-9,4.535685514778926e-8,8.152220915324059e-9,0
40265,6.547307124453445e-9,3.4391376909147373e-9,8.014065431976143e-9,5.9019821570174346e-8,9.248017384119601e-9,2.303311379218403e-9,4.5374679390172235e-8,8.157484388819273e-9,0
40266,6.619679541592807e-9,3.469236080998349e-9,8.093970282581345e-9,6.032847874841951e-8,9.525288389677986e-9,2.303311379218403e-9,4.539250363255521e-8,8.162747862314487e-9,0
40267,6.692051958732169e-9,3.4993344710819605e-9,8.173875133186545e-9,6.163713592666468e-8,9.80255939523637e-9,2.303311379218403e-9,4.541032787493819e-8,8.168011335809702e-9,0
40268,6.76442437587153e-9,3.529432861165572e-9,8.253779983791747e-9,6.294579310490986e-8,1.0079830400794756e-8,2.303311379218403e-9,4.542815211732117e-8,8.173274809304918e-9,0
40269,6.836796793010892e-9,3.559531251249184e-9,8.333684834396948e-9,6.425445028315503e-8,1.035710140635314e-8,2.303311379218403e-9,4.544597635970415e-8,8.178538282800132e-9,0
40270,6.909169210150254e-9,3.5896296413327958e-9,8.41358968500215e-9,6.55631074614002e-8,1.0634372411911524e-8,2.303311379218403e-9,4.5463800602087124e-8,8.183801756295347e-9,0
40271,6.981541627289615e-9,3.6197280314164074e-9,8.493494535607352e-9,6.687176463964537e-8,1.0911643417469908e-8,2.303311379218403e-9,4.54816248444701e-8,8.189065229790561e-9,0
40272,6.954824877467567e-9,3.603906494106738e-9,8.472638212555232e-9,6.645500315923947e-8,1.0862883186992789e-8,2.2412802592886684e-9,4.564914772747988e-8,8.177165997016372e-9,0
40273,6.940870433214641e-9,3.596958591076079e-9,8.463673700427016e-9,6.619131717772506e-8,1.0777866242359116e-8,2.1888895017379413e-9,4.533156341313044e-8,8.185128336381989e-9,0
40274,6.926915988961715e-9,3.59001068804542e-9,8.454709188298801e-9,6.592763119621065e-8,1.0692849297725442e-8,2.136498744187214e-9,4.5013979098780994e-8,8.193090675747607e-9,0
40275,6.91296154470879e-9,3.5830627850147603e-9,8.445744676170586e-9,6.566394521469622e-8,1.0607832353091768e-8,2.084107986636487e-9,4.469639478443155e-8,8.201053015113224e-9,0
40276,6.899007100455864e-9,3.5761148819841013e-9,8.43678016404237e-9,6.540025923318181e-8,1.0522815408458094e-8,2.0317172290857594e-9,4.437881047008211e-8,8.20901535447884e-9,0
40277,6.8850526562029384e-9,3.569166978953442e-9,8.427815651914155e-9,6.51365732516674e-8,1.043779846382442e-8,1.979326471535032e-9,4.406122615573267e-8,8.216977693844459e-9,0
40278,6.871098211950013e-9,3.562219075922783e-9,8.41885113978594e-9,6.487288727015298e-8,1.0352781519190747e-8,1.926935713984305e-9,4.3743641841383223e-8,8.224940033210076e-9,0
40279,6.857143767697087e-9,3.5552711728921236e-9,8.409886627657726e-9,6.460920128863855e-8,1.0267764574557073e-8,1.8745449564335775e-9,4.342605752703378e-8,8.232902372575694e-9,0
40280,6.843189323444162e-9,3.5483232698614645e-9,8.40092211552951e-9,6.434551530712414e-8,1.0182747629923399e-8,1.8221541988828502e-9,4.310847321268434e-8,8.24086471194131e-9,0
40281,6.86163254575195e-9,3.532768429415518e-9,8.40092211552951e-9,6.385147840945915e-8,1.0097347428745068e-8,1.7669566560249497e-9,4.337172761201198e-8,8.258784403141373e-9,0
40282,6.834395756754954e-9,3.5258205263848586e-9,8.475669863203004e-9,6.361947681646889e-8,1.0097347428745068e-8,1.7519271225157139e-9,4.3020838074985325e-8,8.266746742506991e-9,0
40283,6.807158967757959e-9,3.5188726233541996e-9,8.5504176108765e-9,6.338747522347862e-8,1.0097347428745068e-8,1.7368975890064778e-9,4.266994853795867e-8,8.274709081872608e-9,0
40284,6.779922178760963e-9,3.5119247203235405e-9,8.625165358549994e-9,6.315547363048835e-8,1.0097347428745068e-8,1.721868055497242e-9,4.2319059000932026e-8,8.282671421238226e-9,0
40285,6.752685389763968e-9,3.504976817292881e-9,8.699913106223489e-9,6.292347203749807e-8,1.0097347428745068e-8,1.7068385219880059e-9,4.1968169463905374e-8,8.290633760603843e-9,0
40286,6.728865371385332e-9,3.5075294360812076e-9,8.49381873588407e-9,6.10233291628984e-8,1.002391210628817e-8,1.7552543411840882e-9,4.196483305153941e-8,8.220560377059143e-9,0
40287,6.705045353006697e-9,3.510082054869534e-9,8.28772436554465e-9,5.912318628829872e-8,9.950476783831272e-9,1.8036701603801705e-9,4.1961496639173445e-8,8.150486993514446e-9,0
40288,6.697532127161983e-9,3.5126346736578605e-9,8.36234167340304e-9,5.928336743241118e-8,1.0008945355898733e-8,1.8508725667797484e-9,4.19641598053069e-8,8.170366276163948e-9,0
40289,6.690018901317269e-9,3.5151872924461868e-9,8.436958981261429e-9,5.944354857652365e-8,1.0067413927966192e-8,1.8980749731793264e-9,4.196682297144036e-8,8.19024555881345e-9,0
40290,6.682505675472554e-9,3.517739911234513e-9,8.51157628911982e-9,5.9603729720636115e-8,1.0125882500033653e-8,1.9452773795789043e-9,4.196948613757382e-8,8.21012484146295e-9,0
40291,6.67499244962784e-9,3.5202925300228396e-9,8.586193596978209e-9,5.976391086474857e-8,1.0184351072101114e-8,1.992479785978482e-9,4.197214930370728e-8,8.230004124112452e-9,0
40292,6.667479223783126e-9,3.522845148811166e-9,8.660810904836598e-9,5.992409200886104e-8,1.0242819644168574e-8,2.0396821923780605e-9,4.197481246984074e-8,8.249883406761954e-9,0
40293,6.659965997938412e-9,3.5253977675994925e-9,8.735428212694988e-9,6.008427315297351e-8,1.0301288216236033e-8,2.0868845987776384e-09,4.19774756359742e-8,8.269762689411456e-9,0
40294,6.652452772093697e-9,3.5279503863878188e-9,8.810045520553377e-9,6.024445429708597e-8,1.0359756788303494e-8,2.1340870051772162e-9,4.1980138802107663e-8,8.289641972060958e-9,0
40295,6.644939546248983e-9,3.530503005176145e-9,8.884662828411768e-9,6.040463544119844e-8,1.0418225360370955e-8,2.1812894115767945e-9,4.1982801968241124e-8,8.30952125471046e-9,0
40296,6.64210973090852e-9,3.5241819896854614e-9,8.871925057950724e-9,6.051028133906732e-8,1.0389950774526326e-8,2.179361339100993e-9,4.197677330755581e-8,8.310295950150812e-9,0
40297,6.634596505063806e-9,3.5200534023068515e-9,8.84716503675067e-9,6.041417640493445e-8,1.0389950774526326e-8,2.1892025214590795e-9,4.199551290218343e-8,8.310295950150812e-9,0
40298,6.627083279219092e-9,3.5159248149282413e-9,8.822405015550616e-9,6.031807147080159e-8,1.0389950774526326e-8,2.1990437038171662e-9,4.2014252496811044e-8,8.310295950150812e-9,0
40299,6.6195700533743776e-9,3.5117962275496315e-9,8.797644994350563e-9,6.022196653666871e-8,1.0389950774526326e-8,2.208884886175253e-9,4.203299209143866e-8,8.310295950150812e-9,0
40300,6.612056827529663e-9,3.5076676401710212e-9,8.77288497315051e-9,6.012586160253585e-8,1.0389950774526326e-8,2.2187260685333396e-9,4.2051731686066275e-8,8.310295950150812e-9,0
40301,6.604543601684949e-9,3.5035390527924114e-9,8.748124951950456e-9,6.002975666840297e-8,1.0389950774526326e-8,2.2285672508914263e-9,4.2070471280693894e-8,8.310295950150812e-9,0
40302,6.597030375840235e-9,3.499410465413801e-9,8.723364930750403e-9,5.99336517342701e-8,1.0389950774526326e-8,2.238408433249513e-9,4.2089210875321506e-8,8.310295950150812e-9,0
40303,6.5895171499955205e-9,3.4952818780351913e-9,8.69860490955035e-9,5.983754680013724e-8,1.0389950774526326e-8,2.2482496156075997e-9,4.2107950469949125e-8,8.310295950150812e-9,0
40304,6.582003924150806e-9,3.491153290656581e-9,8.673844888350297e-9,5.974144186600436e-8,1.0389950774526326e-8,2.2580907979656864e-9,4.212669006457674e-8,8.310295950150812e-9,0
40305,6.574490698306092e-9,3.4870247032779713e-9,8.649084867150242e-9,5.964533693187149e-8,1.0389950774526326e-8,2.267931980323773e-9,4.2145429659204356e-8,8.310295950150812e-9,0
40306,6.566977472461378e-9,3.482896115899361e-9,8.624324845950188e-9,5.954923199773862e-8,1.0389950774526326e-8,2.27777316268186e-9,4.216416925383197e-8,8.310295950150812e-9,0
40307,6.5594642466166635e-9,3.478767528520751e-9,8.599564824750135e-9,5.945312706360575e-8,1.0389950774526326e-8,2.2876143450399466e-9,4.218290884845959e-8,8.310295950150812e-9,0
40308,6.542029173572159e-9,3.4720863223538147e-9,8.536071632167574e-9,5.8770271414333406e-08,1.0415462795594507e-8,2.2935324424534038e-9,4.215914319194895e-8,8.308318648191678e-9,0
40309,6.543189383169351e-9,3.458457213156219e-9,8.506068181246092e-9,5.847205255089661e-8,1.0433723473831376e-8,2.3045870376079945e-9,4.218389690616893e-8,8.288279970954927e-9,0
40310,6.544349592766544e-9,3.444828103958623e-9,8.47606473032461e-9,5.8173833687459807e-8,1.0451984152068245e-8,2.3156416327625857e-9,4.220865062038891e-8,8.268241293718176e-9,0
40311,6.545509802363738e-9,3.4311989947610276e-9,8.446061279403128e-9,5.7875614824023004e-8,1.0470244830305114e-8,2.3266962279171764e-9,4.22334043346089e-8,8.248202616481425e-9,0
40312,6.5466700119609304e-9,3.417569885563432e-9,8.416057828481646e-9,5.757739596058621e-8,1.0488505508541985e-8,2.337750823071767e-9,4.225815804882888e-8,8.228163939244673e-9,0
40313,6.547830221558123e-9,3.4039407763658365e-9,8.386054377560164e-9,5.7279177097149405e-8,1.0506766186778854e-8,2.3488054182263582e-9,4.228291176304886e-8,8.208125262007922e-9,0
40314,6.548990431155317e-9,3.3903116671682405e-9,8.356050926638682e-9,5.698095823371261e-8,1.0525026865015723e-8,2.359860013380949e-9,4.230766547726885e-8,8.188086584771171e-9,0
40315,6.5501506407525095e-9,3.376682557970645e-9,8.3260474757172e-9,5.6682739370275806e-8,1.0543287543252592e-8,2.37091460853554e-9,4.233241919148883e-8,8.16804790753442e-9,0
40316,6.551310850349702e-9,3.3630534487730494e-9,8.296044024795718e-9,5.6384520506839e-8,1.0561548221489461e-8,2.381969203690131e-9,4.235717290570881e-8,8.148009230297668e-9,0
40317,6.552471059946896e-9,3.3494243395754538e-9,8.266040573874236e-9,5.608630164340221e-8,1.057980889972633e-8,2.3930237988447216e-9,4.2381926619928794e-8,8.127970553060917e-9,0
40318,6.5552902322584885e-9,3.3338694991295074e-9,8.271626228934746e-9,5.584675409914474e-8,1.0623313839059274e-8,2.3923091391654247e-9,4.238166997282372e-8,8.10769135452041e-9,0
40319,6.575445632425027e-9,3.3341466240114156e-9,8.4370737611317e-9,5.564959220035991e-8,1.0726902224038771e-8,2.3924430191514776e-9,4.255018091354284e-8,8.103443097769303e-9,0
40320,6.648164742347686e-9,3.3674453764597006e-9,8.449056879926178e-9,5.5342577329464465e-8,1.0718614529709427e-8,2.403966194257254e-9,4.30772706193051e-8,8.092088323809438e-9,0
40321,6.720883852270345e-9,3.4007441289079855e-9,8.461039998720656e-9,5.503556245856903e-8,1.0710326835380084e-8,2.41548936936303e-9,4.3604360325067356e-8,8.080733549849574e-9,0
40322,6.788626074049804e-9,3.4437166062264485e-9,8.49109562556818e-9,5.4736800971872076e-8,1.0710326835380084e-8,2.4270125444688065e-9,4.4129440477267847e-8,8.08941745312646e-9,0
40323,6.856368295829265e-9,3.4866890835449116e-9,8.521151252415703e-9,5.443803948517513e-8,1.0710326835380084e-8,2.4385357195745828e-9,4.465452062946834e-8,8.098101356403347e-9,0
40324,6.924110517608724e-9,3.529661560863375e-9,8.551206879263227e-9,5.4139277998478175e-8,1.0710326835380084e-8,2.450058894680359e-9,4.517960078166883e-8,8.106785259680233e-9,0
40325,6.9918527393881835e-9,3.572634038181838e-9,8.581262506110752e-9,5.384051651178123e-8,1.0710326835380084e-8,2.4615820697861354e-9,4.570468093386932e-8,8.11546916295712e-9,0
40326,7.059594961167643e-9,3.615606515500301e-9,8.611318132958276e-9,5.3541755025084274e-8,1.0710326835380084e-8,2.4731052448919117e-9,4.62297610860698e-8,8.124153066234006e-9,0
40327,7.1273371829471024e-9,3.6585789928187646e-9,8.6413737598058e-9,5.3242993538387327e-8,1.0710326835380084e-8,2.484628419997688e-9,4.675484123827029e-8,8.132836969510892e-9,0
40328,7.195079404726562e-9,3.7015514701372276e-9,8.671429386653323e-9,5.294423205169037e-8,1.0710326835380084e-8,2.4961515951034642e-9,4.727992139047078e-8,8.141520872787778e-9,0
40329,7.262821626506021e-9,3.744523947455691e-9,8.701485013500849e-9,5.2645470564993426e-8,1.0710326835380084e-8,2.5076747702092405e-9,4.780500154267127e-8,8.150204776064663e-9,0
40330,7.330563848285481e-9,3.787496424774154e-9,8.731540640348372e-9,5.234670907829647e-8,1.0710326835380084e-8,2.519197945315017e-9,4.833008169487176e-8,8.15888867934155e-9,0
40331,7.39830607006494e-9,3.830468902092617e-9,8.761596267195896e-9,5.204794759159952e-8,1.0710326835380084e-8,2.530721120420793e-9,4.8855161847072246e-8,8.167572582618436e-9,0
40332,7.466048291844399e-9,3.87344137941108e-9,8.791651894043421e-9,5.174918610490257e-8,1.0710326835380084e-8,2.5422442955265694e-9,4.9380241999272737e-08,8.176256485895322e-9,0
40333,7.533790513623859e-9,3.916413856729543e-9,8.821707520890945e-9,5.145042461820562e-8,1.0710326835380084e-8,2.5537674706323457e-9,4.990532215147323e-8,8.184940389172208e-9,0
40334,7.60153273540332e-9,3.959386334048006e-9,8.851763147738469e-9,5.115166313150867e-8,1.0710326835380084e-8,2.565290645738122e-9,5.043040230367372e-8,8.193624292449095e-9,0
40335,7.669274957182778e-9,4.00235881136647e-9,8.881818774585992e-9,5.0852901644811716e-8,1.0710326835380084e-8,2.5768138208438983e-9,5.095548245587421e-8,8.202308195725981e-9,0
40336,7.737017178962238e-9,4.045331288684933e-9,8.911874401433518e-9,5.055414015811477e-8,1.0710326835380084e-8,2.5883369959496746e-9,5.148056260807469e-8,8.210992099002868e-9,0
40337,7.804759400741697e-9,4.088303766003396e-9,8.941930028281041e-9,5.0255378671417815e-8,1.0710326835380084e-8,2.599860171055451e-9,5.200564276027518e-8,8.219676002279754e-9,0
40338,7.85888322802266e-9,4.088788734546736e-9,8.968251528740268e-9,5.01605842632405e-8,1.0708753924719531e-8,2.605912148454961e-9,5.1605502441913645e-8,8.147961816460114e-9,0
40339,7.91300705530362e-9,4.089273703090075e-9,8.994573029199495e-9,5.006578985506318e-8,1.070718101405898e-8,2.611964125854471e-9,5.12053621235521e-8,8.076247630640476e-9,0
40340,7.967130882584582e-9,4.0897586716334156e-9,9.020894529658723e-9,4.997099544688586e-8,1.0705608103398426e-8,2.6180161032539817e-9,5.080522180519056e-8,8.004533444820836e-9,0
40341,8.021254709865545e-9,4.090243640176755e-9,9.04721603011795e-9,4.987620103870854e-8,1.0704035192737874e-8,2.624068080653492e-9,5.040508148682901e-8,7.932819259001198e-9,0
40342,8.075378537146505e-9,4.0907286087200946e-9,9.073537530577175e-9,4.9781406630531225e-8,1.0702462282077323e-8,2.630120058053002e-9,5.0004941168467476e-8,7.861105073181558e-9,0
40343,8.129502364427468e-9,4.091213577263434e-9,9.099859031036402e-9,4.9686612222353907e-8,1.070088937141677e-8,2.6361720354525125e-9,4.960480085010593e-8,7.789390887361918e-9,0
40344,8.18362619170843e-9,4.0916985458067735e-9,9.12618053149563e-9,4.959181781417659e-8,1.0699316460756218e-8,2.6422240128520227e-9,4.920466053174439e-8,7.71767670154228e-9,0
40345,8.257169461473855e-9,4.140818835564728e-9,9.166146000779741e-9,4.959318260245816e-8,1.0700390618299563e-8,2.6454993781103813e-9,4.957596477182277e-8,7.71431968796742e-9,0
40346,8.328728361799321e-9,4.186018381605503e-9,9.152363529239093e-9,4.9240161365892694e-8,1.067384224573335e-8,2.657737212895455e-9,5.009929201756656e-8,7.71431968796742e-9,0
40347,8.329541878613216e-9,4.188976259698507e-9,9.146161725227781e-9,4.957256256818466e-8,1.0682589847916282e-8,2.688279946448123e-9,5.0029364793507e-8,7.715575426015285e-9,0
40348,8.33035539542711e-9,4.19193413779151e-9,9.139959921216471e-9,4.990496377047662e-8,1.0691337450099214e-8,2.718822680000791e-9,4.995943756944743e-8,7.71683116406315e-9,0
40349,8.337642059735827e-9,4.195030578325468e-9,9.15401631636884e-9,4.979440336543472e-8,1.0697666898786735e-8,2.7345150197793086e-9,4.9891263251844555e-8,7.731846889108442e-9,0
40350,8.344928724044542e-9,4.198127018859425e-9,9.16807271152121e-9,4.9683842960392815e-8,1.0703996347474256e-8,2.750207359557826e-9,4.982308893424168e-8,7.746862614153734e-9,0
40351,8.352215388353259e-9,4.201223459393383e-9,9.182129106673578e-9,4.957328255535091e-8,1.0710325796161777e-8,2.7658996993363435e-9,4.975491461663881e-8,7.761878339199027e-9,0
40352,8.359502052661976e-9,4.20431989992734e-9,9.196185501825948e-9,4.9462722150309e-8,1.0716655244849298e-8,2.781592039114861e-9,4.968674029903594e-8,7.77689406424432e-9,0
40353,8.366788716970692e-9,4.207416340461298e-9,9.210241896978316e-9,4.93521617452671e-8,1.0722984693536819e-8,2.7972843788933785e-9,4.961856598143306e-8,7.791909789289613e-9,0
40354,8.394839022781583e-9,4.255088796051736e-9,9.260051988791463e-9,4.939262337957685e-8,1.0722984693536819e-8,2.7975672254484955e-9,4.955257061793938e-8,7.793112395808395e-9,0
40355,8.451077993778671e-9,4.653821236397918e-9,9.302819298137008e-9,4.93238497117283e-8,1.0731732295719751e-8,2.817465496726759e-9,4.9505242143608616e-8,7.792355410877736e-9,0
40356,8.455708189138574e-9,4.659006183213234e-9,9.300581431100332e-9,4.9230536985974544e-8,1.072747347159168e-8,2.8198102957437303e-9,4.9449066983004595e-8,7.791580715437384e-9,0
40357,8.460338384498476e-9,4.664191130028549e-9,9.298343564063656e-9,4.9137224260220794e-8,1.0723214647463612e-8,2.822155094760701e-9,4.939289182240057e-8,7.790806019997033e-9,0
40358,8.464968579858379e-9,4.669376076843865e-9,9.29610569702698e-9,4.9043911534467043e-8,1.0718955823335543e-8,2.8244998937776723e-9,4.9336716661796545e-8,7.79003132455668e-9,0
40359,8.469598775218281e-9,4.67456102365918e-9,9.293867829990305e-9,4.8950598808713286e-8,1.0714696999207475e-8,2.8268446927946435e-9,4.9280541501192524e-8,7.789256629116328e-9,0
40360,8.474228970578182e-9,4.679745970474496e-9,9.291629962953629e-9,4.8857286082959536e-8,1.0710438175079406e-8,2.8291894918116147e-9,4.92243663405885e-8,7.788481933675977e-9,0
40361,8.478859165938085e-9,4.684930917289811e-9,9.289392095916953e-9,4.8763973357205785e-8,1.0706179350951337e-8,2.831534290828586e-9,4.916819117998448e-8,7.787707238235624e-9,0
40362,8.483489361297987e-9,4.690115864105127e-9,9.287154228880275e-9,4.867066063145203e-8,1.0701920526823267e-8,2.833879089845557e-9,4.911201601938046e-8,7.786932542795273e-9,0
40363,8.48811955665789e-9,4.695300810920442e-9,9.2849163618436e-9,4.857734790569828e-8,1.0697661702695198e-8,2.8362238888625283e-9,4.905584085877644e-8,7.78615784735492e-9,0
40364,8.492749752017792e-9,4.7004857577357576e-9,9.282678494806923e-9,4.848403517994453e-8,1.069340287856713e-8,2.838568687879499e-9,4.899966569817241e-8,7.785383151914568e-9,0
40365,8.497379947377693e-9,4.7056707045510735e-9,9.280440627770247e-9,4.839072245419077e-8,1.0689144054439061e-8,2.8409134868964704e-9,4.894349053756839e-8,7.784608456474217e-9,0
40366,8.502010142737595e-9,4.7108556513663885e-9,9.278202760733571e-9,4.829740972843702e-8,1.0684885230310992e-8,2.8432582859134416e-9,4.888731537696437e-8,7.783833761033864e-9,0
40367,8.506640338097498e-9,4.716040598181704e-9,9.275964893696896e-9,4.820409700268327e-8,1.0680626406182923e-8,2.8456030849304128e-9,4.8831140216360346e-8,7.783059065593512e-9,0
40368,8.462350155855636e-9,4.7098477171137894e-9,9.223721275124415e-9,4.805159125821494e-8,1.0654383599634127e-8,2.847731977385294e-9,4.874755326797075e-8,7.783041355083817e-9,0
40369,8.418059973613775e-9,4.703654836045874e-9,9.171477656551936e-9,4.789908551374662e-8,1.0628140793085332e-8,2.8498608698401745e-9,4.8663966319581164e-8,7.783023644574123e-9,0
40370,8.373769791371914e-9,4.697461954977959e-9,9.119234037979456e-9,4.77465797692783e-8,1.0601897986536537e-8,2.8519897622950556e-9,4.858037937119157e-8,7.783005934064429e-9,0
40371,8.329479609130053e-9,4.691269073910044e-9,9.066990419406977e-9,4.759407402480998e-8,1.057565517998774e-8,2.8541186547499362e-9,4.8496792422801975e-8,7.782988223554734e-9,0
40372,8.285189426888191e-9,4.685076192842129e-9,9.014746800834497e-9,4.744156828034165e-8,1.0549412373438946e-8,2.8562475472048173e-9,4.841320547441239e-8,7.78297051304504e-9,0
40373,8.19931874649763e-9,4.634854475019045e-9,9.014694624908455e-9,4.728209456916049e-8,1.0463091317335133e-8,2.8583764396596984e-9,4.833906066049597e-8,7.702253634774016e-9,0
40374,8.113448066107072e-9,4.5846327571959615e-9,9.014642448982413e-9,4.712262085797932e-8,1.0376770261231319e-8,2.860505332114579e-9,4.826491584657956e-8,7.621536756502992e-9,0
40375,8.027577385716512e-9,4.534411039372878e-9,9.014590273056372e-9,4.696314714679816e-8,1.0290449205127506e-8,2.86263422456946e-9,4.819077103266314e-8,7.540819878231968e-9,0
40376,7.941706705325951e-9,4.484189321549794e-9,9.014538097130328e-9,4.680367343561699e-8,1.0204128149023694e-8,2.8647631170243408e-9,4.811662621874673e-8,7.460102999960944e-9,0
40377,7.855836024935393e-9,4.43396760372671e-9,9.014485921204287e-9,4.664419972443583e-8,1.0117807092919881e-8,2.866892009479222e-9,4.804248140483031e-8,7.379386121689919e-9,0
40378,7.769965344544832e-9,4.383745885903626e-9,9.014433745278245e-9,4.6484726013254664e-8,1.0031486036816069e-8,2.869020901934103e-9,4.796833659091389e-8,7.298669243418895e-9,0
40379,7.684094664154272e-9,4.333524168080543e-9,9.014381569352202e-9,4.63252523020735e-8,9.945164980712254e-9,2.8711497943889836e-9,4.789419177699748e-8,7.21795236514787e-9,0
40380,7.598223983763713e-9,4.283302450257459e-9,9.01432939342616e-9,4.6165778590892335e-8,9.858843924608442e-9,2.8732786868438646e-9,4.782004696308106e-8,7.137235486876846e-9,0
40381,7.601520623134773e-9,4.269094878703993e-9,9.006028225093937e-9,4.618491694274227e-8,9.825428504973881e-9,2.8754075792987453e-9,4.756425422685072e-8,7.136496212455883e-9,0
40382,7.604817262505834e-9,4.2548873071505284e-9,8.997727056761714e-9,4.6204055294592205e-8,9.79201308533932e-9,2.8775364717536264e-9,4.730846149062037e-8,7.13575693803492e-9,0
40383,7.608113901876894e-9,4.240679735597063e-9,8.989425888429492e-9,4.622319364644214e-8,9.75859766570476e-9,2.8796653642085074e-9,4.705266875439002e-8,7.135017663613957e-9,0
40384,7.611410541247955e-9,4.226472164043598e-9,8.981124720097269e-9,4.624233199829207e-8,9.7251822460702e-9,2.881794256663388e-9,4.679687601815968e-8,7.1342783891929935e-9,0
40385,7.614707180619014e-9,4.212264592490132e-9,8.972823551765046e-9,4.6261470350142004e-8,9.691766826435639e-9,2.883923149118269e-9,4.654108328192933e-8,7.1335391147720295e-9,0
40386,7.618003819990076e-9,4.198057020936667e-9,8.964522383432823e-9,4.628060870199194e-8,9.658351406801078e-9,2.88605204157315e-9,4.628529054569898e-8,7.132799840351066e-9,0
40387,7.621300459361135e-9,4.183849449383202e-9,8.9562212151006e-9,4.6299747053841874e-8,9.624935987166517e-9,2.888180934028031e-9,4.6029497809468635e-8,7.132060565930103e-9,0
40388,7.62693880398432e-9,4.189997261822693e-9,8.9562212151006e-9,4.6297624755047976e-8,9.608016187226792e-9,2.8748333932664846e-9,4.598929728970817e-8,7.130030132441887e-9,0
40389,7.632577148607507e-9,4.196145074262183e-9,8.9562212151006e-9,4.629550245625408e-8,9.591096387287067e-9,2.8614858525049384e-9,4.5949096769947716e-8,7.1279996989536696e-9,0
40390,7.640871962179507e-9,4.276631313757568e-9,8.952513176675323e-9,4.6305713329575314e-8,9.580852525752514e-9,2.8460763592815375e-9,4.5893120092077006e-8,7.126708539886416e-9,0
40391,7.649166775751508e-9,4.357117553252952e-9,8.948805138250048e-9,4.6315924202896556e-8,9.570608664217961e-9,2.8306668660581366e-9,4.583714341420629e-8,7.125417380819163e-9,0
40392,7.665657557705947e-9,4.3818820060621085e-9,8.993810314632271e-9,4.669838226556031e-8,9.677764972326838e-9,2.8159050925210065e-9,4.5781936677650795e-8,7.125417380819163e-9,0
40393,7.682148339660387e-9,4.406646458871265e-9,9.038815491014494e-9,4.7080840328224055e-8,9.784921280435715e-9,2.8011433189838765e-9,4.572672994109531e-8,7.125417380819163e-9,0
40394,7.698639121614827e-9,4.431410911680421e-9,9.083820667396717e-9,4.746329839088781e-8,9.892077588544593e-9,2.7863815454467464e-9,4.567152320453981e-8,7.125417380819163e-9,0
40395,7.715129903569266e-9,4.456175364489578e-9,9.128825843778939e-9,4.784575645355155e-8,9.99923389665347e-9,2.7716197719096168e-9,4.5616316467984325e-8,7.125417380819163e-9,0
40396,7.720768248192453e-9,4.456175364489578e-9,9.125104761372152e-9,4.783588991585944e-8,1.0005102398269095e-8,2.759783577082702e-9,4.5569118863490024e-8,7.129425116266514e-9,0
40397,7.724248876984032e-9,4.4650489987685875e-9,9.130079248562712e-9,4.7817227370708694e-8,9.987760496521095e-9,2.7440912373041844e-9,4.551909814083991e-8,7.131108765392807e-9,0
40398,7.727729505775611e-9,4.473922633047598e-9,9.135053735753272e-9,4.7798564825557946e-8,9.970418594773094e-9,2.728398897525667e-9,4.54690774181898e-8,7.132792414519102e-9,0
40399,7.73121013456719e-9,4.482796267326608e-9,9.140028222943831e-9,4.777990228040719e-8,9.953076693025093e-9,2.7127065577471494e-9,4.5419056695539684e-8,7.1344760636453955e-9,0
40400,7.73469076335877e-9,4.4916699016056176e-9,9.14500271013439e-9,4.776123973525644e-8,9.935734791277091e-9,2.697014217968632e-9,4.536903597288957e-8,7.13615971277169e-9,0
40401,7.738171392150348e-9,4.500543535884628e-9,9.14997719732495e-9,4.774257719010569e-8,9.91839288952909e-9,2.6813218781901144e-9,4.531901525023946e-8,7.137843361897984e-9,0
40402,7.741652020941927e-9,4.509417170163638e-9,9.15495168451551e-9,4.772391464495494e-8,9.90105098778109e-9,2.665629538411597e-9,4.5268994527589345e-8,7.139527011024278e-9,0
40403,7.724315793086982e-9,4.5180241075789255e-9,9.099945357826125e-9,4.6909567698697936e-8,9.515012957407964e-9,2.64102658251638e-9,4.525492765265696e-8,7.118455406533724e-9,0
40404,7.706979565232038e-9,4.526631044994213e-9,9.04493903113674e-9,4.6095220752440934e-8,9.128974927034839e-9,2.6164236266211634e-9,4.524086077772457e-8,7.0973838020431706e-9,0
40405,7.662958516641654e-9,4.531583935556044e-9,9.041612349995077e-9,4.5985367780330326e-8,9.121033722423146e-9,2.6122997216974546e-9,4.521123586107605e-8,7.092413981380795e-9,0
40406,7.618937468051269e-9,4.536536826117875e-9,9.038285668853414e-9,4.587551480821972e-8,9.113092517811453e-9,2.6081758167737458e-9,4.518161094442753e-8,7.08744416071842e-9,0
40407,7.574916419460886e-9,4.541489716679706e-9,9.03495898771175e-9,4.5765661836109116e-8,9.10515131319976e-9,2.604051911850037e-9,4.5151986027779016e-8,7.082474340056044e-9,0
40408,7.530895370870502e-9,4.546442607241537e-9,9.031632306570087e-9,4.565580886399851e-8,9.097210108588068e-9,2.599928006926328e-9,4.5122361111130496e-8,7.077504519393669e-9,0
40409,7.486874322280117e-9,4.551395497803369e-9,9.028305625428422e-9,4.55459558918879e-8,9.089268903976376e-9,2.5958041020026193e-9,4.5092736194481975e-8,7.072534698731293e-9,0
40410,7.4428532736897335e-9,4.5563483883652e-9,9.024978944286758e-9,4.54361029197773e-8,9.081327699364683e-9,2.5916801970789105e-9,4.5063111277833454e-8,7.067564878068918e-9,0
40411,7.39883222509935e-9,4.561301278927032e-9,9.021652263145095e-9,4.532624994766669e-8,9.07338649475299e-9,2.5875562921552016e-9,4.5033486361184933e-8,7.062595057406542e-9,0
40412,7.375238768256712e-9,4.559572963321926e-9,9.129941928405711e-9,4.6534119450196867e-8,9.118964137082001e-9,2.5898341511791464e-9,4.5017797449632324e-8,7.083747788613603e-9,0
40413,7.330078796126875e-9,4.559711525762881e-9,9.406177872530168e-9,4.836321612541101e-8,9.405174892704798e-9,2.586774692482878e-9,4.504569854201003e-8,7.0787779679512276e-9,0
40414,7.303393975391436e-9,4.564664416324712e-9,9.40011457123462e-9,4.8265781903649546e-8,9.39895990137152e-9,2.584794766597061e-9,4.529840206445442e-8,7.142073908139396e-9,0
40415,7.2767091546559965e-9,4.569617306886543e-9,9.394051269939075e-9,4.8168347681888085e-8,9.392744910038244e-9,2.582814840711244e-9,4.555110558689881e-8,7.205369848327565e-9,0
40416,7.2500243339205576e-9,4.574570197448374e-9,9.387987968643527e-9,4.807091346012662e-8,9.386529918704966e-9,2.5808349148254266e-9,4.58038091093432e-8,7.2686657885157335e-9,0
40417,7.223339513185118e-9,4.579523088010205e-9,9.38192466734798e-9,4.7973479238365156e-8,9.380314927371687e-9,2.5788549889396096e-9,4.6056512631787585e-8,7.331961728703902e-9,0
40418,7.196654692449679e-9,4.584475978572037e-9,9.375861366052434e-9,4.7876045016603694e-8,9.37409993603841e-9,2.5768750630537922e-9,4.630921615423197e-8,7.39525766889207e-9,0
40419,7.16996987171424e-9,4.589428869133868e-9,9.369798064756887e-9,4.7778610794842233e-08,9.367884944705133e-9,2.5748951371679753e-9,4.656191967667636e-8,7.458553609080239e-9,0
40420,7.1432850509788e-9,4.5943817596957e-9,9.36373476346134e-9,4.768117657308077e-8,9.361669953371856e-9,2.572915211282158e-9,4.681462319912075e-8,7.521849549268407e-9,0
40421,7.116600230243361e-9,4.599334650257531e-9,9.357671462165792e-9,4.758374235131931e-8,9.355454962038577e-9,2.570935285396341e-9,4.706732672156514e-8,7.585145489456577e-9,0
40422,7.089915409507922e-9,4.604287540819362e-9,9.351608160870247e-9,4.748630812955784e-8,9.3492399707053e-9,2.568955359510524e-9,4.7320030244009525e-8,7.648441429644745e-9,0
40423,7.063230588772482e-9,4.609240431381193e-9,9.3455448595747e-9,4.738887390779638e-8,9.343024979372022e-9,2.5669754336247066e-9,4.757273376645391e-8,7.711737369832914e-9,0
40424,7.036545768037043e-9,4.614193321943024e-9,9.339481558279152e-9,4.729143968603492e-8,9.336809988038745e-9,2.5649955077388896e-9,4.78254372888983e-8,7.775033310021082e-9,0
40425,7.042258613862318e-9,4.614193321943024e-9,9.273724410696894e-9,4.69508371998186e-8,9.199040709553681e-9,2.524559738418119e-9,4.7945574269816225e-8,7.783554959864954e-9,0
40426,7.047971459687593e-9,4.614193321943024e-9,9.207967263114635e-9,4.6610234713602276e-8,9.061271431068617e-9,2.4841239690973487e-9,4.8065711250734146e-8,7.792076609708826e-9,0
40427,7.0681268598541306e-9,4.6228002593583115e-9,9.205230642960751e-9,4.6616981446266075e-8,9.048419346593786e-9,2.4798661841875865e-9,4.8244110007239756e-8,7.858106836786787e-9,0
40428,7.088282260020669e-9,4.631407196773599e-9,9.202494022806869e-9,4.6623728178929874e-8,9.035567262118956e-9,2.475608399277825e-9,4.8422508763745374e-8,7.924137063864747e-9,0
40429,7.108437660187206e-9,4.640014134188886e-9,9.199757402652985e-9,4.663047491159367e-8,9.022715177644125e-9,2.471350614368063e-9,4.860090752025099e-8,7.990167290942706e-9,0
40430,7.128593060353744e-9,4.648621071604173e-9,9.197020782499103e-9,4.663722164425747e-8,9.009863093169293e-9,2.4670928294583013e-9,4.877930627675661e-8,8.056197518020667e-9,0
40431,7.148748460520282e-9,4.657228009019461e-9,9.194284162345219e-9,4.6643968376921264e-8,8.997011008694462e-9,2.4628350445485396e-9,4.8957705033262225e-8,8.122227745098626e-9,0
40432,7.16890386068682e-9,4.665834946434748e-9,9.191547542191337e-9,4.6650715109585063e-8,8.984158924219632e-9,2.458577259638778e-9,4.913610378976784e-8,8.188257972176585e-9,0
40433,7.189059260853357e-9,4.674441883850035e-9,9.188810922037453e-9,4.665746184224886e-8,8.9713068397448e-9,2.4543194747290157e-9,4.9314502546273453e-8,8.254288199254546e-9,0
40434,7.2092146610198945e-9,4.6830488212653225e-9,9.18607430188357e-9,4.666420857491266e-8,8.95845475526997e-9,2.450061689819254e-9,4.949290130277907e-8,8.320318426332506e-9,0
40435,7.229370061186433e-9,4.69165575868061e-9,9.183337681729687e-9,4.667095530757646e-8,8.945602670795138e-9,2.4458039049094923e-9,4.967130005928469e-8,8.386348653410465e-9,0
40436,7.24952546135297e-9,4.700262696095897e-9,9.180601061575804e-9,4.667770204024026e-8,8.932750586320307e-9,2.4415461199997305e-9,4.9849698815790305e-8,8.452378880488426e-9,0
40437,7.269680861519508e-9,4.708869633511184e-9,9.17786444142192e-9,4.668444877290406e-8,8.919898501845477e-9,2.437288335089969e-9,5.002809757229592e-8,8.518409107566385e-9,0
40438,7.2898362616860456e-9,4.717476570926472e-9,9.175127821268037e-9,4.669119550556785e-8,8.907046417370645e-9,2.4330305501802067e-9,5.020649632880154e-8,8.584439334644344e-9,0
40439,7.269797934837076e-9,4.7253180583608296e-09,9.145341136951382e-9,4.669794223823165e-8,8.907046417370645e-9,2.42318936782212e-9,5.0482752483930314e-8,8.654388744621184e-9,0
40440,7.249759607988107e-9,4.733159545795187e-9,9.115554452634727e-9,4.670468897089545e-8,8.907046417370645e-9,2.4133481854640337e-9,5.075900863905909e-8,8.724338154598021e-9,0
40441,7.229721281139138e-9,4.741001033229545e-9,9.085767768318073e-9,4.671143570355925e-8,8.907046417370645e-9,2.403507003105947e-9,5.1035264794187863e-08,8.79428756457486e-9,0
40442,7.209682954290168e-9,4.748842520663902e-9,9.055981084001418e-9,4.671818243622305e-8,8.907046417370645e-9,2.3936658207478603e-9,5.131152094931664e-8,8.864236974551698e-9,0
40443,7.189644627441198e-9,4.75668400809826e-9,9.026194399684763e-9,4.6724929168886846e-8,8.907046417370645e-9,2.3838246383897735e-09,5.158777710444541e-8,8.934186384528535e-9,0
40444,7.169606300592229e-9,4.764525495532617e-9,8.996407715368108e-9,4.6731675901550645e-8,8.907046417370645e-9,2.373983456031687e-9,5.186403325957419e-8,9.004135794505374e-9,0
40445,7.14956797374326e-9,4.772366982966975e-9,8.966621031051454e-9,4.673842263421444e-8,8.907046417370645e-9,2.3641422736736e-9,5.214028941470296e-8,9.074085204482212e-9,0
40446,7.129529646894291e-9,4.780208470401332e-9,8.936834346734799e-9,4.6745169366878236e-8,8.907046417370645e-9,2.3543010913155134e-9,5.2416545569831737e-8,9.144034614459051e-9,0
40447,7.093099383280441e-9,4.78804995783569e-9,8.939020037845433e-9,4.670230791470643e-8,8.895344102529783e-9,2.350378006370884e-9,5.238161831053431e-8,9.20022403743846e-9,0
40448,7.037673929097247e-9,4.787980676615213e-9,8.94717772238104e-9,4.678524077272281e-8,8.882567630145577e-9,2.356296103784341e-9,5.208317491223629e-8,9.18419309564906e-9,0
40449,6.988721622408873e-9,4.79582216404957e-9,9.111570591336687e-9,4.734490858679001e-8,8.930215897034039e-9,2.3590057759324666e-9,5.175996325862536e-8,9.198239309647362e-9,0
40450,6.931647848540149e-9,4.795056714068641e-9,9.21766650258601e-9,4.765161043796431e-8,8.91954993369121e-9,2.359340475897599e-9,5.144553067839083e-8,9.188487058097284e-9,0
40451,6.874574074671425e-9,4.7942912640877105e-9,9.323762413835334e-9,4.795831228913862e-8,8.908883970348382e-9,2.3596751758627316e-9,5.113109809815631e-8,9.178734806547206e-9,0
40452,6.817500300802701e-9,4.793525814106781e-9,9.429858325084656e-9,4.826501414031292e-8,8.898218007005553e-9,2.360009875827864e-9,5.081666551792179e-8,9.16898255499713e-9,0
40453,6.760426526933976e-9,4.792760364125851e-9,9.53595423633398e-9,4.857171599148722e-8,8.887552043662725e-9,2.360344575792996e-9,5.050223293768727e-8,9.159230303447052e-9,0
40454,6.703352753065252e-9,4.791994914144922e-9,9.642050147583302e-9,4.887841784266152e-8,8.876886080319897e-9,2.3606792757581287e-09,5.018780035745274e-8,9.149478051896974e-9,0
40455,6.6462789791965276e-9,4.7912294641639915e-9,9.748146058832626e-9,4.918511969383583e-8,8.866220116977069e-9,2.361013975723261e-9,4.987336777721822e-8,9.139725800346896e-9,0
40456,6.605522640890595e-9,4.911276618396053e-9,9.76913282169985e-9,4.917091879557693e-8,8.853443644592861e-9,2.359070816664449e-9,4.955884795042605e-8,9.123953090370945e-9,0
40457,6.5517561494218005e-9,4.9660943926603966e-9,9.774055132964368e-9,4.912805734340512e-8,8.851025491097451e-9,2.359405516629581e-9,4.9255528257131624e-8,9.116846573162187e-9,0
40458,6.497989657953006e-9,5.020912166924741e-9,9.778977444228885e-9,4.9085195891233315e-8,8.84860733760204e-9,2.359740216594714e-9,4.89522085638372e-8,9.109740055953428e-9,0
40459,6.444223166484212e-9,5.075729941189085e-9,9.783899755493403e-9,4.9042334439061504e-8,8.846189184106629e-9,2.360074916559846e-9,4.8648888870542775e-8,9.102633538744671e-9,0
40460,6.390456675015418e-9,5.130547715453429e-9,9.78882206675792e-9,4.899947298688969e-8,8.843771030611218e-9,2.3604096165249788e-9,4.834556917724835e-8,9.095527021535913e-9,0
40461,6.336690183546624e-9,5.185365489717772e-9,9.793744378022436e-9,4.895661153471789e-8,8.841352877115808e-9,2.360744316490111e-9,4.804224948395392e-8,9.088420504327154e-9,0
40462,6.2829236920778295e-9,5.2401832639821166e-9,9.798666689286954e-9,4.891375008254608e-8,8.838934723620397e-9,2.3610790164552433e-9,4.77389297906595e-8,9.081313987118395e-9,0
40463,6.229157200609035e-9,5.295001038246461e-9,9.80358900055147e-9,4.8870888630374266e-8,8.836516570124986e-9,2.361413716420376e-9,4.743561009736507e-8,9.074207469909637e-9,0
40464,6.175390709140242e-9,5.349818812510804e-9,9.808511311815989e-9,4.882802717820246e-8,8.834098416629574e-9,2.361748416385508e-9,4.713229040407064e-8,9.067100952700878e-9,0
40465,6.121624217671448e-9,5.404636586775148e-9,9.813433623080505e-9,4.878516572603065e-8,8.831680263134165e-9,2.362083116350641e-9,4.682897071077622e-8,9.059994435492121e-9,0
40466,6.0678577262026535e-9,5.4594543610394924e-9,9.818355934345024e-9,4.874230427385884e-8,8.829262109638754e-9,2.362417816315773e-9,4.6525651017481794e-8,9.052887918283362e-9,0
40467,6.014091234733859e-9,5.514272135303836e-9,9.82327824560954e-9,4.8699442821687035e-8,8.826843956143342e-9,2.362752516280906e-9,4.6222331324187367e-8,9.045781401074604e-9,0
40468,5.960324743265065e-9,5.56908990956818e-9,9.828200556874057e-9,4.8656581369515224e-8,8.824425802647933e-9,2.363087216246038e-9,4.591901163089294e-8,9.038674883865845e-9,0
40469,5.963632025664995e-9,5.620880524519043e-9,9.824873875732393e-9,4.8661913236316426e-8,8.82833813705835e-9,2.3656328352420886e-9,4.5903322719340336e-8,9.043573862489443e-9,0
40470,5.9629386400983996e-9,5.67673044562804e-9,9.77780040407313e-9,4.8511417081244986e-8,8.833977723965488e-9,2.369689800172771e-9,4.591943767854544e-8,9.046219596830763e-9,0
40471,5.949928486935538e-9,5.726259351246353e-9,9.756492522748995e-9,4.8475905454761226e-8,8.831559570470078e-9,2.3700245001379037e-9,4.554027842924967e-8,8.873109418308585e-9,0
40472,5.936918333772678e-9,5.7757882568646654e-9,9.73518464142486e-9,4.8440393828277466e-8,8.829141416974667e-9,2.370359200103036e-9,4.51611191799539e-8,8.69999923978641e-9,0
40473,5.923908180609816e-9,5.825317162482979e-9,9.713876760100722e-9,4.840488220179371e-8,8.826723263479256e-9,2.370693900068168e-9,4.478195993065813e-8,8.526889061264232e-9,0
40474,5.910898027446956e-9,5.874846068101291e-9,9.692568878776586e-9,4.836937057530995e-8,8.824305109983846e-9,2.371028600033301e-9,4.440280068136236e-8,8.353778882742057e-9,0
40475,5.8978878742840946e-9,5.924374973719604e-9,9.67126099745245e-9,4.833385894882619e-8,8.821886956488435e-9,2.371363299998433e-9,4.402364143206659e-8,8.18066870421988e-9,0
40476,5.884877721121234e-9,5.973903879337917e-9,9.649953116128315e-9,4.829834732234244e-8,8.819468802993024e-9,2.3716979999635658e-9,4.3644482182770816e-8,8.007558525697704e-9,0
40477,5.8718675679583735e-9,6.023432784956229e-9,9.628645234804178e-9,4.826283569585868e-8,8.817050649497613e-9,2.372032699928698e-9,4.326532293347505e-8,7.834448347175526e-9,0
40478,5.861015130627119e-9,6.0662320592235e-9,9.598398929314848e-9,4.821306890879001e-8,8.804274177113407e-9,2.365965635946177e-9,4.2869990560602406e-8,7.654631567335597e-9,0
40479,5.844524348672679e-9,6.215338385232016e-9,9.574419647744382e-9,4.8228267313283324e-8,8.791267750802406e-9,2.3663003359113094e-9,4.247069724497799e-8,7.478787101923629e-9,0
40480,5.8363283802902395e-9,6.218098847681774e-9,9.553111766420245e-9,4.820149743193219e-8,8.799593251177061e-9,2.380131543207052e-9,4.209166886551869e-8,7.302942636511661e-9,0
40481,5.8281324119077994e-9,6.220859310131532e-9,9.531803885096109e-9,4.817472755058106e-8,8.807918751551718e-9,2.3939627505027946e-9,4.1712640486059397e-8,7.127098171099693e-9,0
40482,5.819936443525359e-9,6.223619772581289e-9,9.510496003771973e-9,4.8147957669229924e-8,8.816244251926373e-9,2.407793957798537e-9,4.1333612106600096e-8,6.951253705687726e-9,0
40483,5.811740475142919e-9,6.226380235031047e-9,9.489188122447837e-9,4.8121187787878795e-8,8.82456975230103e-9,2.4216251650942795e-9,4.09545837271408e-8,6.775409240275757e-9,0
40484,5.808585253076899e-9,6.23154096925431e-9,9.497883692045182e-9,4.7869484435412296e-8,8.839225740581514e-9,2.4404589901451027e-9,4.0918847995817194e-8,6.7567502746547314e-9,0
40485,5.805430031010877e-9,6.236701703477572e-9,9.506579261642528e-9,4.76177810829458e-8,8.853881728861999e-9,2.459292815195926e-9,4.0883112264493594e-8,6.738091309033706e-9,0
40486,5.8119031785056985e-9,6.245516484554291e-9,9.485414864115008e-9,4.738995106354427e-8,8.829176105365058e-9,2.478126640246749e-9,4.087328261307887e-8,6.743301650999838e-9,0
40487,5.81837632600052e-9,6.254331265631009e-9,9.464250466587488e-9,4.716212104414274e-8,8.804470481868117e-9,2.4969604652975724e-9,4.0863452961664145e-8,6.748511992965969e-9,0
40488,5.82484947349534e-9,6.263146046707728e-9,9.443086069059968e-9,4.693429102474121e-8,8.779764858371176e-9,2.515794290348395e-9,4.085362331024942e-8,6.7537223349321016e-9,0
40489,5.831322620990161e-9,6.2719608277844465e-9,9.421921671532447e-9,4.670646100533968e-8,8.755059234874234e-9,2.5346281153992184e-9,4.0843793658834695e-8,6.758932676898233e-9,0
40490,5.837795768484982e-9,6.2807756088611654e-9,9.400757274004926e-9,4.6478630985938155e-8,8.730353611377293e-9,2.5534619404500416e-9,4.083396400741997e-8,6.7641430188643645e-9,0
40491,5.844268915979803e-9,6.2895903899378836e-9,9.379592876477407e-9,4.625080096653663e-8,8.705647987880354e-9,2.572295765500865e-9,4.0824134356005246e-8,6.769353360830497e-9,0
40492,5.842620596294273e-9,6.301421902309897e-9,9.34974595333405e-9,4.601225713595167e-8,8.765536167990502e-9,2.5804096953622296e-9,4.0796262345813424e-8,6.7693887818498855e-9,0
40493,5.8442795590086725e-9,6.301387261699658e-9,9.325844935652646e-9,4.5784427116550134e-8,8.720802729278044e-9,2.5802758153761767e-9,4.077012870098535e-8,6.772363590043432e-9,0
40494,5.8480962375546795e-9,6.301120564835936e-9,9.304680538125125e-9,4.553543660166684e-8,8.674995133022241e-9,2.5916651104958997e-9,4.076489906380115e-8,6.777573932009565e-9,0
40495,5.851912916100686e-9,6.300853867972213e-9,9.283516140597606e-9,4.5286446086783544e-8,8.629187536766437e-9,2.603054405615623e-9,4.0759669426616944e-8,6.782784273975696e-9,0
40496,5.855729594646693e-9,6.30058717110849e-9,9.262351743070085e-9,4.5037455571900246e-8,8.583379940510633e-9,2.6144437007353465e-9,4.075443978943274e-8,6.787994615941828e-9,0
40497,5.859546273192701e-9,6.300320474244768e-9,9.241187345542564e-9,4.478846505701695e-8,8.537572344254829e-9,2.62583299585507e-9,4.074921015224854e-8,6.79320495790796e-9,0
40498,5.863362951738708e-9,6.300053777381045e-9,9.220022948015044e-9,4.453947454213365e-8,8.491764747999025e-9,2.6372222909747933e-9,4.0743980515064335e-8,6.7984152998740915e-9,0
40499,5.867179630284715e-9,6.299787080517322e-9,9.198858550487523e-9,4.429048402725035e-8,8.44595715174322e-9,2.6486115860945166e-9,4.073875087788013e-8,6.803625641840223e-9,0
40500,5.870996308830722e-9,6.2995203836535995e-9,9.177694152960003e-9,4.404149351236705e-8,8.400149555487417e-9,2.6600008812142396e-9,4.073352124069593e-8,6.808835983806355e-9,0
40501,5.874812987376729e-9,6.2992536867898765e-9,9.156529755432483e-9,4.3792502997483754e-8,8.354341959231612e-9,2.671390176333963e-9,4.072829160351173e-8,6.814046325772487e-9,0
40502,5.878629665922736e-9,6.2989869899261535e-9,9.135365357904962e-9,4.3543512482600455e-8,8.308534362975808e-9,2.6827794714536864e-9,4.072306196632753e-8,6.819256667738618e-9,0
40503,5.882446344468743e-9,6.298720293062431e-9,9.11420096037744e-9,4.329452196771716e-8,8.262726766720006e-9,2.69416876657341e-9,4.0717832329143325e-8,6.8244670097047505e-9,0
40504,5.88626302301475e-9,6.298453596198708e-9,9.093036562849922e-9,4.304553145283386e-8,8.216919170464202e-9,2.705558061693133e-9,4.071260269195912e-8,6.829677351670882e-9,0
40505,5.8900797015607565e-9,6.298186899334985e-9,9.0718721653224e-9,4.279654093795056e-8,8.171111574208398e-9,2.7169473568128566e-9,4.070737305477492e-8,6.8348876936370135e-9,0
40506,5.895718046183943e-9,6.291865883844302e-9,9.071793901433337e-9,4.2375102923400624e-8,8.105159626946217e-9,2.7272571191221285e-9,4.063234197079975e-8,6.832047143689057e-9,0
40507,5.901356390807129e-9,6.285544868353618e-9,9.071715637544274e-9,4.1953664908850694e-8,8.039207679684039e-9,2.7375668814314007e-9,4.055731088682458e-8,6.829206593741099e-9,0
40508,5.9063332789503284e-9,6.276671234074608e-9,9.038594209185297e-9,4.183815868072778e-8,8.038133522140694e-9,2.7497377762234475e-9,4.0546352859338964e-8,6.835138499618499e-9,0
40509,5.911310167093528e-9,6.267797599795598e-9,9.00547278082632e-9,4.1722652452604866e-8,8.037059364597348e-9,2.7619086710154946e-9,4.0535394831853354e-8,6.8410704054959004e-9,0
40510,5.916287055236729e-9,6.258923965516588e-9,8.972351352467342e-9,4.160714622448196e-8,8.035985207054003e-9,2.7740795658075417e-9,4.0524436804367745e-8,6.847002311373301e-9,0
40511,5.921263943379928e-9,6.2500503312375775e-09,8.939229924108365e-9,4.1491639996359045e-8,8.034911049510658e-9,2.786250460599589e-9,4.051347877688213e-8,6.852934217250702e-9,0
40512,5.926240831523129e-9,6.241176696958568e-9,8.906108495749387e-9,4.137613376823613e-8,8.033836891967312e-9,2.7984213553916356e-9,4.050252074939652e-8,6.858866123128102e-9,0
40513,5.9312177196663285e-9,6.232303062679558e-9,8.87298706739041e-9,4.1260627540113224e-8,8.032762734423967e-9,2.8105922501836827e-9,4.0491562721910903e-8,6.864798029005503e-9,0
40514,5.936194607809528e-9,6.2234294284005475e-9,8.839865639031432e-9,4.114512131199031e-8,8.031688576880622e-9,2.82276314497573e-9,4.0480604694425294e-8,6.870729934882904e-9,0
40515,5.942038227910973e-9,6.244920881068872e-9,8.854013342054374e-9,4.141091703806367e-8,8.05171639209614e-9,2.8235447446480536e-9,4.0525710591368045e-8,6.926714257577946e-9,0
40516,5.956480782252235e-9,6.25214590898144e-9,8.860739987145913e-9,4.1727760923305145e-8,8.119123675009707e-9,2.839489757815666e-9,4.050205617103307e-8,6.990154740689434e-9,0
40517,5.970923336593498e-9,6.259370936894007e-9,8.867466632237453e-9,4.204460480854662e-8,8.186530957923273e-9,2.855434770983279e-9,4.047840175069809e-8,7.0535952238009226e-9,0
40518,5.985365890934761e-9,6.2665959648065745e-9,8.874193277328992e-9,4.2361448693788086e-8,8.253938240836839e-9,2.8713797841508915e-9,4.0454747330363115e-8,7.117035706912411e-9,0
40519,5.999808445276024e-9,6.273820992719143e-9,8.88091992242053e-9,4.267829257902956e-8,8.321345523750407e-9,2.887324797318504e-9,4.0431092910028134e-8,7.180476190023898e-9,0
40520,5.991004235557947e-9,6.288956789286545e-9,8.91379849621166e-9,4.296032808597359e-8,8.336960173001686e-9,2.887324797318504e-9,4.0413166879994565e-8,7.228285647236991e-9,0
40521,5.98220002583987e-9,6.304092585853947e-9,8.946677070002788e-9,4.3242363592917615e-8,8.352574822252964e-9,2.887324797318504e-9,4.0395240849961e-8,7.276095104450084e-9,0
40522,5.962596593934889e-9,6.314043435606033e-9,8.994479105365596e-9,4.3676078494563564e-8,8.42128621663667e-9,2.902488210813793e-9,4.0119377304341646e-8,7.230004717382674e-9,0
40523,5.942993162029907e-9,6.3239942853581206e-9,9.042281140728404e-9,4.4109793396209514e-8,8.489997611020376e-9,2.917651624309082e-9,3.984351375872229e-8,7.1839143303152645e-9,0
40524,5.923389730124926e-9,6.333945135110207e-9,9.09008317609121e-9,4.454350829785547e-8,8.558709005404082e-9,2.932815037804371e-9,3.9567650213102936e-8,7.137823943247855e-9,0
40525,5.9037862982199445e-9,6.343895984862294e-9,9.137885211454018e-9,4.497722319950142e-8,8.627420399787789e-9,2.94797845129966e-9,3.929178666748358e-8,7.091733556180444e-9,0
40526,5.8841828663149625e-9,6.35384683461438e-9,9.185687246816824e-9,4.541093810114737e-8,8.696131794171495e-9,2.9631418647949486e-9,3.901592312186423e-8,7.045643169113034e-9,0
40527,5.864579434409981e-9,6.363797684366467e-9,9.233489282179632e-9,4.584465300279332e-8,8.7648431885552e-9,2.978305278290238e-9,3.874005957624487e-8,6.999552782045624e-9,0
40528,5.844976002505e-9,6.373471409236645e-9,9.241443244091923e-9,4.586255803743174e-8,8.764497738055855e-9,2.992933171841315e-9,3.845604658020278e-8,6.891981503316165e-9,0
40529,5.825372570600018e-9,6.383145134106824e-9,9.249397206004214e-9,4.588046307207016e-8,8.76415228755651e-9,3.0075610653923917e-9,3.8172033584160686e-8,6.784410224586707e-9,0
40530,5.805769138695037e-9,6.392818858977002e-9,9.257351167916504e-9,4.589836810670858e-8,8.763806837057167e-9,3.022188958943469e-9,3.7888020588118594e-8,6.676838945857248e-9,0
40531,5.7861657067900555e-9,6.402492583847181e-9,9.265305129828795e-9,4.5916273141347e-8,8.763461386557822e-9,3.036816852494546e-9,3.76040075920765e-8,6.569267667127789e-9,0
40532,5.7665622748850735e-9,6.4121663087173585e-9,9.273259091741086e-9,4.593417817598542e-8,8.763115936058478e-9,3.051444746045623e-9,3.731999459603441e-8,6.46169638839833e-9,0
40533,5.746958842980092e-9,6.421840033587537e-9,9.281213053653377e-9,4.595208321062384e-8,8.762770485559134e-9,3.0660726395967e-9,3.7035981599992326e-8,6.354125109668871e-9,0
40534,5.72735541107511e-9,6.431513758457716e-9,9.289167015565668e-9,4.5969988245262265e-8,8.76242503505979e-9,3.080700533147777e-9,3.6751968603950234e-8,6.2465538309394125e-9,0
40535,5.707751979170129e-9,6.441187483327894e-9,9.297120977477957e-9,4.5987893279900684e-8,8.762079584560445e-9,3.0953284266988543e-9,3.646795560790814e-8,6.1389825522099534e-9,0
40536,5.688148547265148e-9,6.450861208198072e-9,9.305074939390248e-9,4.6005798314539104e-8,8.761734134061101e-9,3.109956320249931e-9,3.618394261186605e-8,6.031411273480494e-9,0
40537,5.668545115360166e-9,6.46053493306825e-9,9.31302890130254e-9,4.6023703349177524e-8,8.761388683561755e-9,3.124584213801008e-9,3.589992961582396e-8,5.923839994751035e-9,0
40538,5.6489416834551845e-9,6.470208657938429e-9,9.32098286321483e-9,4.6041608383815944e-8,8.761043233062411e-9,3.1392121073520853e-9,3.561591661978187e-8,5.816268716021577e-9,0
40539,5.629338251550203e-9,6.4798823828086074e-9,9.32893682512712e-9,4.6059513418454364e-8,8.760697782563067e-9,3.1538400009031625e-9,3.5331903623739777e-8,5.708697437292118e-9,0
40540,5.609734819645221e-9,6.489556107678785e-9,9.336890787039411e-9,4.6077418453092783e-8,8.760352332063723e-9,3.1684678944542392e-9,3.5047890627697685e-8,5.601126158562659e-9,0
40541,5.59013138774024e-9,6.499229832548964e-9,9.344844748951702e-9,4.60953234877312e-8,8.760006881564378e-9,3.1830957880053164e-9,3.4763877631655593e-8,5.4935548798332e-9,0
40542,5.570527955835258e-9,6.508903557419142e-9,9.352798710863993e-9,4.611322852236962e-8,8.759661431065034e-9,3.1977236815563935e-9,3.44798646356135e-8,5.385983601103741e-9,0
40543,5.5791268900750765e-9,6.523692947884159e-9,9.360726584813263e-9,4.612268188517853e-8,8.642839783502664e-9,3.2009622799877473e-9,3.4483641636724905e-8,5.387960903062875e-9,0
40544,5.590750272104747e-9,6.539514485193829e-9,9.369422154410609e-9,4.610732487845216e-8,8.634975230199902e-9,3.2105875557837434e-9,3.448766074384845e-8,5.389198930601045e-9,0
40545,5.602373654134416e-9,6.5553360225034976e-9,9.378117724007954e-9,4.609196787172579e-8,8.627110676897142e-9,3.22021283157974e-9,3.4491679850971984e-8,5.390436958139215e-9,0
40546,5.613997036164086e-9,6.5711575598131665e-9,9.3868132936053e-9,4.607661086499942e-8,8.61924612359438e-9,3.2298381073757366e-9,3.4495698958095526e-8,5.391674985677385e-9,0
40547,5.625620418193756e-9,6.586979097122836e-9,9.395508863202646e-9,4.606125385827305e-8,8.611381570291619e-9,3.2394633831717327e-9,3.449971806521906e-8,5.3929130132155556e-9,0
40548,5.637243800223426e-9,6.602800634432505e-9,9.404204432799993e-9,4.604589685154668e-8,8.603517016988857e-9,3.2490886589677293e-9,3.4503737172342605e-08,5.394151040753726e-9,0
40549,5.648867182253095e-9,6.618622171742174e-9,9.412900002397337e-9,4.603053984482031e-8,8.595652463686096e-9,3.258713934763726e-9,3.450775627946614e-8,5.395389068291896e-9,0
40550,5.6604905642827654e-9,6.634443709051844e-9,9.421595571994684e-9,4.601518283809394e-8,8.587787910383336e-9,3.268339210559722e-9,3.451177538658968e-8,5.3966270958300664e-9,0
40551,5.659351640743312e-9,6.64654191828758e-9,9.42531665440147e-9,4.6004446080492485e-8,8.579923357080574e-9,3.2686739105248547e-9,3.454186997416952e-8,5.40457172468599e-9,0
40552,5.656879161215017e-9,6.650462662004758e-9,9.425073799833623e-9,4.5971184039127695e-8,8.57332510920264e-9,3.2628896930974503e-9,3.454413617483637e-8,5.407617374918315e-9,0
40553,5.661693345995438e-9,6.650729358868481e-9,9.42705576832094e-9,4.600675411268245e-8,8.626460699598687e-9,3.258966608152821e-9,3.454413617483637e-8,5.406895811007046e-9,0
40554,5.666507530775858e-9,6.650996055732204e-9,9.429037736808257e-9,4.604232418623721e-8,8.679596289994732e-9,3.2550435232081914e-9,3.454413617483637e-8,5.406174247095777e-9,0
40555,5.6713217155562795e-9,6.6512627525959265e-9,9.431019705295574e-9,4.607789425979197e-8,8.732731880390779e-9,3.2511204382635623e-9,3.454413617483637e-8,5.405452683184508e-9,0
40556,5.673978184505094e-9,6.645381637020159e-9,9.42704272433943e-9,4.602985535830703e-8,8.782798300774652e-9,3.2494082723498508e-9,3.45431532096949e-8,5.4057109149979585e-9,0
40557,5.676634653453908e-9,6.639500521444391e-9,9.423065743383284e-9,4.59818164568221e-8,8.832864721158524e-9,3.2476961064361396e-9,3.454217024455342e-8,5.40596914681141e-9,0
40558,5.679291122402721e-9,6.633619405868623e-9,9.419088762427139e-9,4.593377755533717e-8,8.882931141542397e-9,3.2459839405224284e-9,3.454118727941195e-8,5.40622737862486e-9,0
40559,5.681947591351535e-9,6.627738290292854e-9,9.415111781470993e-9,4.588573865385224e-8,8.93299756192627e-9,3.2442717746087173e-9,3.454020431427048e-8,5.40648561043831e-9,0
40560,5.6846040603003496e-9,6.621857174717086e-9,9.411134800514848e-9,4.583769975236731e-8,8.983063982310143e-9,3.242559608695006e-9,3.4539221349129005e-8,5.4067438422517614e-9,0
40561,5.687260529249163e-9,6.615976059141318e-9,9.407157819558702e-9,4.578966085088238e-8,9.033130402694016e-9,3.240847442781295e-9,3.4538238383987535e-8,5.407002074065212e-9,0
40562,5.689916998197977e-9,6.6100949435655496e-9,9.403180838602557e-9,4.574162194939745e-8,9.083196823077888e-9,3.2391352768675838e-9,3.453725541884606e-8,5.407260305878663e-9,0
40563,5.692573467146791e-9,6.604213827989781e-9,9.399203857646411e-9,4.569358304791251e-8,9.133263243461761e-9,3.2374231109538726e-9,3.453627245370459e-8,5.407518537692113e-9,0
40564,5.6952299360956055e-9,6.598332712414014e-9,9.395226876690266e-9,4.564554414642758e-8,9.183329663845634e-9,3.2357109450401614e-9,3.453528948856312e-8,5.407776769505564e-9,0
40565,5.697886405044419e-9,6.592451596838246e-9,9.391249895734122e-9,4.559750524494265e-8,9.233396084229507e-9,3.2339987791264503e-9,3.453430652342164e-8,5.408035001319015e-9,0
40566,5.700542873993233e-9,6.586570481262477e-9,9.387272914777976e-9,4.554946634345772e-8,9.28346250461338e-9,3.232286613212739e-9,3.453332355828017e-8,5.408293233132466e-9,0
40567,5.703199342942047e-9,6.580689365686709e-9,9.38329593382183e-9,4.550142744197279e-8,9.333528924997254e-9,3.230574447299028e-9,3.4532340593138696e-8,5.408551464945916e-9,0
40568,5.705855811890861e-9,6.574808250110941e-9,9.379318952865685e-9,4.545338854048786e-8,9.383595345381127e-9,3.2288622813853168e-9,3.4531357627997226e-8,5.4088096967593665e-9,0
40569,5.708512280839675e-9,6.568927134535173e-9,9.37534197190954e-9,4.5405349639002923e-8,9.433661765765e-9,3.227150115471605e-9,3.4530374662855757e-8,5.409067928572818e-9,0
40570,5.711168749788489e-9,6.563046018959404e-9,9.371364990953394e-9,4.535731073751799e-8,9.483728186148872e-9,3.225437949557894e-9,3.452939169771428e-8,5.409326160386268e-9,0
40571,5.713825218737303e-9,6.557164903383636e-9,9.367388009997249e-9,4.530927183603306e-8,9.533794606532745e-9,3.223725783644183e-9,3.452840873257281e-8,5.409584392199719e-9,0
40572,5.721111883046019e-9,6.5413329380557815e-9,9.159698009534976e-9,4.5353220557418274e-8,9.583861026916618e-9,3.2258697626820747e-9,3.4528152085467734e-8,5.4058880200949025e-9,0
40573,5.728398547354735e-9,6.525500972727927e-9,8.952008009072703e-9,4.539716927880349e-8,9.63392744730049e-9,3.228013741719966e-9,3.452789543836266e-8,5.402191647990086e-9,0
40574,5.7356852116634516e-9,6.5096690074000715e-9,8.74431800861043e-9,4.5441118000188704e-8,9.683993867684364e-9,3.230157720757858e-9,3.452763879125759e-8,5.3984952758852694e-9,0
40575,5.7429718759721674e-9,6.493837042072217e-9,8.536628008148157e-9,4.5485066721573916e-8,9.734060288068236e-9,3.23230169979575e-9,3.452738214415251e-8,5.394798903780453e-9,0
40576,5.750258540280883e-9,6.478005076744362e-9,8.328938007685884e-9,4.5529015442959134e-8,9.784126708452109e-9,3.2344456788336413e-9,3.4527125497047436e-8,5.391102531675636e-9,0
40577,5.7575452045896e-9,6.462173111416507e-9,8.121248007223611e-9,4.5572964164344346e-8,9.834193128835982e-9,3.236589657871533e-9,3.4526868849942366e-8,5.387406159570821e-9,0
40578,5.764831868898316e-9,6.446341146088652e-9,7.913558006761338e-9,4.561691288572956e-8,9.884259549219855e-9,3.2387336369094246e-9,3.452661220283729e-8,5.383709787466004e-9,0
40579,5.7721185332070326e-9,6.446607842952375e-9,7.89564202648642e-9,4.568345991487716e-8,9.944914242419319e-9,3.2387336369094246e-9,3.4301955183700026e-8,5.382952802535346e-9,0
40580,5.771955829844253e-9,6.602669143454055e-9,7.91564432710074e-9,4.5565324265353177e-8,9.93309850944252e-9,3.2348105519647956e-9,3.428978662615375e-8,5.380940079556824e-9,0
40581,5.769787470983776e-9,6.58760262810713e-9,7.915722590989803e-9,4.550184277890787e-8,9.936513129954038e-9,3.238450790354308e-9,3.42598178158425e-8,5.380940079556824e-9,0
40582,5.7676191121233e-9,6.5725361127602045e-9,7.915800854878867e-9,4.543836129246256e-8,9.939927750465555e-9,3.242091028743821e-9,3.422984900553126e-8,5.380940079556824e-9,0
40583,5.765450753262823e-9,6.557469597413279e-9,7.91587911876793e-9,4.5374879806017255e-8,9.943342370977073e-9,3.2457312671333334e-9,3.4199880195220014e-8,5.380940079556824e-9,0
40584,5.7632823944023455e-9,6.542403082066354e-9,7.915957382656991e-9,4.531139831957195e-8,9.946756991488591e-9,3.249371505522846e-9,3.4169911384908774e-8,5.380940079556824e-9,0
40585,5.761114035541869e-9,6.5273365667194296e-9,7.916035646546055e-9,4.5247916833126634e-8,9.950171612000108e-9,3.2530117439123588e-9,3.413994257459753e-8,5.380940079556824e-9,0
40586,5.7622529590813224e-9,6.536002357337008e-9,7.923005146205443e-9,4.520649319323545e-8,9.942920269168798e-9,3.2566519823018712e-9,3.4097945525101556e-8,5.380869237518046e-9,0
40587,5.763391882620776e-9,6.544668147954587e-9,7.92997464586483e-9,4.5165069553344264e-8,9.935668926337486e-9,3.260292220691384e-9,3.405594847560558e-8,5.380798395479269e-9,0
40588,5.77754095932309e-9,6.57093928813355e-9,7.933301327006493e-9,4.504554616912069e-8,9.94429999272956e-9,3.2603591606844106e-9,3.4017728427221005e-8,5.379043904314197e-9,0
40589,5.791690036025404e-9,6.5972104283125125e-9,7.936628008148157e-9,4.4926022784897113e-8,9.952931059121635e-9,3.260426100677437e-9,3.397950837883644e-8,5.377289413149126e-9,0
40590,5.805839112727718e-9,6.623481568491476e-9,7.939954689289822e-9,4.480649940067354e-8,9.961562125513709e-9,3.2604930406704635e-9,3.3941288330451864e-8,5.375534921984054e-9,0
40591,5.819988189430033e-9,6.649752708670438e-9,7.943281370431485e-9,4.468697601644996e-8,9.970193191905783e-9,3.26055998066349e-9,3.390306828206729e-8,5.373780430818982e-9,0
40592,5.8341372661323466e-9,6.6760238488494015e-9,7.946608051573149e-9,4.456745263222639e-8,9.978824258297856e-9,3.2606269206565164e-9,3.386484823368272e-8,5.37202593965391e-9,0
40593,5.848286342834661e-9,6.702294989028364e-9,7.949934732714812e-9,4.444792924800281e-8,9.987455324689932e-9,3.260693860649543e-9,3.382662818529815e-8,5.370271448488839e-9,0
40594,5.862435419536975e-9,6.728566129207327e-9,7.953261413856475e-9,4.432840586377924e-8,9.996086391082005e-9,3.2607608006425693e-9,3.378840813691358e-8,5.368516957323768e-9,0
40595,5.87658449623929e-9,6.7548372693862906e-9,7.956588094998139e-9,4.420888247955566e-8,1.0004717457474079e-8,3.2608277406355957e-9,3.3750188088529007e-8,5.366762466158696e-9,0
40596,5.8907335729416035e-9,6.781108409565253e-9,7.959914776139804e-9,4.4089359095332086e-8,1.0013348523866153e-8,3.260894680628622e-9,3.371196804014444e-8,5.365007974993624e-9,0
40597,5.904882649643918e-9,6.807379549744216e-9,7.963241457281467e-9,4.396983571110851e-8,1.0021979590258228e-8,3.2609616206216486e-9,3.3673747991759865e-8,5.363253483828552e-9,0
40598,5.919031726346232e-9,6.833650689923179e-9,7.96656813842313e-9,4.3850312326884936e-8,1.0030610656650302e-8,3.2610285606146755e-9,3.36355279433753e-8,5.361498992663481e-9,0
40599,5.933180803048547e-9,6.859921830102142e-9,7.969894819564794e-9,4.373078894266136e-8,1.0039241723042376e-8,3.261095500607702e-9,3.3597307894990723e-8,5.35974450149841e-9,0
40600,5.9473298797508605e-9,6.886192970281105e-9,7.973221500706458e-9,4.3611265558437785e-8,1.004787278943445e-8,3.2611624406007284e-9,3.3559087846606156e-8,5.357990010333338e-9,0
40601,5.961478956453175e-9,6.912464110460068e-9,7.976548181848121e-9,4.349174217421421e-8,1.0056503855826525e-8,3.261229380593755e-9,3.352086779822158e-8,5.356235519168266e-9,0
40602,5.975628033155489e-9,6.938735250639031e-9,7.979874862989786e-9,4.3372218789990635e-8,1.0065134922218598e-8,3.2612963205867813e-9,3.3482647749837014e-8,5.3544810280031944e-9,0
40603,5.989777109857804e-9,6.9650063908179935e-9,7.98320154413145e-9,4.325269540576706e-8,1.0073765988610672e-8,3.2613632605798077e-9,3.344442770145244e-8,5.352726536838123e-9,0
40604,6.0039261865601175e-9,6.991277530996957e-9,7.986528225273113e-9,4.3133172021543484e-8,1.0082397055002746e-8,3.261430200572834e-9,3.340620765306787e-8,5.350972045673051e-9,0
40605,6.018075263262432e-9,7.01754867117592e-9,7.989854906414777e-9,4.301364863731991e-8,1.0091028121394821e-8,3.2614971405658606e-9,3.33679876046833e-8,5.349217554507979e-9,0
40606,6.032224339964746e-9,7.0438198113548825e-9,7.99318158755644e-9,4.2894125253096333e-8,1.0099659187786895e-8,3.261564080558887e-9,3.3329767556298725e-8,5.347463063342908e-9,0
40607,6.046373416667061e-9,7.070090951533846e-9,7.996508268698105e-9,4.277460186887276e-8,1.0108290254178969e-8,3.2616310205519135e-9,3.329154750791416e-8,5.3457085721778365e-9,0
40608,6.046373416667061e-9,7.1114978882802105e-9,8.006548550949796e-9,4.276052825693893e-8,1.0115924853554937e-8,3.2616310205519135e-9,3.329330041437085e-8,5.3389488393310006e-9,0
40609,6.046373416667061e-9,7.152904825026576e-9,8.016588833201489e-9,4.274645464500511e-8,1.0123559452930904e-8,3.2616310205519135e-9,3.329505332082755e-8,5.332189106484165e-9,0
40610,6.0630269019842795e-9,7.193082199285043e-9,8.028611083940499e-9,4.2584495537727877e-8,1.0120450398436804e-8,3.26084942087959e-9,3.317821422156464e-8,5.332242238013248e-9,0
40611,6.079680387301498e-9,7.23325957354351e-9,8.040633334679509e-9,4.242253643045064e-8,1.0117341343942705e-8,3.260067821207266e-9,3.3061375122301735e-8,5.332295369542331e-9,0
40612,6.096333872618717e-9,7.273436947801977e-9,8.052655585418517e-9,4.2260577323173415e-8,1.0114232289448605e-8,3.2592862215349423e-9,3.2944536023038826e-8,5.332348501071414e-9,0
40613,6.112987357935937e-9,7.313614322060443e-9,8.064677836157527e-9,4.209861821589618e-8,1.0111123234954505e-8,3.2585046218626186e-9,3.2827696923775916e-8,5.332401632600497e-9,0
40614,6.127136434638251e-9,7.265630100977858e-9,8.06093066578772e-9,4.210793592289005e-8,1.0128041995675923e-8,3.2585046218626186e-9,3.282551796966672e-8,5.334432066088714e-9,0
40615,6.127136434638251e-9,7.306967756503746e-9,8.061021973658293e-9,4.2083125553354776e-8,1.0142006043739413e-8,3.257856902176348e-9,3.2793539605793707e-8,5.300686533383618e-9,0
40616,6.127136434638251e-9,7.3483054120296335e-9,8.061113281528867e-9,4.205831518381949e-8,1.01559700918029e-8,3.2572091824900773e-9,3.27615612419207e-8,5.266941000678522e-9,0
40617,6.110645652683811e-9,7.3482361308091565e-9,8.049182338660432e-9,4.202395129631324e-8,1.0154051730643003e-8,3.25627861624869e-9,3.272580587693628e-8,5.230924513181453e-9,0
40618,6.10925888155062e-9,7.37196843677366e-9,8.040972478198782e-9,4.200635928139596e-8,1.0171124833200592e-8,3.259204194958905e-9,3.2692030983327744e-8,5.203832450265026e-9,0
40619,6.107872110417429e-9,7.395700742738164e-9,8.032762617737132e-9,4.198876726647868e-8,1.018819793575818e-8,3.2621297736691207e-9,3.2658256089719215e-8,5.1767403873486e-9,0
40620,6.106485339284238e-9,7.419433048702668e-9,8.024552757275483e-9,4.19711752515614e-8,1.0205271038315767e-8,3.265055352379336e-9,3.262448119611068e-8,5.149648324432173e-9,0
40621,6.1050985681510466e-9,7.443165354667172e-9,8.016342896813833e-9,4.1953583236644114e-8,1.0222344140873356e-8,3.2679809310895515e-9,3.259070630250215e-8,5.122556261515747e-9,0
40622,6.1037117970178554e-9,7.466897660631676e-9,8.008133036352183e-9,4.1935991221726835e-8,1.0239417243430943e-8,3.270906509799767e-9,3.2556931408893614e-8,5.09546419859932e-9,0
40623,6.102325025884664e-9,7.49062996659618e-9,7.999923175890535e-9,4.191839920680955e-8,1.025649034598853e-8,3.2738320885099823e-9,3.2523156515285085e-8,5.068372135682895e-9,0
40624,6.115087331453787e-9,7.50305372589793e-9,8.003644258297321e-9,4.191404189982474e-8,1.0278167723173533e-8,3.2766237872341445e-9,3.2315864252735215e-8,5.075025605471564e-9,0
40625,6.1278496370229105e-9,7.51547748519968e-9,8.007365340704108e-9,4.1909684592839936e-8,1.0299845100358533e-8,3.2794154859583072e-9,3.210857199018535e-8,5.081679075260234e-9,0
40626,6.140611942592033e-9,7.527901244501431e-9,8.011086423110894e-9,4.190532728585512e-8,1.0321522477543535e-8,3.2822071846824695e-9,3.190127972763549e-8,5.088332545048903e-9,0
40627,6.153374248161157e-9,7.540325003803182e-9,8.014807505517681e-9,4.1900969978870316e-8,1.0343199854728537e-8,3.284998883406632e-9,3.169398746508562e-8,5.094986014837573e-9,0
40628,6.1661365537302794e-9,7.552748763104931e-9,8.018528587924468e-9,4.18966126718855e-8,1.0364877231913537e-8,3.2877905821307945e-9,3.1486695202535757e-8,5.101639484626242e-9,0
40629,6.178898859299403e-9,7.565172522406682e-9,8.022249670331254e-9,4.1892255364900696e-8,1.038655460909854e-8,3.2905822808549568e-9,3.1279402939985894e-8,5.108292954414912e-9,0
40630,6.177565303310561e-9,7.561705463178287e-9,8.131844916301685e-9,4.22080287199087e-8,1.043293760978048e-8,3.305745694350246e-9,3.1141834326194415e-8,5.109976603541206e-9,0
40631,6.1762317473217195e-9,7.55823840394989e-9,8.241440162272116e-9,4.25238020749167e-8,1.0479320610462424e-8,3.3209091078455347e-9,3.1004265712402936e-8,5.1116602526675e-9,0
40632,6.2752114260647e-9,7.55823840394989e-9,8.242181769957171e-9,4.2786811939407813e-8,1.0519143169311744e-8,3.320127508173211e-9,3.083699002797316e-8,5.158391076929672e-9,0
40633,6.374191104807681e-9,7.55823840394989e-9,8.242923377642226e-9,4.304982180389892e-8,1.0558965728161064e-8,3.3193459085008872e-9,3.0669714343543386e-8,5.205121901191844e-9,0
40634,6.473170783550661e-9,7.55823840394989e-9,8.243664985327282e-9,4.331283166839003e-8,1.0598788287010384e-8,3.3185643088285635e-9,3.050243865911361e-8,5.251852725454016e-9,0
40635,6.572150462293642e-9,7.55823840394989e-9,8.244406593012337e-9,4.357584153288114e-8,1.0638610845859704e-8,3.3177827091562398e-9,3.0335162974683835e-8,5.298583549716188e-9,0
40636,6.671130141036622e-9,7.55823840394989e-9,8.245148200697392e-9,4.383885139737225e-8,1.0678433404709024e-8,3.317001109483916e-9,3.016788729025407e-8,5.34531437397836e-9,0
40637,6.770109819779603e-9,7.55823840394989e-9,8.245889808382448e-9,4.410186126186336e-8,1.0718255963558344e-8,3.3162195098115923e-9,3.000061160582429e-8,5.392045198240531e-9,0
40638,6.847522983235384e-9,7.570579097457297e-9,8.244649447580184e-9,4.4150135974325384e-8,1.0754856049777628e-8,3.3154379101392685e-9,3.00339168285015e-8,5.437092373376409e-9,0
40639,6.9249361466911645e-9,7.582919790964703e-9,8.243409086777923e-9,4.419841068678742e-8,1.0791456135996914e-8,3.3146563104669452e-9,3.006722205117871e-8,5.482139548512287e-9,0
40640,7.02642023404905e-9,7.586386850193098e-9,8.24037743613015e-9,4.448079052936058e-8,1.0828592781378717e-8,3.308872093039541e-9,3.0107238629298796e-8,5.531141327566432e-9,0
40641,7.127904321406935e-9,7.589853909421495e-9,8.237345785482375e-9,4.476317037193373e-8,1.086572942676052e-8,3.3030878756121366e-9,3.014725520741889e-8,5.580143106620577e-9,0
40642,7.229388408764821e-9,7.59332096864989e-9,8.234314134834603e-9,4.504555021450689e-8,1.0902866072142323e-8,3.2973036581847322e-9,3.018727178553898e-8,5.629144885674722e-9,0
40643,7.330872496122706e-9,7.596788027878287e-9,8.23128248418683e-9,4.532793005708005e-8,1.0940002717524127e-8,3.291519440757328e-9,3.022728836365907e-8,5.6781466647288665e-9,0
40644,7.432356583480591e-9,7.600255087106682e-9,8.228250833539055e-9,4.5610309899653213e-8,1.097713936290593e-8,3.2857352233299236e-9,3.026730494177916e-8,5.727148443783011e-9,0
40645,7.533840670838477e-9,7.603722146335078e-9,8.225219182891282e-9,4.589268974222637e-8,1.1014276008287733e-8,3.2799510059025193e-9,3.030732151989925e-8,5.776150222837157e-9,0
40646,7.545453409839277e-9,7.610670049365737e-9,8.246075505943401e-9,4.593141093671743e-8,1.10132396567897e-8,3.274166788475115e-9,3.030509894251123e-8,5.776150222837157e-9,0
40647,7.557066148840078e-9,7.617617952396397e-9,8.266931828995521e-9,4.597013213120849e-8,1.1012203305291668e-8,3.26838257104771e-9,3.030287636512321e-8,5.776150222837157e-9,0
40648,7.568678887840877e-9,7.624565855427056e-9,8.287788152047642e-9,4.600885332569955e-8,1.1011166953793634e-8,3.262598353620306e-9,3.0300653787735195e-08,5.776150222837157e-9,0
40649,7.580291626841676e-9,7.631513758457715e-9,8.30864447509976e-9,4.604757452019061e-8,1.1010130602295601e-8,3.2568141361929015e-9,3.029843121034717e-8,5.776150222837157e-9,0
40650,7.591904365842477e-9,7.638461661488375e-9,8.32950079815188e-9,4.608629571468167e-8,1.1009094250797568e-8,3.251029918765497e-9,3.0296208632959156e-8,5.776150222837157e-9,0
40651,7.603517104843276e-9,7.645409564519034e-9,8.350357121204e-9,4.612501690917273e-8,1.1008057899299534e-8,3.245245701338093e-9,3.0293986055571134e-8,5.776150222837157e-9,0
40652,7.603679808206055e-9,7.636767986493508e-9,8.348604963303021e-9,4.618100454462498e-8,1.1015309242130845e-8,3.2401092035969594e-9,3.0293986055571134e-8,5.776390744140913e-9,0
40653,7.603842511568835e-9,7.628126408467981e-9,8.34685280540204e-9,4.6236992180077236e-8,1.1022560584962157e-8,3.234972705855826e-9,3.0293986055571134e-8,5.776631265444669e-9,0
40654,7.604005214931614e-9,7.619484830442456e-9,8.34510064750106e-9,4.629297981552948e-8,1.1029811927793467e-8,3.2298362081146924e-9,3.0293986055571134e-8,5.776871786748426e-9,0
40655,7.604167918294393e-9,7.61084325241693e-9,8.34334848960008e-9,4.6348967450981735e-8,1.1037063270624778e-8,3.224699710373559e-9,3.0293986055571134e-8,5.777112308052182e-9,0
40656,7.604330621657173e-9,7.602201674391404e-9,8.341596331699101e-9,4.640495508643399e-8,1.1044314613456088e-8,3.219563212632425e-9,3.0293986055571134e-8,5.777352829355938e-9,0
40657,7.60449332501995e-9,7.593560096365878e-9,8.339844173798122e-9,4.646094272188624e-8,1.10515659562874e-8,3.2144267148912915e-9,3.0293986055571134e-8,5.777593350659695e-9,0
40658,7.60465602838273e-9,7.584918518340353e-9,8.338092015897142e-9,4.6516930357338494e-8,1.105881729911871e-8,3.209290217150158e-9,3.0293986055571134e-8,5.777833871963451e-9,0
40659,7.604818731745509e-9,7.576276940314828e-9,8.336339857996162e-9,4.657291799279074e-8,1.1066068641950021e-8,3.2041537194090245e-9,3.0293986055571134e-8,5.778074393267207e-9,0
40660,7.585561992623826e-9,7.574316568456237e-9,8.318463009665775e-9,4.660703769982993e-8,1.104941764120071e-8,3.1986825217027583e-9,3.01863862520909e-8,5.753465811259086e-9,0
40661,7.566305253502142e-9,7.572356196597648e-9,8.300586161335386e-9,4.664115740686911e-8,1.1032766640451397e-8,3.193211323996492e-9,3.0078786448610664e-8,5.7288572292509655e-9,0
40662,7.492924687099497e-9,7.542223165903798e-9,8.221934715513957e-9,4.5361500933420996e-8,1.0765509542500771e-8,3.193211323996492e-9,3.005091443841884e-8,5.7228190603153984e-9,0
40663,7.41954412069685e-9,7.512090135209947e-9,8.143283269692529e-9,4.4081844459972885e-8,1.0498252444550146e-8,3.193211323996492e-9,3.002304242822702e-8,5.716780891379831e-9,0
40664,7.346163554294205e-9,7.481957104516097e-9,8.0646318238711e-9,4.2802187986524773e-08,1.023099534659952e-8,3.193211323996492e-9,2.999517041803519e-8,5.710742722444264e-9,0
40665,7.272782987891559e-9,7.451824073822248e-9,7.985980378049672e-9,4.152253151307666e-8,9.963738248648894e-9,3.193211323996492e-9,2.996729840784337e-8,5.704704553508697e-9,0
40666,7.199402421488914e-9,7.421691043128397e-9,7.907328932228244e-9,4.024287503962855e-8,9.69648115069827e-9,3.193211323996492e-9,2.993942639765154e-8,5.69866638457313e-9,0
40667,7.126683311566255e-9,7.40742461837264e-9,7.890358282261696e-9,3.9028632433278595e-8,9.419210145139884e-9,3.1922807577551048e-9,2.991031477521317e-8,5.692645926147258e-9,0
40668,7.055644450415735e-9,7.602018043322026e-9,7.851672305724377e-9,3.77651718705582e-8,9.174013680918916e-9,3.1974172554962382e-9,2.988423929475686e-8,5.7286269926249385e-9,0
40669,6.984605589265215e-9,7.796611468271412e-9,7.81298632918706e-9,3.6501711307837815e-8,8.928817216697949e-9,3.202553753237372e-9,2.985816381430056e-8,5.764608059102619e-9,0
40670,6.913566728114695e-9,7.991204893220798e-9,7.774300352649742e-9,3.523825074511743e-8,8.68362075247698e-9,3.2076902509785056e-9,2.983208833384425e-8,5.800589125580299e-9,0
40671,6.842527866964175e-9,8.185798318170183e-9,7.735614376112425e-9,3.3974790182397035e-8,8.438424288256013e-9,3.212826748719639e-9,2.980601285338795e-8,5.836570192057979e-9,0
40672,6.7714890058136556e-9,8.380391743119569e-9,7.696928399575108e-9,3.271132961967665e-8,8.193227824035044e-9,3.2179632464607726e-9,2.9779937372931645e-8,5.872551258535659e-9,0
40673,6.7714890058136556e-9,8.60535025501629e-9,7.735141710958239e-9,3.2702483534636975e-8,8.187319437937492e-9,3.2216855114263228e-9,2.925661012718785e-8,5.914552783439212e-9,0
40674,6.758726700244533e-9,8.821435132634e-9,7.761463211417466e-9,3.2540561950705825e-8,8.217667765996494e-9,3.2157674140128655e-9,2.921839007880328e-8,5.9366927362029576e-9,0
40675,6.745964394675409e-9,9.03752001025171e-9,7.787784711876693e-9,3.237864036677467e-8,8.248016094055495e-9,3.2098493165994083e-9,2.918017003041871e-8,5.958832688966703e-9,0
40676,6.733202089106287e-9,9.25360488786942e-9,7.81410621233592e-9,3.221671878284352e-8,8.278364422114497e-9,3.2039312191859506e-9,2.9141949982034138e-8,5.980972641730448e-9,0
40677,6.720439783537163e-9,9.469689765487132e-9,7.840427712795147e-9,3.205479719891237e-8,8.3087127501735e-9,3.1980131217724934e-9,2.9103729933649567e-8,6.0031125944941936e-9,0
40678,6.70767747796804e-9,9.68577464310484e-9,7.866749213254375e-9,3.1892875614981213e-8,8.339061078232501e-9,3.192095024359036e-9,2.9065509885264996e-8,6.025252547257939e-9,0
40679,6.694915172398917e-9,9.901859520722552e-9,7.893070713713602e-9,3.1730954031050064e-8,8.369409406291503e-9,3.186176926945579e-9,2.9027289836880426e-08,6.047392500021684e-9,0
40680,6.682152866829793e-9,1.0117944398340263e-8,7.919392214172829e-9,3.156903244711891e-8,8.399757734350504e-9,3.1802588295321217e-9,2.8989069788495855e-8,6.0695324527854296e-9,0
40681,6.669390561260671e-9,1.0334029275957972e-8,7.945713714632054e-9,3.140711086318776e-8,8.430106062409506e-9,3.174340732118664e-9,2.8950849740111284e-8,6.091672405549175e-9,0
40682,6.624230589130834e-9,1.055872109099097e-8,7.963070702963066e-9,3.1475540195407175e-8,8.460837647013164e-9,3.1712294200123803e-9,2.8331790978049632e-8,6.103855006478475e-9,0
40683,6.62475062830578e-9,1.077480596860868e-8,7.905679943620584e-9,3.128193422295188e-8,8.406169030438493e-9,3.1279500985574315e-9,2.832687615234227e-8,6.12599495924222e-9,0
40684,6.625270667480727e-9,1.099089084622639e-8,7.8482891842781e-9,3.108832825049657e-8,8.35150041386382e-9,3.084670777102483e-9,2.8321961326634908e-8,6.148134912005966e-9,0
40685,6.625790706655673e-9,1.1206975723844101e-8,7.790898424935618e-9,3.0894722278041275e-8,8.296831797289148e-9,3.0413914556475343e-9,2.8317046500927545e-8,6.170274864769711e-9,0
40686,6.62631074583062e-9,1.142306060146181e-8,7.733507665593135e-9,3.070111630558598e-8,8.242163180714477e-9,2.9981121341925855e-9,2.8312131675220183e-8,6.192414817533456e-9,0
40687,6.6268307850055666e-9,1.1639145479079521e-8,7.676116906250653e-9,3.0507510333130673e-8,8.187494564139804e-9,2.954832812737637e-9,2.830721684951282e-8,6.214554770297202e-9,0
40688,6.627350824180513e-9,1.1855230356697232e-8,7.618726146908169e-9,3.0313904360675376e-8,8.132825947565133e-9,2.9115534912826883e-9,2.830230202380546e-8,6.236694723060947e-9,0
40689,6.625702504494983e-9,1.1852504534857711e-8,7.528122651336135e-9,3.007769569344339e-8,8.084065717088014e-9,2.870983841975865e-9,2.829362473807963e-8,6.225499343688331e-9,0
40690,6.635330874055825e-9,1.1907194174699287e-8,7.437440891875037e-9,2.982140961519806e-8,8.050841406116628e-9,2.8642172048970575e-9,2.82856737703902e-8,6.207597362997963e-9,0
40691,6.644959243616667e-9,1.1961883814540863e-8,7.3467591324139405e-9,2.956512353695272e-8,8.017617095145242e-9,2.85745056781825e-9,2.8277722802700772e-8,6.189695382307594e-9,0
40692,6.654587613177509e-9,1.2016573454382437e-8,7.256077372952843e-9,2.9308837458707386e-8,7.984392784173854e-9,2.8506839307394422e-9,2.8269771835011344e-8,6.171793401617227e-9,0
40693,6.664215982738351e-9,1.2071263094224013e-8,7.165395613491746e-9,2.905255138046205e-8,7.951168473202469e-9,2.843917293660635e-9,2.8261820867321915e-8,6.153891420926858e-9,0
40694,6.673844352299192e-9,1.212595273406559e-8,7.074713854030649e-9,2.8796265302216717e-8,7.917944162231083e-9,2.8371506565818274e-9,2.8253869899632486e-8,6.13598944023649e-9,0
40695,6.683472721860035e-9,1.2180642373907165e-8,6.984032094569551e-9,2.8539979223971386e-8,7.884719851259697e-9,2.83038401950302e-9,2.8245918931943058e-8,6.118087459546122e-9,0
40696,6.693101091420876e-9,1.223533201374874e-8,6.8933503351084545e-9,2.828369314572605e-8,7.851495540288311e-9,2.8236173824242126e-9,2.823796796425363e-8,6.1001854788557535e-9,0
40697,6.6980460504774665e-9,1.2298895287869325e-8,6.89002365396679e-9,2.808194231372429e-8,7.905014387229013e-9,2.8659812242207843e-9,2.823870882338297e-8,6.101388085374535e-9,0
40698,6.707674420038309e-9,1.2360266133877837e-8,6.8987192235641366e-9,2.808194231372429e-8,7.930258648325088e-9,2.896575811183468e-9,2.8214681427199385e-8,6.103365387333669e-9,0
40699,6.7173027895991505e-9,1.242163697988635e-8,6.907414793161482e-9,2.808194231372429e-8,7.955502909421163e-9,2.927170398146152e-9,2.8190654031015802e-8,6.105342689292802e-9,0
40700,6.726931159159992e-9,1.248300782589486e-8,6.9161103627588285e-9,2.808194231372429e-8,7.980747170517236e-9,2.9577649851088356e-9,2.816662663483222e-8,6.1073199912519355e-9,0
40701,6.736559528720835e-9,1.2544378671903373e-8,6.924805932356174e-9,2.808194231372429e-8,8.00599143161331e-9,2.9883595720715197e-9,2.814259923864863e-8,6.109297293211069e-9,0
40702,6.746187898281676e-9,1.2605749517911883e-8,6.93350150195352e-9,2.808194231372429e-8,8.031235692709386e-9,3.0189541590342035e-9,2.8118571842465048e-8,6.111274595170202e-9,0
40703,6.755816267842518e-9,1.2667120363920396e-8,6.942197071550866e-9,2.808194231372429e-8,8.056479953805459e-9,3.0495487459968872e-9,2.8094544446281465e-8,6.113251897129337e-9,0
40704,6.7654446374033594e-9,1.2728491209928908e-8,6.950892641148212e-9,2.808194231372429e-8,8.081724214901534e-9,3.080143332959571e-9,2.807051705009788e-8,6.11522919908847e-9,0
40705,6.775073006964202e-9,1.2789862055937419e-8,6.959588210745558e-9,2.808194231372429e-8,8.106968475997608e-9,3.1107379199222547e-9,2.8046489653914295e-8,6.1172065010476035e-9,0
40706,6.7847013765250435e-9,1.2851232901945931e-8,6.968283780342904e-9,2.808194231372429e-8,8.132212737093682e-9,3.1413325068849385e-9,2.802246225773071e-8,6.119183803006737e-9,0
40707,6.794329746085885e-9,1.2912603747954443e-8,6.97697934994025e-9,2.808194231372429e-8,8.157456998189757e-9,3.1719270938476226e-9,2.7998434861547128e-8,6.12116110496587e-9,0
40708,6.8039581156467276e-9,1.2973974593962954e-8,6.985674919537595e-9,2.808194231372429e-8,8.182701259285831e-9,3.2025216808103064e-9,2.7974407465363544e-8,6.123138406925004e-9,0
40709,6.813586485207569e-9,1.3035345439971466e-8,6.9943704891349416e-9,2.808194231372429e-8,8.207945520381905e-9,3.23311626777299e-9,2.7950380069179958e-8,6.125115708884137e-9,0
40710,6.823214854768411e-9,1.3096716285979979e-8,7.003066058732287e-9,2.808194231372429e-8,8.23318978147798e-9,3.263710854735674e-9,2.7926352672996374e-8,6.1270930108432715e-9,0
40711,6.832843224329253e-9,1.315808713198849e-8,7.0117616283296335e-9,2.808194231372429e-8,8.258434042574054e-9,3.2943054416983576e-9,2.790232527681279e-8,6.129070312802405e-9,0
40712,6.842471593890095e-9,1.3219457977997002e-8,7.020457197926979e-9,2.808194231372429e-8,8.283678303670128e-9,3.3249000286610414e-9,2.7878297880629207e-8,6.131047614761538e-9,0
40713,6.8520999634509365e-9,1.3280828824005514e-8,7.029152767524325e-9,2.808194231372429e-8,8.308922564766202e-9,3.355494615623725e-9,2.785427048444562e-8,6.133024916720672e-9,0
40714,6.861728333011779e-9,1.3342199670014025e-8,7.037848337121671e-9,2.808194231372429e-8,8.334166825862277e-9,3.3860892025864093e-9,2.7830243088262037e-8,6.135002218679805e-9,0
40715,6.8713567025726205e-9,1.3403570516022537e-8,7.046543906719017e-9,2.808194231372429e-8,8.35941108695835e-9,3.416683789549093e-9,2.7806215692078454e-8,6.136979520638939e-9,0
40716,6.880985072133462e-9,1.346494136203105e-8,7.055239476316363e-9,2.808194231372429e-8,8.384655348054425e-9,3.447278376511777e-9,2.778218829589487e-8,6.138956822598072e-9,0
40717,6.890613441694304e-9,1.352631220803956e-8,7.063935045913709e-9,2.808194231372429e-8,8.409899609150499e-9,3.4778729634744606e-9,2.7758160899711284e-8,6.140934124557206e-9,0
40718,6.900241811255146e-9,1.3587683054048073e-8,7.072630615511055e-9,2.808194231372429e-8,8.435143870246573e-9,3.5084675504371443e-9,2.77341335035277e-8,6.14291142651634e-9,0
40719,6.896598479100788e-9,1.3593737372675033e-8,7.043065678880079e-9,2.8021561870634253e-8,8.381625023305871e-9,3.5084675504371443e-9,2.77341335035277e-8,6.143926643260448e-9,0
40720,6.876789771717548e-9,1.3578601576107632e-8,6.848356303446698e-9,2.7918795782071593e-8,8.268022730718615e-9,3.5095470832475954e-9,2.7569326858455274e-8,6.1288754971957666e-9,0
40721,6.8044173545781866e-9,1.3530444151973853e-8,6.807111341415793e-9,2.7925882665619534e-8,8.266296517440201e-9,3.4992373209383236e-9,2.7045941448339714e-8,6.120930868339843e-9,0
40722,6.7320449374388246e-09,1.3482286727840074e-8,6.765866379384888e-9,2.7932969549167478e-8,8.264570304161786e-9,3.4889275586290513e-9,2.6522556038224154e-8,6.112986239483921e-9,0
40723,6.659672520299463e-9,1.3434129303706295e-8,6.724621417353983e-9,2.7940056432715422e-8,8.26284409088337e-9,3.4786177963197794e-9,2.5999170628108595e-8,6.105041610627998e-9,0
40724,6.5873001031601015e-9,1.3385971879572516e-8,6.683376455323078e-9,2.7947143316263367e-8,8.261117877604957e-9,3.468308034010507e-9,2.5475785217993035e-8,6.0970969817720746e-9,0
40725,6.5149276860207395e-9,1.3337814455438739e-8,6.642131493292173e-9,2.795423019981131e-8,8.259391664326541e-9,3.4579982717012353e-9,2.4952399807877475e-8,6.089152352916151e-9,0
40726,6.44220857609808e-9,1.3290990515623572e-8,6.6001579675577235e-9,2.7952865411529742e-8,8.257742102357057e-9,3.4457604369161617e-9,2.442505345501014e-8,6.080468449639266e-9,0
40727,6.3694894661754204e-9,1.3244166575808408e-8,6.558184441823274e-9,2.7951500623248177e-8,8.256092540387574e-9,3.433522602131088e-9,2.389770710214281e-8,6.0717845463623795e-9,0
40728,6.296770356252761e-9,1.3197342635993243e-8,6.516210916088824e-9,2.7950135834966608e-8,8.25444297841809e-9,3.4212847673460145e-9,2.3370360749275478e-8,6.063100643085493e-9,0
40729,6.224051246330101e-9,1.3150518696178078e-8,6.4742373903543744e-9,2.7948771046685042e-8,8.252793416448607e-9,3.409046932560941e-9,2.2843014396408143e-8,6.054416739808607e-9,0
40730,6.151332136407442e-9,1.3103694756362914e-8,6.432263864619925e-9,2.7947406258403473e-8,8.251143854479123e-9,3.3968090977758674e-9,2.231566804354081e-8,6.04573283653172e-9,0
