"time" "channel1" "channel2" "channel3" "channel4" "channel5" "channel6" "channel7" "channel8"
"1" 9607 3.36105736025432e-08 1.09679965089938e-07 2.3494026821295e-09 6.47402793241109e-10 1.16935637889101e-08 9.91478956450867e-10 1.08012043817448e-08 5.42746106479526e-08
"2" 9608 3.32951077466997e-08 1.09445345896816e-07 2.34668754789566e-09 6.49324224836392e-10 1.1726703598195e-08 1.00659176019426e-09 1.08548635286458e-08 5.41915462431856e-08
"3" 9609 3.3588958245607e-08 1.09949746141929e-07 2.35200847935875e-09 6.49536810958222e-10 1.17236925708626e-08 1.0115755896405e-09 1.08633870245339e-08 5.42544682149788e-08
"4" 9610 3.38828087445144e-08 1.10454146387041e-07 2.35732941082185e-09 6.49749397080053e-10 1.17206815435303e-08 1.01655941908675e-09 1.0871910520422e-08 5.4317390186772e-08
"5" 9611 3.37815368478535e-08 1.0978296023977e-07 2.35123503641079e-09 6.49896558827144e-10 1.1720164281784e-08 1.0150742649126e-09 1.08663003009005e-08 5.45401953219367e-08
"6" 9612 3.36802649511926e-08 1.09111774092499e-07 2.34514066199973e-09 6.50043720574235e-10 1.17196470200377e-08 1.01358911073844e-09 1.08606900813791e-08 5.47630004571014e-08
"7" 9613 3.35789930545317e-08 1.08440587945228e-07 2.33904628758867e-09 6.50190882321327e-10 1.17191297582914e-08 1.01210395656428e-09 1.08550798618577e-08 5.49858055922661e-08
"8" 9614 3.34777211578708e-08 1.07769401797957e-07 2.33295191317761e-09 6.50338044068418e-10 1.17186124965451e-08 1.01061880239012e-09 1.08494696423363e-08 5.52086107274308e-08
"9" 9615 3.337644926121e-08 1.07098215650686e-07 2.32685753876655e-09 6.50485205815509e-10 1.17180952347987e-08 1.00913364821596e-09 1.08438594228149e-08 5.54314158625955e-08
"10" 9616 3.32751773645491e-08 1.06427029503415e-07 2.3207631643555e-09 6.506323675626e-10 1.17175779730524e-08 1.0076484940418e-09 1.08382492032935e-08 5.56542209977602e-08
"11" 9617 3.31739054678882e-08 1.05755843356144e-07 2.31466878994444e-09 6.50779529309691e-10 1.17170607113061e-08 1.00616333986764e-09 1.08326389837721e-08 5.58770261329249e-08
"12" 9618 3.30726335712273e-08 1.05084657208873e-07 2.30857441553338e-09 6.50926691056783e-10 1.17165434495598e-08 1.00467818569349e-09 1.08270287642506e-08 5.60998312680896e-08
"13" 9619 3.29713616745664e-08 1.04413471061602e-07 2.30248004112232e-09 6.51073852803874e-10 1.17160261878135e-08 1.00319303151933e-09 1.08214185447292e-08 5.63226364032544e-08
"14" 9620 3.28700897779056e-08 1.03742284914331e-07 2.29638566671126e-09 6.51221014550965e-10 1.17155089260672e-08 1.00170787734517e-09 1.08158083252078e-08 5.65454415384191e-08
"15" 9621 3.27688178812447e-08 1.0307109876706e-07 2.29029129230021e-09 6.51368176298056e-10 1.17149916643209e-08 1.00022272317101e-09 1.08101981056864e-08 5.67682466735838e-08
"16" 9622 3.27729178329226e-08 1.03096412039217e-07 2.29029129230021e-09 6.52153096410639e-10 1.16822960621345e-08 1.0037213984431e-09 1.08153816831613e-08 5.71833782037048e-08
"17" 9623 3.27770177846006e-08 1.03121725311374e-07 2.29029129230021e-09 6.52938016523223e-10 1.1649600459948e-08 1.00722007371519e-09 1.08205652606361e-08 5.75985097338259e-08
"18" 9624 3.27811177362786e-08 1.03147038583531e-07 2.29029129230021e-09 6.53722936635806e-10 1.16169048577616e-08 1.01071874898728e-09 1.0825748838111e-08 5.8013641263947e-08
"19" 9625 3.27852176879565e-08 1.03172351855688e-07 2.29029129230021e-09 6.54507856748389e-10 1.15842092555752e-08 1.01421742425937e-09 1.08309324155858e-08 5.8428772794068e-08
"20" 9626 3.27893176396345e-08 1.03197665127845e-07 2.29029129230021e-09 6.55292776860973e-10 1.15515136533888e-08 1.01771609953146e-09 1.08361159930607e-08 5.88439043241891e-08
"21" 9627 3.27934175913124e-08 1.03222978400002e-07 2.29029129230021e-09 6.56077696973556e-10 1.15188180512024e-08 1.02121477480355e-09 1.08412995705355e-08 5.92590358543102e-08
"22" 9628 3.27975175429904e-08 1.03248291672158e-07 2.29029129230021e-09 6.56862617086139e-10 1.1486122449016e-08 1.02471345007564e-09 1.08464831480104e-08 5.96741673844313e-08
"23" 9629 3.28016174946684e-08 1.03273604944315e-07 2.29029129230021e-09 6.57647537198722e-10 1.14534268468296e-08 1.02821212534773e-09 1.08516667254852e-08 6.00892989145523e-08
"24" 9630 3.28057174463463e-08 1.03298918216472e-07 2.29029129230021e-09 6.58432457311306e-10 1.14207312446432e-08 1.03171080061982e-09 1.08568503029601e-08 6.05044304446734e-08
"25" 9631 3.26971242074034e-08 1.0294254026083e-07 2.27787578555299e-09 6.59503544419265e-10 1.13981207767069e-08 1.03603826327005e-09 1.08660685982682e-08 6.09139283110095e-08
"26" 9632 3.25402868566995e-08 1.02564798012362e-07 2.26546027880578e-09 6.60427469780133e-10 1.13830841486743e-08 1.03969085049514e-09 1.08693191308903e-08 6.091637624052e-08
"27" 9633 3.23996474960674e-08 1.02182787964354e-07 2.256922765353e-09 6.60427469780133e-10 1.13655352464265e-08 1.04401831314536e-09 1.0919221860786e-08 6.09643239329566e-08
"28" 9634 3.22590081354353e-08 1.01800777916346e-07 2.24838525190022e-09 6.60427469780133e-10 1.13479863441788e-08 1.04834577579558e-09 1.09691245906818e-08 6.10122716253933e-08
"29" 9635 3.21183687748032e-08 1.01418767868338e-07 2.23984773844744e-09 6.60427469780133e-10 1.1330437441931e-08 1.0526732384458e-09 1.10190273205776e-08 6.106021931783e-08
"30" 9636 3.19777294141711e-08 1.01036757820329e-07 2.23131022499466e-09 6.60427469780133e-10 1.13128885396832e-08 1.05700070109602e-09 1.10689300504733e-08 6.11081670102666e-08
"31" 9637 3.1837090053539e-08 1.00654747772321e-07 2.22277271154189e-09 6.60427469780133e-10 1.12953396374355e-08 1.06132816374624e-09 1.11188327803691e-08 6.11561147027033e-08
"32" 9638 3.16964506929069e-08 1.00272737724313e-07 2.21423519808911e-09 6.60427469780133e-10 1.12777907351877e-08 1.06565562639646e-09 1.11687355102649e-08 6.120406239514e-08
"33" 9639 3.15558113322748e-08 9.9890727676305e-08 2.20569768463633e-09 6.60427469780133e-10 1.12602418329399e-08 1.06998308904669e-09 1.12186382401607e-08 6.12520100875766e-08
"34" 9640 3.14151719716426e-08 9.95087176282969e-08 2.19716017118355e-09 6.60427469780133e-10 1.12426929306922e-08 1.07431055169691e-09 1.12685409700564e-08 6.12999577800133e-08
"35" 9641 3.12745326110105e-08 9.91267075802888e-08 2.18862265773077e-09 6.60427469780133e-10 1.12251440284444e-08 1.07863801434713e-09 1.13184436999522e-08 6.134790547245e-08
"36" 9642 3.11338932503784e-08 9.87446975322807e-08 2.18008514427799e-09 6.60427469780133e-10 1.12075951261966e-08 1.08296547699735e-09 1.1368346429848e-08 6.13958531648866e-08
"37" 9643 3.09932538897463e-08 9.83626874842726e-08 2.17154763082521e-09 6.60427469780133e-10 1.11900462239489e-08 1.08729293964757e-09 1.14182491597438e-08 6.14438008573233e-08
"38" 9644 3.08526145291142e-08 9.79806774362645e-08 2.16301011737243e-09 6.60427469780133e-10 1.11724973217011e-08 1.09162040229779e-09 1.14681518896395e-08 6.14917485497599e-08
"39" 9645 3.07119751684821e-08 9.75986673882563e-08 2.15447260391965e-09 6.60427469780133e-10 1.11549484194533e-08 1.09594786494802e-09 1.15180546195353e-08 6.15396962421966e-08
"40" 9646 3.07266289128594e-08 9.75819622617471e-08 2.15059461062522e-09 6.567971927114e-10 1.11575347281849e-08 1.09561042723545e-09 1.1547150928461e-08 6.16154725657768e-08
"41" 9647 3.07102020508868e-08 9.75528703985215e-08 2.14777013938681e-09 6.52954329520835e-10 1.11708900105749e-08 1.09527298952288e-09 1.15586842177728e-08 6.19684549863898e-08
"42" 9648 3.06447234748972e-08 9.74309632040541e-08 2.14472160486196e-09 6.52030404159966e-10 1.11842452929648e-08 1.09527298952288e-09 1.15586842177728e-08 6.23944818206357e-08
"43" 9649 3.05792448989075e-08 9.73090560095867e-08 2.1416730703371e-09 6.51106478799098e-10 1.11976005753548e-08 1.09527298952288e-09 1.15586842177728e-08 6.28205086548817e-08
"44" 9650 3.05137663229179e-08 9.71871488151192e-08 2.13862453581225e-09 6.5018255343823e-10 1.12109558577448e-08 1.09527298952288e-09 1.15586842177728e-08 6.32465354891277e-08
"45" 9651 3.04482877469283e-08 9.70652416206518e-08 2.1355760012874e-09 6.49258628077361e-10 1.12243111401347e-08 1.09527298952288e-09 1.15586842177728e-08 6.36725623233737e-08
"46" 9652 3.03828091709387e-08 9.69433344261843e-08 2.13252746676254e-09 6.48334702716493e-10 1.12376664225247e-08 1.09527298952288e-09 1.15586842177728e-08 6.40985891576196e-08
"47" 9653 3.0317330594949e-08 9.68214272317169e-08 2.12947893223769e-09 6.47410777355625e-10 1.12510217049147e-08 1.09527298952288e-09 1.15586842177728e-08 6.45246159918656e-08
"48" 9654 3.02518520189594e-08 9.66995200372494e-08 2.12643039771284e-09 6.46486851994756e-10 1.12643769873046e-08 1.09527298952288e-09 1.15586842177728e-08 6.49506428261116e-08
"49" 9655 3.01863734429698e-08 9.6577612842782e-08 2.12338186318798e-09 6.45562926633888e-10 1.12777322696946e-08 1.09527298952288e-09 1.15586842177728e-08 6.53766696603575e-08
"50" 9656 3.01208948669802e-08 9.64557056483145e-08 2.12033332866313e-09 6.4463900127302e-10 1.12910875520845e-08 1.09527298952288e-09 1.15586842177728e-08 6.58026964946035e-08
"51" 9657 3.00554162909905e-08 9.63337984538471e-08 2.11728479413828e-09 6.43715075912151e-10 1.13044428344745e-08 1.09527298952288e-09 1.15586842177728e-08 6.62287233288495e-08
"52" 9658 2.99899377150009e-08 9.62118912593797e-08 2.11423625961342e-09 6.42791150551283e-10 1.13177981168645e-08 1.09527298952288e-09 1.15586842177728e-08 6.66547501630955e-08
"53" 9659 2.99244591390113e-08 9.60899840649122e-08 2.11118772508857e-09 6.41867225190414e-10 1.13311533992544e-08 1.09527298952288e-09 1.15586842177728e-08 6.70807769973414e-08
"54" 9660 2.98589805630216e-08 9.59680768704448e-08 2.10813919056371e-09 6.40943299829546e-10 1.13445086816444e-08 1.09527298952288e-09 1.15586842177728e-08 6.75068038315874e-08
"55" 9661 2.9793501987032e-08 9.58461696759773e-08 2.10509065603886e-09 6.40019374468678e-10 1.13578639640344e-08 1.09527298952288e-09 1.15586842177728e-08 6.79328306658334e-08
"56" 9662 2.97280234110424e-08 9.57242624815099e-08 2.10204212151401e-09 6.39095449107809e-10 1.13712192464243e-08 1.09527298952288e-09 1.15586842177728e-08 6.83588575000793e-08
"57" 9663 2.96625448350528e-08 9.56023552870424e-08 2.09899358698915e-09 6.38171523746941e-10 1.13845745288143e-08 1.09527298952288e-09 1.15586842177728e-08 6.87848843343253e-08
"58" 9664 2.95970662590631e-08 9.5480448092575e-08 2.0959450524643e-09 6.37247598386073e-10 1.13979298112043e-08 1.09527298952288e-09 1.15586842177728e-08 6.92109111685713e-08
"59" 9665 2.95315876830735e-08 9.53585408981076e-08 2.09289651793945e-09 6.36323673025204e-10 1.14112850935942e-08 1.09527298952288e-09 1.15586842177728e-08 6.96369380028173e-08
"60" 9666 2.94661091070839e-08 9.52366337036401e-08 2.08984798341459e-09 6.35399747664336e-10 1.14246403759842e-08 1.09527298952288e-09 1.15586842177728e-08 7.00629648370632e-08
"61" 9667 2.9466813759627e-08 9.47124661337705e-08 2.07095407542099e-09 6.31556884473771e-10 1.14379401324869e-08 1.09493555181032e-09 1.1569416047153e-08 7.04856477789844e-08
"62" 9668 2.94672095630313e-08 9.42863414941217e-08 2.05488463866579e-09 6.31556884473771e-10 1.15999803495604e-08 1.09576063746263e-09 1.1569416047153e-08 7.05098485373664e-08
"63" 9669 2.94166775851102e-08 9.43809909942163e-08 2.05876263196022e-09 6.34328660556376e-10 1.17576428403537e-08 1.09525448089378e-09 1.15676790486031e-08 7.05061640499747e-08
"64" 9670 2.96421529620104e-08 9.4398103237983e-08 2.06109104472007e-09 6.34328660556376e-10 1.17854434545136e-08 1.09941322468772e-09 1.1647703011834e-08 7.05308177253983e-08
"65" 9671 2.98676283389105e-08 9.44152154817496e-08 2.06341945747992e-09 6.34328660556376e-10 1.18132440686735e-08 1.10357196848166e-09 1.1727726975065e-08 7.05554714008219e-08
"66" 9672 3.00931037158106e-08 9.44323277255162e-08 2.06574787023977e-09 6.34328660556376e-10 1.18410446828333e-08 1.1077307122756e-09 1.1807750938296e-08 7.05801250762455e-08
"67" 9673 3.03185790927107e-08 9.44494399692828e-08 2.06807628299962e-09 6.34328660556376e-10 1.18688452969932e-08 1.11188945606954e-09 1.1887774901527e-08 7.06047787516691e-08
"68" 9674 3.05440544696108e-08 9.44665522130495e-08 2.07040469575947e-09 6.34328660556376e-10 1.1896645911153e-08 1.11604819986347e-09 1.19677988647579e-08 7.06294324270927e-08
"69" 9675 3.07695298465109e-08 9.44836644568161e-08 2.07273310851932e-09 6.34328660556376e-10 1.19244465253129e-08 1.12020694365741e-09 1.20478228279889e-08 7.06540861025163e-08
"70" 9676 3.0995005223411e-08 9.45007767005827e-08 2.07506152127917e-09 6.34328660556376e-10 1.19522471394728e-08 1.12436568745135e-09 1.21278467912199e-08 7.067873977794e-08
"71" 9677 3.12204806003111e-08 9.45178889443494e-08 2.07738993403901e-09 6.34328660556376e-10 1.19800477536326e-08 1.12852443124529e-09 1.22078707544509e-08 7.07033934533636e-08
"72" 9678 3.14459559772112e-08 9.4535001188116e-08 2.07971834679886e-09 6.34328660556376e-10 1.20078483677925e-08 1.13268317503923e-09 1.22878947176818e-08 7.07280471287872e-08
"73" 9679 3.16714313541113e-08 9.45521134318826e-08 2.08204675955871e-09 6.34328660556376e-10 1.20356489819524e-08 1.13684191883317e-09 1.23679186809128e-08 7.07527008042108e-08
"74" 9680 3.18969067310114e-08 9.45692256756493e-08 2.08437517231856e-09 6.34328660556376e-10 1.20634495961122e-08 1.14100066262711e-09 1.24479426441438e-08 7.07773544796344e-08
"75" 9681 3.20085384336075e-08 9.45783168239337e-08 2.08576209466561e-09 6.3511358066896e-10 1.20689173717724e-08 1.14100066262711e-09 1.25237805361343e-08 7.02871601517308e-08
"76" 9682 3.21201701362036e-08 9.45874079722181e-08 2.08714901701265e-09 6.35898500781543e-10 1.20743851474326e-08 1.14100066262711e-09 1.25996184281249e-08 6.97969658238272e-08
"77" 9683 3.22318018387997e-08 9.45964991205025e-08 2.0885359393597e-09 6.36683420894126e-10 1.20798529230927e-08 1.14100066262711e-09 1.26754563201154e-08 6.93067714959236e-08
"78" 9684 3.23434335413958e-08 9.46055902687869e-08 2.08992286170675e-09 6.37468341006709e-10 1.20853206987529e-08 1.14100066262711e-09 1.27512942121059e-08 6.881657716802e-08
"79" 9685 3.24550652439919e-08 9.46146814170714e-08 2.09130978405379e-09 6.38253261119293e-10 1.20907884744131e-08 1.14100066262711e-09 1.28271321040965e-08 6.83263828401164e-08
"80" 9686 3.25666969465879e-08 9.46237725653558e-08 2.09269670640084e-09 6.39038181231876e-10 1.20962562500733e-08 1.14100066262711e-09 1.2902969996087e-08 6.78361885122128e-08
"81" 9687 3.2678328649184e-08 9.46328637136402e-08 2.09408362874789e-09 6.39823101344459e-10 1.21017240257334e-08 1.14100066262711e-09 1.29788078880775e-08 6.73459941843093e-08
"82" 9688 3.27899603517801e-08 9.46419548619246e-08 2.09547055109493e-09 6.40608021457043e-10 1.21071918013936e-08 1.14100066262711e-09 1.30546457800681e-08 6.68557998564057e-08
"83" 9689 3.29015920543762e-08 9.46510460102091e-08 2.09685747344198e-09 6.41392941569626e-10 1.21126595770538e-08 1.14100066262711e-09 1.31304836720586e-08 6.63656055285021e-08
"84" 9690 3.30132237569723e-08 9.46601371584935e-08 2.09824439578903e-09 6.42177861682209e-10 1.2118127352714e-08 1.14100066262711e-09 1.32063215640492e-08 6.58754112005985e-08
"85" 9691 3.29553523999287e-08 9.4778726808214e-08 2.09758028984563e-09 6.41891694686833e-10 1.20982697711712e-08 1.13434445152131e-09 1.32498471639329e-08 6.53510410519687e-08
"86" 9692 3.27906838940124e-08 9.47669934623965e-08 2.09769232148886e-09 6.43960288029206e-10 1.20739604288318e-08 1.13018570772737e-09 1.32642043438202e-08 6.4878008324176e-08
"87" 9693 3.2626015388096e-08 9.47552601165789e-08 2.09780435313208e-09 6.4602888137158e-10 1.20496510864924e-08 1.12602696393343e-09 1.32785615237076e-08 6.44049755963834e-08
"88" 9694 3.24613468821797e-08 9.47435267707613e-08 2.0979163847753e-09 6.48097474713953e-10 1.20253417441529e-08 1.1218682201395e-09 1.3292918703595e-08 6.39319428685907e-08
"89" 9695 3.22966783762634e-08 9.47317934249437e-08 2.09802841641853e-09 6.50166068056327e-10 1.20010324018135e-08 1.11770947634556e-09 1.33072758834823e-08 6.3458910140798e-08
"90" 9696 3.21320098703471e-08 9.47200600791261e-08 2.09814044806175e-09 6.522346613987e-10 1.19767230594741e-08 1.11355073255162e-09 1.33216330633697e-08 6.29858774130053e-08
"91" 9697 3.19673413644308e-08 9.47083267333085e-08 2.09825247970497e-09 6.54303254741074e-10 1.19524137171347e-08 1.10939198875768e-09 1.33359902432571e-08 6.25128446852126e-08
"92" 9698 3.18435246691755e-08 9.40561566782018e-08 2.08312183872393e-09 6.54303254741074e-10 1.1950437213295e-08 1.11072323097884e-09 1.33475062578484e-08 6.23971114976257e-08
"93" 9699 3.17197079739203e-08 9.34039866230951e-08 2.06799119774289e-09 6.54303254741074e-10 1.19484607094553e-08 1.1120544732e-09 1.33590222724397e-08 6.22813783100387e-08
"94" 9700 3.1595891278665e-08 9.27518165679884e-08 2.05286055676184e-09 6.54303254741074e-10 1.19464842056155e-08 1.11338571542116e-09 1.3370538287031e-08 6.21656451224518e-08
"95" 9701 3.14720745834098e-08 9.20996465128816e-08 2.0377299157808e-09 6.54303254741074e-10 1.19445077017758e-08 1.11471695764231e-09 1.33820543016224e-08 6.20499119348648e-08
"96" 9702 3.13482578881546e-08 9.14474764577749e-08 2.02259927479975e-09 6.54303254741074e-10 1.19425311979361e-08 1.11604819986347e-09 1.33935703162137e-08 6.19341787472779e-08
"97" 9703 3.12244411928993e-08 9.07953064026682e-08 2.00746863381871e-09 6.54303254741074e-10 1.19405546940964e-08 1.11737944208463e-09 1.3405086330805e-08 6.18184455596909e-08
"98" 9704 3.11009173513354e-08 9.01627108559532e-08 1.99128447078164e-09 6.52872419764192e-10 1.19432335459734e-08 1.15111112829514e-09 1.35140623808204e-08 6.16220168178222e-08
"99" 9705 3.10544853250923e-08 8.99887185646158e-08 1.9874064774872e-09 6.53796345125061e-10 1.18556926296548e-08 1.17652532691777e-09 1.36282220083107e-08 6.14943809486071e-08
"100" 9706 3.10416366892055e-08 8.99455637724142e-08 1.98718510883941e-09 6.50583083801182e-10 1.18632849781875e-08 1.21108950223223e-09 1.3746612399937e-08 6.14650228151624e-08
"101" 9707 3.10287880533187e-08 8.99024089802126e-08 1.98696374019161e-09 6.47369822477304e-10 1.18708773267202e-08 1.24565367754669e-09 1.38650027915632e-08 6.14356646817178e-08
"102" 9708 3.10159394174319e-08 8.98592541880109e-08 1.98674237154381e-09 6.44156561153425e-10 1.18784696752529e-08 1.28021785286115e-09 1.39833931831895e-08 6.14063065482731e-08
"103" 9709 3.1003090781545e-08 8.98160993958093e-08 1.98652100289601e-09 6.40943299829546e-10 1.18860620237857e-08 1.31478202817562e-09 1.41017835748157e-08 6.13769484148284e-08
"104" 9710 3.09902421456582e-08 8.97729446036077e-08 1.98629963424822e-09 6.37730038505667e-10 1.18936543723184e-08 1.34934620349008e-09 1.4220173966442e-08 6.13475902813837e-08
"105" 9711 3.09782880662929e-08 8.97751668004259e-08 2.00226242863749e-09 6.58898412048997e-10 1.18936728809475e-08 1.34901246750333e-09 1.42393399059191e-08 6.13230381493802e-08
"106" 9712 3.09663339869275e-08 8.97773889972441e-08 2.01822522302676e-09 6.80066785592328e-10 1.18936913895766e-08 1.34867873151659e-09 1.42585058453963e-08 6.12984860173767e-08
"107" 9713 3.09543799075621e-08 8.97796111940623e-08 2.03418801741603e-09 7.01235159135658e-10 1.18937098982057e-08 1.34834499552984e-09 1.42776717848734e-08 6.12739338853731e-08
"108" 9714 3.09424258281968e-08 8.97818333908806e-08 2.05015081180531e-09 7.22403532678988e-10 1.18937284068348e-08 1.3480112595431e-09 1.42968377243506e-08 6.12493817533696e-08
"109" 9715 3.09304717488314e-08 8.97840555876988e-08 2.06611360619458e-09 7.43571906222318e-10 1.18937469154639e-08 1.34767752355635e-09 1.43160036638277e-08 6.1224829621366e-08
"110" 9716 3.0918517669466e-08 8.9786277784517e-08 2.08207640058385e-09 7.64740279765648e-10 1.1893765424093e-08 1.34734378756961e-09 1.43351696033049e-08 6.12002774893625e-08
"111" 9717 3.09065635901007e-08 8.97884999813352e-08 2.09803919497312e-09 7.85908653308978e-10 1.18937839327221e-08 1.34701005158286e-09 1.4354335542782e-08 6.11757253573589e-08
"112" 9718 3.08946095107353e-08 8.97907221781535e-08 2.1140019893624e-09 8.07077026852308e-10 1.18938024413512e-08 1.34667631559612e-09 1.43735014822592e-08 6.11511732253554e-08
"113" 9719 3.08826554313699e-08 8.97929443749717e-08 2.12996478375167e-09 8.28245400395638e-10 1.18938209499803e-08 1.34634257960937e-09 1.43926674217363e-08 6.11266210933518e-08
"114" 9720 3.08707013520046e-08 8.97951665717899e-08 2.14592757814094e-09 8.49413773938968e-10 1.18938394586094e-08 1.34600884362263e-09 1.44118333612135e-08 6.11020689613483e-08
"115" 9721 3.08587472726392e-08 8.97973887686081e-08 2.16189037253021e-09 8.70582147482298e-10 1.18938579672385e-08 1.34567510763588e-09 1.44309993006906e-08 6.10775168293448e-08
"116" 9722 3.08467931932739e-08 8.97996109654263e-08 2.17785316691949e-09 8.91750521025628e-10 1.18938764758676e-08 1.34534137164914e-09 1.44501652401677e-08 6.10529646973412e-08
"117" 9723 3.08348391139085e-08 8.98018331622446e-08 2.19381596130876e-09 9.12918894568958e-10 1.18938949844968e-08 1.34500763566239e-09 1.44693311796449e-08 6.10284125653377e-08
"118" 9724 3.08228850345431e-08 8.98040553590628e-08 2.20977875569803e-09 9.34087268112288e-10 1.18939134931259e-08 1.34467389967565e-09 1.4488497119122e-08 6.10038604333341e-08
"119" 9725 3.08109309551778e-08 8.9806277555881e-08 2.2257415500873e-09 9.55255641655618e-10 1.1893932001755e-08 1.3443401636889e-09 1.45076630585992e-08 6.09793083013306e-08
"120" 9726 3.08095376455391e-08 8.98687763333135e-08 2.23959730036452e-09 9.76424015198948e-10 1.18716731977717e-08 1.34001270103868e-09 1.45058986418741e-08 6.03426261218923e-08
"121" 9727 3.08332559002915e-08 9.02483336613424e-08 2.23754627207408e-09 9.72499414636032e-10 1.18672029283459e-08 1.33651402576659e-09 1.45552203641275e-08 5.97184810708548e-08
"122" 9728 3.05592964799165e-08 8.96760457244141e-08 2.21787622649386e-09 9.6666153897664e-10 1.18819434183129e-08 1.33717779601426e-09 1.46220258636581e-08 5.9663958823029e-08
"123" 9729 3.02623394527797e-08 8.88201094899075e-08 2.20402317085529e-09 9.6666153897664e-10 1.18929900214079e-08 1.34066536610889e-09 1.4673067309741e-08 5.96052991707698e-08
"124" 9730 2.9965382425643e-08 8.7964173255401e-08 2.19017011521672e-09 9.6666153897664e-10 1.19040366245028e-08 1.34415293620352e-09 1.47241087558238e-08 5.95466395185107e-08
"125" 9731 2.96684253985062e-08 8.71082370208945e-08 2.17631705957815e-09 9.6666153897664e-10 1.19150832275978e-08 1.34764050629814e-09 1.47751502019066e-08 5.94879798662515e-08
"126" 9732 2.93714683713695e-08 8.6252300786388e-08 2.16246400393957e-09 9.6666153897664e-10 1.19261298306928e-08 1.35112807639277e-09 1.48261916479894e-08 5.94293202139924e-08
"127" 9733 2.90745113442328e-08 8.53963645518815e-08 2.148610948301e-09 9.6666153897664e-10 1.19371764337877e-08 1.3546156464874e-09 1.48772330940722e-08 5.93706605617332e-08
"128" 9734 2.8777554317096e-08 8.4540428317375e-08 2.13475789266243e-09 9.6666153897664e-10 1.19482230368827e-08 1.35810321658203e-09 1.49282745401551e-08 5.93120009094741e-08
"129" 9735 2.84805972899593e-08 8.36844920828685e-08 2.12090483702386e-09 9.6666153897664e-10 1.19592696399777e-08 1.36159078667666e-09 1.49793159862379e-08 5.92533412572149e-08
"130" 9736 2.81836402628226e-08 8.2828555848362e-08 2.10705178138529e-09 9.6666153897664e-10 1.19703162430726e-08 1.36507835677128e-09 1.50303574323207e-08 5.91946816049558e-08
"131" 9737 2.78866832356858e-08 8.19726196138555e-08 2.09319872574671e-09 9.6666153897664e-10 1.19813628461676e-08 1.36856592686591e-09 1.50813988784035e-08 5.91360219526966e-08
"132" 9738 2.75897262085491e-08 8.1116683379349e-08 2.07934567010814e-09 9.6666153897664e-10 1.19924094492626e-08 1.37205349696054e-09 1.51324403244863e-08 5.90773623004375e-08
"133" 9739 2.72927691814124e-08 8.02607471448425e-08 2.06549261446957e-09 9.6666153897664e-10 1.20034560523576e-08 1.37554106705517e-09 1.51834817705692e-08 5.90187026481783e-08
"134" 9740 2.69958121542756e-08 7.9404810910336e-08 2.051639558831e-09 9.6666153897664e-10 1.20145026554525e-08 1.3790286371498e-09 1.5234523216652e-08 5.89600429959192e-08
"135" 9741 2.66988551271389e-08 7.85488746758294e-08 2.03778650319242e-09 9.6666153897664e-10 1.20255492585475e-08 1.38251620724442e-09 1.52855646627348e-08 5.890138334366e-08
"136" 9742 2.64018981000022e-08 7.76929384413229e-08 2.02393344755385e-09 9.6666153897664e-10 1.20365958616425e-08 1.38600377733905e-09 1.53366061088176e-08 5.88427236914009e-08
"137" 9743 2.61049410728654e-08 7.68370022068164e-08 2.01008039191528e-09 9.6666153897664e-10 1.20476424647374e-08 1.38949134743368e-09 1.53876475549005e-08 5.87840640391417e-08
"138" 9744 2.58079840457287e-08 7.59810659723099e-08 1.99622733627671e-09 9.6666153897664e-10 1.20586890678324e-08 1.39297891752831e-09 1.54386890009833e-08 5.87254043868826e-08
"139" 9745 2.5511027018592e-08 7.51251297378034e-08 1.98237428063814e-09 9.6666153897664e-10 1.20697356709274e-08 1.39646648762294e-09 1.54897304470661e-08 5.86667447346234e-08
"140" 9746 2.52140699914552e-08 7.42691935032969e-08 1.96852122499956e-09 9.6666153897664e-10 1.20807822740223e-08 1.39995405771757e-09 1.55407718931489e-08 5.86080850823643e-08
"141" 9747 2.49171129643185e-08 7.34132572687904e-08 1.95466816936099e-09 9.6666153897664e-10 1.20918288771173e-08 1.40344162781219e-09 1.55918133392317e-08 5.85494254301051e-08
"142" 9748 2.48952867723219e-08 7.32726341848645e-08 1.95084349724952e-09 9.67732626084599e-10 1.21423870483777e-08 1.40593909512405e-09 1.55892748807501e-08 5.85399832711134e-08
"143" 9749 2.48886680411901e-08 7.31965110966743e-08 1.9472428884245e-09 9.66669695475446e-10 1.21930377627835e-08 1.40727033734521e-09 1.55699575878658e-08 5.72547063593399e-08
"144" 9750 2.48820493100582e-08 7.31203880084841e-08 1.94364227959948e-09 9.65606764866292e-10 1.22436884771894e-08 1.40860157956637e-09 1.55506402949814e-08 5.59694294475664e-08
"145" 9751 2.48754305789264e-08 7.3044264920294e-08 1.94004167077445e-09 9.64543834257139e-10 1.22943391915952e-08 1.40993282178753e-09 1.55313230020971e-08 5.46841525357928e-08
"146" 9752 2.48688118477945e-08 7.29681418321038e-08 1.93644106194943e-09 9.63480903647985e-10 1.23449899060011e-08 1.41126406400868e-09 1.55120057092127e-08 5.33988756240193e-08
"147" 9753 2.48621931166626e-08 7.28920187439136e-08 1.93284045312441e-09 9.62417973038832e-10 1.2395640620407e-08 1.41259530622984e-09 1.54926884163283e-08 5.21135987122458e-08
"148" 9754 2.49911253066708e-08 7.27737068687953e-08 1.93306451641085e-09 9.61355042429678e-10 1.23972479315332e-08 1.41575654378937e-09 1.55142414608799e-08 5.09941010509562e-08
"149" 9755 2.51200574966789e-08 7.2655394993677e-08 1.9332885796973e-09 9.60292111820525e-10 1.23988552426595e-08 1.41891778134889e-09 1.55357945054314e-08 4.98746033896667e-08
"150" 9756 2.5248989686687e-08 7.25370831185588e-08 1.93351264298375e-09 9.59229181211371e-10 1.24004625537857e-08 1.42207901890842e-09 1.5557347549983e-08 4.87551057283771e-08
"151" 9757 2.53779218766952e-08 7.24187712434405e-08 1.93373670627019e-09 9.58166250602218e-10 1.2402069864912e-08 1.42524025646794e-09 1.55789005945345e-08 4.76356080670876e-08
"152" 9758 2.55068540667033e-08 7.23004593683222e-08 1.93396076955664e-09 9.57103319993064e-10 1.24036771760382e-08 1.42840149402747e-09 1.5600453639086e-08 4.6516110405798e-08
"153" 9759 2.56357862567115e-08 7.21821474932039e-08 1.93418483284309e-09 9.56040389383911e-10 1.24052844871644e-08 1.43156273158699e-09 1.56220066836376e-08 4.53966127445085e-08
"154" 9760 2.57647184467196e-08 7.20638356180856e-08 1.93440889612953e-09 9.54977458774758e-10 1.24068917982907e-08 1.43472396914652e-09 1.56435597281891e-08 4.42771150832189e-08
"155" 9761 2.58936506367277e-08 7.19455237429673e-08 1.93463295941598e-09 9.53914528165604e-10 1.24084991094169e-08 1.43788520670604e-09 1.56651127727407e-08 4.31576174219294e-08
"156" 9762 2.60748239404618e-08 7.20925451873916e-08 1.93496905434565e-09 9.56980627742392e-10 1.22841810026973e-08 1.43671898161534e-09 1.56738770078271e-08 4.32905122096272e-08
"157" 9763 2.62341710521993e-08 7.24963457347753e-08 1.9438372734508e-09 9.60905228305308e-10 1.22469596051978e-08 1.43671898161534e-09 1.55649009578117e-08 4.33870887846345e-08
"158" 9764 2.63935181639368e-08 7.29001462821589e-08 1.95270549255595e-09 9.64829828868224e-10 1.22097382076983e-08 1.43671898161534e-09 1.54559249077963e-08 4.34836653596417e-08
"159" 9765 2.65528652756743e-08 7.33039468295425e-08 1.9615737116611e-09 9.68754429431141e-10 1.21725168101988e-08 1.43671898161534e-09 1.53469488577809e-08 4.35802419346489e-08
"160" 9766 2.67122123874118e-08 7.37077473769262e-08 1.97044193076625e-09 9.72679029994057e-10 1.21352954126993e-08 1.43671898161534e-09 1.52379728077655e-08 4.36768185096561e-08
"161" 9767 2.68715594991493e-08 7.41115479243098e-08 1.97931014987141e-09 9.76603630556973e-10 1.20980740151998e-08 1.43671898161534e-09 1.51289967577501e-08 4.37733950846633e-08
"162" 9768 2.70309066108868e-08 7.45153484716934e-08 1.98817836897656e-09 9.8052823111989e-10 1.20608526177004e-08 1.43671898161534e-09 1.50200207077347e-08 4.38699716596705e-08
"163" 9769 2.70513325162173e-08 7.45316622314257e-08 1.99399535891821e-09 9.81239570358927e-10 1.20297643266402e-08 1.43754776899348e-09 1.49014789627013e-08 4.37749254942502e-08
"164" 9770 2.70717584215479e-08 7.45479759911579e-08 1.99981234885985e-09 9.81950909597965e-10 1.199867603558e-08 1.43837655637161e-09 1.47829372176678e-08 4.36798793288299e-08
"165" 9771 2.70921843268784e-08 7.45642897508901e-08 2.0056293388015e-09 9.82662248837003e-10 1.19675877445199e-08 1.43920534374974e-09 1.46643954726343e-08 4.35848331634096e-08
"166" 9772 2.71126102322089e-08 7.45806035106223e-08 2.01144632874315e-09 9.8337358807604e-10 1.19364994534597e-08 1.44003413112787e-09 1.45458537276008e-08 4.34897869979892e-08
"167" 9773 2.71330361375395e-08 7.45969172703546e-08 2.0172633186848e-09 9.84084927315078e-10 1.19054111623995e-08 1.440862918506e-09 1.44273119825674e-08 4.33947408325689e-08
"168" 9774 2.715346204287e-08 7.46132310300868e-08 2.02308030862645e-09 9.84796266554116e-10 1.18743228713393e-08 1.44169170588413e-09 1.43087702375339e-08 4.32996946671486e-08
"169" 9775 2.71738879482006e-08 7.4629544789819e-08 2.0288972985681e-09 9.85507605793154e-10 1.18432345802792e-08 1.44252049326226e-09 1.41902284925004e-08 4.32046485017282e-08
"170" 9776 2.71943138535311e-08 7.46458585495512e-08 2.03471428850975e-09 9.86218945032191e-10 1.1812146289219e-08 1.44334928064039e-09 1.40716867474669e-08 4.31096023363079e-08
"171" 9777 2.72147397588616e-08 7.46621723092835e-08 2.0405312784514e-09 9.86930284271229e-10 1.17810579981588e-08 1.44417806801852e-09 1.39531450024335e-08 4.30145561708876e-08
"172" 9778 2.72351656641922e-08 7.46784860690157e-08 2.04634826839304e-09 9.87641623510267e-10 1.17499697070987e-08 1.44500685539666e-09 1.38346032574e-08 4.29195100054673e-08
"173" 9779 2.72555915695227e-08 7.46947998287479e-08 2.05216525833469e-09 9.88352962749304e-10 1.17188814160385e-08 1.44583564277479e-09 1.37160615123665e-08 4.28244638400469e-08
"174" 9780 2.72760174748532e-08 7.47111135884801e-08 2.05798224827634e-09 9.89064301988342e-10 1.16877931249783e-08 1.44666443015292e-09 1.35975197673331e-08 4.27294176746266e-08
"175" 9781 2.72964433801838e-08 7.47274273482124e-08 2.06379923821799e-09 9.8977564122738e-10 1.16567048339182e-08 1.44749321753105e-09 1.34789780222996e-08 4.26343715092063e-08
"176" 9782 2.73168692855143e-08 7.47437411079446e-08 2.06961622815964e-09 9.90486980466417e-10 1.1625616542858e-08 1.44832200490918e-09 1.33604362772661e-08 4.25393253437859e-08
"177" 9783 2.73372951908449e-08 7.47600548676768e-08 2.07543321810129e-09 9.91198319705455e-10 1.15945282517978e-08 1.44915079228731e-09 1.32418945322326e-08 4.24442791783656e-08
"178" 9784 2.71055009135315e-08 7.50191540091486e-08 2.0791991797525e-09 9.82212607096923e-10 1.15914616985782e-08 1.44915079228731e-09 1.32702167994018e-08 4.24474532267998e-08
"179" 9785 2.68737066362182e-08 7.52782531506204e-08 2.08296514140371e-09 9.73226894488391e-10 1.15883951453585e-08 1.44915079228731e-09 1.3298539066571e-08 4.2450627275234e-08
"180" 9786 2.65083904825218e-08 7.34302783484858e-08 2.06888802247869e-09 9.71158301146018e-10 1.15748177594193e-08 1.44549820506222e-09 1.33167521927093e-08 4.24643883683899e-08
"181" 9787 2.61430743288254e-08 7.15823035463512e-08 2.05481090355367e-09 9.69089707803644e-10 1.15612403734801e-08 1.44184561783713e-09 1.33349653188476e-08 4.24781494615458e-08
"182" 9788 2.5777758175129e-08 6.97343287442167e-08 2.04073378462865e-09 9.67021114461271e-10 1.15476629875409e-08 1.43819303061204e-09 1.33531784449859e-08 4.24919105547018e-08
"183" 9789 2.54124420214327e-08 6.78863539420821e-08 2.02665666570363e-09 9.64952521118897e-10 1.15340856016017e-08 1.43454044338695e-09 1.33713915711242e-08 4.25056716478577e-08
"184" 9790 2.50471258677363e-08 6.60383791399475e-08 2.01257954677861e-09 9.62883927776524e-10 1.15205082156625e-08 1.43088785616186e-09 1.33896046972625e-08 4.25194327410136e-08
"185" 9791 2.46818097140399e-08 6.41904043378129e-08 1.99850242785359e-09 9.6081533443415e-10 1.15069308297232e-08 1.42723526893677e-09 1.34078178234008e-08 4.25331938341695e-08
"186" 9792 2.43164935603435e-08 6.23424295356783e-08 1.98442530892858e-09 9.58746741091777e-10 1.1493353443784e-08 1.42358268171168e-09 1.34260309495391e-08 4.25469549273255e-08
"187" 9793 2.39511774066471e-08 6.04944547335437e-08 1.97034819000356e-09 9.56678147749403e-10 1.14797760578448e-08 1.41993009448659e-09 1.34442440756774e-08 4.25607160204814e-08
"188" 9794 2.35858612529508e-08 5.86464799314091e-08 1.95627107107854e-09 9.54609554407029e-10 1.14661986719056e-08 1.4162775072615e-09 1.34624572018157e-08 4.25744771136373e-08
"189" 9795 2.32205450992544e-08 5.67985051292745e-08 1.94219395215352e-09 9.52540961064656e-10 1.14526212859664e-08 1.41262492003641e-09 1.3480670327954e-08 4.25882382067932e-08
"190" 9796 2.2855228945558e-08 5.49505303271399e-08 1.9281168332285e-09 9.50472367722282e-10 1.14390439000272e-08 1.40897233281132e-09 1.34988834540923e-08 4.26019992999492e-08
"191" 9797 2.24899127918616e-08 5.31025555250054e-08 1.91403971430348e-09 9.48403774379909e-10 1.1425466514088e-08 1.40531974558623e-09 1.35170965802306e-08 4.26157603931051e-08
"192" 9798 2.25007824107272e-08 5.31881673340914e-08 1.9194726774098e-09 9.47766016014417e-10 1.14184099359307e-08 1.40498600959948e-09 1.3531488309559e-08 4.26699887892253e-08
"193" 9799 2.25116520295928e-08 5.32737791431774e-08 1.92490564051611e-09 9.47128257648925e-10 1.14113533577733e-08 1.40465227361274e-09 1.35458800388873e-08 4.27242171853455e-08
"194" 9800 2.25225216484584e-08 5.33593909522634e-08 1.93033860362242e-09 9.46490499283433e-10 1.1404296779616e-08 1.40431853762599e-09 1.35602717682157e-08 4.27784455814658e-08
"195" 9801 2.2533391267324e-08 5.34450027613495e-08 1.93577156672874e-09 9.45852740917941e-10 1.13972402014587e-08 1.40398480163925e-09 1.3574663497544e-08 4.2832673977586e-08
"196" 9802 2.25442608861896e-08 5.35306145704355e-08 1.94120452983505e-09 9.45214982552449e-10 1.13901836233014e-08 1.4036510656525e-09 1.35890552268724e-08 4.28869023737062e-08
"197" 9803 2.25551305050552e-08 5.36162263795215e-08 1.94663749294137e-09 9.44577224186957e-10 1.13831270451441e-08 1.40331732966576e-09 1.36034469562007e-08 4.29411307698265e-08
"198" 9804 2.25660001239207e-08 5.37018381886076e-08 1.95207045604768e-09 9.43939465821464e-10 1.13760704669868e-08 1.40298359367902e-09 1.36178386855291e-08 4.29953591659467e-08
"199" 9805 2.25768697427863e-08 5.37874499976936e-08 1.95750341915399e-09 9.43301707455972e-10 1.13690138888295e-08 1.40264985769227e-09 1.36322304148574e-08 4.30495875620669e-08
"200" 9806 2.24639226663967e-08 5.37395444033153e-08 1.9568393132106e-09 9.4266394909048e-10 1.13619573106721e-08 1.40430743244853e-09 1.36322304148574e-08 4.30495875620669e-08
"201" 9807 2.24710951140159e-08 5.37785449881517e-08 1.95451090045075e-09 9.43726879699634e-10 1.13619017847848e-08 1.40846987796829e-09 1.36432304016111e-08 4.29570908695771e-08
"202" 9808 2.24782675616351e-08 5.38175455729881e-08 1.9521824876909e-09 9.44789810308787e-10 1.13618462588975e-08 1.41263232348805e-09 1.36542303883647e-08 4.28645941770872e-08
"203" 9809 2.24854400092543e-08 5.38565461578245e-08 1.94985407493105e-09 9.45852740917941e-10 1.13617907330102e-08 1.41679476900781e-09 1.36652303751183e-08 4.27720974845974e-08
"204" 9810 2.24926124568736e-08 5.38955467426608e-08 1.94752566217121e-09 9.46915671527094e-10 1.13617352071229e-08 1.42095721452757e-09 1.3676230361872e-08 4.26796007921076e-08
"205" 9811 2.24997849044928e-08 5.39345473274972e-08 1.94519724941136e-09 9.47978602136248e-10 1.13616796812356e-08 1.42511966004733e-09 1.36872303486256e-08 4.25871040996177e-08
"206" 9812 2.2506957352112e-08 5.39735479123336e-08 1.94286883665151e-09 9.49041532745401e-10 1.13616241553483e-08 1.42928210556709e-09 1.36982303353792e-08 4.24946074071279e-08
"207" 9813 2.25141297997312e-08 5.401254849717e-08 1.94054042389166e-09 9.50104463354555e-10 1.1361568629461e-08 1.43344455108685e-09 1.37092303221328e-08 4.24021107146381e-08
"208" 9814 2.25213022473504e-08 5.40515490820064e-08 1.93821201113181e-09 9.51167393963708e-10 1.13615131035736e-08 1.43760699660661e-09 1.37202303088865e-08 4.23096140221482e-08
"209" 9815 2.25284746949697e-08 5.40905496668428e-08 1.93588359837196e-09 9.52230324572861e-10 1.13614575776863e-08 1.44176944212637e-09 1.37312302956401e-08 4.22171173296584e-08
"210" 9816 2.25356471425889e-08 5.41295502516792e-08 1.93355518561211e-09 9.53293255182015e-10 1.1361402051799e-08 1.44593188764613e-09 1.37422302823937e-08 4.21246206371686e-08
"211" 9817 2.25428195902081e-08 5.41685508365156e-08 1.93122677285226e-09 9.54356185791168e-10 1.13613465259117e-08 1.45009433316589e-09 1.37532302691474e-08 4.20321239446788e-08
"212" 9818 2.25499920378273e-08 5.42075514213519e-08 1.92889836009241e-09 9.55419116400322e-10 1.13612910000244e-08 1.45425677868565e-09 1.3764230255901e-08 4.19396272521889e-08
"213" 9819 2.25571644854465e-08 5.42465520061883e-08 1.92656994733257e-09 9.56482047009475e-10 1.13612354741371e-08 1.45841922420541e-09 1.37752302426546e-08 4.18471305596991e-08
"214" 9820 2.25705828332683e-08 5.42465520061883e-08 1.92656994733257e-09 9.61976487797558e-10 1.13161080612787e-08 1.45841922420541e-09 1.37752302426546e-08 4.18051903690638e-08
"215" 9821 2.25840011810901e-08 5.42465520061883e-08 1.92656994733257e-09 9.67470928585641e-10 1.12709806484203e-08 1.45841922420541e-09 1.37752302426546e-08 4.17632501784286e-08
"216" 9822 2.25974195289119e-08 5.42465520061883e-08 1.92656994733257e-09 9.72965369373724e-10 1.1225853235562e-08 1.45841922420541e-09 1.37752302426546e-08 4.17213099877933e-08
"217" 9823 2.26108378767337e-08 5.42465520061883e-08 1.92656994733257e-09 9.78459810161807e-10 1.11807258227036e-08 1.45841922420541e-09 1.37752302426546e-08 4.16793697971581e-08
"218" 9824 2.26242562245554e-08 5.42465520061883e-08 1.92656994733257e-09 9.8395425094989e-10 1.11355984098452e-08 1.45841922420541e-09 1.37752302426546e-08 4.16374296065228e-08
"219" 9825 2.26376745723772e-08 5.42465520061883e-08 1.92656994733257e-09 9.89448691737973e-10 1.10904709969868e-08 1.45841922420541e-09 1.37752302426546e-08 4.15954894158876e-08
"220" 9826 2.2651092920199e-08 5.42465520061883e-08 1.92656994733257e-09 9.94943132526055e-10 1.10453435841284e-08 1.45841922420541e-09 1.37752302426546e-08 4.15535492252523e-08
"221" 9827 2.26447990336536e-08 5.4189580558652e-08 1.92784483803639e-09 9.94019207165187e-10 1.10228266392063e-08 1.45841922420541e-09 1.3774776182433e-08 4.18865230919753e-08
"222" 9828 2.26385051471083e-08 5.41326091111157e-08 1.92911972874021e-09 9.93095281804319e-10 1.10003096942842e-08 1.45841922420541e-09 1.37743221222113e-08 4.22194969586983e-08
"223" 9829 2.26322112605629e-08 5.40756376635795e-08 1.93039461944404e-09 9.9217135644345e-10 1.0977792749362e-08 1.45841922420541e-09 1.37738680619897e-08 4.25524708254213e-08
"224" 9830 2.26259173740175e-08 5.40186662160432e-08 1.93166951014786e-09 9.91247431082582e-10 1.09552758044399e-08 1.45841922420541e-09 1.37734140017681e-08 4.28854446921443e-08
"225" 9831 2.26196234874721e-08 5.39616947685069e-08 1.93294440085168e-09 9.90323505721714e-10 1.09327588595178e-08 1.45841922420541e-09 1.37729599415464e-08 4.32184185588673e-08
"226" 9832 2.26133296009268e-08 5.39047233209706e-08 1.93421929155551e-09 9.89399580360845e-10 1.09102419145956e-08 1.45841922420541e-09 1.37725058813248e-08 4.35513924255903e-08
"227" 9833 2.26070357143814e-08 5.38477518734343e-08 1.93549418225933e-09 9.88475654999977e-10 1.08877249696735e-08 1.45841922420541e-09 1.37720518211032e-08 4.38843662923133e-08
"228" 9834 2.2600741827836e-08 5.3790780425898e-08 1.93676907296315e-09 9.87551729639109e-10 1.08652080247514e-08 1.45841922420541e-09 1.37715977608815e-08 4.42173401590363e-08
"229" 9835 2.25944479412907e-08 5.37338089783617e-08 1.93804396366698e-09 9.8662780427824e-10 1.08426910798293e-08 1.45841922420541e-09 1.37711437006599e-08 4.45503140257592e-08
"230" 9836 2.25881540547453e-08 5.36768375308254e-08 1.9393188543708e-09 9.85703878917372e-10 1.08201741349071e-08 1.45841922420541e-09 1.37706896404383e-08 4.48832878924822e-08
"231" 9837 2.25818601681999e-08 5.36198660832891e-08 1.94059374507462e-09 9.84779953556504e-10 1.0797657189985e-08 1.45841922420541e-09 1.37702355802166e-08 4.52162617592052e-08
"232" 9838 2.25755662816546e-08 5.35628946357528e-08 1.94186863577845e-09 9.83856028195635e-10 1.07751402450629e-08 1.45841922420541e-09 1.3769781519995e-08 4.55492356259282e-08
"233" 9839 2.25692723951092e-08 5.35059231882165e-08 1.94314352648227e-09 9.82932102834767e-10 1.07526233001407e-08 1.45841922420541e-09 1.37693274597734e-08 4.58822094926512e-08
"234" 9840 2.25629785085638e-08 5.34489517406802e-08 1.94441841718609e-09 9.82008177473899e-10 1.07301063552186e-08 1.45841922420541e-09 1.37688733995517e-08 4.62151833593742e-08
"235" 9841 2.23869416306647e-08 5.33071574234463e-08 1.94458646465093e-09 9.77870990789151e-10 1.07478218351283e-08 1.45858424133587e-09 1.37499035063774e-08 4.65888734519772e-08
"236" 9842 2.22146019240119e-08 5.31676358932835e-08 1.94652815593679e-09 9.74019971099781e-10 1.07429083384726e-08 1.47139420870443e-09 1.37516679231024e-08 4.68220966952588e-08
"237" 9843 2.21966308163449e-08 5.28312615196055e-08 1.93860681652174e-09 9.72172120378044e-10 1.02702735099143e-08 1.47573277653211e-09 1.37725982793046e-08 4.69631189123277e-08
"238" 9844 2.22314635573114e-08 5.25233728696957e-08 1.93046141382024e-09 9.72172120378044e-10 9.80255217801155e-09 1.48254660131673e-09 1.38270863043123e-08 4.6865726360817e-08
"239" 9845 2.22662962982778e-08 5.22154842197859e-08 1.92231601111875e-09 9.72172120378044e-10 9.33483084610882e-09 1.48936042610134e-09 1.388157432932e-08 4.67683338093063e-08
"240" 9846 2.23011290392443e-08 5.19075955698761e-08 1.91417060841725e-09 9.72172120378044e-10 8.86710951420610e-09 1.49617425088596e-09 1.39360623543277e-08 4.66709412577956e-08
"241" 9847 2.23359617802108e-08 5.15997069199662e-08 1.90602520571575e-09 9.72172120378044e-10 8.39938818230337e-09 1.50298807567057e-09 1.39905503793354e-08 4.65735487062849e-08
"242" 9848 2.23707945211773e-08 5.12918182700564e-08 1.89787980301425e-09 9.72172120378044e-10 7.93166685040064e-09 1.50980190045519e-09 1.40450384043431e-08 4.64761561547742e-08
"243" 9849 2.24056272621437e-08 5.09839296201466e-08 1.88973440031275e-09 9.72172120378044e-10 7.46394551849792e-09 1.5166157252398e-09 1.40995264293508e-08 4.63787636032635e-08
"244" 9850 2.24404600031102e-08 5.06760409702368e-08 1.88158899761126e-09 9.72172120378044e-10 6.99622418659519e-09 1.52342955002442e-09 1.41540144543585e-08 4.62813710517528e-08
"245" 9851 2.24752927440767e-08 5.03681523203269e-08 1.87344359490976e-09 9.72172120378044e-10 6.52850285469247e-09 1.53024337480903e-09 1.42085024793662e-08 4.61839785002421e-08
"246" 9852 2.25101254850432e-08 5.00602636704171e-08 1.86529819220826e-09 9.72172120378044e-10 6.06078152278974e-09 1.53705719959365e-09 1.42629905043739e-08 4.60865859487314e-08
"247" 9853 2.25449582260096e-08 4.97523750205073e-08 1.85715278950676e-09 9.72172120378044e-10 5.59306019088702e-09 1.54387102437826e-09 1.43174785293816e-08 4.59891933972207e-08
"248" 9854 2.25797909669761e-08 4.94444863705975e-08 1.84900738680527e-09 9.72172120378044e-10 5.12533885898429e-09 1.55068484916288e-09 1.43719665543893e-08 4.589180084571e-08
"249" 9855 2.25797909669761e-08 4.89895762762633e-08 1.82240272948981e-09 9.73235050987197e-10 5.13025235563995e-09 1.56514128611024e-09 1.43037511691095e-08 4.57732566691508e-08
"250" 9856 2.25797909669761e-08 4.85346661819292e-08 1.79579807217436e-09 9.74297981596351e-10 5.1351658522956e-09 1.5795977230576e-09 1.42355357838297e-08 4.56547124925915e-08
"251" 9857 2.25797909669761e-08 4.80797560875951e-08 1.7691934148589e-09 9.75360912205504e-10 5.14007934895126e-09 1.59405416000496e-09 1.41673203985499e-08 4.55361683160323e-08
"252" 9858 2.25797909669761e-08 4.7624845993261e-08 1.74258875754345e-09 9.76423842814658e-10 5.14499284560691e-09 1.60851059695232e-09 1.40991050132701e-08 4.5417624139473e-08
"253" 9859 2.25797909669761e-08 4.71699358989268e-08 1.715984100228e-09 9.77486773423811e-10 5.14990634226256e-09 1.62296703389968e-09 1.40308896279903e-08 4.52990799629137e-08
"254" 9860 2.25797909669761e-08 4.67150258045927e-08 1.68937944291254e-09 9.78549704032965e-10 5.15481983891822e-09 1.63742347084704e-09 1.39626742427105e-08 4.51805357863545e-08
"255" 9861 2.25797909669761e-08 4.62601157102586e-08 1.66277478559709e-09 9.79612634642118e-10 5.15973333557387e-09 1.6518799077944e-09 1.38944588574307e-08 4.50619916097952e-08
"256" 9862 2.25797909669761e-08 4.58052056159244e-08 1.63617012828163e-09 9.80675565251272e-10 5.16464683222953e-09 1.66633634474176e-09 1.38262434721509e-08 4.4943447433236e-08
"257" 9863 2.26368067354208e-08 4.58302568639595e-08 1.63977073710666e-09 9.82523415973008e-10 5.16662333606925e-09 1.68162156906726e-09 1.38741583208438e-08 4.49218878199357e-08
"258" 9864 2.26938225038655e-08 4.58553081119945e-08 1.64337134593168e-09 9.84371266694745e-10 5.16859983990897e-09 1.69690679339275e-09 1.39220731695366e-08 4.49003282066354e-08
"259" 9865 2.27210960122288e-08 4.58553081119945e-08 1.64525432675728e-09 9.85009025060237e-10 5.16619861746846e-09 1.69724052937949e-09 1.39320929247763e-08 4.4957004532266e-08
"260" 9866 2.27413229951608e-08 4.58659365652375e-08 1.64713730758289e-09 9.9347967155395e-10 5.19089664101906e-09 1.6992318401225e-09 1.39255197484615e-08 4.52401030872683e-08
"261" 9867 2.27615499780927e-08 4.58765650184804e-08 1.64902028840849e-09 1.00195031804766e-09 5.21559466456965e-09 1.70122315086551e-09 1.39189465721467e-08 4.55232016422706e-08
"262" 9868 2.27817769610247e-08 4.58871934717234e-08 1.6509032692341e-09 1.01042096454137e-09 5.24029268812025e-09 1.70321446160851e-09 1.39123733958318e-08 4.58063001972729e-08
"263" 9869 2.28020039439566e-08 4.58978219249663e-08 1.6527862500597e-09 1.01889161103509e-09 5.26499071167085e-09 1.70520577235152e-09 1.3905800219517e-08 4.60893987522752e-08
"264" 9870 2.28222309268886e-08 4.59084503782092e-08 1.65466923088531e-09 1.0273622575288e-09 5.28968873522145e-09 1.70719708309453e-09 1.38992270432022e-08 4.63724973072775e-08
"265" 9871 2.28424579098206e-08 4.59190788314522e-08 1.65655221171091e-09 1.03583290402251e-09 5.31438675877204e-09 1.70918839383754e-09 1.38926538668873e-08 4.66555958622798e-08
"266" 9872 2.28626848927525e-08 4.59297072846951e-08 1.65843519253652e-09 1.04430355051623e-09 5.33908478232264e-09 1.71117970458054e-09 1.38860806905725e-08 4.69386944172821e-08
"267" 9873 2.28829118756845e-08 4.59403357379381e-08 1.66031817336212e-09 1.05277419700994e-09 5.36378280587324e-09 1.71317101532355e-09 1.38795075142577e-08 4.72217929722844e-08
"268" 9874 2.29031388586164e-08 4.5950964191181e-08 1.66220115418773e-09 1.06124484350365e-09 5.38848082942384e-09 1.71516232606656e-09 1.38729343379428e-08 4.75048915272867e-08
"269" 9875 2.29233658415484e-08 4.59615926444239e-08 1.66408413501333e-09 1.06971548999736e-09 5.41317885297443e-09 1.71715363680956e-09 1.3866361161628e-08 4.7787990082289e-08
"270" 9876 2.29435928244803e-08 4.59722210976669e-08 1.66596711583894e-09 1.07818613649108e-09 5.43787687652503e-09 1.71914494755257e-09 1.38597879853132e-08 4.80710886372912e-08
"271" 9877 2.29638198074123e-08 4.59828495509098e-08 1.66785009666454e-09 1.08665678298479e-09 5.46257490007563e-09 1.72113625829558e-09 1.38532148089983e-08 4.83541871922935e-08
"272" 9878 2.29682056357542e-08 4.59261148323689e-08 1.66978909331176e-09 1.09520101035205e-09 5.4871433632225e-09 1.72312756903859e-09 1.38124958249697e-08 4.86548778000534e-08
"273" 9879 2.29676199283716e-08 4.52304964599778e-08 1.65465845233071e-09 1.09491484335667e-09 5.4862198915045e-09 1.72362262042997e-09 1.37135984856214e-08 4.85817309357146e-08
"274" 9880 2.29670342209891e-08 4.45348780875867e-08 1.63952781134967e-09 1.09462867636129e-09 5.4852964197865e-09 1.72411767182136e-09 1.36147011462731e-08 4.85085840713758e-08
"275" 9881 2.29664485136065e-08 4.38392597151957e-08 1.62439717036862e-09 1.09434250936592e-09 5.4843729480685e-09 1.72461272321274e-09 1.35158038069248e-08 4.84354372070369e-08
"276" 9882 2.29658628062239e-08 4.31436413428046e-08 1.60926652938758e-09 1.09405634237054e-09 5.4834494763505e-09 1.72510777460413e-09 1.34169064675766e-08 4.83622903426981e-08
"277" 9883 2.29652770988414e-08 4.24480229704135e-08 1.59413588840653e-09 1.09377017537517e-09 5.48252600463251e-09 1.72560282599552e-09 1.33180091282283e-08 4.82891434783593e-08
"278" 9884 2.29646913914588e-08 4.17524045980224e-08 1.57900524742549e-09 1.09348400837979e-09 5.48160253291451e-09 1.7260978773869e-09 1.321911178888e-08 4.82159966140205e-08
"279" 9885 2.29641056840762e-08 4.10567862256314e-08 1.56387460644445e-09 1.09319784138441e-09 5.48067906119651e-09 1.72659292877829e-09 1.31202144495317e-08 4.81428497496816e-08
"280" 9886 2.29683176038874e-08 4.0450968709464e-08 1.54863193382018e-09 1.09526643472679e-09 5.49702686228972e-09 1.7428941679673e-09 1.3143353139226e-08 4.80501607489063e-08
"281" 9887 2.29725295236986e-08 3.98451511932966e-08 1.53338926119591e-09 1.09733502806916e-09 5.51337466338292e-09 1.75919540715631e-09 1.31664918289203e-08 4.79574717481309e-08
"282" 9888 2.29767414435098e-08 3.92393336771292e-08 1.51814658857164e-09 1.09940362141153e-09 5.52972246447613e-09 1.77549664634532e-09 1.31896305186146e-08 4.78647827473555e-08
"283" 9889 2.2980953363321e-08 3.86335161609618e-08 1.50290391594737e-09 1.10147221475391e-09 5.54607026556934e-09 1.79179788553433e-09 1.32127692083089e-08 4.77720937465802e-08
"284" 9890 2.29851652831322e-08 3.80276986447945e-08 1.48766124332311e-09 1.10354080809628e-09 5.56241806666254e-09 1.80809912472334e-09 1.32359078980033e-08 4.76794047458048e-08
"285" 9891 2.29893772029433e-08 3.74218811286271e-08 1.47241857069884e-09 1.10560940143865e-09 5.57876586775575e-09 1.82440036391235e-09 1.32590465876976e-08 4.75867157450294e-08
"286" 9892 2.29935891227545e-08 3.68160636124597e-08 1.45717589807457e-09 1.10767799478103e-09 5.59511366884896e-09 1.84070160310136e-09 1.32821852773919e-08 4.74940267442541e-08
"287" 9893 2.29978010425657e-08 3.62102460962923e-08 1.4419332254503e-09 1.1097465881234e-09 5.61146146994216e-09 1.85700284229037e-09 1.33053239670862e-08 4.74013377434787e-08
"288" 9894 2.30020129623769e-08 3.56044285801249e-08 1.42669055282604e-09 1.11181518146577e-09 5.62780927103537e-09 1.87330408147938e-09 1.33284626567805e-08 4.73086487427033e-08
"289" 9895 2.30062248821881e-08 3.49986110639576e-08 1.41144788020177e-09 1.11388377480815e-09 5.64415707212858e-09 1.88960532066839e-09 1.33516013464748e-08 4.7215959741928e-08
"290" 9896 2.30104368019993e-08 3.43927935477902e-08 1.3962052075775e-09 1.11595236815052e-09 5.66050487322178e-09 1.9059065598574e-09 1.33747400361691e-08 4.71232707411526e-08
"291" 9897 2.30146487218104e-08 3.37869760316228e-08 1.38096253495323e-09 1.11802096149289e-09 5.67685267431499e-09 1.92220779904641e-09 1.33978787258634e-08 4.70305817403772e-08
"292" 9898 2.30188606416216e-08 3.31811585154554e-08 1.36571986232896e-09 1.12008955483527e-09 5.6932004754082e-09 1.93850903823542e-09 1.34210174155577e-08 4.69378927396019e-08
"293" 9899 2.30230725614328e-08 3.25753409992881e-08 1.3504771897047e-09 1.12215814817764e-09 5.7095482765014e-09 1.95481027742443e-09 1.3444156105252e-08 4.68452037388265e-08
"294" 9900 2.30284718914567e-08 3.26541282413263e-08 1.3511973114697e-09 1.12344182140743e-09 5.72244182303237e-09 1.96196153992161e-09 1.3589802158931e-08 4.64963722230587e-08
"295" 9901 2.30338712214806e-08 3.27329154833646e-08 1.35191743323471e-09 1.12472549463722e-09 5.73533536956334e-09 1.96911280241879e-09 1.373544821261e-08 4.61475407072909e-08
"296" 9902 2.29181994662112e-08 3.27095719285501e-08 1.35773442317636e-09 1.13319614113093e-09 5.82043804618329e-09 1.97991295041524e-09 1.373544821261e-08 4.61021083375494e-08
"297" 9903 2.28325078613443e-08 3.26756314214536e-08 1.35851056076297e-09 1.13312256025739e-09 5.88004878793838e-09 1.97908416303711e-09 1.37228554494477e-08 4.64632837661467e-08
"298" 9904 2.27468162564774e-08 3.2641690914357e-08 1.35928669834959e-09 1.13304897938384e-09 5.93965952969346e-09 1.97825537565898e-09 1.37102626862854e-08 4.68244591947439e-08
"299" 9905 2.26611246516105e-08 3.26077504072605e-08 1.3600628359362e-09 1.1329753985103e-09 5.99927027144855e-09 1.97742658828085e-09 1.36976699231231e-08 4.71856346233412e-08
"300" 9906 2.25754330467436e-08 3.2573809900164e-08 1.36083897352282e-09 1.13290181763675e-09 6.05888101320363e-09 1.97659780090272e-09 1.36850771599608e-08 4.75468100519384e-08
"301" 9907 2.25376377365762e-08 3.2533704422753e-08 1.36095100516604e-09 1.13290181763675e-09 6.11849175495872e-09 1.97460649015971e-09 1.36415515600771e-08 4.78168835039774e-08
"302" 9908 2.24998424264087e-08 3.24935989453419e-08 1.36106303680927e-09 1.13290181763675e-09 6.17810249671381e-09 1.9726151794167e-09 1.35980259601933e-08 4.80869569560164e-08
"303" 9909 2.24620471162413e-08 3.24534934679309e-08 1.36117506845249e-09 1.13290181763675e-09 6.23771323846889e-09 1.97062386867369e-09 1.35545003603096e-08 4.83570304080553e-08
"304" 9910 2.24242518060739e-08 3.24133879905199e-08 1.36128710009571e-09 1.13290181763675e-09 6.29732398022398e-09 1.96863255793069e-09 1.35109747604259e-08 4.86271038600943e-08
"305" 9911 2.23864564959065e-08 3.23732825131088e-08 1.36139913173894e-09 1.13290181763675e-09 6.35693472197907e-09 1.96664124718768e-09 1.34674491605422e-08 4.88971773121333e-08
"306" 9912 2.2348661185739e-08 3.23331770356978e-08 1.36151116338216e-09 1.13290181763675e-09 6.41654546373415e-09 1.96464993644467e-09 1.34239235606584e-08 4.91672507641723e-08
"307" 9913 2.23108658755716e-08 3.22930715582868e-08 1.36162319502538e-09 1.13290181763675e-09 6.47615620548924e-09 1.96265862570167e-09 1.33803979607747e-08 4.94373242162112e-08
"308" 9914 2.22730705654042e-08 3.22529660808757e-08 1.36173522666861e-09 1.13290181763675e-09 6.53576694724432e-09 1.96066731495866e-09 1.3336872360891e-08 4.97073976682502e-08
"309" 9915 2.22352752552368e-08 3.22128606034647e-08 1.36184725831183e-09 1.13290181763675e-09 6.59537768899941e-09 1.95867600421565e-09 1.32933467610073e-08 4.99774711202892e-08
"310" 9916 2.22600939659365e-08 3.21226526299836e-08 1.36262339589845e-09 1.13204331665062e-09 6.60341424463063e-09 1.95201979310986e-09 1.32992698307977e-08 5.03386465488864e-08
"311" 9917 2.22849126766363e-08 3.20324446565024e-08 1.36339953348506e-09 1.13118481566449e-09 6.61145080026186e-09 1.94536358200406e-09 1.33051929005881e-08 5.06998219774837e-08
"312" 9918 2.23097313873361e-08 3.19422366830213e-08 1.36417567107168e-09 1.13032631467837e-09 6.61948735589308e-09 1.93870737089827e-09 1.33111159703785e-08 5.10609974060809e-08
"313" 9919 2.23345500980359e-08 3.18520287095402e-08 1.3649518086583e-09 1.12946781369224e-09 6.6275239115243e-09 1.93205115979247e-09 1.33170390401689e-08 5.14221728346782e-08
"314" 9920 2.23593688087357e-08 3.17618207360591e-08 1.36572794624491e-09 1.12860931270611e-09 6.63556046715553e-09 1.92539494868668e-09 1.33229621099594e-08 5.17833482632754e-08
"315" 9921 2.23841875194355e-08 3.16716127625779e-08 1.36650408383153e-09 1.12775081171998e-09 6.64359702278675e-09 1.91873873758088e-09 1.33288851797498e-08 5.21445236918726e-08
"316" 9922 2.24090062301352e-08 3.15814047890968e-08 1.36728022141814e-09 1.12689231073385e-09 6.65163357841797e-09 1.91208252647509e-09 1.33348082495402e-08 5.25056991204699e-08
"317" 9923 2.2433824940835e-08 3.14911968156157e-08 1.36805635900476e-09 1.12603380974772e-09 6.6596701340492e-09 1.9054263153693e-09 1.33407313193306e-08 5.28668745490671e-08
"318" 9924 2.24380528560938e-08 3.14365959968447e-08 1.36883249659138e-09 1.12603380974772e-09 6.60804042203802e-09 1.90126757157536e-09 1.33566741443607e-08 5.28592458728134e-08
"319" 9925 2.24925838773727e-08 3.148722587997e-08 1.36949660253477e-09 1.12909990932451e-09 6.58864457635426e-09 1.89461136046956e-09 1.34349062726916e-08 5.32326537995511e-08
"320" 9926 2.25471148986517e-08 3.15378557630953e-08 1.37016070847816e-09 1.1321660089013e-09 6.5692487306705e-09 1.88795514936377e-09 1.35131384010224e-08 5.36060617262889e-08
"321" 9927 2.26016459199306e-08 3.15884856462205e-08 1.37082481442156e-09 1.13523210847808e-09 6.54985288498674e-09 1.88129893825797e-09 1.35913705293533e-08 5.39794696530267e-08
"322" 9928 2.26561769412096e-08 3.16391155293458e-08 1.37148892036495e-09 1.13829820805487e-09 6.53045703930298e-09 1.87464272715218e-09 1.36696026576841e-08 5.43528775797644e-08
"323" 9929 2.27107079624885e-08 3.16897454124711e-08 1.37215302630834e-09 1.14136430763166e-09 6.51106119361922e-09 1.86798651604638e-09 1.3747834786015e-08 5.47262855065022e-08
"324" 9930 2.27652389837674e-08 3.17403752955963e-08 1.37281713225173e-09 1.14443040720845e-09 6.49166534793546e-09 1.86133030494059e-09 1.38260669143458e-08 5.509969343324e-08
"325" 9931 2.27652389837674e-08 3.17631790516867e-08 1.37348123819513e-09 1.14764366853233e-09 6.51946596209532e-09 1.86099656895385e-09 1.38811430782619e-08 5.50785984228216e-08
"326" 9932 2.28267365532397e-08 3.17252327691721e-08 1.37442272860793e-09 1.15070976810911e-09 6.53437302972422e-09 1.86099656895385e-09 1.39593752065927e-08 5.54733961189691e-08
"327" 9933 2.28882341227119e-08 3.16872864866575e-08 1.37536421902073e-09 1.1537758676859e-09 6.54928009735312e-09 1.86099656895385e-09 1.40376073349236e-08 5.58681938151165e-08
"328" 9934 2.29497316921841e-08 3.16493402041428e-08 1.37630570943353e-09 1.15684196726269e-09 6.56418716498201e-09 1.86099656895385e-09 1.41158394632544e-08 5.6262991511264e-08
"329" 9935 2.30112292616563e-08 3.16113939216282e-08 1.37724719984634e-09 1.15990806683948e-09 6.57909423261091e-09 1.86099656895385e-09 1.41940715915853e-08 5.66577892074115e-08
"330" 9936 2.30727268311286e-08 3.15734476391136e-08 1.37818869025914e-09 1.16297416641626e-09 6.59400130023981e-09 1.86099656895385e-09 1.42723037199161e-08 5.70525869035589e-08
"331" 9937 2.30875155161141e-08 3.14644163898337e-08 1.37841005890694e-09 1.1619030793083e-09 6.59030741336782e-09 1.86116158608431e-09 1.42718496596945e-08 5.82265735697248e-08
"332" 9938 2.31023042010996e-08 3.13553851405539e-08 1.37863142755473e-09 1.16083199220034e-09 6.58661352649582e-09 1.86132660321477e-09 1.42713955994729e-08 5.94005602358906e-08
"333" 9939 2.3117092886085e-08 3.12463538912741e-08 1.37885279620253e-09 1.15976090509238e-09 6.58291963962383e-09 1.86149162034523e-09 1.42709415392512e-08 6.05745469020565e-08
"334" 9940 2.31318815710705e-08 3.11373226419942e-08 1.37907416485033e-09 1.15868981798442e-09 6.57922575275184e-09 1.86165663747569e-09 1.42704874790296e-08 6.17485335682223e-08
"335" 9941 2.3146670256056e-08 3.10282913927144e-08 1.37929553349813e-09 1.15761873087646e-09 6.57553186587985e-09 1.86182165460616e-09 1.4270033418808e-08 6.29225202343882e-08
"336" 9942 2.31614589410415e-08 3.09192601434345e-08 1.37951690214593e-09 1.15654764376851e-09 6.57183797900785e-09 1.86198667173662e-09 1.42695793585863e-08 6.4096506900554e-08
"337" 9943 2.31621635935847e-08 3.0739519543686e-08 1.37951690214593e-09 1.15568914278238e-09 6.57183797900785e-09 1.86631413438684e-09 1.42855221836164e-08 6.40796059091992e-08
"338" 9944 2.31628682461278e-08 3.05597789439375e-08 1.37951690214593e-09 1.15483064179625e-09 6.57183797900785e-09 1.87064159703706e-09 1.43014650086466e-08 6.40627049178443e-08
"339" 9945 2.31635728986709e-08 3.03800383441889e-08 1.37951690214593e-09 1.15397214081012e-09 6.57183797900785e-09 1.87496905968728e-09 1.43174078336767e-08 6.40458039264895e-08
"340" 9946 2.3164277551214e-08 3.02002977444404e-08 1.37951690214593e-09 1.15311363982399e-09 6.57183797900785e-09 1.8792965223375e-09 1.43333506587068e-08 6.40289029351346e-08
"341" 9947 2.31649822037572e-08 3.00205571446919e-08 1.37951690214593e-09 1.15225513883786e-09 6.57183797900785e-09 1.88362398498773e-09 1.43492934837369e-08 6.40120019437798e-08
"342" 9948 2.31656868563003e-08 2.98408165449433e-08 1.37951690214593e-09 1.15139663785173e-09 6.57183797900785e-09 1.88795144763795e-09 1.43652363087671e-08 6.3995100952425e-08
"343" 9949 2.31663915088434e-08 2.96610759451948e-08 1.37951690214593e-09 1.1505381368656e-09 6.57183797900785e-09 1.89227891028817e-09 1.43811791337972e-08 6.39781999610701e-08
"344" 9950 2.31670961613866e-08 2.94813353454462e-08 1.37951690214593e-09 1.14967963587947e-09 6.57183797900785e-09 1.89660637293839e-09 1.43971219588273e-08 6.39612989697153e-08
"345" 9951 2.31597018188938e-08 2.94772474788143e-08 1.37951690214593e-09 1.14896829664044e-09 6.57553186587985e-09 1.8989425248456e-09 1.44054768265877e-08 6.3975627116459e-08
"346" 9952 2.31523074764011e-08 2.94731596121824e-08 1.37951690214593e-09 1.1482569574014e-09 6.57922575275184e-09 1.90127867675282e-09 1.44138316943481e-08 6.39899552632026e-08
"347" 9953 2.31089639415469e-08 2.94568238961353e-08 1.37951690214593e-09 1.14462668033267e-09 6.5744038193731e-09 1.90560613940304e-09 1.44176703658785e-08 6.3921910066582e-08
"348" 9954 2.30656204066927e-08 2.94404881800882e-08 1.37951690214593e-09 1.14099640326393e-09 6.56958188599437e-09 1.90993360205326e-09 1.4421509037409e-08 6.38538648699614e-08
"349" 9955 2.30222768718385e-08 2.9424152464041e-08 1.37951690214593e-09 1.1373661261952e-09 6.56475995261564e-09 1.91426106470348e-09 1.44253477089394e-08 6.37858196733408e-08
"350" 9956 2.29789333369843e-08 2.94078167479939e-08 1.37951690214593e-09 1.13373584912646e-09 6.5599380192369e-09 1.91858852735371e-09 1.44291863804699e-08 6.37177744767202e-08
"351" 9957 2.29355898021301e-08 2.93914810319467e-08 1.37951690214593e-09 1.13010557205773e-09 6.55511608585817e-09 1.92291599000393e-09 1.44330250520003e-08 6.36497292800996e-08
"352" 9958 2.28922462672759e-08 2.93751453158996e-08 1.37951690214593e-09 1.126475294989e-09 6.55029415247944e-09 1.92724345265415e-09 1.44368637235308e-08 6.35816840834789e-08
"353" 9959 2.28562970749144e-08 2.95663414868634e-08 1.37973827079372e-09 1.12291859879381e-09 6.53505392952667e-09 1.92724345265415e-09 1.44251516626366e-08 6.35026546324395e-08
"354" 9960 2.2820347882553e-08 2.97575376578273e-08 1.37995963944152e-09 1.11936190259862e-09 6.5198137065739e-09 1.92724345265415e-09 1.44134396017425e-08 6.34236251813999e-08
"355" 9961 2.27843986901915e-08 2.99487338287911e-08 1.38018100808932e-09 1.11580520640343e-09 6.50457348362113e-09 1.92724345265415e-09 1.44017275408484e-08 6.33445957303604e-08
"356" 9962 2.27484494978301e-08 3.0139929999755e-08 1.38040237673712e-09 1.11224851020824e-09 6.48933326066836e-09 1.92724345265415e-09 1.43900154799543e-08 6.32655662793209e-08
"357" 9963 2.27125003054686e-08 3.03311261707188e-08 1.38062374538491e-09 1.10869181401305e-09 6.47409303771559e-09 1.92724345265415e-09 1.43783034190602e-08 6.31865368282814e-08
"358" 9964 2.26765511131072e-08 3.05223223416826e-08 1.38084511403271e-09 1.10513511781787e-09 6.45885281476282e-09 1.92724345265415e-09 1.43665913581661e-08 6.31075073772419e-08
"359" 9965 2.27293250122384e-08 3.05537122871058e-08 1.38178660444551e-09 1.10734271640852e-09 6.46936364748238e-09 1.92740846978461e-09 1.43594300429429e-08 6.33174608824769e-08
"360" 9966 2.27820989113696e-08 3.05851022325289e-08 1.38272809485832e-09 1.10955031499918e-09 6.47987448020193e-09 1.92757348691507e-09 1.43522687277197e-08 6.35274143877118e-08
"361" 9967 2.28348728105009e-08 3.0616492177952e-08 1.38366958527112e-09 1.11175791358984e-09 6.49038531292149e-09 1.92773850404553e-09 1.43451074124965e-08 6.37373678929468e-08
"362" 9968 2.28876467096321e-08 3.06478821233752e-08 1.38461107568392e-09 1.1139655121805e-09 6.50089614564104e-09 1.927903521176e-09 1.43379460972733e-08 6.39473213981817e-08
"363" 9969 2.29404206087634e-08 3.06792720687983e-08 1.38555256609672e-09 1.11617311077116e-09 6.5114069783606e-09 1.92806853830646e-09 1.43307847820501e-08 6.41572749034167e-08
"364" 9970 2.29931945078946e-08 3.07106620142214e-08 1.38649405650953e-09 1.11838070936182e-09 6.52191781108015e-09 1.92823355543692e-09 1.4323623466827e-08 6.43672284086516e-08
"365" 9971 2.30459684070258e-08 3.07420519596446e-08 1.38743554692233e-09 1.12058830795248e-09 6.5324286437997e-09 1.92839857256738e-09 1.43164621516038e-08 6.45771819138866e-08
"366" 9972 2.30987423061571e-08 3.07734419050677e-08 1.38837703733513e-09 1.12279590654313e-09 6.54293947651926e-09 1.92856358969785e-09 1.43093008363806e-08 6.47871354191215e-08
"367" 9973 2.31515162052883e-08 3.08048318504908e-08 1.38931852774793e-09 1.12500350513379e-09 6.55345030923881e-09 1.92872860682831e-09 1.43021395211574e-08 6.49970889243565e-08
"368" 9974 2.324283601208e-08 3.08114955739226e-08 1.38809965286572e-09 1.12998287980706e-09 6.58151004420613e-09 1.92855988797202e-09 1.41782181523463e-08 6.41187613132743e-08
"369" 9975 2.32928302689613e-08 3.04828077250372e-08 1.37701774728259e-09 1.13510941622741e-09 6.61463134486194e-09 1.92855988797202e-09 1.41263823775978e-08 6.43835435111667e-08
"370" 9976 2.33428245258425e-08 3.01541198761518e-08 1.36593584169946e-09 1.14023595264777e-09 6.64775264551774e-09 1.92855988797202e-09 1.40745466028492e-08 6.46483257090592e-08
"371" 9977 2.33928187827238e-08 2.98254320272664e-08 1.35485393611634e-09 1.14536248906812e-09 6.68087394617355e-09 1.92855988797202e-09 1.40227108281007e-08 6.49131079069516e-08
"372" 9978 2.34428130396051e-08 2.9496744178381e-08 1.34377203053321e-09 1.15048902548848e-09 6.71399524682935e-09 1.92855988797202e-09 1.39708750533522e-08 6.51778901048441e-08
"373" 9979 2.34928072964863e-08 2.91680563294956e-08 1.33269012495008e-09 1.15561556190883e-09 6.74711654748515e-09 1.92855988797202e-09 1.39190392786036e-08 6.54426723027365e-08
"374" 9980 2.35428015533676e-08 2.88393684806102e-08 1.32160821936695e-09 1.16074209832919e-09 6.78023784814096e-09 1.92855988797202e-09 1.38672035038551e-08 6.5707454500629e-08
"375" 9981 2.35927958102488e-08 2.85106806317248e-08 1.31052631378382e-09 1.16586863474954e-09 6.81335914879676e-09 1.92855988797202e-09 1.38153677291066e-08 6.59722366985214e-08
"376" 9982 2.35540669756374e-08 2.81536616968529e-08 1.2987803022573e-09 1.16494470938867e-09 6.81382088465576e-09 1.92872860682831e-09 1.3767353351168e-08 6.59502466325744e-08
"377" 9983 2.3515338141026e-08 2.77966427619809e-08 1.28703429073078e-09 1.1640207840278e-09 6.81428262051476e-09 1.92889732568459e-09 1.37193389732294e-08 6.59282565666275e-08
"378" 9984 2.34730860436989e-08 2.76424049119433e-08 1.27717126002987e-09 1.16330944478877e-09 6.82185646041839e-09 1.92889732568459e-09 1.36675031984809e-08 6.59282565666275e-08
"379" 9985 2.34308339463718e-08 2.74881670619057e-08 1.26730822932895e-09 1.16259810554973e-09 6.82943030032201e-09 1.92889732568459e-09 1.36156674237323e-08 6.59282565666275e-08
"380" 9986 2.33885818490447e-08 2.7333929211868e-08 1.25744519862803e-09 1.16188676631069e-09 6.83700414022563e-09 1.92889732568459e-09 1.35638316489838e-08 6.59282565666275e-08
"381" 9987 2.33463297517177e-08 2.71796913618304e-08 1.24758216792712e-09 1.16117542707165e-09 6.84457798012926e-09 1.92889732568459e-09 1.35119958742353e-08 6.59282565666275e-08
"382" 9988 2.33040776543906e-08 2.70254535117927e-08 1.2377191372262e-09 1.16046408783262e-09 6.85215182003288e-09 1.92889732568459e-09 1.34601600994867e-08 6.59282565666275e-08
"383" 9989 2.32954089474197e-08 2.71363757260127e-08 1.23960211805181e-09 1.16039050695907e-09 6.81459824707813e-09 1.91957863013648e-09 1.34311704510727e-08 6.59363381599229e-08
"384" 9990 2.3094505372478e-08 2.72167570690968e-08 1.23566810893576e-09 1.15846907536379e-09 6.78905078632595e-09 1.90030338087333e-09 1.3366511317418e-08 6.59444197532182e-08
"385" 9991 2.28936017975363e-08 2.72971384121809e-08 1.23173409981972e-09 1.15654764376851e-09 6.76350332557377e-09 1.88102813161018e-09 1.33018521837634e-08 6.59525013465136e-08
"386" 9992 2.26926982225946e-08 2.7377519755265e-08 1.22780009070367e-09 1.15462621217322e-09 6.73795586482159e-09 1.86175288234703e-09 1.32371930501088e-08 6.5960582939809e-08
"387" 9993 2.24917946476529e-08 2.74579010983491e-08 1.22386608158763e-09 1.15270478057794e-09 6.71240840406941e-09 1.84247763308389e-09 1.31725339164542e-08 6.59686645331044e-08
"388" 9994 2.24587009919936e-08 2.73244877424135e-08 1.21993207247158e-09 1.15270478057794e-09 6.68963135847122e-09 1.82337110267702e-09 1.31312267935171e-08 6.59870617838108e-08
"389" 9995 2.24256073363343e-08 2.71910743864779e-08 1.21599806335554e-09 1.15270478057794e-09 6.66685431287304e-09 1.80426457227016e-09 1.30899196705801e-08 6.60054590345173e-08
"390" 9996 2.2392513680675e-08 2.70576610305422e-08 1.2120640542395e-09 1.15270478057794e-09 6.64407726727485e-09 1.78515804186329e-09 1.30486125476431e-08 6.60238562852237e-08
"391" 9997 2.23594200250157e-08 2.69242476746066e-08 1.20813004512345e-09 1.15270478057794e-09 6.62130022167667e-09 1.76605151145643e-09 1.3007305424706e-08 6.60422535359302e-08
"392" 9998 2.23263263693564e-08 2.6790834318671e-08 1.20419603600741e-09 1.15270478057794e-09 6.59852317607848e-09 1.74694498104956e-09 1.2965998301769e-08 6.60606507866367e-08
"393" 9999 2.22932327136971e-08 2.66574209627353e-08 1.20026202689136e-09 1.15270478057794e-09 6.5757461304803e-09 1.7278384506427e-09 1.2924691178832e-08 6.60790480373431e-08
"394" 10000 2.22601390580378e-08 2.65240076067997e-08 1.19632801777532e-09 1.15270478057794e-09 6.55296908488211e-09 1.70873192023583e-09 1.28833840558949e-08 6.60974452880496e-08
"395" 10001 2.22270454023785e-08 2.63905942508641e-08 1.19239400865927e-09 1.15270478057794e-09 6.53019203928393e-09 1.68962538982897e-09 1.28420769329579e-08 6.6115842538756e-08
"396" 10002 2.21939517467192e-08 2.62571808949284e-08 1.18845999954323e-09 1.15270478057794e-09 6.50741499368574e-09 1.6705188594221e-09 1.28007698100209e-08 6.61342397894625e-08
"397" 10003 2.2075715267046e-08 2.61246008627996e-08 1.18264300960158e-09 1.15078334898266e-09 6.47721217721676e-09 1.65107859302849e-09 1.27307137778681e-08 6.61342397894625e-08
"398" 10004 2.19574787873727e-08 2.59920208306708e-08 1.17682601965993e-09 1.14886191738738e-09 6.44700936074778e-09 1.63163832663488e-09 1.26606577457153e-08 6.61342397894625e-08
"399" 10005 2.18392423076995e-08 2.5859440798542e-08 1.17100902971828e-09 1.14694048579209e-09 6.41680654427881e-09 1.61219806024127e-09 1.25906017135626e-08 6.61342397894625e-08
"400" 10006 2.17210058280262e-08 2.57268607664132e-08 1.16519203977664e-09 1.14501905419681e-09 6.38660372780983e-09 1.59275779384766e-09 1.25205456814098e-08 6.61342397894625e-08
"401" 10007 2.16027693483529e-08 2.55942807342844e-08 1.15937504983499e-09 1.14309762260153e-09 6.35640091134085e-09 1.57331752745405e-09 1.24504896492571e-08 6.61342397894625e-08
"402" 10008 2.14845328686797e-08 2.54617007021556e-08 1.15355805989334e-09 1.14117619100625e-09 6.32619809487187e-09 1.55387726106044e-09 1.23804336171043e-08 6.61342397894625e-08
"403" 10009 2.13662963890064e-08 2.53291206700268e-08 1.14774106995169e-09 1.13925475941096e-09 6.29599527840289e-09 1.53443699466683e-09 1.23103775849516e-08 6.61342397894625e-08
"404" 10010 2.10074890397016e-08 2.48304023925923e-08 1.14164400090198e-09 1.13925475941096e-09 6.29133992268609e-09 1.52862437784245e-09 1.22978193712303e-08 6.60978200333518e-08
"405" 10011 2.06486816903968e-08 2.43316841151577e-08 1.13554693185227e-09 1.13925475941096e-09 6.2866845669693e-09 1.52281176101807e-09 1.22852611575089e-08 6.60614002772411e-08
"406" 10012 2.06849967366602e-08 2.43154462408048e-08 1.13582431632168e-09 1.13839625842484e-09 6.28960305115612e-09 1.51848429836785e-09 1.22760428622009e-08 6.564626874712e-08
"407" 10013 2.07213117829236e-08 2.42992083664519e-08 1.13610170079109e-09 1.13753775743871e-09 6.29252153534295e-09 1.51415683571763e-09 1.22668245668928e-08 6.52311372169989e-08
"408" 10014 2.0757626829187e-08 2.4282970492099e-08 1.1363790852605e-09 1.13667925645258e-09 6.29544001952978e-09 1.50982937306741e-09 1.22576062715847e-08 6.48160056868779e-08
"409" 10015 2.07939418754504e-08 2.42667326177461e-08 1.13665646972991e-09 1.13582075546645e-09 6.2983585037166e-09 1.50550191041718e-09 1.22483879762766e-08 6.44008741567568e-08
"410" 10016 2.08302569217138e-08 2.42504947433932e-08 1.13693385419932e-09 1.13496225448032e-09 6.30127698790343e-09 1.50117444776696e-09 1.22391696809685e-08 6.39857426266357e-08
"411" 10017 2.08665719679772e-08 2.42342568690403e-08 1.13721123866873e-09 1.13410375349419e-09 6.30419547209025e-09 1.49684698511674e-09 1.22299513856604e-08 6.35706110965147e-08
"412" 10018 2.09028870142406e-08 2.42180189946874e-08 1.13748862313814e-09 1.13324525250806e-09 6.30711395627708e-09 1.49251952246652e-09 1.22207330903524e-08 6.31554795663936e-08
"413" 10019 2.08754326203193e-08 2.42050924592469e-08 1.13748862313814e-09 1.13246033239548e-09 6.30864723288691e-09 1.49068952712815e-09 1.2227911680296e-08 6.27116468139953e-08
"414" 10020 2.08479782263979e-08 2.41921659238064e-08 1.13748862313814e-09 1.1316754122829e-09 6.31018050949674e-09 1.48885953178979e-09 1.22350902702397e-08 6.2267814061597e-08
"415" 10021 2.08205238324766e-08 2.41792393883659e-08 1.13748862313814e-09 1.13089049217031e-09 6.31171378610657e-09 1.48702953645142e-09 1.22422688601834e-08 6.18239813091988e-08
"416" 10022 2.07930694385553e-08 2.41663128529254e-08 1.13748862313814e-09 1.13010557205773e-09 6.31324706271639e-09 1.48519954111306e-09 1.22494474501271e-08 6.13801485568005e-08
"417" 10023 2.0765615044634e-08 2.4153386317485e-08 1.13748862313814e-09 1.12932065194515e-09 6.31478033932622e-09 1.48336954577469e-09 1.22566260400708e-08 6.09363158044022e-08
"418" 10024 2.07381606507126e-08 2.41404597820445e-08 1.13748862313814e-09 1.12853573183256e-09 6.31631361593605e-09 1.48153955043633e-09 1.22638046300145e-08 6.04924830520039e-08
"419" 10025 2.07136347937041e-08 2.41404597820445e-08 1.13776600760755e-09 1.12959866244172e-09 6.31683087768236e-09 1.48086467501119e-09 1.2255040394928e-08 6.00917695262063e-08
"420" 10026 2.06891089366956e-08 2.41404597820445e-08 1.13804339207696e-09 1.13066159305087e-09 6.31734813942867e-09 1.48018979958606e-09 1.22462761598416e-08 5.96910560004086e-08
"421" 10027 2.06645830796871e-08 2.41404597820445e-08 1.13832077654637e-09 1.13172452366002e-09 6.31786540117499e-09 1.47951492416093e-09 1.22375119247551e-08 5.92903424746109e-08
"422" 10028 2.06400572226786e-08 2.41404597820445e-08 1.13859816101578e-09 1.13278745426918e-09 6.3183826629213e-09 1.4788400487358e-09 1.22287476896687e-08 5.88896289488133e-08
"423" 10029 2.06155313656701e-08 2.41404597820445e-08 1.13887554548519e-09 1.13385038487833e-09 6.31889992466761e-09 1.47816517331067e-09 1.22199834545822e-08 5.84889154230156e-08
"424" 10030 2.05910055086616e-08 2.41404597820445e-08 1.1391529299546e-09 1.13491331548748e-09 6.31941718641392e-09 1.47749029788554e-09 1.22112192194958e-08 5.80882018972179e-08
"425" 10031 2.05664796516531e-08 2.41404597820445e-08 1.13943031442401e-09 1.13597624609664e-09 6.31993444816023e-09 1.4768154224604e-09 1.22024549844093e-08 5.76874883714202e-08
"426" 10032 2.05419537946446e-08 2.41404597820445e-08 1.13970769889341e-09 1.13703917670579e-09 6.32045170990654e-09 1.47614054703527e-09 1.21936907493229e-08 5.72867748456226e-08
"427" 10033 2.0565672049397e-08 2.41618240748706e-08 1.13998508336282e-09 1.13824926906204e-09 6.31339513174923e-09 1.47614054703527e-09 1.21908942769224e-08 5.72931112566506e-08
"428" 10034 2.05731923140777e-08 2.41874561672366e-08 1.1363844745378e-09 1.14038328677915e-09 6.30885082780705e-09 1.47546567161014e-09 1.21414456072483e-08 5.72539479047524e-08
"429" 10035 2.05807125787583e-08 2.42130882596027e-08 1.13278386571278e-09 1.14251730449626e-09 6.30430652386488e-09 1.47479079618501e-09 1.20919969375742e-08 5.72147845528542e-08
"430" 10036 2.0588232843439e-08 2.42387203519687e-08 1.12918325688775e-09 1.14465132221337e-09 6.2997622199227e-09 1.47411592075988e-09 1.20425482679e-08 5.71756212009559e-08
"431" 10037 2.05957531081196e-08 2.42643524443348e-08 1.12558264806273e-09 1.14678533993049e-09 6.29521791598053e-09 1.47344104533475e-09 1.19930995982259e-08 5.71364578490577e-08
"432" 10038 2.06032733728003e-08 2.42899845367008e-08 1.12198203923771e-09 1.1489193576476e-09 6.29067361203835e-09 1.47276616990962e-09 1.19436509285517e-08 5.70972944971595e-08
"433" 10039 2.05942478303478e-08 2.43026900936264e-08 1.1191575679993e-09 1.14920552464298e-09 6.28705277981418e-09 1.47276616990962e-09 1.18945943514832e-08 5.72421593596703e-08
"434" 10040 2.06449467397722e-08 2.43035487125596e-08 1.11527957470487e-09 1.15840382337334e-09 6.32711862698407e-09 1.48124867462796e-09 1.18455377744146e-08 5.77532806686732e-08
"435" 10041 2.06956456491966e-08 2.43044073314929e-08 1.11140158141044e-09 1.1676021221037e-09 6.36718447415397e-09 1.4897311793463e-09 1.1796481197346e-08 5.8264401977676e-08
"436" 10042 2.07463445586209e-08 2.43052659504262e-08 1.107523588116e-09 1.17680042083406e-09 6.40725032132386e-09 1.49821368406464e-09 1.17474246202775e-08 5.87755232866788e-08
"437" 10043 2.07970434680453e-08 2.43061245693595e-08 1.10364559482157e-09 1.18599871956443e-09 6.44731616849375e-09 1.50669618878297e-09 1.16983680432089e-08 5.92866445956817e-08
"438" 10044 2.08477423774697e-08 2.43069831882927e-08 1.09976760152714e-09 1.19519701829479e-09 6.48738201566365e-09 1.51517869350131e-09 1.16493114661403e-08 5.97977659046845e-08
"439" 10045 2.08984412868941e-08 2.4307841807226e-08 1.09588960823271e-09 1.20439531702515e-09 6.52744786283354e-09 1.52366119821965e-09 1.16002548890718e-08 6.03088872136873e-08
"440" 10046 2.09491401963185e-08 2.43087004261593e-08 1.09201161493827e-09 1.21359361575551e-09 6.56751371000344e-09 1.53214370293799e-09 1.15511983120032e-08 6.08200085226902e-08
"441" 10047 2.09869355064859e-08 2.4296853488167e-08 1.09201161493827e-09 1.22257932836405e-09 6.60959307827126e-09 1.54412488292842e-09 1.15232955556147e-08 6.12553535081128e-08
"442" 10048 2.10558114230033e-08 2.42973932868911e-08 1.09095809288225e-09 1.23177762709441e-09 6.64090347288068e-09 1.55610606291885e-09 1.151295581884e-08 6.14134923965027e-08
"443" 10049 2.11246873395207e-08 2.42979330856152e-08 1.08990457082622e-09 1.24097592582477e-09 6.6722138674901e-09 1.56808724290928e-09 1.15026160820654e-08 6.15716312848926e-08
"444" 10050 2.11935632560381e-08 2.42984728843393e-08 1.0888510487702e-09 1.25017422455513e-09 6.70352426209951e-09 1.58006842289971e-09 1.14922763452908e-08 6.17297701732825e-08
"445" 10051 2.12624391725554e-08 2.42990126830634e-08 1.08779752671417e-09 1.2593725232855e-09 6.73483465670893e-09 1.59204960289014e-09 1.14819366085161e-08 6.18879090616723e-08
"446" 10052 2.13313150890728e-08 2.42995524817875e-08 1.08674400465814e-09 1.26857082201586e-09 6.76614505131835e-09 1.60403078288057e-09 1.14715968717415e-08 6.20460479500622e-08
"447" 10053 2.1337576984723e-08 2.43157493105335e-08 1.08569048260212e-09 1.27070483973297e-09 6.77458683705266e-09 1.61483093087702e-09 1.14684529996311e-08 6.23163361747817e-08
"448" 10054 2.13438388803731e-08 2.43319461392795e-08 1.08463696054609e-09 1.27283885745008e-09 6.78302862278697e-09 1.62563107887347e-09 1.14653091275206e-08 6.25866243995011e-08
"449" 10055 2.13501007760233e-08 2.43481429680255e-08 1.08358343849007e-09 1.2749728751672e-09 6.79147040852128e-09 1.63643122686992e-09 1.14621652554101e-08 6.28569126242205e-08
"450" 10056 2.13563626716735e-08 2.43643397967715e-08 1.08252991643404e-09 1.27710689288431e-09 6.79991219425559e-09 1.64723137486637e-09 1.14590213832997e-08 6.312720084894e-08
"451" 10057 2.13626245673236e-08 2.43805366255175e-08 1.08147639437802e-09 1.27924091060142e-09 6.8083539799899e-09 1.65803152286282e-09 1.14558775111892e-08 6.33974890736594e-08
"452" 10058 2.13688864629738e-08 2.43967334542635e-08 1.08042287232199e-09 1.28137492831854e-09 6.81679576572421e-09 1.66883167085927e-09 1.14527336390788e-08 6.36677772983788e-08
"453" 10059 2.1375148358624e-08 2.44129302830096e-08 1.07936935026597e-09 1.28350894603565e-09 6.82523755145852e-09 1.67963181885572e-09 1.14495897669683e-08 6.39380655230983e-08
"454" 10060 2.13814102542741e-08 2.44291271117556e-08 1.07831582820994e-09 1.28564296375276e-09 6.83367933719283e-09 1.69043196685217e-09 1.14464458948579e-08 6.42083537478177e-08
"455" 10061 2.13876721499243e-08 2.44453239405016e-08 1.07726230615391e-09 1.28777698146988e-09 6.84212112292714e-09 1.70123211484862e-09 1.14433020227474e-08 6.44786419725371e-08
"456" 10062 2.13887726058717e-08 2.44461415138279e-08 1.07726230615391e-09 1.28806314846525e-09 6.83319909270473e-09 1.70473079012071e-09 1.14361508509788e-08 6.40720781957026e-08
"457" 10063 2.1389873061819e-08 2.44469590871543e-08 1.07726230615391e-09 1.28834931546063e-09 6.82427706248232e-09 1.7082294653928e-09 1.14289996792102e-08 6.3665514418868e-08
"458" 10064 2.13909735177664e-08 2.44477766604807e-08 1.07726230615391e-09 1.288635482456e-09 6.8153550322599e-09 1.71172814066489e-09 1.14218485074416e-08 6.32589506420335e-08
"459" 10065 2.13920739737138e-08 2.44485942338071e-08 1.07726230615391e-09 1.28892164945138e-09 6.80643300203749e-09 1.71522681593698e-09 1.1414697335673e-08 6.28523868651989e-08
"460" 10066 2.13931744296612e-08 2.44494118071335e-08 1.07726230615391e-09 1.28920781644676e-09 6.79751097181507e-09 1.71872549120907e-09 1.14075461639044e-08 6.24458230883643e-08
"461" 10067 2.13942748856085e-08 2.44502293804598e-08 1.07726230615391e-09 1.28949398344213e-09 6.78858894159266e-09 1.72222416648117e-09 1.14003949921358e-08 6.20392593115298e-08
"462" 10068 2.13953753415559e-08 2.44510469537862e-08 1.07726230615391e-09 1.28978015043751e-09 6.77966691137025e-09 1.72572284175326e-09 1.13932438203672e-08 6.16326955346952e-08
"463" 10069 2.13967846466422e-08 2.43538215968918e-08 1.07443783491551e-09 1.28622345424232e-09 6.62200442057693e-09 1.72805899366047e-09 1.13968244779788e-08 6.16246139413998e-08
"464" 10070 2.13981939517284e-08 2.42565962399973e-08 1.0716133636771e-09 1.28266675804713e-09 6.46434192978361e-09 1.73039514556768e-09 1.14004051355904e-08 6.16165323481044e-08
"465" 10071 2.11235959019936e-08 2.42369081394309e-08 1.07033847297328e-09 1.28188183793455e-09 6.43654131562375e-09 1.72806639711211e-09 1.1322224831421e-08 6.15801125919937e-08
"466" 10072 2.08489978522587e-08 2.42172200388644e-08 1.06906358226945e-09 1.28109691782197e-09 6.40874070146388e-09 1.72573764865654e-09 1.12440445272516e-08 6.1543692835883e-08
"467" 10073 2.05743998025239e-08 2.4197531938298e-08 1.06778869156563e-09 1.28031199770938e-09 6.38094008730402e-09 1.72340890020097e-09 1.11658642230823e-08 6.15072730797723e-08
"468" 10074 2.0299801752789e-08 2.41778438377315e-08 1.06651380086181e-09 1.2795270775968e-09 6.35313947314416e-09 1.72108015174539e-09 1.10876839189129e-08 6.14708533236616e-08
"469" 10075 2.00252037030541e-08 2.4158155737165e-08 1.06523891015798e-09 1.27874215748422e-09 6.32533885898429e-09 1.71875140328982e-09 1.10095036147436e-08 6.14344335675509e-08
"470" 10076 1.97506056533193e-08 2.41384676365986e-08 1.06396401945416e-09 1.27795723737163e-09 6.29753824482443e-09 1.71642265483425e-09 1.09313233105742e-08 6.13980138114402e-08
"471" 10077 1.95523648168599e-08 2.44383351910262e-08 1.0704451153392e-09 1.2770987363855e-09 6.27542750987399e-09 1.72505166805395e-09 1.08507112084349e-08 6.13325414594308e-08
"472" 10078 1.93541239804005e-08 2.47382027454538e-08 1.07692621122424e-09 1.27624023539938e-09 6.25331677492354e-09 1.73368068127364e-09 1.07700991062956e-08 6.12670691074213e-08
"473" 10079 1.91558831439411e-08 2.50380702998814e-08 1.08340730710929e-09 1.27538173441325e-09 6.2312060399731e-09 1.74230969449334e-09 1.06894870041562e-08 6.12015967554119e-08
"474" 10080 1.89576423074817e-08 2.53379378543091e-08 1.08988840299433e-09 1.27452323342712e-09 6.20909530502266e-09 1.75093870771304e-09 1.06088749020169e-08 6.11361244034024e-08
"475" 10081 1.87594014710223e-08 2.56378054087367e-08 1.09636949887937e-09 1.27366473244099e-09 6.18698457007221e-09 1.75956772093274e-09 1.05282627998776e-08 6.1070652051393e-08
"476" 10082 1.85611606345629e-08 2.59376729631643e-08 1.10285059476441e-09 1.27280623145486e-09 6.16487383512177e-09 1.76819673415243e-09 1.04476506977383e-08 6.10051796993835e-08
"477" 10083 1.83629197981036e-08 2.62375405175919e-08 1.10933169064945e-09 1.27194773046873e-09 6.14276310017133e-09 1.77682574737213e-09 1.03670385955989e-08 6.09397073473741e-08
"478" 10084 1.81646789616442e-08 2.65374080720195e-08 1.1158127865345e-09 1.2710892294826e-09 6.12065236522088e-09 1.78545476059183e-09 1.02864264934596e-08 6.08742349953646e-08
"479" 10085 1.79664381251848e-08 2.68372756264472e-08 1.12229388241954e-09 1.27023072849647e-09 6.09854163027044e-09 1.79408377381153e-09 1.02058143913203e-08 6.08087626433552e-08
"480" 10086 1.77681972887254e-08 2.71371431808748e-08 1.12877497830458e-09 1.26937222751034e-09 6.07643089532e-09 1.80271278703122e-09 1.0125202289181e-08 6.07432902913457e-08
"481" 10087 1.7569956452266e-08 2.74370107353024e-08 1.13525607418962e-09 1.26851372652422e-09 6.05432016036956e-09 1.81134180025092e-09 1.00445901870416e-08 6.06778179393363e-08
"482" 10088 1.73717156158066e-08 2.773687828973e-08 1.14173717007466e-09 1.26765522553809e-09 6.03220942541911e-09 1.81997081347062e-09 9.9639780849023e-09 6.06123455873268e-08
"483" 10089 1.71734747793472e-08 2.80367458441576e-08 1.1482182659597e-09 1.26679672455196e-09 6.01009869046867e-09 1.82859982669032e-09 9.88336598276298e-09 6.05468732353174e-08
"484" 10090 1.69752339428879e-08 2.83366133985852e-08 1.15469936184475e-09 1.26593822356583e-09 5.98798795551823e-09 1.83722883991001e-09 9.80275388062365e-09 6.04814008833079e-08
"485" 10091 1.67769931064285e-08 2.86364809530129e-08 1.16118045772979e-09 1.2650797225797e-09 5.96587722056778e-09 1.84585785312971e-09 9.72214177848433e-09 6.04159285312985e-08
"486" 10092 1.67482553296088e-08 2.88268500060043e-08 1.16971258190527e-09 1.26529230870153e-09 5.96909184282027e-09 1.8611430774552e-09 9.67384196845181e-09 6.03846320000152e-08
"487" 10093 1.68263147016618e-08 2.9147542054534e-08 1.17746856849413e-09 1.26315013448561e-09 5.97675822586942e-09 1.87393083446884e-09 9.65471057841566e-09 6.03019980478948e-08
"488" 10094 1.69043740737148e-08 2.94682341030636e-08 1.185224555083e-09 1.26100796026969e-09 5.98442460891856e-09 1.88671859148248e-09 9.63557918837951e-09 6.02193640957745e-08
"489" 10095 1.69824334457678e-08 2.97889261515932e-08 1.19298054167186e-09 1.25886578605377e-09 5.9920909919677e-09 1.89950634849611e-09 9.61644779834336e-09 6.01367301436541e-08
"490" 10096 1.70604928178209e-08 3.01096182001228e-08 1.20073652826073e-09 1.25672361183785e-09 5.99975737501685e-09 1.91229410550975e-09 9.59731640830721e-09 6.00540961915338e-08
"491" 10097 1.71385521898739e-08 3.04303102486525e-08 1.20849251484959e-09 1.25458143762193e-09 6.00742375806599e-09 1.92508186252339e-09 9.57818501827106e-09 5.99714622394134e-08
"492" 10098 1.71824974275583e-08 3.04306290688616e-08 1.20771637726298e-09 1.25251284427956e-09 6.00502253562548e-09 1.92258439521153e-09 9.55964176714325e-09 5.98896217994016e-08
"493" 10099 1.75480584486031e-08 3.10827991239684e-08 1.21907836195416e-09 1.25251284427956e-09 6.00363732804848e-09 1.92008692789967e-09 9.56981287579018e-09 5.9919104847947e-08
"494" 10100 1.7913619469648e-08 3.17349691790751e-08 1.23044034664535e-09 1.25251284427956e-09 6.00225212047148e-09 1.91758946058782e-09 9.5799839844371e-09 5.99485878964924e-08
"495" 10101 1.82791804906928e-08 3.23871392341818e-08 1.24180233133654e-09 1.25251284427956e-09 6.00086691289449e-09 1.91509199327596e-09 9.59015509308402e-09 5.99780709450379e-08
"496" 10102 1.86447415117377e-08 3.30393092892885e-08 1.25316431602772e-09 1.25251284427956e-09 5.99948170531749e-09 1.91259452596411e-09 9.60032620173095e-09 6.00075539935833e-08
"497" 10103 1.90103025327825e-08 3.36914793443952e-08 1.26452630071891e-09 1.25251284427956e-09 5.99809649774049e-09 1.91009705865225e-09 9.61049731037787e-09 6.00370370421287e-08
"498" 10104 1.93758635538274e-08 3.4343649399502e-08 1.2758882854101e-09 1.25251284427956e-09 5.99671129016349e-09 1.9075995913404e-09 9.62066841902479e-09 6.00665200906741e-08
"499" 10105 1.9741131721181e-08 3.49762449462169e-08 1.28830379215731e-09 1.25394367925644e-09 5.9906707268697e-09 1.87270168003919e-09 9.53337949224765e-09 6.01766986935012e-08
"500" 10106 2.01063998885345e-08 3.56088404929319e-08 1.30071929890452e-09 1.25537451423332e-09 5.9846301635759e-09 1.83780376873798e-09 9.44609056547051e-09 6.02868772963284e-08
"501" 10107 2.04716680558881e-08 3.62414360396469e-08 1.31313480565173e-09 1.25680534921021e-09 5.97858960028211e-09 1.80290585743678e-09 9.35880163869337e-09 6.03970558991555e-08
"502" 10108 2.08369362232417e-08 3.68740315863618e-08 1.32555031239894e-09 1.25823618418709e-09 5.97254903698831e-09 1.76800794613557e-09 9.27151271191623e-09 6.05072345019826e-08
"503" 10109 2.12022043905953e-08 3.75066271330768e-08 1.33796581914616e-09 1.25966701916397e-09 5.96650847369452e-09 1.73311003483437e-09 9.18422378513908e-09 6.06174131048098e-08
"504" 10110 2.15674725579488e-08 3.81392226797917e-08 1.35038132589337e-09 1.26109785414085e-09 5.96046791040072e-09 1.69821212353316e-09 9.09693485836194e-09 6.07275917076369e-08
"505" 10111 2.19327407253024e-08 3.87718182265067e-08 1.36279683264058e-09 1.26252868911773e-09 5.95442734710692e-09 1.66331421223196e-09 9.0096459315848e-09 6.08377703104641e-08
"506" 10112 2.19716914547874e-08 3.87264412374869e-08 1.34877303489852e-09 1.24106599208022e-09 5.95747539169748e-09 1.66530552297496e-09 9.0096459315848e-09 6.08461700344314e-08
"507" 10113 2.20106421842723e-08 3.8681064248467e-08 1.33474923715647e-09 1.21960329504271e-09 5.96052343628803e-09 1.66729683371797e-09 9.0096459315848e-09 6.08545697583988e-08
"508" 10114 2.20495929137573e-08 3.86356872594472e-08 1.32072543941441e-09 1.19814059800519e-09 5.96357148087859e-09 1.66928814446098e-09 9.0096459315848e-09 6.08629694823662e-08
"509" 10115 2.20885436432422e-08 3.85903102704273e-08 1.30670164167235e-09 1.17667790096768e-09 5.96661952546914e-09 1.67127945520398e-09 9.0096459315848e-09 6.08713692063336e-08
"510" 10116 2.21274943727272e-08 3.85449332814075e-08 1.2926778439303e-09 1.15521520393017e-09 5.96966757005969e-09 1.67327076594699e-09 9.0096459315848e-09 6.0879768930301e-08
"511" 10117 2.21664451022121e-08 3.84995562923876e-08 1.27865404618824e-09 1.13375250689266e-09 5.97271561465025e-09 1.67526207669e-09 9.0096459315848e-09 6.08881686542684e-08
"512" 10118 2.22053958316971e-08 3.84541793033678e-08 1.26463024844619e-09 1.11228980985514e-09 5.9757636592408e-09 1.67725338743301e-09 9.0096459315848e-09 6.08965683782358e-08
"513" 10119 2.2244346561182e-08 3.84088023143479e-08 1.25060645070413e-09 1.09082711281763e-09 5.97881170383135e-09 1.67924469817601e-09 9.0096459315848e-09 6.09049681022032e-08
"514" 10120 2.2283297290667e-08 3.83634253253281e-08 1.23658265296207e-09 1.06936441578012e-09 5.98185974842191e-09 1.68123600891902e-09 9.0096459315848e-09 6.09133678261705e-08
"515" 10121 2.23161600330325e-08 3.83021860782519e-08 1.2206198585728e-09 1.04434502254742e-09 5.98330048188622e-09 1.68322731966203e-09 9.00550455323994e-09 6.09217675501379e-08
"516" 10122 2.2349022775398e-08 3.82409468311756e-08 1.20465706418353e-09 1.01932562931472e-09 5.98474121535053e-09 1.68521863040503e-09 9.00136317489507e-09 6.09301672741053e-08
"517" 10123 2.23818855177635e-08 3.81797075840994e-08 1.18869426979426e-09 9.94306236082017e-10 5.98618194881484e-09 1.68720994114804e-09 8.9972217965502e-09 6.09385669980727e-08
"518" 10124 2.2414748260129e-08 3.81184683370232e-08 1.17273147540498e-09 9.69286842849316e-10 5.98762268227915e-09 1.68920125189105e-09 8.99308041820533e-09 6.09469667220401e-08
"519" 10125 2.24476110024945e-08 3.8057229089947e-08 1.15676868101571e-09 9.44267449616615e-10 5.98906341574345e-09 1.69119256263406e-09 8.98893903986046e-09 6.09553664460075e-08
"520" 10126 2.248047374486e-08 3.79959898428707e-08 1.14080588662644e-09 9.19248056383914e-10 5.99050414920776e-09 1.69318387337706e-09 8.9847976615156e-09 6.09637661699749e-08
"521" 10127 2.25133364872255e-08 3.79347505957945e-08 1.12484309223717e-09 8.94228663151214e-10 5.99194488267207e-09 1.69517518412007e-09 8.98065628317073e-09 6.09721658939422e-08
"522" 10128 2.25210876652e-08 3.75564527981218e-08 1.12478707641556e-09 8.94302244024759e-10 5.97559708157887e-09 1.69633770748495e-09 8.92542876584747e-09 6.09680284895089e-08
"523" 10129 2.25288388431744e-08 3.7178155000449e-08 1.12473106059394e-09 8.94375824898305e-10 5.95924928048566e-09 1.69750023084982e-09 8.87020124852421e-09 6.09638910850756e-08
"524" 10130 2.25595876279105e-08 3.70835055003544e-08 1.11885805483068e-09 8.88611530112458e-10 5.94659536626444e-09 1.69583895436774e-09 8.83073778464879e-09 6.09638910850756e-08
"525" 10131 2.25903364126467e-08 3.69888560002598e-08 1.11298504906742e-09 8.82847235326611e-10 5.93394145204323e-09 1.69417767788566e-09 8.79127432077337e-09 6.09638910850756e-08
"526" 10132 2.26210851973828e-08 3.68942065001651e-08 1.10711204330416e-09 8.77082940540764e-10 5.92128753782202e-09 1.69251640140357e-09 8.75181085689795e-09 6.09638910850756e-08
"527" 10133 2.26518339821189e-08 3.67995570000705e-08 1.1012390375409e-09 8.71318645754917e-10 5.9086336236008e-09 1.69085512492149e-09 8.71234739302253e-09 6.09638910850756e-08
"528" 10134 2.2682582766855e-08 3.67049074999759e-08 1.09536603177764e-09 8.6555435096907e-10 5.89597970937959e-09 1.68919384843941e-09 8.67288392914711e-09 6.09638910850756e-08
"529" 10135 2.26846807290368e-08 3.66067256824539e-08 1.0914320226616e-09 8.6163790690496e-10 6.23319332236742e-09 1.69401266075519e-09 8.63756184361656e-09 6.09487469618284e-08
"530" 10136 2.26867786912186e-08 3.65085438649319e-08 1.08749801354555e-09 8.57721462840849e-10 6.57040693535525e-09 1.69883147307098e-09 8.602239758086e-09 6.09336028385813e-08
"531" 10137 2.26888766534004e-08 3.641036204741e-08 1.08356400442951e-09 8.53805018776739e-10 6.90762054834308e-09 1.70365028538677e-09 8.56691767255545e-09 6.09184587153342e-08
"532" 10138 2.26909746155822e-08 3.6312180229888e-08 1.07962999531346e-09 8.49888574712629e-10 7.24483416133092e-09 1.70846909770255e-09 8.5315955870249e-09 6.0903314592087e-08
"533" 10139 2.26930725777639e-08 3.6213998412366e-08 1.07569598619742e-09 8.45972130648518e-10 7.58204777431875e-09 1.71328791001834e-09 8.49627350149434e-09 6.08881704688399e-08
"534" 10140 2.26951705399457e-08 3.6115816594844e-08 1.07176197708138e-09 8.42055686584408e-10 7.91926138730658e-09 1.71810672233413e-09 8.46095141596379e-09 6.08730263455927e-08
"535" 10141 2.26972685021275e-08 3.60176347773221e-08 1.06782796796533e-09 8.38139242520298e-10 8.25647500029441e-09 1.72292553464992e-09 8.42562933043324e-09 6.08578822223456e-08
"536" 10142 2.26993664643093e-08 3.59194529598001e-08 1.06389395884929e-09 8.34222798456188e-10 8.59368861328224e-09 1.7277443469657e-09 8.39030724490269e-09 6.08427380990984e-08
"537" 10143 2.27014644264911e-08 3.58212711422781e-08 1.05995994973324e-09 8.30306354392077e-10 8.93090222627007e-09 1.73256315928149e-09 8.35498515937213e-09 6.08275939758513e-08
"538" 10144 2.27035623886729e-08 3.57230893247561e-08 1.0560259406172e-09 8.26389910327967e-10 9.2681158392579e-09 1.73738197159728e-09 8.31966307384158e-09 6.08124498526041e-08
"539" 10145 2.27056603508547e-08 3.56249075072342e-08 1.05209193150116e-09 8.22473466263857e-10 9.60532945224574e-09 1.74220078391306e-09 8.28434098831103e-09 6.0797305729357e-08
"540" 10146 2.27077583130365e-08 3.55267256897122e-08 1.04815792238511e-09 8.18557022199747e-10 9.94254306523357e-09 1.74701959622885e-09 8.24901890278048e-09 6.07821616061098e-08
"541" 10147 2.27098562752183e-08 3.54285438721902e-08 1.04422391326907e-09 8.14640578135636e-10 1.02797566782214e-08 1.75183840854464e-09 8.21369681724992e-09 6.07670174828627e-08
"542" 10148 2.27119542374001e-08 3.53303620546682e-08 1.04028990415302e-09 8.10724134071526e-10 1.06169702912092e-08 1.75665722086042e-09 8.17837473171937e-09 6.07518733596155e-08
"543" 10149 2.27128807848167e-08 3.52874945817149e-08 1.04217288497863e-09 8.1178706468068e-10 1.09161871040124e-08 1.76263115308945e-09 8.19769202460373e-09 6.07517259801199e-08
"544" 10150 2.27138073322334e-08 3.52446271087615e-08 1.04405586580423e-09 8.12849995289833e-10 1.12154039168156e-08 1.76860508531847e-09 8.21700931748809e-09 6.07515786006242e-08
"545" 10151 2.271473387965e-08 3.52017596358082e-08 1.04593884662984e-09 8.13912925898986e-10 1.15146207296188e-08 1.77457901754749e-09 8.23632661037244e-09 6.07514312211285e-08
"546" 10152 2.27156604270667e-08 3.51588921628548e-08 1.04782182745544e-09 8.1497585650814e-10 1.1813837542422e-08 1.78055294977651e-09 8.2556439032568e-09 6.07512838416329e-08
"547" 10153 2.27165869744833e-08 3.51160246899014e-08 1.04970480828105e-09 8.16038787117293e-10 1.21130543552251e-08 1.78652688200553e-09 8.27496119614116e-09 6.07511364621372e-08
"548" 10154 2.27175135219e-08 3.50731572169481e-08 1.05158778910665e-09 8.17101717726447e-10 1.24122711680283e-08 1.79250081423455e-09 8.29427848902552e-09 6.07509890826415e-08
"549" 10155 2.25828891481767e-08 3.50724785309228e-08 1.04964609782079e-09 8.181646483356e-10 1.27605313841111e-08 1.79664475112521e-09 8.27272544447398e-09 6.05850624526619e-08
"550" 10156 2.24482647744533e-08 3.50717998448976e-08 1.04770440653492e-09 8.19227578944754e-10 1.31087916001939e-08 1.80078868801586e-09 8.25117239992244e-09 6.04191358226822e-08
"551" 10157 2.23108217905575e-08 3.50905157343561e-08 1.04454384036684e-09 8.18369077958625e-10 1.31238467368557e-08 1.79679496135239e-09 8.21225238205979e-09 6.02699852689566e-08
"552" 10158 2.23430807886999e-08 3.51092316238146e-08 1.04149530584199e-09 8.23716356999617e-10 1.31594608232289e-08 1.80195121138074e-09 8.22896211758056e-09 6.01108030382567e-08
"553" 10159 2.23753397868423e-08 3.5127947513273e-08 1.03844677131714e-09 8.29063636040608e-10 1.31950749096021e-08 1.80710746140909e-09 8.24567185310132e-09 5.99516208075568e-08
"554" 10160 2.24075987849847e-08 3.51466634027315e-08 1.03539823679228e-09 8.344109150816e-10 1.32306889959754e-08 1.81226371143745e-09 8.26238158862208e-09 5.9792438576857e-08
"555" 10161 2.24398577831272e-08 3.516537929219e-08 1.03234970226743e-09 8.39758194122592e-10 1.32663030823486e-08 1.8174199614658e-09 8.27909132414285e-09 5.96332563461571e-08
"556" 10162 2.24721167812696e-08 3.51840951816485e-08 1.02930116774258e-09 8.45105473163583e-10 1.33019171687218e-08 1.82257621149415e-09 8.29580105966361e-09 5.94740741154571e-08
"557" 10163 2.2458753396818e-08 3.47178211519588e-08 1.02120908622404e-09 8.47386652627788e-10 1.33391385662213e-08 1.83205992417273e-09 8.34381543760219e-09 5.92824513750296e-08
"558" 10164 2.24453900123663e-08 3.42515471222692e-08 1.01311700470551e-09 8.49667832091992e-10 1.33763599637208e-08 1.8415436368513e-09 8.39182981554078e-09 5.90908286346021e-08
"559" 10165 2.24320266279147e-08 3.37852730925795e-08 1.00502492318697e-09 8.51949011556196e-10 1.34135813612203e-08 1.85102734952987e-09 8.43984419347936e-09 5.88992058941745e-08
"560" 10166 2.24186632434631e-08 3.33189990628899e-08 9.96932841668435e-10 8.542301910204e-10 1.34508027587198e-08 1.86051106220845e-09 8.48785857141795e-09 5.8707583153747e-08
"561" 10167 2.24052998590115e-08 3.28527250332002e-08 9.888407601499e-10 8.56511370484605e-10 1.34880241562193e-08 1.86999477488702e-09 8.53587294935653e-09 5.85159604133194e-08
"562" 10168 2.23919364745598e-08 3.23864510035106e-08 9.80748678631365e-10 8.58792549948809e-10 1.35252455537188e-08 1.8794784875656e-09 8.58388732729512e-09 5.83243376728919e-08
"563" 10169 2.23785730901082e-08 3.19201769738209e-08 9.7265659711283e-10 8.61073729413013e-10 1.35624669512182e-08 1.88896220024417e-09 8.6319017052337e-09 5.81327149324643e-08
"564" 10170 2.25041309120635e-08 3.18413897317827e-08 9.67615744757798e-10 8.66568170201096e-10 1.35935552422784e-08 1.89761712554461e-09 8.68948177819037e-09 5.81327149324643e-08
"565" 10171 2.24576988858205e-08 3.17980960522799e-08 9.61742738994537e-10 8.65930411835604e-10 1.35965662696108e-08 1.89695335529694e-09 8.75175380677059e-09 5.81606567928683e-08
"566" 10172 2.24112668595774e-08 3.17548023727771e-08 9.55869733231277e-10 8.65292653470112e-10 1.35995772969431e-08 1.89628958504928e-09 8.81402583535082e-09 5.81885986532722e-08
"567" 10173 2.23648348333344e-08 3.17115086932744e-08 9.49996727468016e-10 8.6465489510462e-10 1.36025883242754e-08 1.89562581480161e-09 8.87629786393105e-09 5.82165405136761e-08
"568" 10174 2.23184028070913e-08 3.16682150137716e-08 9.44123721704756e-10 8.64017136739128e-10 1.36055993516078e-08 1.89496204455394e-09 8.93856989251127e-09 5.824448237408e-08
"569" 10175 2.22719707808482e-08 3.16249213342688e-08 9.38250715941495e-10 8.63379378373636e-10 1.36086103789401e-08 1.89429827430627e-09 9.0008419210915e-09 5.8272424234484e-08
"570" 10176 2.22255387546052e-08 3.15816276547661e-08 9.32377710178235e-10 8.62741620008144e-10 1.36116214062725e-08 1.8936345040586e-09 9.06311394967173e-09 5.83003660948879e-08
"571" 10177 2.21791067283621e-08 3.15383339752633e-08 9.26504704414974e-10 8.62103861642651e-10 1.36146324336048e-08 1.89297073381093e-09 9.12538597825195e-09 5.83283079552918e-08
"572" 10178 2.21326747021191e-08 3.14950402957606e-08 9.20631698651714e-10 8.61466103277159e-10 1.36176434609372e-08 1.89230696356326e-09 9.18765800683218e-09 5.83562498156957e-08
"573" 10179 2.2086242675876e-08 3.14517466162578e-08 9.14758692888453e-10 8.60828344911667e-10 1.36206544882695e-08 1.89164319331559e-09 9.2499300354124e-09 5.83841916760997e-08
"574" 10180 2.20542035312142e-08 3.13576526653677e-08 9.10824683772409e-10 8.68661233039888e-10 1.36159991325527e-08 1.89114814192421e-09 9.26146332472423e-09 5.84895642774857e-08
"575" 10181 2.20221643865524e-08 3.12635587144776e-08 9.06890674656365e-10 8.76494121168108e-10 1.36113437768359e-08 1.89065309053282e-09 9.27299661403606e-09 5.85949368788717e-08
"576" 10182 2.19901252418906e-08 3.11694647635876e-08 9.02956665540321e-10 8.84327009296329e-10 1.36066884211191e-08 1.89015803914143e-09 9.28452990334789e-09 5.87003094802577e-08
"577" 10183 2.19580860972288e-08 3.10753708126975e-08 8.99022656424276e-10 8.92159897424549e-10 1.36020330654023e-08 1.88966298775005e-09 9.29606319265972e-09 5.88056820816437e-08
"578" 10184 2.1926046952567e-08 3.09812768618074e-08 8.95088647308232e-10 8.9999278555277e-10 1.35973777096855e-08 1.88916793635866e-09 9.30759648197155e-09 5.89110546830297e-08
"579" 10185 2.19219539779163e-08 3.06280837694455e-08 8.91154638192188e-10 9.08537012920028e-10 1.36003147025015e-08 1.88916793635866e-09 9.25372100185862e-09 5.90174472550451e-08
"580" 10186 2.19178610032657e-08 3.02748906770837e-08 8.87220629076144e-10 9.17081240287286e-10 1.36032516953174e-08 1.88916793635866e-09 9.19984552174569e-09 5.91238398270604e-08
"581" 10187 2.1808730043283e-08 3.01456410731593e-08 8.83006540852041e-10 9.25551886780999e-10 1.36056529177579e-08 1.88950167234541e-09 9.18742138671109e-09 5.91813770579844e-08
"582" 10188 2.16995990833003e-08 3.00163914692349e-08 8.78792452627939e-10 9.34022533274711e-10 1.36080541401984e-08 1.88983540833215e-09 9.17499725167648e-09 5.92389142889084e-08
"583" 10189 2.15904681233176e-08 2.98871418653104e-08 8.74578364403836e-10 9.42493179768424e-10 1.36104553626389e-08 1.8901691443189e-09 9.16257311664188e-09 5.92964515198324e-08
"584" 10190 2.14813371633349e-08 2.9757892261386e-08 8.70364276179734e-10 9.50963826262137e-10 1.36128565850794e-08 1.89050288030564e-09 9.15014898160728e-09 5.93539887507564e-08
"585" 10191 2.13722062033522e-08 2.96286426574616e-08 8.66150187955631e-10 9.59434472755849e-10 1.361525780752e-08 1.89083661629239e-09 9.13772484657267e-09 5.94115259816804e-08
"586" 10192 2.12630752433695e-08 2.94993930535372e-08 8.61936099731529e-10 9.67905119249562e-10 1.36176590299605e-08 1.89117035227913e-09 9.12530071153807e-09 5.94690632126044e-08
"587" 10193 2.11539442833867e-08 2.93701434496128e-08 8.57722011507426e-10 9.76375765743274e-10 1.3620060252401e-08 1.89150408826588e-09 9.11287657650347e-09 5.95266004435284e-08
"588" 10194 2.10334289559736e-08 2.92366260461485e-08 8.51624942457719e-10 9.76375765743274e-10 1.36298872457123e-08 1.89400155557773e-09 9.09848484717511e-09 5.94979783002763e-08
"589" 10195 2.09129136285605e-08 2.91031086426841e-08 8.45527873408012e-10 9.76375765743274e-10 1.36397142390236e-08 1.89649902288959e-09 9.08409311784675e-09 5.94693561570243e-08
"590" 10196 2.07923983011474e-08 2.89695912392198e-08 8.39430804358305e-10 9.76375765743274e-10 1.36495412323349e-08 1.89899649020144e-09 9.0697013885184e-09 5.94407340137722e-08
"591" 10197 2.06718829737343e-08 2.88360738357554e-08 8.33333735308598e-10 9.76375765743274e-10 1.36593682256462e-08 1.9014939575133e-09 9.05530965919004e-09 5.94121118705201e-08
"592" 10198 2.05513676463212e-08 2.87025564322911e-08 8.27236666258891e-10 9.76375765743274e-10 1.36691952189575e-08 1.90399142482515e-09 9.04091792986168e-09 5.9383489727268e-08
"593" 10199 2.04308523189081e-08 2.85690390288267e-08 8.21139597209184e-10 9.76375765743274e-10 1.36790222122688e-08 1.90648889213701e-09 9.02652620053333e-09 5.9354867584016e-08
"594" 10200 2.0310336991495e-08 2.84355216253624e-08 8.15042528159477e-10 9.76375765743274e-10 1.36888492055801e-08 1.90898635944887e-09 9.01213447120497e-09 5.93262454407639e-08
"595" 10201 2.01898216640818e-08 2.83020042218981e-08 8.0894545910977e-10 9.76375765743274e-10 1.36986761988915e-08 1.91148382676072e-09 8.99774274187662e-09 5.92976232975118e-08
"596" 10202 2.00693063366687e-08 2.81684868184337e-08 8.02848390060062e-10 9.76375765743274e-10 1.37085031922028e-08 1.91398129407258e-09 8.98335101254826e-09 5.92690011542598e-08
"597" 10203 1.99487910092556e-08 2.80349694149694e-08 7.96751321010355e-10 9.76375765743274e-10 1.37183301855141e-08 1.91647876138443e-09 8.9689592832199e-09 5.92403790110077e-08
"598" 10204 1.98282756818425e-08 2.7901452011505e-08 7.90654251960648e-10 9.76375765743274e-10 1.37281571788254e-08 1.91897622869629e-09 8.95456755389155e-09 5.92117568677556e-08
"599" 10205 1.97077603544294e-08 2.77679346080407e-08 7.84557182910941e-10 9.76375765743274e-10 1.37379841721367e-08 1.92147369600814e-09 8.94017582456319e-09 5.91831347245035e-08
"600" 10206 1.95872450270163e-08 2.76344172045763e-08 7.78460113861234e-10 9.76375765743274e-10 1.3747811165448e-08 1.92397116332e-09 8.92578409523483e-09 5.91545125812515e-08
"601" 10207 1.95905463948584e-08 2.76344172045763e-08 7.78460113861234e-10 9.76375765743274e-10 1.37576381587593e-08 1.92447731988885e-09 8.92578409523483e-09 5.91801188341196e-08
"602" 10208 1.95840945952299e-08 2.75523692138786e-08 7.78737498330643e-10 9.74527915021538e-10 1.37675206779579e-08 1.92264732455048e-09 8.91860550529115e-09 5.91801188341196e-08
"603" 10209 1.95776427956014e-08 2.74703212231808e-08 7.79014882800053e-10 9.72680064299801e-10 1.37774031971565e-08 1.92081732921212e-09 8.91142691534747e-09 5.91801188341196e-08
"604" 10210 1.9571190995973e-08 2.7388273232483e-08 7.79292267269462e-10 9.70832213578064e-10 1.37872857163552e-08 1.91898733387375e-09 8.90424832540379e-09 5.91801188341196e-08
"605" 10211 1.95647391963445e-08 2.73062252417852e-08 7.79569651738871e-10 9.68984362856328e-10 1.37971682355538e-08 1.91715733853539e-09 8.89706973546011e-09 5.91801188341196e-08
"606" 10212 1.9558287396716e-08 2.72241772510874e-08 7.79847036208281e-10 9.67136512134591e-10 1.38070507547524e-08 1.91532734319702e-09 8.88989114551643e-09 5.91801188341196e-08
"607" 10213 1.95518355970875e-08 2.71421292603897e-08 7.8012442067769e-10 9.65288661412854e-10 1.3816933273951e-08 1.91349734785865e-09 8.88271255557275e-09 5.91801188341196e-08
"608" 10214 1.9545383797459e-08 2.70600812696919e-08 7.80401805147099e-10 9.63440810691117e-10 1.38268157931496e-08 1.91166735252029e-09 8.87553396562907e-09 5.91801188341196e-08
"609" 10215 1.95503163652609e-08 2.70089717227414e-08 7.80401805147099e-10 9.65149656164569e-10 1.38369389245266e-08 1.90750490700053e-09 8.86835537568539e-09 5.9170937283884e-08
"610" 10216 1.9561977590935e-08 2.69335053642615e-08 7.80401805147099e-10 9.63228224569287e-10 1.38379179221319e-08 1.90351118033705e-09 8.85414954920523e-09 5.94036051594182e-08
"611" 10217 1.95736388166091e-08 2.68580390057817e-08 7.80401805147099e-10 9.61306792974004e-10 1.38388969197372e-08 1.89951745367357e-09 8.83994372272509e-09 5.96362730349524e-08
"612" 10218 1.95853000422832e-08 2.67825726473018e-08 7.80401805147099e-10 9.59385361378722e-10 1.38398759173425e-08 1.8955237270101e-09 8.82573789624493e-09 5.98689409104866e-08
"613" 10219 1.95969612679573e-08 2.6707106288822e-08 7.80401805147099e-10 9.5746392978344e-10 1.38408549149479e-08 1.89153000034662e-09 8.81153206976478e-09 6.01016087860208e-08
"614" 10220 1.96086224936313e-08 2.66316399303421e-08 7.80401805147099e-10 9.55542498188157e-10 1.38418339125532e-08 1.88753627368314e-09 8.79732624328463e-09 6.0334276661555e-08
"615" 10221 1.96086224936313e-08 2.65810701821158e-08 7.79348283091074e-10 9.49336718161037e-10 1.38432746460175e-08 1.88770499253943e-09 8.79906324183461e-09 6.05845365898467e-08
"616" 10222 1.96086224936313e-08 2.65305004338894e-08 7.78294761035048e-10 9.43130938133916e-10 1.38447153794818e-08 1.88787371139571e-09 8.80080024038459e-09 6.08347965181385e-08
"617" 10223 1.96086224936313e-08 2.6479930685663e-08 7.77241238979022e-10 9.36925158106795e-10 1.38461561129461e-08 1.88804243025199e-09 8.80253723893456e-09 6.10850564464303e-08
"618" 10224 1.96086224936313e-08 2.64293609374366e-08 7.76187716922997e-10 9.30719378079675e-10 1.38475968464104e-08 1.88821114910828e-09 8.80427423748454e-09 6.1335316374722e-08
"619" 10225 1.96086224936313e-08 2.63787911892102e-08 7.75134194866971e-10 9.24513598052554e-10 1.38490375798747e-08 1.88837986796456e-09 8.80601123603451e-09 6.15855763030138e-08
"620" 10226 1.96086224936313e-08 2.63282214409838e-08 7.74080672810946e-10 9.18307818025434e-10 1.3850478313339e-08 1.88854858682084e-09 8.80774823458449e-09 6.18358362313056e-08
"621" 10227 1.96086224936313e-08 2.62776516927574e-08 7.7302715075492e-10 9.12102037998313e-10 1.38519190468033e-08 1.88871730567713e-09 8.80948523313447e-09 6.20860961595973e-08
"622" 10228 1.96283347279985e-08 2.62840533920673e-08 7.70698737995071e-10 9.12314624120144e-10 1.38307493123314e-08 1.88888602453341e-09 8.81167629190608e-09 6.19614420305308e-08
"623" 10229 1.9626529619508e-08 2.62897606548715e-08 7.68370325235222e-10 9.13385711228103e-10 1.38676930803943e-08 1.88905474338969e-09 8.82423450562739e-09 6.21576218494838e-08
"624" 10230 1.96588776133087e-08 2.64831475216927e-08 7.66263281123171e-10 9.17228574418668e-10 1.41779184991657e-08 1.89005595134993e-09 8.82748503824949e-09 6.1775135730502e-08
"625" 10231 1.96912256071094e-08 2.66765343885138e-08 7.6415623701112e-10 9.21071437609233e-10 1.4488143917937e-08 1.89105715931016e-09 8.83073557087158e-09 6.13926496115202e-08
"626" 10232 1.97235736009101e-08 2.6869921255335e-08 7.62049192899068e-10 9.24914300799798e-10 1.47983693367083e-08 1.89205836727039e-09 8.83398610349368e-09 6.10101634925383e-08
"627" 10233 1.97559215947108e-08 2.70633081221561e-08 7.59942148787017e-10 9.28757163990362e-10 1.51085947554797e-08 1.89305957523063e-09 8.83723663611577e-09 6.06276773735565e-08
"628" 10234 1.97882695885115e-08 2.72566949889773e-08 7.57835104674966e-10 9.32600027180927e-10 1.5418820174251e-08 1.89406078319086e-09 8.84048716873786e-09 6.02451912545747e-08
"629" 10235 1.98206175823122e-08 2.74500818557985e-08 7.55728060562915e-10 9.36442890371492e-10 1.57290455930224e-08 1.8950619911511e-09 8.84373770135996e-09 5.98627051355929e-08
"630" 10236 1.98529655761129e-08 2.76434687226196e-08 7.53621016450863e-10 9.40285753562056e-10 1.60392710117937e-08 1.89606319911133e-09 8.84698823398205e-09 5.94802190166111e-08
"631" 10237 1.99864484845734e-08 2.78550283413636e-08 7.5234612574704e-10 9.40498339683887e-10 1.60304775621064e-08 1.89706440707157e-09 8.85102295181528e-09 5.91259919814195e-08
"632" 10238 2.01199313930339e-08 2.80665879601077e-08 7.51071235043217e-10 9.40710925805718e-10 1.60216841124191e-08 1.8980656150318e-09 8.8550576696485e-09 5.87717649462279e-08
"633" 10239 2.02534143014944e-08 2.82781475788517e-08 7.49796344339394e-10 9.40923511927548e-10 1.60128906627319e-08 1.89906682299204e-09 8.85909238748173e-09 5.84175379110362e-08
"634" 10240 2.03868972099548e-08 2.84897071975957e-08 7.4852145363557e-10 9.41136098049379e-10 1.60040972130446e-08 1.90006803095227e-09 8.86312710531496e-09 5.80633108758446e-08
"635" 10241 2.05203801184153e-08 2.87012668163397e-08 7.47246562931747e-10 9.4134868417121e-10 1.59953037633573e-08 1.90106923891251e-09 8.86716182314819e-09 5.7709083840653e-08
"636" 10242 2.06538630268758e-08 2.89128264350837e-08 7.45971672227924e-10 9.4156127029304e-10 1.598651031367e-08 1.90207044687274e-09 8.87119654098142e-09 5.73548568054614e-08
"637" 10243 2.078364876409e-08 2.91221132667566e-08 7.4292313770307e-10 9.41487689419495e-10 1.60003458405481e-08 1.89042670459488e-09 8.85449694891523e-09 5.71410966195912e-08
"638" 10244 2.09134345013041e-08 2.93314000984295e-08 7.39874603178217e-10 9.41414108545949e-10 1.60141813674261e-08 1.87878296231701e-09 8.83779735684905e-09 5.6927336433721e-08
"639" 10245 2.09904163898847e-08 2.95122012063343e-08 7.3705013193981e-10 9.39492676950667e-10 1.60231033976485e-08 1.86466396308222e-09 8.78754009597736e-09 5.69519910164304e-08
"640" 10246 2.10673982784653e-08 2.96930023142391e-08 7.34225660701403e-10 9.37571245355384e-10 1.6032025427871e-08 1.85054496384742e-09 8.73728283510567e-09 5.69766455991397e-08
"641" 10247 2.11443801670459e-08 2.98738034221438e-08 7.31401189462996e-10 9.35649813760102e-10 1.60409474580934e-08 1.83642596461263e-09 8.68702557423398e-09 5.70013001818491e-08
"642" 10248 2.12213620556264e-08 3.00546045300486e-08 7.28576718224589e-10 9.3372838216482e-10 1.60498694883158e-08 1.82230696537783e-09 8.6367683133623e-09 5.70259547645584e-08
"643" 10249 2.1298343944207e-08 3.02354056379533e-08 7.25752246986182e-10 9.31806950569537e-10 1.60587915185382e-08 1.80818796614304e-09 8.58651105249061e-09 5.70506093472677e-08
"644" 10250 2.13753258327876e-08 3.04162067458581e-08 7.22927775747775e-10 9.29885518974255e-10 1.60677135487606e-08 1.79406896690824e-09 8.53625379161892e-09 5.70752639299771e-08
"645" 10251 2.14523077213682e-08 3.05970078537629e-08 7.20103304509368e-10 9.27964087378973e-10 1.6076635578983e-08 1.77994996767345e-09 8.48599653074723e-09 5.70999185126864e-08
"646" 10252 2.13995038727347e-08 3.0569781660351e-08 7.17278833270961e-10 9.26901156769819e-10 1.60820848460141e-08 1.76466474334796e-09 8.47886263369912e-09 5.72539307751976e-08
"647" 10253 2.13467000241012e-08 3.05425554669391e-08 7.14454362032554e-10 9.25838226160666e-10 1.60875341130452e-08 1.74937951902246e-09 8.47172873665101e-09 5.74079430377087e-08
"648" 10254 2.12938961754676e-08 3.05153292735271e-08 7.11629890794147e-10 9.24775295551512e-10 1.60929833800762e-08 1.73409429469697e-09 8.4645948396029e-09 5.75619553002199e-08
"649" 10255 2.12410923268341e-08 3.04881030801152e-08 7.0880541955574e-10 9.23712364942359e-10 1.60984326471073e-08 1.71880907037148e-09 8.45746094255480e-09 5.7715967562731e-08
"650" 10256 2.11882884782006e-08 3.04608768867033e-08 7.05980948317334e-10 9.22649434333205e-10 1.61038819141384e-08 1.70352384604599e-09 8.45032704550669e-09 5.78699798252422e-08
"651" 10257 2.11354846295671e-08 3.04336506932914e-08 7.03156477078927e-10 9.21586503724052e-10 1.61093311811694e-08 1.6882386217205e-09 8.44319314845857e-09 5.80239920877534e-08
"652" 10258 2.10826807809335e-08 3.04064244998795e-08 7.0033200584052e-10 9.20523573114899e-10 1.61147804482005e-08 1.672953397395e-09 8.43605925141047e-09 5.81780043502645e-08
"653" 10259 2.10298769323e-08 3.03791983064676e-08 6.97507534602113e-10 9.19460642505745e-10 1.61202297152316e-08 1.65766817306951e-09 8.42892535436236e-09 5.83320166127757e-08
"654" 10260 2.09770730836665e-08 3.03519721130557e-08 6.94683063363706e-10 9.18397711896592e-10 1.61256789822627e-08 1.64238294874402e-09 8.42179145731425e-09 5.84860288752868e-08
"655" 10261 2.0924269235033e-08 3.03247459196438e-08 6.91858592125299e-10 9.17334781287438e-10 1.61311282492937e-08 1.62709772441853e-09 8.41465756026614e-09 5.8640041137798e-08
"656" 10262 2.08714653863994e-08 3.02975197262319e-08 6.89034120886892e-10 9.16271850678285e-10 1.61365775163248e-08 1.61181250009304e-09 8.40752366321803e-09 5.87940534003091e-08
"657" 10263 2.08186615377659e-08 3.027029353282e-08 6.86209649648485e-10 9.15208920069131e-10 1.61420267833559e-08 1.59652727576754e-09 8.40038976616992e-09 5.89480656628203e-08
"658" 10264 2.07658576891324e-08 3.02430673394081e-08 6.83385178410078e-10 9.14145989459978e-10 1.61474760503869e-08 1.58124205144205e-09 8.39325586912181e-09 5.91020779253314e-08
"659" 10265 2.07130538404988e-08 3.02158411459962e-08 6.80560707171671e-10 9.13083058850824e-10 1.6152925317418e-08 1.56595682711656e-09 8.3861219720737e-09 5.92560901878426e-08
"660" 10266 2.06899922519468e-08 3.02136662006193e-08 6.79453863932683e-10 9.13230220597916e-10 1.61627523107293e-08 1.56562309112981e-09 8.41688316847874e-09 5.93318665114228e-08
"661" 10267 2.0673977188826e-08 3.02008628019995e-08 6.78347020693695e-10 9.05544494216786e-10 1.61454800580495e-08 1.56363178038681e-09 8.46423729643833e-09 5.91812206056313e-08
"662" 10268 2.06579621257052e-08 3.01880594033797e-08 6.77240177454706e-10 8.97858767835657e-10 1.61282078053697e-08 1.5616404696438e-09 8.51159142439792e-09 5.90305746998399e-08
"663" 10269 2.06419470625844e-08 3.01752560047599e-08 6.76133334215718e-10 8.90173041454528e-10 1.61109355526899e-08 1.55964915890079e-09 8.55894555235751e-09 5.88799287940484e-08
"664" 10270 2.06259319994636e-08 3.01624526061401e-08 6.7502649097673e-10 8.82487315073398e-10 1.60936633000101e-08 1.55765784815779e-09 8.6062996803171e-09 5.8729282888257e-08
"665" 10271 2.06099169363429e-08 3.01496492075203e-08 6.73919647737741e-10 8.74801588692269e-10 1.60763910473303e-08 1.55566653741478e-09 8.65365380827669e-09 5.85786369824656e-08
"666" 10272 2.05939018732221e-08 3.01368458089005e-08 6.72812804498753e-10 8.67115862311139e-10 1.60591187946505e-08 1.55367522667177e-09 8.70100793623628e-09 5.84279910766741e-08
"667" 10273 2.05778868101013e-08 3.01240424102807e-08 6.71705961259765e-10 8.5943013593001e-10 1.60418465419707e-08 1.55168391592876e-09 8.74836206419586e-09 5.82773451708827e-08
"668" 10274 2.05735009817594e-08 3.01384652050728e-08 6.69766964612548e-10 8.50959489436298e-10 1.60245742892909e-08 1.55052139256389e-09 8.75074916927026e-09 5.79973415852894e-08
"669" 10275 2.05691151534175e-08 3.01869010535292e-08 6.67883983786944e-10 8.43273763055168e-10 1.59974195174124e-08 1.54869509895134e-09 8.7673421008248e-09 5.76940098324479e-08
"670" 10276 2.05647293250756e-08 3.02353369019857e-08 6.66001002961339e-10 8.35588036674039e-10 1.5970264745534e-08 1.5468688053388e-09 8.78393503237935e-09 5.73906780796063e-08
"671" 10277 2.05603434967337e-08 3.02837727504421e-08 6.64118022135734e-10 8.2790231029291e-10 1.59431099736556e-08 1.54504251172625e-09 8.80052796393390e-09 5.70873463267647e-08
"672" 10278 2.05559576683918e-08 3.03322085988985e-08 6.6223504131013e-10 8.2021658391178e-10 1.59159552017772e-08 1.54321621811371e-09 8.81712089548844e-09 5.67840145739231e-08
