"time" "channel1" "channel2" "channel3" "channel4" "channel5" "channel6" "channel7" "channel8"
"1" 13859 2.7595860069042e-09 3.62887221613155e-09 9.4896128487145e-09 9.37695896309479e-08 4.73200741022375e-07 2.11776704425734e-07 3.32940004190775e-08 4.32464599494754e-08
"2" 13860 2.75305077014482e-09 3.61097922958561e-09 9.37333260969832e-09 9.28973348104163e-08 4.74787325453644e-07 2.09516553513389e-07 3.30381254073159e-08 4.3147422623062e-08
"3" 13861 2.74819519252137e-09 3.59308624303967e-09 9.25705237068213e-09 9.19781149418252e-08 4.78761272929507e-07 2.06693718345177e-07 3.26177283821947e-08 4.316031198307e-08
"4" 13862 2.74333961489791e-09 3.57519325649373e-09 9.14077213166595e-09 9.10588950732341e-08 4.82735220405369e-07 2.03870883176965e-07 3.21973313570736e-08 4.3173201343078e-08
"5" 13863 2.73848403727445e-09 3.55730026994779e-09 9.02449189264977e-09 9.0139675204643e-08 4.86709167881232e-07 2.01048048008754e-07 3.17769343319524e-08 4.31860907030861e-08
"6" 13864 2.73362845965099e-09 3.53940728340185e-09 8.90821165363359e-09 8.92204553360519e-08 4.90683115357094e-07 1.98225212840542e-07 3.13565373068312e-08 4.31989800630941e-08
"7" 13865 2.72877288202753e-09 3.52151429685591e-09 8.7919314146174e-09 8.83012354674609e-08 4.94657062832957e-07 1.9540237767233e-07 3.09361402817101e-08 4.32118694231021e-08
"8" 13866 2.72391730440408e-09 3.50362131030997e-09 8.67565117560122e-09 8.73820155988698e-08 4.98631010308819e-07 1.92579542504118e-07 3.05157432565889e-08 4.32247587831101e-08
"9" 13867 2.71906172678062e-09 3.48572832376403e-09 8.55937093658504e-09 8.64627957302787e-08 5.02604957784682e-07 1.89756707335906e-07 3.00953462314677e-08 4.32376481431181e-08
"10" 13868 2.71420614915716e-09 3.46783533721809e-09 8.44309069756885e-09 8.55435758616876e-08 5.06578905260545e-07 1.86933872167694e-07 2.96749492063466e-08 4.32505375031261e-08
"11" 13869 2.7093505715337e-09 3.44994235067215e-09 8.32681045855267e-09 8.46243559930965e-08 5.10552852736407e-07 1.84111036999483e-07 2.92545521812254e-08 4.32634268631341e-08
"12" 13870 2.70449499391024e-09 3.4320493641262e-09 8.21053021953649e-09 8.37051361245054e-08 5.1452680021227e-07 1.81288201831271e-07 2.88341551561042e-08 4.32763162231422e-08
"13" 13871 2.69963941628678e-09 3.41415637758026e-09 8.0942499805203e-09 8.27859162559143e-08 5.18500747688132e-07 1.78465366663059e-07 2.84137581309831e-08 4.32892055831502e-08
"14" 13872 2.70305018079431e-09 3.41409425190675e-09 8.0777314000259e-09 8.2372279873803e-08 5.2074696105009e-07 1.78706994207351e-07 2.8420040465242e-08 4.32892055831502e-08
"15" 13873 2.69740288187918e-09 3.39601488834028e-09 8.01740548106078e-09 8.2390739592e-08 5.23173857148204e-07 1.78258135708175e-07 2.82737238958147e-08 4.33558533838261e-08
"16" 13874 2.70071075391533e-09 3.38476188036637e-09 7.96557053822473e-09 8.24849629611299e-08 5.21661302163325e-07 1.77507810874428e-07 2.81651062194856e-08 4.33458001004426e-08
"17" 13875 2.70401862595148e-09 3.38051212459119e-09 7.91373559538868e-09 8.24787256207347e-08 5.22235813352957e-07 1.77008830582919e-07 2.80068244627903e-08 4.33357468170591e-08
"18" 13876 2.70732649798763e-09 3.37626236881601e-09 7.86190065255263e-09 8.24724882803394e-08 5.2281032454259e-07 1.7650985029141e-07 2.78485427060949e-08 4.33256935336756e-08
"19" 13877 2.71063437002378e-09 3.37201261304083e-09 7.81006570971659e-09 8.24662509399442e-08 5.23384835732222e-07 1.76010869999901e-07 2.76902609493995e-08 4.33156402502921e-08
"20" 13878 2.71394224205994e-09 3.36776285726566e-09 7.75823076688054e-09 8.24600135995489e-08 5.23959346921855e-07 1.75511889708392e-07 2.75319791927041e-08 4.33055869669086e-08
"21" 13879 2.71725011409609e-09 3.36351310149048e-09 7.70639582404449e-09 8.24537762591537e-08 5.24533858111487e-07 1.75012909416883e-07 2.73736974360088e-08 4.32955336835251e-08
"22" 13880 2.72055798613224e-09 3.3592633457153e-09 7.65456088120844e-09 8.24475389187585e-08 5.2510836930112e-07 1.74513929125374e-07 2.72154156793134e-08 4.32854804001416e-08
"23" 13881 2.72386585816839e-09 3.35501358994012e-09 7.60272593837239e-09 8.24413015783632e-08 5.25682880490752e-07 1.74014948833865e-07 2.7057133922618e-08 4.32754271167581e-08
"24" 13882 2.72717373020454e-09 3.35076383416495e-09 7.55089099553635e-09 8.2435064237968e-08 5.26257391680384e-07 1.73515968542356e-07 2.68988521659226e-08 4.32653738333746e-08
"25" 13883 2.73048160224069e-09 3.34651407838977e-09 7.4990560527003e-09 8.24288268975727e-08 5.26831902870017e-07 1.73016988250847e-07 2.67405704092272e-08 4.32553205499911e-08
"26" 13884 2.73378947427684e-09 3.34226432261459e-09 7.44722110986425e-09 8.24225895571775e-08 5.27406414059649e-07 1.72518007959338e-07 2.65822886525319e-08 4.32452672666076e-08
"27" 13885 2.73709734631299e-09 3.33801456683941e-09 7.3953861670282e-09 8.24163522167822e-08 5.27980925249282e-07 1.72019027667829e-07 2.64240068958365e-08 4.32352139832241e-08
"28" 13886 2.74040521834915e-09 3.33376481106423e-09 7.34355122419215e-09 8.2410114876387e-08 5.28555436438914e-07 1.71520047376319e-07 2.62657251391411e-08 4.32251606998406e-08
"29" 13887 2.7437130903853e-09 3.32951505528906e-09 7.2917162813561e-09 8.24038775359917e-08 5.29129947628547e-07 1.7102106708481e-07 2.61074433824457e-08 4.32151074164571e-08
"30" 13888 2.74702096242145e-09 3.32526529951388e-09 7.23988133852006e-09 8.23976401955965e-08 5.29704458818179e-07 1.70522086793301e-07 2.59491616257504e-08 4.32050541330735e-08
"31" 13889 2.7503288344576e-09 3.3210155437387e-09 7.18804639568401e-09 8.23914028552013e-08 5.30278970007812e-07 1.70023106501792e-07 2.5790879869055e-08 4.319500084969e-08
"32" 13890 2.75363670649375e-09 3.31676578796352e-09 7.13621145284796e-09 8.2385165514806e-08 5.30853481197444e-07 1.69524126210283e-07 2.56325981123596e-08 4.31849475663065e-08
"33" 13891 2.7569445785299e-09 3.31251603218835e-09 7.08437651001191e-09 8.23789281744108e-08 5.31427992387077e-07 1.69025145918774e-07 2.54743163556642e-08 4.3174894282923e-08
"34" 13892 2.76025245056605e-09 3.30826627641317e-09 7.03254156717586e-09 8.23726908340155e-08 5.32002503576709e-07 1.68526165627265e-07 2.53160345989688e-08 4.31648409995395e-08
"35" 13893 2.7635603226022e-09 3.30401652063799e-09 6.98070662433982e-09 8.23664534936203e-08 5.32577014766342e-07 1.68027185335756e-07 2.51577528422735e-08 4.3154787716156e-08
"36" 13894 2.77251549355348e-09 3.31982043234028e-09 6.98397229684668e-09 8.23417564350281e-08 5.33361048844214e-07 1.67922452973036e-07 2.51589469172279e-08 4.30061585352984e-08
"37" 13895 2.78275446299484e-09 3.32357143499825e-09 6.99000488874319e-09 8.23388871413891e-08 5.34088704716757e-07 1.6817378979275e-07 2.45040322216508e-08 4.30878951927583e-08
"38" 13896 2.79299343243621e-09 3.32732243765622e-09 6.9960374806397e-09 8.23360178477501e-08 5.34816360589299e-07 1.68425126612464e-07 2.38491175260737e-08 4.31696318502182e-08
"39" 13897 2.81482900120315e-09 3.34509117285514e-09 7.01959719434541e-09 8.23550702798269e-08 5.33614666176078e-07 1.69260091457706e-07 2.32710303607257e-08 4.31563808118944e-08
"40" 13898 2.83666456997009e-09 3.36285990805406e-09 7.04315690805112e-09 8.23741227119037e-08 5.32412971762857e-07 1.70095056302948e-07 2.26929431953777e-08 4.31431297735706e-08
"41" 13899 2.85850013873704e-09 3.38062864325297e-09 7.06671662175683e-09 8.23931751439806e-08 5.31211277349636e-07 1.70930021148189e-07 2.21148560300298e-08 4.31298787352467e-08
"42" 13900 2.88033570750398e-09 3.39839737845189e-09 7.09027633546255e-09 8.24122275760574e-08 5.30009582936414e-07 1.71764985993431e-07 2.15367688646818e-08 4.31166276969229e-08
"43" 13901 2.90217127627092e-09 3.41616611365081e-09 7.11383604916826e-09 8.24312800081343e-08 5.28807888523193e-07 1.72599950838672e-07 2.09586816993338e-08 4.3103376658599e-08
"44" 13902 2.92400684503786e-09 3.43393484884973e-09 7.13739576287397e-09 8.24503324402111e-08 5.27606194109972e-07 1.73434915683914e-07 2.03805945339858e-08 4.30901256202752e-08
"45" 13903 2.94584241380481e-09 3.45170358404865e-09 7.16095547657968e-09 8.2469384872288e-08 5.26404499696751e-07 1.74269880529156e-07 1.98025073686379e-08 4.30768745819514e-08
"46" 13904 2.96767798257175e-09 3.46947231924757e-09 7.18451519028540e-09 8.24884373043648e-08 5.25202805283529e-07 1.75104845374397e-07 1.92244202032899e-08 4.30636235436275e-08
"47" 13905 2.98951355133869e-09 3.48724105444649e-09 7.20807490399111e-09 8.25074897364417e-08 5.24001110870308e-07 1.75939810219639e-07 1.86463330379419e-08 4.30503725053037e-08
"48" 13906 3.01134912010563e-09 3.50500978964541e-09 7.23163461769682e-09 8.25265421685185e-08 5.22799416457087e-07 1.76774775064881e-07 1.80682458725939e-08 4.30371214669798e-08
"49" 13907 3.03476145553712e-09 3.52888781359783e-09 7.25271273895305e-09 8.25527062221608e-08 5.20409132591329e-07 1.77611492303241e-07 1.8117828775007e-08 4.30313710926915e-08
"50" 13908 3.02813903554603e-09 3.47796409811269e-09 7.18239958450724e-09 8.25802433100904e-08 5.20591660401053e-07 1.77967700491108e-07 1.79962777304442e-08 4.29157780770235e-08
"51" 13909 3.02151661555493e-09 3.42704038262754e-09 7.11208643006143e-09 8.26077803980201e-08 5.20774188210776e-07 1.78323908678975e-07 1.78747266858814e-08 4.28001850613555e-08
"52" 13910 3.01489419556384e-09 3.3761166671424e-09 7.04177327561563e-09 8.26353174859498e-08 5.209567160205e-07 1.78680116866842e-07 1.77531756413186e-08 4.26845920456875e-08
"53" 13911 3.00827177557274e-09 3.32519295165725e-09 6.97146012116982e-09 8.26628545738795e-08 5.21139243830223e-07 1.79036325054709e-07 1.76316245967557e-08 4.25689990300195e-08
"54" 13912 3.00164935558165e-09 3.27426923617211e-09 6.90114696672402e-09 8.26903916618091e-08 5.21321771639947e-07 1.79392533242576e-07 1.75100735521929e-08 4.24534060143515e-08
"55" 13913 2.99502693559055e-09 3.22334552068697e-09 6.83083381227821e-09 8.27179287497388e-08 5.2150429944967e-07 1.79748741430443e-07 1.73885225076301e-08 4.23378129986835e-08
"56" 13914 2.98840451559946e-09 3.17242180520182e-09 6.7605206578324e-09 8.27454658376685e-08 5.21686827259394e-07 1.8010494961831e-07 1.72669714630673e-08 4.22222199830156e-08
"57" 13915 2.97139546337874e-09 3.13058866902995e-09 6.68095793152943e-09 8.26394310509494e-08 5.2169406290876e-07 1.80927940527477e-07 1.71803801018484e-08 4.21569809129782e-08
"58" 13916 2.99194723365559e-09 3.16041031327318e-09 6.70697602946769e-09 8.24168931999124e-08 5.20094544194747e-07 1.81718034967849e-07 1.72572076320775e-08 4.21503701072567e-08
"59" 13917 3.01249900393245e-09 3.19023195751642e-09 6.73299412740596e-09 8.21943553488754e-08 5.18495025480734e-07 1.82508129408221e-07 1.73340351623066e-08 4.21437593015353e-08
"60" 13918 3.03305077420931e-09 3.22005360175965e-09 6.75901222534423e-09 8.19718174978384e-08 5.16895506766721e-07 1.83298223848593e-07 1.74108626925358e-08 4.21371484958139e-08
"61" 13919 3.03019020905468e-09 3.22376318730195e-09 6.75534290870022e-09 8.18795068861353e-08 5.15431209285748e-07 1.83255598798067e-07 1.74381073203518e-08 4.21325032756803e-08
"62" 13920 3.05074197933154e-09 3.25931013811414e-09 6.76350100339909e-09 8.18133837395156e-08 5.15088831559214e-07 1.8410443219904e-07 1.75607810370054e-08 4.23248562291698e-08
"63" 13921 3.0712937496084e-09 3.29485708892634e-09 6.77165909809797e-09 8.1747260592896e-08 5.1474645383268e-07 1.84953265600013e-07 1.76834547536591e-08 4.25172091826593e-08
"64" 13922 3.09184551988526e-09 3.33040403973854e-09 6.77981719279684e-09 8.16811374462764e-08 5.14404076106147e-07 1.85802099000986e-07 1.78061284703128e-08 4.27095621361487e-08
"65" 13923 3.11239729016212e-09 3.36595099055073e-09 6.78797528749571e-09 8.16150142996567e-08 5.14061698379613e-07 1.86650932401959e-07 1.79288021869665e-08 4.29019150896382e-08
"66" 13924 3.13294906043897e-09 3.40149794136293e-09 6.79613338219459e-09 8.15488911530371e-08 5.13719320653079e-07 1.87499765802932e-07 1.80514759036202e-08 4.30942680431277e-08
"67" 13925 3.15350083071583e-09 3.43704489217512e-09 6.80429147689346e-09 8.14827680064174e-08 5.13376942926546e-07 1.88348599203906e-07 1.81741496202739e-08 4.32866209966172e-08
"68" 13926 3.17405260099269e-09 3.47259184298732e-09 6.81244957159234e-09 8.14166448597978e-08 5.13034565200012e-07 1.89197432604879e-07 1.82968233369276e-08 4.34789739501066e-08
"69" 13927 3.19460437126955e-09 3.50813879379952e-09 6.82060766629121e-09 8.13505217131782e-08 5.12692187473479e-07 1.90046266005852e-07 1.84194970535812e-08 4.36713269035961e-08
"70" 13928 3.21515614154641e-09 3.54368574461171e-09 6.82876576099008e-09 8.12843985665585e-08 5.12349809746945e-07 1.90895099406825e-07 1.85421707702349e-08 4.38636798570856e-08
"71" 13929 3.23570791182327e-09 3.57923269542391e-09 6.83692385568896e-09 8.12182754199389e-08 5.12007432020411e-07 1.91743932807798e-07 1.86648444868886e-08 4.40560328105751e-08
"72" 13930 3.250612383185e-09 3.57273942448586e-09 6.70476531470948e-09 8.03088667336032e-08 5.116022638025e-07 1.90246712631932e-07 1.87511190010758e-08 4.42483857640645e-08
"73" 13931 3.26832597346567e-09 3.60826566674022e-09 6.71659272605237e-09 8.04922024006291e-08 5.09077669595734e-07 1.91108511683322e-07 1.88516363492179e-08 4.44473495232754e-08
"74" 13932 3.26194507541335e-09 3.6080059359027e-09 6.71659272605237e-09 8.04903364660848e-08 5.07585705776165e-07 1.91282366722604e-07 1.88722622455642e-08 4.4636728573409e-08
"75" 13933 3.25782309692709e-09 3.62803889482232e-09 6.73251744444951e-09 8.04903364660848e-08 5.050611115694e-07 1.91310293035905e-07 1.88501058770527e-08 4.46797584162902e-08
"76" 13934 3.25370111844082e-09 3.64807185374195e-09 6.74844216284666e-09 8.04903364660848e-08 5.02536517362634e-07 1.91338219349207e-07 1.88279495085411e-08 4.47227882591714e-08
"77" 13935 3.24957913995455e-09 3.66810481266158e-09 6.7643668812438e-09 8.04903364660848e-08 5.00011923155868e-07 1.91366145662509e-07 1.88057931400296e-08 4.47658181020526e-08
"78" 13936 3.24545716146828e-09 3.6881377715812e-09 6.78029159964095e-09 8.04903364660848e-08 4.97487328949102e-07 1.9139407197581e-07 1.87836367715181e-08 4.48088479449338e-08
"79" 13937 3.24133518298202e-09 3.70817073050083e-09 6.79621631803809e-09 8.04903364660848e-08 4.94962734742337e-07 1.91421998289112e-07 1.87614804030065e-08 4.48518777878149e-08
"80" 13938 3.23721320449575e-09 3.72820368942046e-09 6.81214103643524e-09 8.04903364660848e-08 4.92438140535571e-07 1.91449924602413e-07 1.8739324034495e-08 4.48949076306961e-08
"81" 13939 3.23309122600948e-09 3.74823664834009e-09 6.82806575483239e-09 8.04903364660848e-08 4.89913546328805e-07 1.91477850915715e-07 1.87171676659835e-08 4.49379374735773e-08
"82" 13940 3.22896924752322e-09 3.76826960725971e-09 6.84399047322953e-09 8.04903364660848e-08 4.8738895212204e-07 1.91505777229016e-07 1.8695011297472e-08 4.49809673164585e-08
"83" 13941 3.22484726903695e-09 3.78830256617934e-09 6.85991519162668e-09 8.04903364660848e-08 4.84864357915274e-07 1.91533703542318e-07 1.86728549289604e-08 4.50239971593397e-08
"84" 13942 3.22072529055068e-09 3.80833552509897e-09 6.87583991002382e-09 8.04903364660848e-08 4.82339763708508e-07 1.9156162985562e-07 1.86506985604489e-08 4.50670270022209e-08
"85" 13943 3.21660331206441e-09 3.82836848401859e-09 6.89176462842097e-09 8.04903364660848e-08 4.79815169501743e-07 1.91589556168921e-07 1.86285421919374e-08 4.51100568451021e-08
"86" 13944 3.21248133357815e-09 3.84840144293822e-09 6.90768934681811e-09 8.04903364660848e-08 4.77290575294977e-07 1.91617482482223e-07 1.86063858234258e-08 4.51530866879832e-08
"87" 13945 3.20835935509188e-09 3.86843440185785e-09 6.92361406521526e-09 8.04903364660848e-08 4.74765981088211e-07 1.91645408795524e-07 1.85842294549143e-08 4.51961165308644e-08
"88" 13946 3.20423737660561e-09 3.88846736077747e-09 6.9395387836124e-09 8.04903364660848e-08 4.72241386881445e-07 1.91673335108826e-07 1.85620730864028e-08 4.52391463737456e-08
"89" 13947 3.20011539811934e-09 3.9085003196971e-09 6.95546350200955e-09 8.04903364660848e-08 4.6971679267468e-07 1.91701261422127e-07 1.85399167178912e-08 4.52821762166268e-08
"90" 13948 3.19599341963308e-09 3.92853327861673e-09 6.97138822040669e-09 8.04903364660848e-08 4.67192198467914e-07 1.91729187735429e-07 1.85177603493797e-08 4.5325206059508e-08
"91" 13949 3.19187144114681e-09 3.94856623753636e-09 6.98731293880384e-09 8.04903364660848e-08 4.64667604261148e-07 1.91757114048731e-07 1.84956039808682e-08 4.53682359023892e-08
"92" 13950 3.18774946266054e-09 3.96859919645598e-09 7.00323765720098e-09 8.04903364660848e-08 4.62143010054383e-07 1.91785040362032e-07 1.84734476123567e-08 4.54112657452703e-08
"93" 13951 3.18362748417427e-09 3.98863215537561e-09 7.01916237559813e-09 8.04903364660848e-08 4.59618415847617e-07 1.91812966675334e-07 1.84512912438451e-08 4.54542955881515e-08
"94" 13952 3.17950550568801e-09 4.00866511429524e-09 7.03508709399528e-09 8.04903364660848e-08 4.57093821640851e-07 1.91840892988635e-07 1.84291348753336e-08 4.54973254310327e-08
"95" 13953 3.16115453282272e-09 4.02492636199906e-09 7.05028745996162e-09 8.03515891387386e-08 4.57986764585015e-07 1.91094548526671e-07 1.84223440128679e-08 4.53369329154591e-08
"96" 13954 3.14280355995743e-09 4.04118760970288e-09 7.06548782592797e-09 8.02128418113924e-08 4.58879707529178e-07 1.90348204064706e-07 1.84155531504022e-08 4.51765403998855e-08
"97" 13955 3.12445258709215e-09 4.05744885740669e-09 7.08068819189432e-09 8.00740944840462e-08 4.59772650473342e-07 1.89601859602741e-07 1.84087622879365e-08 4.50161478843119e-08
"98" 13956 3.11022359271313e-09 4.05744885740669e-09 7.08609154034009e-09 7.9967877628662e-08 4.59630611552227e-07 1.88821854131943e-07 1.84271007625063e-08 4.51108815497003e-08
"99" 13957 3.09599459833411e-09 4.05744885740669e-09 7.09149488878586e-09 7.98616607732779e-08 4.59488572631112e-07 1.88041848661144e-07 1.84454392370761e-08 4.52056152150886e-08
"100" 13958 3.08176560395509e-09 4.05744885740669e-09 7.09689823723163e-09 7.97554439178937e-08 4.59346533709998e-07 1.87261843190346e-07 1.8463777711646e-08 4.53003488804769e-08
"101" 13959 3.06753660957607e-09 4.05744885740669e-09 7.10230158567741e-09 7.96492270625096e-08 4.59204494788883e-07 1.86481837719547e-07 1.84821161862158e-08 4.53950825458652e-08
"102" 13960 3.05330761519705e-09 4.05744885740669e-09 7.10770493412318e-09 7.95430102071254e-08 4.59062455867769e-07 1.85701832248748e-07 1.85004546607856e-08 4.54898162112535e-08
"103" 13961 3.03907862081804e-09 4.05744885740669e-09 7.11310828256895e-09 7.94367933517413e-08 4.58920416946654e-07 1.8492182677795e-07 1.85187931353555e-08 4.55845498766419e-08
"104" 13962 3.02484962643902e-09 4.05744885740669e-09 7.11851163101472e-09 7.93305764963571e-08 4.58778378025539e-07 1.84141821307151e-07 1.85371316099253e-08 4.56792835420302e-08
"105" 13963 3.01062063206e-09 4.05744885740669e-09 7.12391497946049e-09 7.9224359640973e-08 4.58636339104425e-07 1.83361815836353e-07 1.85554700844951e-08 4.57740172074185e-08
"106" 13964 2.99639163768098e-09 4.05744885740669e-09 7.12931832790626e-09 7.91181427855888e-08 4.5849430018331e-07 1.82581810365554e-07 1.85738085590649e-08 4.58687508728068e-08
"107" 13965 2.98216264330196e-09 4.05744885740669e-09 7.13472167635203e-09 7.90119259302047e-08 4.58352261262196e-07 1.81801804894756e-07 1.85921470336348e-08 4.59634845381951e-08
"108" 13966 2.98872694113858e-09 4.0612205686225e-09 7.14107497654219e-09 7.9036587871635e-08 4.57200965839275e-07 1.81732198910125e-07 1.85783589648937e-08 4.62629803793111e-08
"109" 13967 2.99529123897519e-09 4.06499227983831e-09 7.14742827673235e-09 7.90612498130654e-08 4.56049670416354e-07 1.81662592925494e-07 1.85645708961527e-08 4.65624762204271e-08
"110" 13968 3.00185553681181e-09 4.06876399105412e-09 7.1537815769225e-09 7.90859117544957e-08 4.54898374993433e-07 1.81592986940863e-07 1.85507828274117e-08 4.68619720615431e-08
"111" 13969 3.00841983464843e-09 4.07253570226993e-09 7.16013487711266e-09 7.9110573695926e-08 4.53747079570512e-07 1.81523380956232e-07 1.85369947586706e-08 4.7161467902659e-08
"112" 13970 3.01498413248504e-09 4.07630741348573e-09 7.16648817730282e-09 7.91352356373564e-08 4.52595784147591e-07 1.81453774971601e-07 1.85232066899296e-08 4.7460963743775e-08
"113" 13971 3.02154843032166e-09 4.08007912470154e-09 7.17284147749297e-09 7.91598975787867e-08 4.5144448872467e-07 1.8138416898697e-07 1.85094186211886e-08 4.7760459584891e-08
"114" 13972 3.02811272815828e-09 4.08385083591735e-09 7.17919477768313e-09 7.91845595202171e-08 4.50293193301749e-07 1.81314563002339e-07 1.84956305524475e-08 4.8059955426007e-08
"115" 13973 3.03467702599489e-09 4.08762254713316e-09 7.18554807787329e-09 7.92092214616474e-08 4.49141897878828e-07 1.81244957017708e-07 1.84818424837065e-08 4.8359451267123e-08
"116" 13974 3.03751520599107e-09 4.09063577439424e-09 7.18958565730097e-09 7.90909113063861e-08 4.46038868332654e-07 1.81035500014791e-07 1.84950066334739e-08 4.86076731254833e-08
"117" 13975 3.04035338598726e-09 4.09364900165531e-09 7.19362323672866e-09 7.89726011511247e-08 4.4293583878648e-07 1.80826043011874e-07 1.85081707832413e-08 4.88558949838437e-08
"118" 13976 3.04600068490239e-09 4.11292347662021e-09 7.24051820288266e-09 7.89917530818269e-08 4.43267461394454e-07 1.81484119755879e-07 1.85267204891655e-08 4.88978978936095e-08
"119" 13977 3.06306785927759e-09 4.12794819580993e-09 7.25058837420686e-09 7.88503829109701e-08 4.3992170229981e-07 1.81663661224919e-07 1.85717999508893e-08 4.88545745338482e-08
"120" 13978 3.08013503365279e-09 4.14297291499965e-09 7.26065854553105e-09 7.87090127401133e-08 4.36575943205166e-07 1.81843202693958e-07 1.86168794126132e-08 4.88112511740869e-08
"121" 13979 3.09720220802799e-09 4.15799763418937e-09 7.27072871685525e-09 7.85676425692565e-08 4.33230184110523e-07 1.82022744162998e-07 1.8661958874337e-08 4.87679278143256e-08
"122" 13980 3.11426938240319e-09 4.17302235337909e-09 7.28079888817944e-09 7.84262723983997e-08 4.29884425015879e-07 1.82202285632037e-07 1.87070383360608e-08 4.87246044545643e-08
"123" 13981 3.1313365567784e-09 4.18804707256881e-09 7.29086905950364e-09 7.8284902227543e-08 4.26538665921235e-07 1.82381827101077e-07 1.87521177977846e-08 4.8681281094803e-08
"124" 13982 3.1484037311536e-09 4.20307179175853e-09 7.30093923082783e-09 7.81435320566862e-08 4.23192906826591e-07 1.82561368570116e-07 1.87971972595084e-08 4.86379577350417e-08
"125" 13983 3.1654709055288e-09 4.21809651094825e-09 7.31100940215203e-09 7.80021618858294e-08 4.19847147731947e-07 1.82740910039156e-07 1.88422767212323e-08 4.85946343752804e-08
"126" 13984 3.182538079904e-09 4.23312123013797e-09 7.32107957347622e-09 7.78607917149726e-08 4.16501388637304e-07 1.82920451508195e-07 1.88873561829561e-08 4.85513110155191e-08
"127" 13985 3.1996052542792e-09 4.24814594932769e-09 7.33114974480042e-09 7.77194215441158e-08 4.1315562954266e-07 1.83099992977235e-07 1.89324356446799e-08 4.85079876557578e-08
"128" 13986 3.21667242865441e-09 4.26317066851741e-09 7.34121991612462e-09 7.75780513732591e-08 4.09809870448016e-07 1.83279534446274e-07 1.89775151064037e-08 4.84646642959965e-08
"129" 13987 3.23373960302961e-09 4.27819538770714e-09 7.35129008744881e-09 7.74366812024023e-08 4.06464111353372e-07 1.83459075915313e-07 1.90225945681275e-08 4.84213409362352e-08
"130" 13988 3.25080677740481e-09 4.29322010689686e-09 7.36136025877301e-09 7.72953110315455e-08 4.03118352258728e-07 1.83638617384353e-07 1.90676740298513e-08 4.83780175764738e-08
"131" 13989 3.26734613758557e-09 4.30926304087883e-09 7.3616931402032e-09 7.71776287073259e-08 4.03286475366329e-07 1.83937060310125e-07 1.90974740510273e-08 4.83168080178588e-08
"132" 13990 3.27955773433731e-09 4.30942870934152e-09 7.37407903228987e-09 7.62836403976015e-08 4.03054401956016e-07 1.84353981234121e-07 1.91090167755866e-08 4.83168080178588e-08
"133" 13991 3.27302249757793e-09 4.29355144382225e-09 7.38291392492951e-09 7.55310222587338e-08 4.04726495528213e-07 1.84367692118266e-07 1.93064790220973e-08 4.83371492477439e-08
"134" 13992 3.26688312146439e-09 4.27994963016716e-09 7.39203414450932e-09 7.46388000699307e-08 4.07899664390753e-07 1.8457520430512e-07 1.92831334661762e-08 4.83509385256696e-08
"135" 13993 3.26074374535085e-09 4.26634781651207e-09 7.40115436408913e-09 7.37465778811276e-08 4.11072833253292e-07 1.84782716491975e-07 1.9259787910255e-08 4.83647278035953e-08
"136" 13994 3.25460436923731e-09 4.25274600285698e-09 7.41027458366894e-09 7.28543556923245e-08 4.14246002115831e-07 1.84990228678829e-07 1.92364423543339e-08 4.8378517081521e-08
"137" 13995 3.24846499312376e-09 4.23914418920189e-09 7.41939480324875e-09 7.19621335035214e-08 4.1741917097837e-07 1.85197740865683e-07 1.92130967984128e-08 4.83923063594467e-08
"138" 13996 3.24232561701022e-09 4.2255423755468e-09 7.42851502282856e-09 7.10699113147183e-08 4.2059233984091e-07 1.85405253052537e-07 1.91897512424917e-08 4.84060956373725e-08
"139" 13997 3.23618624089668e-09 4.21194056189171e-09 7.43763524240837e-09 7.01776891259152e-08 4.23765508703449e-07 1.85612765239391e-07 1.91664056865705e-08 4.84198849152982e-08
"140" 13998 3.23004686478314e-09 4.19833874823662e-09 7.44675546198818e-09 6.92854669371121e-08 4.26938677565988e-07 1.85820277426246e-07 1.91430601306494e-08 4.84336741932239e-08
"141" 13999 3.2239074886696e-09 4.18473693458153e-09 7.45587568156799e-09 6.83932447483089e-08 4.30111846428528e-07 1.860277896131e-07 1.91197145747282e-08 4.84474634711496e-08
"142" 14000 3.21776811255605e-09 4.17113512092645e-09 7.46499590114780e-09 6.75010225595058e-08 4.33285015291067e-07 1.86235301799954e-07 1.90963690188071e-08 4.84612527490753e-08
"143" 14001 3.21162873644251e-09 4.15753330727136e-09 7.47411612072761e-09 6.66088003707027e-08 4.36458184153606e-07 1.86442813986808e-07 1.9073023462886e-08 4.8475042027001e-08
"144" 14002 3.20548936032897e-09 4.14393149361627e-09 7.48323634030742e-09 6.57165781818996e-08 4.39631353016145e-07 1.86650326173662e-07 1.90496779069649e-08 4.84888313049267e-08
"145" 14003 3.19934998421543e-09 4.13032967996118e-09 7.49235655988722e-09 6.48243559930965e-08 4.42804521878685e-07 1.86857838360517e-07 1.90263323510437e-08 4.85026205828525e-08
"146" 14004 3.19321060810188e-09 4.11672786630609e-09 7.50147677946703e-09 6.39321338042934e-08 4.45977690741224e-07 1.87065350547371e-07 1.90029867951226e-08 4.85164098607782e-08
"147" 14005 3.18707123198834e-09 4.103126052651e-09 7.51059699904684e-09 6.30399116154903e-08 4.49150859603763e-07 1.87272862734225e-07 1.89796412392014e-08 4.85301991387039e-08
"148" 14006 3.1809318558748e-09 4.08952423899591e-09 7.51971721862665e-09 6.21476894266871e-08 4.52324028466302e-07 1.87480374921079e-07 1.89562956832803e-08 4.85439884166296e-08
"149" 14007 3.17479247976126e-09 4.07592242534082e-09 7.52883743820646e-09 6.1255467237884e-08 4.55497197328842e-07 1.87687887107933e-07 1.89329501273592e-08 4.85577776945553e-08
"150" 14008 3.16865310364772e-09 4.06232061168574e-09 7.53795765778627e-09 6.03632450490809e-08 4.58670366191381e-07 1.87895399294788e-07 1.8909604571438e-08 4.8571566972481e-08
"151" 14009 3.16251372753417e-09 4.04871879803065e-09 7.54707787736608e-09 5.94710228602778e-08 4.6184353505392e-07 1.88102911481642e-07 1.88862590155169e-08 4.85853562504067e-08
"152" 14010 3.15637435142063e-09 4.03511698437556e-09 7.55619809694589e-09 5.85788006714747e-08 4.6501670391646e-07 1.88310423668496e-07 1.88629134595958e-08 4.85991455283325e-08
"153" 14011 3.15023497530709e-09 4.02151517072047e-09 7.5653183165257e-09 5.76865784826716e-08 4.68189872778999e-07 1.8851793585535e-07 1.88395679036746e-08 4.86129348062582e-08
"154" 14012 3.15267729465744e-09 4.02157729639398e-09 7.51868546909493e-09 5.63063992144376e-08 4.70705482692769e-07 1.87574506686848e-07 1.88091390759802e-08 4.85102110313909e-08
"155" 14013 3.15511961400779e-09 4.02163942206749e-09 7.47205262166417e-09 5.49262199462037e-08 4.73221092606539e-07 1.86631077518347e-07 1.87787102482858e-08 4.84074872565236e-08
"156" 14014 3.19023811715502e-09 4.06143612865486e-09 7.45192445215232e-09 5.35542730308338e-08 4.72242737144448e-07 1.86665243072191e-07 1.88533315346916e-08 4.83580030499997e-08
"157" 14015 3.22535662030225e-09 4.10123283524224e-09 7.43179628264048e-09 5.21823261154639e-08 4.71264381682358e-07 1.86699408626035e-07 1.89279528210975e-08 4.83085188434759e-08
"158" 14016 3.26047512344949e-09 4.14102954182961e-09 7.41166811312864e-09 5.08103792000941e-08 4.70286026220267e-07 1.86733574179879e-07 1.90025741075034e-08 4.8259034636952e-08
"159" 14017 3.29559362659672e-09 4.18082624841699e-09 7.3915399436168e-09 4.94384322847242e-08 4.69307670758177e-07 1.86767739733724e-07 1.90771953939092e-08 4.82095504304281e-08
"160" 14018 3.33071212974395e-09 4.22062295500436e-09 7.37141177410496e-09 4.80664853693543e-08 4.68329315296086e-07 1.86801905287568e-07 1.91518166803151e-08 4.81600662239043e-08
"161" 14019 3.36583063289119e-09 4.26041966159173e-09 7.35128360459312e-09 4.66945384539844e-08 4.67350959833996e-07 1.86836070841412e-07 1.92264379667209e-08 4.81105820173804e-08
"162" 14020 3.40094913603842e-09 4.30021636817911e-09 7.33115543508128e-09 4.53225915386146e-08 4.66372604371906e-07 1.86870236395256e-07 1.93010592531268e-08 4.80610978108565e-08
"163" 14021 3.43606763918565e-09 4.34001307476648e-09 7.31102726556944e-09 4.39506446232447e-08 4.65394248909815e-07 1.869044019491e-07 1.93756805395326e-08 4.80116136043327e-08
"164" 14022 3.47118614233289e-09 4.37980978135386e-09 7.2908990960576e-09 4.25786977078748e-08 4.64415893447725e-07 1.86938567502944e-07 1.94503018259385e-08 4.79621293978088e-08
"165" 14023 3.50630464548012e-09 4.41960648794123e-09 7.27077092654576e-09 4.12067507925049e-08 4.63437537985634e-07 1.86972733056789e-07 1.95249231123444e-08 4.79126451912849e-08
"166" 14024 3.54142314862735e-09 4.4594031945286e-09 7.25064275703391e-09 3.98348038771351e-08 4.62459182523544e-07 1.87006898610633e-07 1.95995443987502e-08 4.78631609847611e-08
"167" 14025 3.5679599563107e-09 4.49746461948467e-09 7.27743276189301e-09 3.98448023509204e-08 4.61448040912979e-07 1.88138151766961e-07 1.96741656851561e-08 4.79374852588286e-08
"168" 14026 3.60307845945793e-09 4.53544321020939e-09 7.28788223108125e-09 3.97737153995677e-08 4.59291529057177e-07 1.89319260928699e-07 1.95737686153256e-08 4.79374852588286e-08
"169" 14027 3.63819696260516e-09 4.57342180093411e-09 7.2983317002695e-09 3.97026284482149e-08 4.57135017201375e-07 1.90500370090437e-07 1.9473371545495e-08 4.79374852588286e-08
"170" 14028 3.6733154657524e-09 4.61140039165883e-09 7.30878116945775e-09 3.96315414968621e-08 4.54978505345574e-07 1.91681479252175e-07 1.93729744756645e-08 4.79374852588286e-08
"171" 14029 3.70843396889963e-09 4.64937898238355e-09 7.31923063864599e-09 3.95604545455094e-08 4.52821993489772e-07 1.92862588413914e-07 1.9272577405834e-08 4.79374852588286e-08
"172" 14030 3.74355247204686e-09 4.68735757310827e-09 7.32968010783424e-09 3.94893675941566e-08 4.5066548163397e-07 1.94043697575652e-07 1.91721803360035e-08 4.79374852588286e-08
"173" 14031 3.7786709751941e-09 4.72533616383299e-09 7.34012957702249e-09 3.94182806428038e-08 4.48508969778168e-07 1.9522480673739e-07 1.9071783266173e-08 4.79374852588286e-08
"174" 14032 3.81378947834133e-09 4.76331475455771e-09 7.35057904621074e-09 3.9347193691451e-08 4.46352457922366e-07 1.96405915899129e-07 1.89713861963425e-08 4.79374852588286e-08
"175" 14033 3.84890798148856e-09 4.80430657254351e-09 7.38593078990585e-09 3.89843069022306e-08 4.46306166319046e-07 1.96665393011092e-07 1.88709891265119e-08 4.79938056265182e-08
"176" 14034 3.88158416528545e-09 4.84228516326823e-09 7.41747055348688e-09 3.88877188454392e-08 4.46182776145227e-07 1.97803850093469e-07 1.89914047466581e-08 4.80687850957817e-08
"177" 14035 3.8791418459351e-09 4.83927193600715e-09 7.41747055348688e-09 3.87795303890274e-08 4.46851498358112e-07 1.97979368716844e-07 1.89846138841923e-08 4.80692056278595e-08
"178" 14036 3.88528122204864e-09 4.83550022479135e-09 7.41570114033164e-09 3.87122513939473e-08 4.46937474589809e-07 1.97960641342061e-07 1.90896248979342e-08 4.86519846838054e-08
"179" 14037 3.89142059816218e-09 4.83172851357554e-09 7.4139317271764e-09 3.86449723988672e-08 4.47023450821506e-07 1.97941913967278e-07 1.9194635911676e-08 4.92347637397512e-08
"180" 14038 3.89755997427573e-09 4.82795680235973e-09 7.41216231402116e-09 3.8577693403787e-08 4.47109427053202e-07 1.97923186592496e-07 1.92996469254178e-08 4.9817542795697e-08
"181" 14039 3.90369935038927e-09 4.82418509114392e-09 7.41039290086592e-09 3.85104144087069e-08 4.47195403284899e-07 1.97904459217713e-07 1.94046579391596e-08 5.04003218516428e-08
"182" 14040 3.90983872650281e-09 4.82041337992811e-09 7.40862348771069e-09 3.84431354136267e-08 4.47281379516596e-07 1.9788573184293e-07 1.95096689529015e-08 5.09831009075887e-08
"183" 14041 3.91597810261635e-09 4.81664166871231e-09 7.40685407455545e-09 3.83758564185466e-08 4.47367355748293e-07 1.97867004468147e-07 1.96146799666433e-08 5.15658799635345e-08
"184" 14042 3.92211747872989e-09 4.8128699574965e-09 7.40508466140021e-09 3.83085774234664e-08 4.4745333197999e-07 1.97848277093364e-07 1.97196909803851e-08 5.21486590194803e-08
"185" 14043 3.92825685484344e-09 4.80909824628069e-09 7.40331524824497e-09 3.82412984283863e-08 4.47539308211687e-07 1.97829549718581e-07 1.98247019941269e-08 5.27314380754261e-08
"186" 14044 3.93439623095698e-09 4.80532653506488e-09 7.40154583508973e-09 3.81740194333062e-08 4.47625284443384e-07 1.97810822343799e-07 1.99297130078688e-08 5.3314217131372e-08
"187" 14045 3.94053560707052e-09 4.80155482384908e-09 7.39977642193449e-09 3.8106740438226e-08 4.4771126067508e-07 1.97792094969016e-07 2.00347240216106e-08 5.38969961873178e-08
"188" 14046 3.93368501697823e-09 4.79786594686462e-09 7.40114219095258e-09 3.80915255417211e-08 4.45949180107207e-07 1.97818272750461e-07 2.01444252696721e-08 5.44780443207939e-08
"189" 14047 3.93636218234857e-09 4.79585022583795e-09 7.36100416912588e-09 3.75124204969009e-08 4.44429704988874e-07 1.97792341449628e-07 2.02134448810218e-08 5.49472540484916e-08
"190" 14048 3.9390393477189e-09 4.79383450481129e-09 7.32086614729919e-09 3.69333154520808e-08 4.42910229870542e-07 1.97766410148795e-07 2.02824644923716e-08 5.54164637761893e-08
"191" 14049 3.93738874966022e-09 4.8038509842711e-09 7.29882590116202e-09 3.63036897059174e-08 4.44584691473441e-07 1.98796535481295e-07 2.02384881525594e-08 5.53541684306968e-08
"192" 14050 3.93234977225246e-09 4.80552414022889e-09 7.27214204036336e-09 3.58523301555634e-08 4.43738839484962e-07 1.99467674407267e-07 2.02558731087981e-08 5.5240677323488e-08
"193" 14051 3.92731079484471e-09 4.80719729618669e-09 7.2454581795647e-09 3.54009706052093e-08 4.42892987496483e-07 2.00138813333239e-07 2.02732580650368e-08 5.51271862162793e-08
"194" 14052 3.92227181743695e-09 4.80887045214449e-09 7.21877431876604e-09 3.49496110548553e-08 4.42047135508005e-07 2.0080995225921e-07 2.02906430212755e-08 5.50136951090705e-08
"195" 14053 3.9172328400292e-09 4.81054360810228e-09 7.19209045796738e-09 3.44982515045013e-08 4.41201283519526e-07 2.01481091185182e-07 2.03080279775142e-08 5.49002040018618e-08
"196" 14054 3.91219386262144e-09 4.81221676406008e-09 7.16540659716873e-09 3.40468919541473e-08 4.40355431531047e-07 2.02152230111154e-07 2.03254129337529e-08 5.4786712894653e-08
"197" 14055 3.90715488521368e-09 4.81388992001787e-09 7.13872273637007e-09 3.35955324037933e-08 4.39509579542568e-07 2.02823369037126e-07 2.03427978899916e-08 5.46732217874443e-08
"198" 14056 3.90211590780593e-09 4.81556307597567e-09 7.11203887557141e-09 3.31441728534393e-08 4.38663727554089e-07 2.03494507963097e-07 2.03601828462302e-08 5.45597306802355e-08
"199" 14057 3.89707693039817e-09 4.81723623193346e-09 7.08535501477275e-09 3.26928133030853e-08 4.37817875565611e-07 2.04165646889069e-07 2.03775678024689e-08 5.44462395730268e-08
"200" 14058 3.89203795299042e-09 4.81890938789126e-09 7.05867115397409e-09 3.22414537527313e-08 4.36972023577132e-07 2.04836785815041e-07 2.03949527587076e-08 5.4332748465818e-08
"201" 14059 3.88699897558266e-09 4.82058254384905e-09 7.03198729317543e-09 3.17900942023773e-08 4.36126171588653e-07 2.05507924741012e-07 2.04123377149463e-08 5.42192573586093e-08
"202" 14060 3.8819599981749e-09 4.82225569980685e-09 7.00530343237677e-09 3.13387346520233e-08 4.35280319600174e-07 2.06179063666984e-07 2.0429722671185e-08 5.41057662514005e-08
"203" 14061 3.87692102076715e-09 4.82392885576464e-09 6.97861957157811e-09 3.08873751016693e-08 4.34434467611695e-07 2.06850202592956e-07 2.04471076274237e-08 5.39922751441918e-08
"204" 14062 3.87188204335939e-09 4.82560201172244e-09 6.95193571077945e-09 3.04360155513153e-08 4.33588615623217e-07 2.07521341518927e-07 2.04644925836624e-08 5.3878784036983e-08
"205" 14063 3.86684306595164e-09 4.82727516768023e-09 6.92525184998079e-09 2.99846560009613e-08 4.32742763634738e-07 2.08192480444899e-07 2.04818775399011e-08 5.37652929297742e-08
"206" 14064 3.86180408854388e-09 4.82894832363803e-09 6.89856798918213e-09 2.95332964506073e-08 4.31896911646259e-07 2.08863619370871e-07 2.04992624961398e-08 5.36518018225655e-08
"207" 14065 3.85676511113612e-09 4.83062147959582e-09 6.87188412838347e-09 2.90819369002532e-08 4.3105105965778e-07 2.09534758296842e-07 2.05166474523785e-08 5.35383107153567e-08
"208" 14066 3.85172613372837e-09 4.83229463555362e-09 6.84520026758481e-09 2.86305773498992e-08 4.30205207669301e-07 2.10205897222814e-07 2.05340324086172e-08 5.3424819608148e-08
"209" 14067 3.84668715632061e-09 4.83396779151141e-09 6.81851640678615e-09 2.81792177995452e-08 4.29359355680823e-07 2.10877036148786e-07 2.05514173648559e-08 5.33113285009392e-08
"210" 14068 3.84723735567351e-09 4.8317337567629e-09 6.78574136452058e-09 2.79636507864285e-08 4.30112121523123e-07 2.11603274745107e-07 2.06128793890391e-08 5.32578643290814e-08
"211" 14069 3.84791950857501e-09 4.83340691272070e-09 6.78109774985908e-09 2.77578185533855e-08 4.2888561355297e-07 2.1232426967649e-07 2.06743414132224e-08 5.31410097171799e-08
"212" 14070 3.84860166147652e-09 4.83508006867849e-09 6.77645413519758e-09 2.75519863203425e-08 4.27659105582818e-07 2.13045264607872e-07 2.07358034374057e-08 5.30241551052784e-08
"213" 14071 3.84928381437802e-09 4.83675322463629e-09 6.77181052053609e-09 2.73461540872995e-08 4.26432597612665e-07 2.13766259539254e-07 2.0797265461589e-08 5.29073004933769e-08
"214" 14072 3.84941576792663e-09 4.84066041534259e-09 6.78131003797995e-09 2.6967536089876e-08 4.25254087303807e-07 2.13915904780726e-07 2.08027566334231e-08 5.28302872770899e-08
"215" 14073 3.84954772147524e-09 4.8445676060489e-09 6.79080955542381e-09 2.65889180924524e-08 4.24075576994948e-07 2.14065550022198e-07 2.08082478052572e-08 5.27532740608029e-08
"216" 14074 3.84967967502385e-09 4.84847479675521e-09 6.80030907286767e-09 2.62103000950289e-08 4.2289706668609e-07 2.14215195263671e-07 2.08137389770913e-08 5.2676260844516e-08
"217" 14075 3.84981162857247e-09 4.85238198746152e-09 6.80980859031153e-09 2.58316820976054e-08 4.21718556377232e-07 2.14364840505143e-07 2.08192301489253e-08 5.2599247628229e-08
"218" 14076 3.84994358212108e-09 4.85628917816783e-09 6.81930810775539e-09 2.54530641001819e-08 4.20540046068373e-07 2.14514485746615e-07 2.08247213207594e-08 5.2522234411942e-08
"219" 14077 3.85007553566969e-09 4.86019636887413e-09 6.82880762519925e-09 2.50744461027584e-08 4.19361535759515e-07 2.14664130988087e-07 2.08302124925935e-08 5.24452211956551e-08
"220" 14078 3.8502074892183e-09 4.86410355958044e-09 6.83830714264311e-09 2.46958281053348e-08 4.18183025450657e-07 2.14813776229559e-07 2.08357036644276e-08 5.23682079793681e-08
"221" 14079 3.85033944276691e-09 4.86801075028675e-09 6.84780666008697e-09 2.43172101079113e-08 4.17004515141799e-07 2.14963421471031e-07 2.08411948362617e-08 5.22911947630811e-08
"222" 14080 3.85047139631552e-09 4.87191794099306e-09 6.85730617753083e-09 2.39385921104878e-08 4.1582600483294e-07 2.15113066712504e-07 2.08466860080958e-08 5.22141815467942e-08
"223" 14081 3.85060334986414e-09 4.86918515312734e-09 6.85730617753083e-09 2.3588889773144e-08 4.16769843884566e-07 2.13866135653711e-07 2.07453237345359e-08 5.22461505404538e-08
"224" 14082 3.85073530341275e-09 4.86645236526162e-09 6.85730617753083e-09 2.32391874358001e-08 4.17713682936191e-07 2.12619204594918e-07 2.06439614609761e-08 5.22781195341134e-08
"225" 14083 3.85086725696136e-09 4.8637195773959e-09 6.85730617753083e-09 2.28894850984563e-08 4.18657521987816e-07 2.11372273536126e-07 2.05425991874162e-08 5.2310088527773e-08
"226" 14084 3.85099921050997e-09 4.86098678953018e-09 6.85730617753083e-09 2.25397827611125e-08 4.19601361039441e-07 2.10125342477333e-07 2.04412369138564e-08 5.23420575214326e-08
"227" 14085 3.85113116405858e-09 4.85825400166446e-09 6.85730617753083e-09 2.21900804237686e-08 4.20545200091067e-07 2.08878411418541e-07 2.03398746402965e-08 5.23740265150922e-08
"228" 14086 3.85126311760719e-09 4.85552121379874e-09 6.85730617753083e-09 2.18403780864248e-08 4.21489039142692e-07 2.07631480359748e-07 2.02385123667367e-08 5.24059955087518e-08
"229" 14087 3.8515784709401e-09 4.852664174586e-09 6.87809897184689e-09 2.18197825721139e-08 4.1947252860988e-07 2.06458507628996e-07 2.02224662014881e-08 5.2444184202936e-08
"230" 14088 3.8515784709401e-09 4.85787001947992e-09 6.90411706978516e-09 2.16905645447351e-08 4.20339965997993e-07 2.05560713405404e-07 1.99773525269506e-08 5.24305614266927e-08
"231" 14089 3.8515784709401e-09 4.86307586437383e-09 6.93013516772343e-09 2.15613465173563e-08 4.21207403386105e-07 2.04662919181811e-07 1.97322388524131e-08 5.24169386504493e-08
"232" 14090 3.8515784709401e-09 4.86828170926775e-09 6.9561532656617e-09 2.14321284899775e-08 4.22074840774217e-07 2.03765124958218e-07 1.94871251778757e-08 5.2403315874206e-08
"233" 14091 3.8515784709401e-09 4.87348755416167e-09 6.98217136359997e-09 2.13029104625987e-08 4.2294227816233e-07 2.02867330734626e-07 1.92420115033382e-08 5.23896930979627e-08
"234" 14092 3.8515784709401e-09 4.87869339905559e-09 7.00818946153824e-09 2.11736924352199e-08 4.23809715550442e-07 2.01969536511033e-07 1.89968978288007e-08 5.23760703217194e-08
"235" 14093 3.8515784709401e-09 4.88389924394951e-09 7.03420755947651e-09 2.10444744078411e-08 4.24677152938554e-07 2.0107174228744e-07 1.87517841542632e-08 5.2362447545476e-08
"236" 14094 3.8515784709401e-09 4.88318217711045e-09 7.0305382428325e-09 2.09100282520221e-08 4.24540368849555e-07 2.00976607223544e-07 1.85092649734442e-08 5.23168557755731e-08
"237" 14095 3.852128670293e-09 4.88322359422612e-09 7.02895904763737e-09 2.08126306105216e-08 4.25210840427517e-07 2.00850799808254e-07 1.8444469145802e-08 5.22637339147537e-08
"238" 14096 3.85267886964589e-09 4.8832650113418e-09 7.02737985244224e-09 2.07152329690211e-08 4.25881312005478e-07 2.00724992392965e-07 1.83796733181598e-08 5.22106120539343e-08
"239" 14097 3.85322906899878e-09 4.88330642845747e-09 7.02580065724712e-09 2.06178353275206e-08 4.2655178358344e-07 2.00599184977675e-07 1.83148774905176e-08 5.2157490193115e-08
"240" 14098 3.85377926835168e-09 4.88334784557315e-09 7.02422146205199e-09 2.05204376860201e-08 4.27222255161402e-07 2.00473377562386e-07 1.82500816628754e-08 5.21043683322956e-08
"241" 14099 3.85432946770457e-09 4.88338926268882e-09 7.02264226685686e-09 2.04230400445195e-08 4.27892726739363e-07 2.00347570147096e-07 1.81852858352332e-08 5.20512464714762e-08
"242" 14100 3.85487966705746e-09 4.88343067980449e-09 7.02106307166174e-09 2.0325642403019e-08 4.28563198317325e-07 2.00221762731807e-07 1.8120490007591e-08 5.19981246106568e-08
"243" 14101 3.85542986641035e-09 4.88347209692017e-09 7.01948387646661e-09 2.02282447615185e-08 4.29233669895286e-07 2.00095955316517e-07 1.80556941799488e-08 5.19450027498374e-08
"244" 14102 3.85256930125572e-09 4.88347209692017e-09 6.97934585463991e-09 1.96607342634584e-08 4.26353263290171e-07 2.0086794212482e-07 1.81061640853743e-08 5.17004665880009e-08
"245" 14103 3.85099253459118e-09 4.8842305808749e-09 6.9814359760888e-09 1.96790941680324e-08 4.26918612050533e-07 2.01705806818477e-07 1.82821036574367e-08 5.16975817172181e-08
"246" 14104 3.84941576792663e-09 4.88498906482963e-09 6.98352609753768e-09 1.96974540726064e-08 4.27483960810895e-07 2.02543671512133e-07 1.84580432294991e-08 5.16946968464352e-08
"247" 14105 3.84783900126209e-09 4.88574754878435e-09 6.98561621898656e-09 1.97158139771804e-08 4.28049309571257e-07 2.0338153620579e-07 1.86339828015615e-08 5.16918119756523e-08
"248" 14106 3.84626223459754e-09 4.88650603273908e-09 6.98770634043545e-09 1.97341738817543e-08 4.2861465833162e-07 2.04219400899447e-07 1.8809922373624e-08 5.16889271048695e-08
"249" 14107 3.84468546793299e-09 4.88726451669381e-09 6.98979646188433e-09 1.97525337863283e-08 4.29180007091982e-07 2.05057265593103e-07 1.89858619456864e-08 5.16860422340866e-08
"250" 14108 3.86784057218605e-09 4.90304771983826e-09 7.00998435902275e-09 1.98513925700186e-08 4.3030272037641e-07 2.04971245160118e-07 1.89786828333255e-08 5.17059629318939e-08
"251" 14109 3.86571360616861e-09 4.90907417436042e-09 7.01887897928897e-09 1.98697524745926e-08 4.30243341279535e-07 2.05120859511494e-07 1.89743045584927e-08 5.17776369982966e-08
"252" 14110 3.86358664015117e-09 4.91510062888258e-09 7.02777359955519e-09 1.98881123791666e-08 4.30183962182659e-07 2.0527047386287e-07 1.89699262836598e-08 5.18493110646993e-08
"253" 14111 3.86145967413373e-09 4.92112708340473e-09 7.03666821982141e-09 1.99064722837406e-08 4.30124583085784e-07 2.05420088214246e-07 1.8965548008827e-08 5.19209851311021e-08
"254" 14112 3.85933270811629e-09 4.92715353792689e-09 7.04556284008763e-09 1.99248321883146e-08 4.30065203988909e-07 2.05569702565622e-07 1.89611697339941e-08 5.19926591975048e-08
"255" 14113 3.85720574209885e-09 4.93317999244905e-09 7.05445746035385e-09 1.99431920928886e-08 4.30005824892034e-07 2.05719316916998e-07 1.89567914591613e-08 5.20643332639075e-08
"256" 14114 3.85507877608141e-09 4.93920644697121e-09 7.06335208062007e-09 1.99615519974626e-08 4.29946445795159e-07 2.05868931268374e-07 1.89524131843284e-08 5.21360073303103e-08
"257" 14115 3.85295181006397e-09 4.94523290149336e-09 7.07224670088629e-09 1.99799119020365e-08 4.29887066698283e-07 2.0601854561975e-07 1.89480349094956e-08 5.2207681396713e-08
"258" 14116 3.85082484404654e-09 4.95125935601552e-09 7.08114132115251e-09 1.99982718066105e-08 4.29827687601408e-07 2.06168159971126e-07 1.89436566346628e-08 5.22793554631157e-08
"259" 14117 3.84869787802910e-09 4.95728581053768e-09 7.09003594141873e-09 2.00166317111845e-08 4.29768308504533e-07 2.06317774322502e-07 1.89392783598299e-08 5.23510295295185e-08
"260" 14118 3.84657091201166e-09 4.96331226505984e-09 7.09893056168495e-09 2.00349916157585e-08 4.29708929407658e-07 2.06467388673878e-07 1.89349000849971e-08 5.24227035959212e-08
"261" 14119 3.84444394599422e-09 4.969338719582e-09 7.10782518195117e-09 2.00533515203325e-08 4.29649550310783e-07 2.06617003025254e-07 1.89305218101642e-08 5.24943776623239e-08
"262" 14120 3.84231697997678e-09 4.97536517410415e-09 7.11671980221739e-09 2.00717114249065e-08 4.29590171213907e-07 2.0676661737663e-07 1.89261435353314e-08 5.25660517287267e-08
"263" 14121 3.84019001395934e-09 4.98139162862631e-09 7.12561442248361e-09 2.00900713294805e-08 4.29530792117032e-07 2.06916231728006e-07 1.89217652604985e-08 5.26377257951294e-08
"264" 14122 3.8380630479419e-09 4.98741808314847e-09 7.13450904274983e-09 2.01084312340545e-08 4.29471413020157e-07 2.07065846079383e-07 1.89173869856657e-08 5.27093998615321e-08
"265" 14123 3.83593608192446e-09 4.99344453767063e-09 7.14340366301605e-09 2.01267911386285e-08 4.29412033923282e-07 2.07215460430759e-07 1.89130087108329e-08 5.27810739279349e-08
"266" 14124 3.83380911590702e-09 4.99947099219278e-09 7.15229828328227e-09 2.01451510432025e-08 4.29352654826407e-07 2.07365074782135e-07 1.8908630436e-08 5.28527479943376e-08
"267" 14125 3.83168214988958e-09 5.00549744671494e-09 7.16119290354849e-09 2.01635109477764e-08 4.29293275729531e-07 2.07514689133511e-07 1.89042521611672e-08 5.29244220607403e-08
"268" 14126 3.82827138538206e-09 5.0115239012371e-09 7.16147823048865e-09 2.01310097401159e-08 4.29101591312914e-07 2.07448790011216e-07 1.88908816675902e-08 5.29989809979259e-08
"269" 14127 3.82486062087453e-09 5.01755035575926e-09 7.16176355742882e-09 2.00985085324554e-08 4.28909906896297e-07 2.07382890888922e-07 1.88775111740132e-08 5.30735399351115e-08
"270" 14128 3.82144985636701e-09 5.02357681028141e-09 7.16204888436899e-09 2.00660073247949e-08 4.2871822247968e-07 2.07316991766627e-07 1.88641406804362e-08 5.31480988722971e-08
"271" 14129 3.81803909185949e-09 5.02960326480357e-09 7.16233421130915e-09 2.00335061171344e-08 4.28526538063063e-07 2.07251092644333e-07 1.88507701868592e-08 5.32226578094827e-08
"272" 14130 3.81462832735196e-09 5.03562971932573e-09 7.16261953824932e-09 2.00010049094739e-08 4.28334853646446e-07 2.07185193522038e-07 1.88373996932822e-08 5.32972167466683e-08
"273" 14131 3.81176776219733e-09 5.03931859631019e-09 7.17377015165144e-09 2.01984877324467e-08 4.30165523233988e-07 2.07089427131641e-07 1.8821933459104e-08 5.33745134202317e-08
"274" 14132 3.8089071970427e-09 5.04300747329465e-09 7.18492076505355e-09 2.03959705554194e-08 4.3199619282153e-07 2.06993660741245e-07 1.88064672249258e-08 5.34518100937952e-08
"275" 14133 3.80604663188807e-09 5.04669635027911e-09 7.19607137845567e-09 2.05934533783921e-08 4.33826862409072e-07 2.06897894350848e-07 1.87910009907475e-08 5.35291067673586e-08
"276" 14134 3.80318606673344e-09 5.05038522726357e-09 7.20722199185778e-09 2.07909362013648e-08 4.35657531996614e-07 2.06802127960451e-07 1.87755347565693e-08 5.3606403440922e-08
"277" 14135 3.80032550157881e-09 5.05407410424803e-09 7.2183726052599e-09 2.09884190243375e-08 4.37488201584156e-07 2.06706361570054e-07 1.87600685223911e-08 5.36837001144854e-08
"278" 14136 3.79746493642418e-09 5.05776298123249e-09 7.22952321866201e-09 2.11859018473103e-08 4.39318871171698e-07 2.06610595179658e-07 1.87446022882129e-08 5.37609967880489e-08
"279" 14137 3.78184257516491e-09 5.04141889929732e-09 7.20029803778729e-09 2.13066413866942e-08 4.40915887025836e-07 2.0669967184217e-07 1.87347377290907e-08 5.36522972834488e-08
"280" 14138 3.76622021390565e-09 5.02507481736216e-09 7.17107285691257e-09 2.14273809260782e-08 4.42512902879975e-07 2.06788748504682e-07 1.87248731699686e-08 5.35435977788487e-08
"281" 14139 3.75059785264638e-09 5.00873073542699e-09 7.14184767603785e-09 2.15481204654621e-08 4.44109918734113e-07 2.06877825167194e-07 1.87150086108465e-08 5.34348982742486e-08
"282" 14140 3.73497549138711e-09 4.99238665349182e-09 7.11262249516313e-09 2.16688600048461e-08 4.45706934588252e-07 2.06966901829706e-07 1.87051440517244e-08 5.33261987696485e-08
"283" 14141 3.71935313012784e-09 4.97604257155665e-09 7.0833973142884e-09 2.17895995442301e-08 4.47303950442391e-07 2.07055978492218e-07 1.86952794926023e-08 5.32174992650484e-08
"284" 14142 3.70373076886858e-09 4.95969848962149e-09 7.05417213341368e-09 2.1910339083614e-08 4.48900966296529e-07 2.0714505515473e-07 1.86854149334801e-08 5.31087997604484e-08
"285" 14143 3.68810840760931e-09 4.94335440768632e-09 7.02494695253896e-09 2.2031078622998e-08 4.50497982150668e-07 2.07234131817242e-07 1.8675550374358e-08 5.30001002558483e-08
"286" 14144 3.67248604635004e-09 4.92701032575115e-09 6.99572177166424e-09 2.21518181623819e-08 4.52094998004806e-07 2.07323208479754e-07 1.86656858152359e-08 5.28914007512482e-08
"287" 14145 3.6709092796855e-09 4.92467274821346e-09 7.01162214378828e-09 2.24191030103224e-08 4.50174887668228e-07 2.07351192711986e-07 1.86644966278263e-08 5.29686974248116e-08
"288" 14146 3.66933251302095e-09 4.92233517067576e-09 7.02752251591233e-09 2.26863878582628e-08 4.4825477733165e-07 2.07379176944218e-07 1.86633074404167e-08 5.3045994098375e-08
"289" 14147 3.6677557463564e-09 4.91999759313806e-09 7.04342288803637e-09 2.29536727062033e-08 4.46334666995072e-07 2.0740716117645e-07 1.86621182530071e-08 5.31232907719385e-08
"290" 14148 3.66617897969186e-09 4.91766001560036e-09 7.05932326016042e-09 2.32209575541437e-08 4.44414556658494e-07 2.07435145408681e-07 1.86609290655975e-08 5.32005874455019e-08
"291" 14149 3.66460221302731e-09 4.91532243806267e-09 7.07522363228446e-09 2.34882424020842e-08 4.42494446321916e-07 2.07463129640913e-07 1.86597398781879e-08 5.32778841190653e-08
"292" 14150 3.66302544636276e-09 4.91298486052497e-09 7.09112400440851e-09 2.37555272500247e-08 4.40574335985338e-07 2.07491113873145e-07 1.86585506907783e-08 5.33551807926287e-08
"293" 14151 3.66144867969822e-09 4.91064728298727e-09 7.10702437653256e-09 2.40228120979651e-08 4.3865422564876e-07 2.07519098105377e-07 1.86573615033687e-08 5.34324774661921e-08
"294" 14152 3.65987191303367e-09 4.90830970544957e-09 7.1229247486566e-09 2.42900969459056e-08 4.36734115312182e-07 2.07547082337608e-07 1.86561723159591e-08 5.35097741397556e-08
"295" 14153 3.65761299346762e-09 4.90228325092742e-09 7.1279598343187e-09 2.43030762326736e-08 4.3276495394171e-07 2.07784554462853e-07 1.88958466713468e-08 5.35094318287171e-08
"296" 14154 3.65535407390157e-09 4.89625679640526e-09 7.1329949199808e-09 2.43160555194416e-08 4.28795792571239e-07 2.08022026588098e-07 1.91355210267345e-08 5.35090895176786e-08
"297" 14155 3.65309515433552e-09 4.88997061104558e-09 7.1291829398667e-09 2.43160555194416e-08 4.24661115948884e-07 2.07844251026594e-07 1.91848164073848e-08 5.35196903483377e-08
"298" 14156 3.65083623476947e-09 4.8836844256859e-09 7.12537095975261e-09 2.43160555194416e-08 4.20526439326529e-07 2.0766647546509e-07 1.92341117880351e-08 5.35302911789968e-08
"299" 14157 3.64857731520342e-09 4.87739824032622e-09 7.12155897963852e-09 2.43160555194416e-08 4.16391762704174e-07 2.07488699903587e-07 1.92834071686855e-08 5.35408920096558e-08
"300" 14158 3.64631839563736e-09 4.87111205496654e-09 7.11774699952442e-09 2.43160555194416e-08 4.12257086081819e-07 2.07310924342083e-07 1.93327025493358e-08 5.35514928403149e-08
"301" 14159 3.64405947607131e-09 4.86482586960686e-09 7.11393501941033e-09 2.43160555194416e-08 4.08122409459464e-07 2.07133148780579e-07 1.93819979299861e-08 5.3562093670974e-08
"302" 14160 3.63833834576205e-09 4.86380765481461e-09 7.11393501941033e-09 2.42376514664171e-08 4.08098649996577e-07 2.07124929972616e-07 1.94143405921962e-08 5.34215335725646e-08
"303" 14161 3.63765619286055e-09 4.86159432862393e-09 7.11393501941033e-09 2.41871307650737e-08 4.08028583099197e-07 2.06985259793488e-07 1.94396811605862e-08 5.32322513588178e-08
"304" 14162 3.63697403995904e-09 4.85938100243326e-09 7.11393501941033e-09 2.41366100637303e-08 4.07958516201817e-07 2.0684558961436e-07 1.94650217289761e-08 5.30429691450709e-08
"305" 14163 3.63629188705754e-09 4.85716767624258e-09 7.11393501941033e-09 2.4086089362387e-08 4.07888449304436e-07 2.06705919435232e-07 1.94903622973661e-08 5.2853686931324e-08
"306" 14164 3.63560973415603e-09 4.8549543500519e-09 7.11393501941033e-09 2.40355686610436e-08 4.07818382407056e-07 2.06566249256104e-07 1.9515702865756e-08 5.26644047175772e-08
"307" 14165 3.63492758125453e-09 4.85274102386123e-09 7.11393501941033e-09 2.39850479597002e-08 4.07748315509675e-07 2.06426579076976e-07 1.9541043434146e-08 5.24751225038303e-08
"308" 14166 3.63424542835302e-09 4.85052769767055e-09 7.11393501941033e-09 2.39345272583568e-08 4.07678248612295e-07 2.06286908897848e-07 1.9566384002536e-08 5.22858402900834e-08
"309" 14167 3.63356327545152e-09 4.84831437147988e-09 7.11393501941033e-09 2.38840065570135e-08 4.07608181714914e-07 2.0614723871872e-07 1.95917245709259e-08 5.20965580763366e-08
"310" 14168 3.67398466310373e-09 4.86197831080848e-09 7.16941493261729e-09 2.43783063283252e-08 4.08786856879338e-07 2.08023611656476e-07 1.98298508142777e-08 5.23865783601556e-08
"311" 14169 3.71440605075595e-09 4.87564225013708e-09 7.22489484582424e-09 2.48726060996368e-08 4.09965532043762e-07 2.09899984594231e-07 2.00679770576295e-08 5.26765986439746e-08
"312" 14170 3.75482743840816e-09 4.88930618946568e-09 7.2803747590312e-09 2.53669058709485e-08 4.11144207208185e-07 2.11776357531987e-07 2.03061033009812e-08 5.29666189277936e-08
"313" 14171 3.79524882606037e-09 4.90297012879428e-09 7.33585467223816e-09 2.58612056422602e-08 4.12322882372609e-07 2.13652730469743e-07 2.0544229544333e-08 5.32566392116126e-08
"314" 14172 3.83567021371258e-09 4.91663406812288e-09 7.39133458544512e-09 2.63555054135719e-08 4.13501557537033e-07 2.15529103407499e-07 2.07823557876848e-08 5.35466594954317e-08
"315" 14173 3.87609160136479e-09 4.93029800745148e-09 7.44681449865208e-09 2.68498051848835e-08 4.14680232701457e-07 2.17405476345255e-07 2.10204820310365e-08 5.38366797792507e-08
"316" 14174 3.91651298901701e-09 4.94396194678008e-09 7.50229441185904e-09 2.73441049561952e-08 4.1585890786588e-07 2.19281849283011e-07 2.12586082743883e-08 5.41267000630697e-08
"317" 14175 3.95693437666922e-09 4.95762588610867e-09 7.557774325066e-09 2.78384047275069e-08 4.17037583030304e-07 2.21158222220767e-07 2.14967345177401e-08 5.44167203468887e-08
"318" 14176 3.99735576432143e-09 4.97128982543727e-09 7.61325423827296e-09 2.83327044988186e-08 4.18216258194728e-07 2.23034595158522e-07 2.17348607610919e-08 5.47067406307077e-08
"319" 14177 4.03777715197365e-09 4.98495376476587e-09 7.66873415147992e-09 2.88270042701302e-08 4.19394933359151e-07 2.24910968096278e-07 2.19729870044436e-08 5.49967609145267e-08
"320" 14178 4.07819853962586e-09 4.99861770409447e-09 7.72421406468687e-09 2.93213040414419e-08 4.20573608523575e-07 2.26787341034034e-07 2.22111132477954e-08 5.52867811983457e-08
"321" 14179 4.11861992727807e-09 5.01228164342307e-09 7.77969397789383e-09 2.98156038127536e-08 4.21752283687999e-07 2.2866371397179e-07 2.24492394911472e-08 5.55768014821648e-08
"322" 14180 4.15904131493028e-09 5.02594558275167e-09 7.83517389110079e-09 3.03099035840653e-08 4.22930958852423e-07 2.30540086909546e-07 2.26873657344989e-08 5.58668217659838e-08
"323" 14181 4.19946270258249e-09 5.03960952208027e-09 7.89065380430775e-09 3.0804203355377e-08 4.24109634016846e-07 2.32416459847302e-07 2.29254919778507e-08 5.61568420498028e-08
"324" 14182 4.23830732357016e-09 5.04644710581631e-09 7.93402097923166e-09 3.13491470530962e-08 4.25357614211011e-07 2.32800415439943e-07 2.31480805841607e-08 5.66392152871113e-08
"325" 14183 4.27715194455783e-09 5.05328468955235e-09 7.97738815415557e-09 3.18940907508155e-08 4.26605594405175e-07 2.33184371032585e-07 2.33706691904707e-08 5.71215885244198e-08
"326" 14184 4.31599656554549e-09 5.06012227328839e-09 8.02075532907947e-09 3.24390344485348e-08 4.2785357459934e-07 2.33568326625227e-07 2.35932577967807e-08 5.76039617617283e-08
"327" 14185 4.35484118653316e-09 5.06695985702443e-09 8.06412250400338e-09 3.2983978146254e-08 4.29101554793505e-07 2.33952282217869e-07 2.38158464030907e-08 5.80863349990368e-08
"328" 14186 4.39368580752083e-09 5.07379744076047e-09 8.10748967892729e-09 3.35289218439733e-08 4.30349534987669e-07 2.3433623781051e-07 2.40384350094007e-08 5.85687082363452e-08
"329" 14187 4.43253042850849e-09 5.08063502449651e-09 8.1508568538512e-09 3.40738655416926e-08 4.31597515181834e-07 2.34720193403152e-07 2.42610236157107e-08 5.90510814736537e-08
"330" 14188 4.47137504949616e-09 5.08747260823255e-09 8.19422402877511e-09 3.46188092394119e-08 4.32845495375998e-07 2.35104148995794e-07 2.44836122220207e-08 5.95334547109622e-08
"331" 14189 4.51021967048382e-09 5.09431019196859e-09 8.23759120369901e-09 3.51637529371312e-08 4.34093475570163e-07 2.35488104588435e-07 2.47062008283307e-08 6.00158279482707e-08
"332" 14190 4.51021967048382e-09 5.08754596204954e-09 8.22547846541596e-09 3.51734874022071e-08 4.3669924498657e-07 2.37324228472759e-07 2.47549730181397e-08 6.03614731661688e-08
"333" 14191 4.51021967048382e-09 5.08078173213049e-09 8.21336572713291e-09 3.51832218672832e-08 4.39305014402977e-07 2.39160352357083e-07 2.48037452079488e-08 6.0707118384067e-08
"334" 14192 4.51021967048382e-09 5.07401750221144e-09 8.20125298884986e-09 3.51929563323592e-08 4.41910783819383e-07 2.40996476241407e-07 2.48525173977579e-08 6.10527636019651e-08
"335" 14193 4.51021967048382e-09 5.06725327229239e-09 8.18914025056681e-09 3.52026907974352e-08 4.4451655323579e-07 2.42832600125731e-07 2.49012895875669e-08 6.13984088198632e-08
"336" 14194 4.51021967048382e-09 5.06048904237334e-09 8.17702751228376e-09 3.52124252625112e-08 4.47122322652197e-07 2.44668724010055e-07 2.4950061777376e-08 6.17440540377613e-08
"337" 14195 4.44171376956096e-09 4.98215286627053e-09 8.00934032084178e-09 3.48081299438443e-08 4.49626746926854e-07 2.46120892301737e-07 2.48078682635239e-08 6.16714305073526e-08
"338" 14196 4.3732078686381e-09 4.90381669016771e-09 7.8416531293998e-09 3.44038346251774e-08 4.52131171201511e-07 2.47573060593419e-07 2.46656747496719e-08 6.15988069769438e-08
"339" 14197 4.30470196771524e-09 4.8254805140649e-09 7.67396593795782e-09 3.39995393065104e-08 4.54635595476168e-07 2.49025228885102e-07 2.45234812358198e-08 6.15261834465351e-08
"340" 14198 4.23619606679238e-09 4.74714433796209e-09 7.50627874651584e-09 3.35952439878435e-08 4.57140019750824e-07 2.50477397176784e-07 2.43812877219677e-08 6.14535599161263e-08
"341" 14199 4.16769016586951e-09 4.66880816185928e-09 7.33859155507386e-09 3.31909486691766e-08 4.59644444025481e-07 2.51929565468466e-07 2.42390942081156e-08 6.13809363857176e-08
"342" 14200 4.09918426494665e-09 4.59047198575647e-09 7.17090436363188e-09 3.27866533505097e-08 4.62148868300138e-07 2.53381733760148e-07 2.40969006942636e-08 6.13083128553088e-08
"343" 14201 4.03067836402379e-09 4.51213580965365e-09 7.0032171721899e-09 3.23823580318428e-08 4.64653292574795e-07 2.5483390205183e-07 2.39547071804115e-08 6.12356893249e-08
"344" 14202 3.96217246310093e-09 4.43379963355084e-09 6.83552998074792e-09 3.19780627131759e-08 4.67157716849452e-07 2.56286070343512e-07 2.38125136665594e-08 6.11630657944913e-08
"345" 14203 3.91481330212471e-09 4.3937958413851e-09 6.77933675019054e-09 3.19859312437076e-08 4.69319399473631e-07 2.5948673642137e-07 2.37329195116159e-08 6.09738331268327e-08
"346" 14204 3.90867392601117e-09 4.38715586281307e-09 6.76755689333768e-09 3.19955424837194e-08 4.71332950786043e-07 2.6295495555246e-07 2.38223733381367e-08 6.09608253073707e-08
"347" 14205 3.90253454989763e-09 4.38051588424104e-09 6.75577703648483e-09 3.20051537237312e-08 4.73346502098455e-07 2.66423174683551e-07 2.39118271646576e-08 6.09478174879087e-08
"348" 14206 3.89639517378408e-09 4.37387590566901e-09 6.74399717963197e-09 3.2014764963743e-08 4.75360053410868e-07 2.69891393814641e-07 2.40012809911784e-08 6.09348096684467e-08
"349" 14207 3.89025579767054e-09 4.36723592709699e-09 6.73221732277911e-09 3.20243762037547e-08 4.7737360472328e-07 2.73359612945731e-07 2.40907348176992e-08 6.09218018489847e-08
"350" 14208 3.884116421557e-09 4.36059594852496e-09 6.72043746592626e-09 3.20339874437665e-08 4.79387156035693e-07 2.76827832076821e-07 2.418018864422e-08 6.09087940295226e-08
"351" 14209 3.87797704544346e-09 4.35395596995293e-09 6.7086576090734e-09 3.20435986837783e-08 4.81400707348105e-07 2.80296051207911e-07 2.42696424707408e-08 6.08957862100606e-08
"352" 14210 3.87183766932992e-09 4.3473159913809e-09 6.69687775222055e-09 3.20532099237901e-08 4.83414258660518e-07 2.83764270339001e-07 2.43590962972616e-08 6.08827783905986e-08
"353" 14211 3.86569829321637e-09 4.34067601280887e-09 6.68509789536769e-09 3.20628211638019e-08 4.8542780997293e-07 2.87232489470091e-07 2.44485501237824e-08 6.08697705711366e-08
"354" 14212 3.85743195108539e-09 4.33277879716491e-09 6.67536060547369e-09 3.20863740796542e-08 4.87267305541726e-07 2.87229502743281e-07 2.44485501237824e-08 6.07178561066255e-08
"355" 14213 3.84916560895441e-09 4.32488158152095e-09 6.66562331557969e-09 3.21099269955065e-08 4.89106801110521e-07 2.8722651601647e-07 2.44485501237824e-08 6.05659416421145e-08
"356" 14214 3.84058391349052e-09 4.31694294876131e-09 6.65379590423681e-09 3.21211401613532e-08 4.89762563200691e-07 2.87510841975267e-07 2.44792811358741e-08 6.02926148742814e-08
"357" 14215 3.83200221802663e-09 4.30900431600167e-09 6.64196849289392e-09 3.21323533271999e-08 4.90418325290862e-07 2.87795167934065e-07 2.45100121479657e-08 6.00192881064483e-08
"358" 14216 3.82342052256274e-09 4.30106568324203e-09 6.63014108155104e-09 3.21435664930466e-08 4.91074087381032e-07 2.88079493892862e-07 2.45407431600574e-08 5.97459613386152e-08
"359" 14217 3.81483882709885e-09 4.29312705048240e-09 6.61831367020815e-09 3.21547796588933e-08 4.91729849471202e-07 2.88363819851659e-07 2.4571474172149e-08 5.94726345707821e-08
"360" 14218 3.81111270925841e-09 4.29312705048240e-09 6.61242374178173e-09 3.2164866240581e-08 4.92043474381301e-07 2.88508467908804e-07 2.45517206161807e-08 5.95072344048292e-08
"361" 14219 3.80867038990807e-09 4.29182839629479e-09 6.61169938935093e-09 3.21143806563995e-08 4.92488707704154e-07 2.87868790972467e-07 2.45831567251992e-08 5.93010154562346e-08
"362" 14220 3.80622807055772e-09 4.29052974210718e-09 6.61097503692013e-09 3.2063895072218e-08 4.92933941027008e-07 2.87229114036131e-07 2.46145928342177e-08 5.90947965076399e-08
"363" 14221 3.80378575120737e-09 4.28923108791957e-09 6.61025068448934e-09 3.20134094880365e-08 4.93379174349862e-07 2.86589437099794e-07 2.46460289432361e-08 5.88885775590453e-08
"364" 14222 3.80134343185702e-09 4.28793243373196e-09 6.60952633205854e-09 3.1962923903855e-08 4.93824407672716e-07 2.85949760163458e-07 2.46774650522546e-08 5.86823586104507e-08
"365" 14223 3.79890111250667e-09 4.28663377954435e-09 6.60880197962774e-09 3.19124383196735e-08 4.94269640995569e-07 2.85310083227121e-07 2.47089011612731e-08 5.84761396618561e-08
"366" 14224 3.79645879315632e-09 4.28533512535674e-09 6.60807762719695e-09 3.1861952735492e-08 4.94714874318423e-07 2.84670406290785e-07 2.47403372702915e-08 5.82699207132615e-08
"367" 14225 3.8057740877574e-09 4.30316598622917e-09 6.61918068610903e-09 3.21461948744198e-08 4.97885313055335e-07 2.8410248030061e-07 2.48661482216841e-08 5.80543036764793e-08
"368" 14226 3.81508938235849e-09 4.3209968471016e-09 6.63028374502112e-09 3.24304370133476e-08 5.01055751792247e-07 2.83534554310435e-07 2.49919591730767e-08 5.78386866396971e-08
"369" 14227 3.82440467695957e-09 4.33882770797403e-09 6.64138680393321e-09 3.27146791522754e-08 5.04226190529159e-07 2.8296662832026e-07 2.51177701244693e-08 5.7623069602915e-08
"370" 14228 3.83371997156065e-09 4.35665856884646e-09 6.6524898628453e-09 3.29989212912032e-08 5.07396629266071e-07 2.82398702330085e-07 2.52435810758619e-08 5.74074525661328e-08
"371" 14229 3.84303526616173e-09 4.37448942971889e-09 6.66359292175738e-09 3.3283163430131e-08 5.10567068002983e-07 2.8183077633991e-07 2.53693920272545e-08 5.71918355293506e-08
"372" 14230 3.85235056076281e-09 4.39232029059132e-09 6.67469598066947e-09 3.35674055690588e-08 5.13737506739896e-07 2.81262850349735e-07 2.54952029786471e-08 5.69762184925684e-08
"373" 14231 3.86166585536389e-09 4.41015115146375e-09 6.68579903958156e-09 3.38516477079866e-08 5.16907945476808e-07 2.8069492435956e-07 2.56210139300398e-08 5.67606014557862e-08
"374" 14232 3.87098114996498e-09 4.42798201233617e-09 6.69690209849365e-09 3.41358898469144e-08 5.2007838421372e-07 2.80126998369385e-07 2.57468248814324e-08 5.65449844190041e-08
"375" 14233 3.88029644456606e-09 4.4458128732086e-09 6.70800515740573e-09 3.44201319858422e-08 5.23248822950632e-07 2.7955907237921e-07 2.5872635832825e-08 5.63293673822219e-08
"376" 14234 3.88158024305614e-09 4.4474860291664e-09 6.70705520566135e-09 3.43957340531212e-08 5.2261695606703e-07 2.7891932980142e-07 2.58699454985189e-08 5.65201954014087e-08
"377" 14235 3.88286404154623e-09 4.44915918512419e-09 6.70610525391696e-09 3.43713361204003e-08 5.21985089183428e-07 2.78279587223629e-07 2.58672551642129e-08 5.67110234205955e-08
"378" 14236 3.88414784003631e-09 4.45083234108199e-09 6.70515530217258e-09 3.43469381876793e-08 5.21353222299826e-07 2.77639844645838e-07 2.58645648299069e-08 5.69018514397823e-08
"379" 14237 3.88543163852639e-09 4.45250549703979e-09 6.70420535042819e-09 3.43225402549583e-08 5.20721355416224e-07 2.77000102068048e-07 2.58618744956008e-08 5.70926794589691e-08
"380" 14238 3.88671543701648e-09 4.45417865299758e-09 6.7032553986838e-09 3.42981423222374e-08 5.20089488532623e-07 2.76360359490257e-07 2.58591841612948e-08 5.7283507478156e-08
"381" 14239 3.88799923550656e-09 4.45585180895538e-09 6.70230544693942e-09 3.42737443895164e-08 5.19457621649021e-07 2.75720616912466e-07 2.58564938269888e-08 5.74743354973428e-08
"382" 14240 3.88516105551038e-09 4.45351423141768e-09 6.66610989556035e-09 3.42737443895164e-08 5.19273640887047e-07 2.74889476698052e-07 2.58055349435357e-08 5.77147747382512e-08
"383" 14241 3.88232287551419e-09 4.45117665387998e-09 6.62991434418128e-09 3.42737443895164e-08 5.19089660125074e-07 2.74058336483638e-07 2.57545760600826e-08 5.79552139791596e-08
"384" 14242 3.87948469551801e-09 4.44883907634228e-09 6.59371879280221e-09 3.42737443895164e-08 5.18905679363101e-07 2.73227196269225e-07 2.57036171766295e-08 5.8195653220068e-08
"385" 14243 3.87664651552183e-09 4.44650149880459e-09 6.55752324142314e-09 3.42737443895164e-08 5.18721698601128e-07 2.72396056054811e-07 2.56526582931764e-08 5.84360924609764e-08
"386" 14244 3.87380833552564e-09 4.44416392126689e-09 6.52132769004407e-09 3.42737443895164e-08 5.18537717839154e-07 2.71564915840397e-07 2.56016994097233e-08 5.86765317018848e-08
"387" 14245 3.87097015552946e-09 4.44182634372919e-09 6.485132138665e-09 3.42737443895164e-08 5.18353737077181e-07 2.70733775625983e-07 2.55507405262702e-08 5.89169709427932e-08
"388" 14246 3.86813197553328e-09 4.43948876619149e-09 6.44893658728593e-09 3.42737443895164e-08 5.18169756315208e-07 2.69902635411569e-07 2.54997816428171e-08 5.91574101837016e-08
"389" 14247 3.86529379553709e-09 4.43715118865379e-09 6.41274103590686e-09 3.42737443895164e-08 5.17985775553234e-07 2.69071495197155e-07 2.5448822759364e-08 5.939784942461e-08
"390" 14248 3.86245561554091e-09 4.4348136111161e-09 6.37654548452779e-09 3.42737443895164e-08 5.17801794791261e-07 2.68240354982741e-07 2.5397863875911e-08 5.96382886655184e-08
"391" 14249 3.87132360326047e-09 4.42950422343300e-09 6.3412998848931e-09 3.42370655503906e-08 5.18152915349819e-07 2.68342980996551e-07 2.54250273257738e-08 5.93897438633969e-08
"392" 14250 3.87132360326047e-09 4.43225771985655e-09 6.3475580761032e-09 3.46661632791353e-08 5.1782876330836e-07 2.67295647716192e-07 2.54436112445117e-08 5.93170335562051e-08
"393" 14251 3.87132360326047e-09 4.43501121628011e-09 6.35381626731331e-09 3.509526100788e-08 5.175046112669e-07 2.66248314435832e-07 2.54621951632496e-08 5.92443232490132e-08
"394" 14252 3.87132360326047e-09 4.43776471270367e-09 6.36007445852341e-09 3.55243587366248e-08 5.17180459225441e-07 2.65200981155473e-07 2.54807790819875e-08 5.91716129418214e-08
"395" 14253 3.87132360326047e-09 4.44051820912722e-09 6.36633264973351e-09 3.59534564653695e-08 5.16856307183981e-07 2.64153647875113e-07 2.54993630007254e-08 5.90989026346295e-08
"396" 14254 3.87132360326047e-09 4.44327170555078e-09 6.37259084094361e-09 3.63825541941142e-08 5.16532155142522e-07 2.63106314594754e-07 2.55179469194633e-08 5.90261923274377e-08
"397" 14255 3.87132360326047e-09 4.44602520197434e-09 6.37884903215371e-09 3.68116519228589e-08 5.16208003101063e-07 2.62058981314394e-07 2.55365308382013e-08 5.89534820202458e-08
"398" 14256 3.87132360326047e-09 4.44877869839789e-09 6.38510722336381e-09 3.72407496516036e-08 5.15883851059603e-07 2.61011648034035e-07 2.55551147569392e-08 5.8880771713054e-08
"399" 14257 3.87132360326047e-09 4.45153219482145e-09 6.39136541457391e-09 3.76698473803483e-08 5.15559699018144e-07 2.59964314753675e-07 2.55736986756771e-08 5.88080614058622e-08
"400" 14258 3.87132360326047e-09 4.45428569124501e-09 6.39762360578401e-09 3.80989451090931e-08 5.15235546976684e-07 2.58916981473316e-07 2.5592282594415e-08 5.87353510986703e-08
"401" 14259 3.87132360326047e-09 4.45703918766856e-09 6.40388179699412e-09 3.85280428378378e-08 5.14911394935225e-07 2.57869648192956e-07 2.56108665131529e-08 5.86626407914785e-08
"402" 14260 3.87132360326047e-09 4.45979268409212e-09 6.41013998820422e-09 3.89571405665825e-08 5.14587242893766e-07 2.56822314912597e-07 2.56294504318908e-08 5.85899304842866e-08
"403" 14261 3.87584144239257e-09 4.46661903968468e-09 6.44869881483579e-09 3.934513505961e-08 5.13032129038359e-07 2.56026231573556e-07 2.55212112303673e-08 5.87060028857945e-08
"404" 14262 3.87867962238876e-09 4.47344539527724e-09 6.48725764146736e-09 3.9780094600697e-08 5.09089652138359e-07 2.55792832490382e-07 2.55774940422033e-08 5.87101486008809e-08
"405" 14263 3.88151780238494e-09 4.4802717508698e-09 6.52581646809893e-09 4.02150541417839e-08 5.05147175238359e-07 2.55559433407208e-07 2.56337768540393e-08 5.87142943159673e-08
"406" 14264 3.88435598238112e-09 4.48709810646236e-09 6.5643752947305e-09 4.06500136828709e-08 5.01204698338358e-07 2.55326034324035e-07 2.56900596658754e-08 5.87184400310537e-08
"407" 14265 3.88719416237731e-09 4.49392446205492e-09 6.60293412136207e-09 4.10849732239579e-08 4.97262221438358e-07 2.55092635240861e-07 2.57463424777114e-08 5.87225857461401e-08
"408" 14266 3.89003234237349e-09 4.50075081764748e-09 6.64149294799364e-09 4.15199327650449e-08 4.93319744538358e-07 2.54859236157687e-07 2.58026252895474e-08 5.87267314612266e-08
"409" 14267 3.89287052236967e-09 4.50757717324004e-09 6.68005177462521e-09 4.19548923061318e-08 4.89377267638358e-07 2.54625837074513e-07 2.58589081013835e-08 5.8730877176313e-08
"410" 14268 3.89570870236586e-09 4.5144035288326e-09 6.71861060125679e-09 4.23898518472188e-08 4.85434790738358e-07 2.54392437991339e-07 2.59151909132195e-08 5.87350228913994e-08
"411" 14269 3.89854688236204e-09 4.52122988442516e-09 6.75716942788836e-09 4.28248113883058e-08 4.81492313838358e-07 2.54159038908165e-07 2.59714737250555e-08 5.87391686064858e-08
"412" 14270 3.90419418127717e-09 4.52530274359417e-09 6.76942482964149e-09 4.27958720017872e-08 4.78006343429038e-07 2.54972973105351e-07 2.64698904450516e-08 5.85847991109434e-08
"413" 14271 3.9098414801923e-09 4.52937560276317e-09 6.78168023139463e-09 4.27669326152685e-08 4.74520373019718e-07 2.55786907302537e-07 2.69683071650477e-08 5.84304296154011e-08
"414" 14272 3.93171278595527e-09 4.54745496632964e-09 6.8082214287232e-09 4.27727944276108e-08 4.72785856151998e-07 2.55523611991796e-07 2.69991242426374e-08 5.88722846388318e-08
"415" 14273 3.95358409171824e-09 4.56553432989612e-09 6.83476262605178e-09 4.27786562399531e-08 4.71051339284278e-07 2.55260316681055e-07 2.7029941320227e-08 5.93141396622626e-08
"416" 14274 3.97545539748122e-09 4.58361369346259e-09 6.86130382338035e-09 4.27845180522953e-08 4.69316822416558e-07 2.54997021370313e-07 2.70607583978166e-08 5.97559946856933e-08
"417" 14275 3.98837153229291e-09 4.5948667014365e-09 6.87935404457986e-09 4.27146162137046e-08 4.71521756631831e-07 2.55035192394143e-07 2.70538765823081e-08 6.02745507931835e-08
"418" 14276 4.00128766710461e-09 4.59911645721168e-09 6.89740426577937e-09 4.27451750846391e-08 4.71639624672592e-07 2.54822018875735e-07 2.70966588471659e-08 6.07931069006737e-08
"419" 14277 4.01420380191631e-09 4.60336621298686e-09 6.91545448697888e-09 4.27757339555736e-08 4.71757492713353e-07 2.54608845357327e-07 2.71394411120237e-08 6.1311663008164e-08
"420" 14278 4.027119936728e-09 4.60761596876204e-09 6.93350470817838e-09 4.2806292826508e-08 4.71875360754114e-07 2.54395671838918e-07 2.71822233768815e-08 6.18302191156542e-08
"421" 14279 4.0400360715397e-09 4.61186572453721e-09 6.95155492937789e-09 4.28368516974425e-08 4.71993228794876e-07 2.5418249832051e-07 2.72250056417392e-08 6.23487752231444e-08
"422" 14280 4.05295220635139e-09 4.61611548031239e-09 6.9696051505774e-09 4.2867410568377e-08 4.72111096835637e-07 2.53969324802101e-07 2.7267787906597e-08 6.28673313306346e-08
"423" 14281 4.06586834116309e-09 4.62036523608757e-09 6.9876553717769e-09 4.28979694393114e-08 4.72228964876398e-07 2.53756151283693e-07 2.73105701714548e-08 6.33858874381248e-08
"424" 14282 4.07878447597478e-09 4.62461499186275e-09 7.00570559297641e-09 4.29285283102459e-08 4.72346832917159e-07 2.53542977765285e-07 2.73533524363126e-08 6.3904443545615e-08
"425" 14283 4.09170061078648e-09 4.62886474763792e-09 7.02375581417592e-09 4.29590871811804e-08 4.7246470095792e-07 2.53329804246876e-07 2.73961347011704e-08 6.44229996531053e-08
"426" 14284 4.07901932199477e-09 4.61308154449348e-09 7.01368564285172e-09 4.29691913214491e-08 4.71037392720893e-07 2.53155288921629e-07 2.74060188104717e-08 6.4354963992928e-08
"427" 14285 4.06633803320305e-09 4.59729834134903e-09 7.00361547152753e-09 4.29792954617177e-08 4.69610084483866e-07 2.52980773596382e-07 2.74159029197731e-08 6.42869283327508e-08
"428" 14286 4.05365674441134e-09 4.58151513820458e-09 6.99354530020333e-09 4.29893996019864e-08 4.68182776246839e-07 2.52806258271134e-07 2.74257870290744e-08 6.42188926725735e-08
"429" 14287 4.04097545561963e-09 4.56573193506013e-09 6.98347512887914e-09 4.29995037422551e-08 4.66755468009812e-07 2.52631742945887e-07 2.74356711383758e-08 6.41508570123963e-08
"430" 14288 4.02829416682792e-09 4.54994873191568e-09 6.97340495755494e-09 4.30096078825238e-08 4.65328159772785e-07 2.5245722762064e-07 2.74455552476771e-08 6.40828213522191e-08
"431" 14289 4.01561287803621e-09 4.53416552877123e-09 6.96333478623075e-09 4.30197120227924e-08 4.63900851535758e-07 2.52282712295393e-07 2.74554393569785e-08 6.40147856920418e-08
"432" 14290 4.0029315892445e-09 4.51838232562678e-09 6.95326461490655e-09 4.30298161630611e-08 4.62473543298731e-07 2.52108196970145e-07 2.74653234662798e-08 6.39467500318646e-08
"433" 14291 3.99025030045279e-09 4.50259912248233e-09 6.94319444358236e-09 4.30399203033298e-08 4.61046235061704e-07 2.51933681644898e-07 2.74752075755812e-08 6.38787143716873e-08
"434" 14292 3.97756901166107e-09 4.48681591933788e-09 6.93312427225816e-09 4.30500244435985e-08 4.59618926824677e-07 2.51759166319651e-07 2.74850916848825e-08 6.38106787115101e-08
"435" 14293 3.96488772286936e-09 4.47103271619343e-09 6.92305410093396e-09 4.30601285838671e-08 4.5819161858765e-07 2.51584650994403e-07 2.74949757941839e-08 6.37426430513329e-08
"436" 14294 3.95220643407765e-09 4.45524951304898e-09 6.91298392960977e-09 4.30702327241358e-08 4.56764310350623e-07 2.51410135669156e-07 2.75048599034852e-08 6.36746073911556e-08
"437" 14295 3.93952514528594e-09 4.43946630990453e-09 6.90291375828557e-09 4.30803368644045e-08 4.55337002113596e-07 2.51235620343909e-07 2.75147440127866e-08 6.36065717309784e-08
"438" 14296 3.92684385649423e-09 4.42368310676009e-09 6.89284358696138e-09 4.30904410046732e-08 4.53909693876569e-07 2.51061105018661e-07 2.7524628122088e-08 6.35385360708011e-08
"439" 14297 3.91416256770252e-09 4.40789990361564e-09 6.88277341563718e-09 4.31005451449418e-08 4.52482385639542e-07 2.50886589693414e-07 2.75345122313893e-08 6.34705004106239e-08
"440" 14298 3.88988467958522e-09 4.37809896793024e-09 6.85517612250379e-09 4.30887275594946e-08 4.52984427688278e-07 2.50128446342639e-07 2.74675688104615e-08 6.34974524462304e-08
"441" 14299 3.86560679146793e-09 4.34829803224484e-09 6.82757882937039e-09 4.30769099740475e-08 4.53486469737015e-07 2.49370302991865e-07 2.74006253895338e-08 6.3524404481837e-08
"442" 14300 3.86692632695405e-09 4.34327856437146e-09 6.84011955806369e-09 4.31061250749961e-08 4.53760420942044e-07 2.49258578432348e-07 2.74252266481833e-08 6.37889876047484e-08
"443" 14301 3.86824586244016e-09 4.33825909649807e-09 6.85266028675700e-09 4.31353401759447e-08 4.54034372147073e-07 2.49146853872832e-07 2.74498279068328e-08 6.40535707276599e-08
"444" 14302 3.86956539792628e-09 4.33323962862469e-09 6.8652010154503e-09 4.31645552768933e-08 4.54308323352102e-07 2.49035129313315e-07 2.74744291654822e-08 6.43181538505714e-08
"445" 14303 3.8708849334124e-09 4.3282201607513e-09 6.8777417441436e-09 4.3193770377842e-08 4.5458227455713e-07 2.48923404753799e-07 2.74990304241317e-08 6.45827369734829e-08
"446" 14304 3.87220446889851e-09 4.32320069287791e-09 6.8902824728369e-09 4.32229854787906e-08 4.54856225762159e-07 2.48811680194283e-07 2.75236316827812e-08 6.48473200963944e-08
"447" 14305 3.87352400438463e-09 4.31818122500453e-09 6.9028232015302e-09 4.32522005797392e-08 4.55130176967188e-07 2.48699955634766e-07 2.75482329414307e-08 6.51119032193059e-08
"448" 14306 3.87484353987074e-09 4.31316175713114e-09 6.91536393022351e-09 4.32814156806879e-08 4.55404128172217e-07 2.4858823107525e-07 2.75728342000802e-08 6.53764863422174e-08
"449" 14307 3.87616307535686e-09 4.30814228925776e-09 6.92790465891681e-09 4.33106307816365e-08 4.55678079377245e-07 2.48476506515734e-07 2.75974354587296e-08 6.56410694651289e-08
"450" 14308 3.85844948507618e-09 4.28712130451807e-09 6.90207677893865e-09 4.32825890877293e-08 4.57012263983369e-07 2.47718328413601e-07 2.75427642970121e-08 6.56414605703257e-08
"451" 14309 3.83621805566341e-09 4.28189475106632e-09 6.9714388435839e-09 4.38223105098687e-08 4.57353152187437e-07 2.46915291490384e-07 2.78576985204137e-08 6.56472109446141e-08
"452" 14310 3.81398662625063e-09 4.27666819761456e-09 7.04080090822915e-09 4.43620319320081e-08 4.57694040391505e-07 2.46112254567168e-07 2.81726327438154e-08 6.56529613189025e-08
"453" 14311 3.79175519683785e-09 4.27144164416281e-09 7.1101629728744e-09 4.49017533541474e-08 4.58034928595573e-07 2.45309217643952e-07 2.8487566967217e-08 6.56587116931909e-08
"454" 14312 3.76952376742507e-09 4.26621509071106e-09 7.17952503751964e-09 4.54414747762868e-08 4.58375816799642e-07 2.44506180720735e-07 2.88025011906186e-08 6.56644620674792e-08
"455" 14313 3.7472923380123e-09 4.2609885372593e-09 7.24888710216489e-09 4.59811961984262e-08 4.5871670500371e-07 2.43703143797519e-07 2.91174354140203e-08 6.56702124417676e-08
"456" 14314 3.72506090859952e-09 4.25576198380755e-09 7.31824916681014e-09 4.65209176205656e-08 4.59057593207778e-07 2.42900106874303e-07 2.94323696374219e-08 6.5675962816056e-08
"457" 14315 3.70282947918674e-09 4.25053543035579e-09 7.38761123145539e-09 4.7060639042705e-08 4.59398481411846e-07 2.42097069951086e-07 2.97473038608236e-08 6.56817131903444e-08
"458" 14316 3.68059804977397e-09 4.24530887690404e-09 7.45697329610064e-09 4.76003604648443e-08 4.59739369615914e-07 2.4129403302787e-07 3.00622380842252e-08 6.56874635646328e-08
"459" 14317 3.65836662036119e-09 4.24008232345228e-09 7.52633536074589e-09 4.81400818869837e-08 4.60080257819982e-07 2.40490996104653e-07 3.03771723076269e-08 6.56932139389212e-08
"460" 14318 3.63613519094841e-09 4.23485577000053e-09 7.59569742539114e-09 4.86798033091231e-08 4.6042114602405e-07 2.39687959181437e-07 3.06921065310285e-08 6.56989643132095e-08
"461" 14319 3.61390376153563e-09 4.22962921654877e-09 7.66505949003638e-09 4.92195247312625e-08 4.60762034228118e-07 2.38884922258221e-07 3.10070407544302e-08 6.57047146874979e-08
"462" 14320 3.61508466755435e-09 4.25051472179795e-09 7.76410896926391e-09 4.9629018914068e-08 4.60967701199147e-07 2.38914604825903e-07 3.13715578802449e-08 6.57084994761985e-08
"463" 14321 3.59285323814157e-09 4.23956286177724e-09 7.85133103714856e-09 5.00123256317901e-08 4.60051448415736e-07 2.38052828942086e-07 3.1640645917222e-08 6.5515286091276e-08
"464" 14322 3.57062180872879e-09 4.22861100175652e-09 7.9385531050332e-09 5.03956323495121e-08 4.59135195632325e-07 2.37191053058268e-07 3.19097339541991e-08 6.53220727063535e-08
"465" 14323 3.54839037931601e-09 4.2176591417358e-09 8.02577517291785e-09 5.07789390672341e-08 4.58218942848914e-07 2.36329277174451e-07 3.21788219911761e-08 6.5128859321431e-08
"466" 14324 3.52615894990324e-09 4.20670728171509e-09 8.11299724080249e-09 5.11622457849562e-08 4.57302690065503e-07 2.35467501290633e-07 3.24479100281532e-08 6.49356459365085e-08
"467" 14325 3.50392752049046e-09 4.19575542169437e-09 8.20021930868713e-09 5.15455525026782e-08 4.56386437282092e-07 2.34605725406816e-07 3.27169980651303e-08 6.4742432551586e-08
"468" 14326 3.48169609107768e-09 4.18480356167365e-09 8.28744137657178e-09 5.19288592204002e-08 4.55470184498681e-07 2.33743949522998e-07 3.29860861021073e-08 6.45492191666635e-08
"469" 14327 3.4594646616649e-09 4.17385170165294e-09 8.37466344445642e-09 5.23121659381223e-08 4.5455393171527e-07 2.32882173639181e-07 3.32551741390844e-08 6.4356005781741e-08
"470" 14328 3.43723323225213e-09 4.16289984163222e-09 8.46188551234107e-09 5.26954726558443e-08 4.53637678931859e-07 2.32020397755363e-07 3.35242621760615e-08 6.41627923968185e-08
"471" 14329 3.43723323225213e-09 4.13106247636232e-09 8.48545739918333e-09 5.25978991135368e-08 4.52698615062317e-07 2.31178824268739e-07 3.34006916813058e-08 6.39759063603409e-08
"472" 14330 3.43723323225213e-09 4.09922511109242e-09 8.50902928602559e-09 5.25003255712292e-08 4.51759551192776e-07 2.30337250782115e-07 3.32771211865501e-08 6.37890203238634e-08
"473" 14331 3.41313874391913e-09 4.06565246419122e-09 8.50581116800876e-09 5.24441426847895e-08 4.51437543188177e-07 2.29440552526938e-07 3.37840264846283e-08 6.37934789231073e-08
"474" 14332 3.38904425558614e-09 4.03207981729001e-09 8.50259304999193e-09 5.23879597983499e-08 4.51115535183577e-07 2.28543854271761e-07 3.42909317827066e-08 6.37979375223511e-08
"475" 14333 3.38904425558614e-09 4.03429314348069e-09 8.51120234331798e-09 5.25169785134804e-08 4.49760896791781e-07 2.28335100028691e-07 3.48777285325807e-08 6.38119808306723e-08
"476" 14334 3.38678533602009e-09 4.01621377991421e-09 8.50388691824689e-09 5.26441312940666e-08 4.49438888787181e-07 2.28272274511602e-07 3.55073075473127e-08 6.39723733462459e-08
"477" 14335 3.38452641645404e-09 3.99813441634774e-09 8.49657149317580e-09 5.27712840746528e-08 4.49116880782582e-07 2.28209448994513e-07 3.61368865620446e-08 6.41327658618195e-08
"478" 14336 3.38226749688799e-09 3.98005505278127e-09 8.4892560681047e-09 5.28984368552391e-08 4.48794872777983e-07 2.28146623477424e-07 3.67664655767765e-08 6.42931583773931e-08
"479" 14337 3.38000857732194e-09 3.9619756892148e-09 8.48194064303361e-09 5.30255896358253e-08 4.48472864773383e-07 2.28083797960335e-07 3.73960445915085e-08 6.44535508929667e-08
"480" 14338 3.37774965775588e-09 3.94389632564832e-09 8.47462521796252e-09 5.31527424164115e-08 4.48150856768784e-07 2.28020972443246e-07 3.80256236062404e-08 6.46139434085402e-08
"481" 14339 3.37549073818983e-09 3.92581696208185e-09 8.46730979289142e-09 5.32798951969977e-08 4.47828848764185e-07 2.27958146926157e-07 3.86552026209723e-08 6.47743359241138e-08
"482" 14340 3.37323181862378e-09 3.90773759851538e-09 8.45999436782033e-09 5.3407047977584e-08 4.47506840759585e-07 2.27895321409068e-07 3.92847816357043e-08 6.49347284396874e-08
"483" 14341 3.37097289905773e-09 3.8896582349489e-09 8.45267894274924e-09 5.35342007581702e-08 4.47184832754986e-07 2.27832495891979e-07 3.99143606504362e-08 6.5095120955261e-08
"484" 14342 3.36871397949168e-09 3.87157887138243e-09 8.44536351767814e-09 5.36613535387564e-08 4.46862824750386e-07 2.2776967037489e-07 4.05439396651682e-08 6.52555134708346e-08
"485" 14343 3.36999777798176e-09 3.85746882419578e-09 8.44126621062388e-09 5.3688274501365e-08 4.45958806792267e-07 2.27815840754905e-07 4.08093105363359e-08 6.52328837116005e-08
"486" 14344 3.37128157647185e-09 3.84335877700912e-09 8.43716890356962e-09 5.37151954639735e-08 4.45054788834147e-07 2.27862011134921e-07 4.10746814075037e-08 6.52102539523665e-08
"487" 14345 3.37256537496193e-09 3.82924872982247e-09 8.43307159651536e-09 5.37421164265821e-08 4.44150770876027e-07 2.27908181514936e-07 4.13400522786715e-08 6.51876241931324e-08
"488" 14346 3.37384917345202e-09 3.81513868263581e-09 8.4289742894611e-09 5.37690373891906e-08 4.43246752917907e-07 2.27954351894951e-07 4.16054231498392e-08 6.51649944338984e-08
"489" 14347 3.3751329719421e-09 3.80102863544916e-09 8.42487698240684e-09 5.37959583517992e-08 4.42342734959787e-07 2.28000522274966e-07 4.1870794021007e-08 6.51423646746643e-08
"490" 14348 3.37641677043218e-09 3.78691858826251e-09 8.42077967535257e-09 5.38228793144077e-08 4.41438717001667e-07 2.28046692654982e-07 4.21361648921748e-08 6.51197349154303e-08
"491" 14349 3.37770056892227e-09 3.77280854107585e-09 8.41668236829831e-09 5.38498002770163e-08 4.40534699043547e-07 2.28092863034997e-07 4.24015357633426e-08 6.50971051561962e-08
"492" 14350 3.37898436741235e-09 3.7586984938892e-09 8.41258506124405e-09 5.38767212396249e-08 4.39630681085427e-07 2.28139033415012e-07 4.26669066345103e-08 6.50744753969621e-08
"493" 14351 3.38026816590244e-09 3.74458844670254e-09 8.40848775418979e-09 5.39036422022334e-08 4.38726663127307e-07 2.28185203795027e-07 4.29322775056781e-08 6.50518456377281e-08
"494" 14352 3.38026816590244e-09 3.72455548778292e-09 8.39465315724153e-09 5.39333384977183e-08 4.38080818597161e-07 2.28672206289199e-07 4.29481319897515e-08 6.51590574387203e-08
"495" 14353 3.38026816590244e-09 3.70452252886329e-09 8.38081856029327e-09 5.39630347932032e-08 4.37434974067014e-07 2.29159208783372e-07 4.29639864738249e-08 6.52662692397125e-08
"496" 14354 3.38026816590244e-09 3.68448956994366e-09 8.366983963345e-09 5.39927310886881e-08 4.36789129536868e-07 2.29646211277544e-07 4.29798409578984e-08 6.53734810407046e-08
"497" 14355 3.38026816590244e-09 3.66445661102404e-09 8.35314936639674e-09 5.4022427384173e-08 4.36143285006721e-07 2.30133213771716e-07 4.29956954419718e-08 6.54806928416968e-08
"498" 14356 3.38026816590244e-09 3.64442365210441e-09 8.33931476944848e-09 5.40521236796579e-08 4.35497440476575e-07 2.30620216265888e-07 4.30115499260452e-08 6.5587904642689e-08
"499" 14357 3.37614618741617e-09 3.6406519408886e-09 8.3352771900208e-09 5.40492895031808e-08 4.35886577811707e-07 2.31140879768894e-07 4.30022750730831e-08 6.54399902627193e-08
"500" 14358 3.3720242089299e-09 3.63688022967279e-09 8.33123961059311e-09 5.40464553267036e-08 4.36275715146838e-07 2.316615432719e-07 4.29930002201209e-08 6.52920758827496e-08
"501" 14359 3.36790223044363e-09 3.63310851845699e-09 8.32720203116543e-09 5.40436211502265e-08 4.3666485248197e-07 2.32182206774906e-07 4.29837253671588e-08 6.51441615027798e-08
"502" 14360 3.36378025195737e-09 3.62933680724118e-09 8.32316445173775e-09 5.40407869737493e-08 4.37053989817102e-07 2.32702870277912e-07 4.29744505141967e-08 6.49962471228101e-08
"503" 14361 3.3596582734711e-09 3.62556509602537e-09 8.31912687231006e-09 5.40379527972722e-08 4.37443127152234e-07 2.33223533780918e-07 4.29651756612345e-08 6.48483327428404e-08
"504" 14362 3.35553629498483e-09 3.62179338480956e-09 8.31508929288238e-09 5.4035118620795e-08 4.37832264487365e-07 2.33744197283924e-07 4.29559008082724e-08 6.47004183628707e-08
"505" 14363 3.35141431649856e-09 3.61802167359376e-09 8.31105171345470e-09 5.40322844443179e-08 4.38221401822497e-07 2.3426486078693e-07 4.29466259553103e-08 6.45525039829009e-08
"506" 14364 3.3472923380123e-09 3.61424996237795e-09 8.30701413402701e-09 5.40294502678407e-08 4.38610539157629e-07 2.34785524289936e-07 4.29373511023482e-08 6.44045896029312e-08
"507" 14365 3.35721595412075e-09 3.6124939721888e-09 8.32583626214734e-09 5.42232773089089e-08 4.39225154572884e-07 2.37349775598345e-07 4.32216159414321e-08 6.42114745582554e-08
"508" 14366 3.35437777412457e-09 3.60870155241516e-09 8.31948296195719e-09 5.42038317901981e-08 4.38823827355519e-07 2.38373290358831e-07 4.33020452467037e-08 6.39352048178074e-08
"509" 14367 3.34867902897375e-09 3.60467011036183e-09 8.31417472249147e-09 5.41864046953974e-08 4.38965866276634e-07 2.39671983626477e-07 4.32790165378142e-08 6.48004647589821e-08
"510" 14368 3.34298028382294e-09 3.6006386683085e-09 8.30886648302576e-09 5.41689776005968e-08 4.39107905197748e-07 2.40970676894123e-07 4.32559878289247e-08 6.56657247001568e-08
"511" 14369 3.33728153867213e-09 3.59660722625517e-09 8.30355824356004e-09 5.41515505057961e-08 4.39249944118863e-07 2.42269370161769e-07 4.32329591200352e-08 6.65309846413315e-08
"512" 14370 3.33158279352131e-09 3.59257578420184e-09 8.29825000409433e-09 5.41341234109954e-08 4.39391983039977e-07 2.43568063429415e-07 4.32099304111457e-08 6.73962445825061e-08
"513" 14371 3.3258840483705e-09 3.58854434214851e-09 8.29294176462861e-09 5.41166963161947e-08 4.39534021961092e-07 2.44866756697061e-07 4.31869017022562e-08 6.82615045236808e-08
"514" 14372 3.32018530321968e-09 3.58451290009518e-09 8.28763352516290e-09 5.4099269221394e-08 4.39676060882207e-07 2.46165449964706e-07 4.31638729933667e-08 6.91267644648555e-08
"515" 14373 3.31448655806887e-09 3.58048145804185e-09 8.28232528569718e-09 5.40818421265933e-08 4.39818099803321e-07 2.47464143232352e-07 4.31408442844772e-08 6.99920244060302e-08
"516" 14374 3.30878781291806e-09 3.57645001598852e-09 8.27701704623147e-09 5.40644150317926e-08 4.39960138724436e-07 2.48762836499998e-07 4.31178155755877e-08 7.08572843472049e-08
"517" 14375 3.30308906776724e-09 3.57241857393519e-09 8.27170880676575e-09 5.40469879369919e-08 4.40102177645551e-07 2.50061529767644e-07 4.30947868666982e-08 7.17225442883796e-08
"518" 14376 3.29739032261643e-09 3.56838713188186e-09 8.26640056730003e-09 5.40295608421912e-08 4.40244216566665e-07 2.5136022303529e-07 4.30717581578087e-08 7.25878042295543e-08
"519" 14377 3.28888245854667e-09 3.54809444212471e-09 8.218234941108e-09 5.38746716614271e-08 4.36951603333633e-07 2.51791382556013e-07 4.30433438927623e-08 7.36592831193236e-08
"520" 14378 3.26895471901684e-09 3.53205150814274e-09 8.20689410974577e-09 5.38803045822218e-08 4.37336371803217e-07 2.52701077351703e-07 4.29883998719164e-08 7.481608827862e-08
"521" 14379 3.24902697948701e-09 3.51600857416077e-09 8.19555327838354e-09 5.38859375030166e-08 4.37721140272802e-07 2.53610772147392e-07 4.29334558510704e-08 7.59728934379163e-08
"522" 14380 3.22909923995717e-09 3.4999656401788e-09 8.18421244702132e-09 5.38915704238113e-08 4.38105908742387e-07 2.54520466943082e-07 4.28785118302245e-08 7.71296985972127e-08
"523" 14381 3.20917150042734e-09 3.48392270619683e-09 8.17287161565909e-09 5.38972033446061e-08 4.38490677211971e-07 2.55430161738771e-07 4.28235678093786e-08 7.8286503756509e-08
"524" 14382 3.18924376089751e-09 3.46787977221486e-09 8.16153078429686e-09 5.39028362654008e-08 4.38875445681556e-07 2.56339856534461e-07 4.27686237885326e-08 7.94433089158054e-08
"525" 14383 3.16931602136768e-09 3.45183683823289e-09 8.15018995293464e-09 5.39084691861956e-08 4.39260214151141e-07 2.5724955133015e-07 4.27136797676867e-08 8.06001140751018e-08
"526" 14384 3.14938828183784e-09 3.43579390425092e-09 8.13884912157241e-09 5.39141021069903e-08 4.39644982620726e-07 2.5815924612584e-07 4.26587357468408e-08 8.17569192343981e-08
"527" 14385 3.12946054230801e-09 3.41975097026894e-09 8.12750829021018e-09 5.3919735027785e-08 4.4002975109031e-07 2.59068940921529e-07 4.26037917259948e-08 8.29137243936945e-08
"528" 14386 3.10953280277818e-09 3.40370803628697e-09 8.11616745884796e-09 5.39253679485798e-08 4.40414519559895e-07 2.59978635717219e-07 4.25488477051489e-08 8.40705295529909e-08
"529" 14387 3.08892291034684e-09 3.39161371012698e-09 8.10400716607488e-09 5.42982532115856e-08 4.40687726364414e-07 2.5964025392945e-07 4.27255510246758e-08 8.40892281410493e-08
"530" 14388 3.0683130179155e-09 3.37951938396699e-09 8.0918468733018e-09 5.46711384745914e-08 4.40960933168933e-07 2.59301872141682e-07 4.29022543442028e-08 8.41079267291077e-08
"531" 14389 3.05342425579343e-09 3.36373618082255e-09 8.09987447766714e-09 5.55353248223476e-08 4.40942206180277e-07 2.59138040430519e-07 4.28443129171088e-08 8.41586531645877e-08
"532" 14390 3.03853549367135e-09 3.3479529776781e-09 8.10790208203248e-09 5.63995111701038e-08 4.4092347919162e-07 2.58974208719356e-07 4.27863714900148e-08 8.42093796000678e-08
"533" 14391 3.02364673154928e-09 3.33216977453365e-09 8.11592968639782e-09 5.72636975178601e-08 4.40904752202964e-07 2.58810377008193e-07 4.27284300629208e-08 8.42601060355478e-08
"534" 14392 3.02750480293832e-09 3.33242950537117e-09 8.12750829021018e-09 5.79865136947595e-08 4.38981858231796e-07 2.5904975533688e-07 4.24845691138755e-08 8.42904912411428e-08
"535" 14393 3.03096701368153e-09 3.3304137843445e-09 8.13880156708238e-09 5.88489339215944e-08 4.35557888970287e-07 2.59095332362859e-07 4.24615159672619e-08 8.43274283986971e-08
"536" 14394 3.03442922442474e-09 3.32839806331784e-09 8.15009484395458e-09 5.97113541484294e-08 4.32133919708777e-07 2.59140909388838e-07 4.24384628206484e-08 8.43643655562514e-08
"537" 14395 3.03789143516795e-09 3.32638234229117e-09 8.16138812082678e-09 6.05737743752643e-08 4.28709950447268e-07 2.59186486414816e-07 4.24154096740348e-08 8.44013027138057e-08
"538" 14396 3.04135364591116e-09 3.32436662126451e-09 8.17268139769898e-09 6.14361946020992e-08 4.25285981185759e-07 2.59232063440795e-07 4.23923565274213e-08 8.443823987136e-08
"539" 14397 3.04481585665437e-09 3.32235090023785e-09 8.18397467457118e-09 6.22986148289341e-08 4.2186201192425e-07 2.59277640466774e-07 4.23693033808077e-08 8.44751770289144e-08
"540" 14398 3.04827806739758e-09 3.32033517921118e-09 8.19526795144338e-09 6.3161035055769e-08 4.1843804266274e-07 2.59323217492753e-07 4.23462502341942e-08 8.45121141864687e-08
"541" 14399 3.05174027814079e-09 3.31831945818452e-09 8.20656122831557e-09 6.4023455282604e-08 4.15014073401231e-07 2.59368794518732e-07 4.23231970875807e-08 8.4549051344023e-08
"542" 14400 3.055202488884e-09 3.31630373715785e-09 8.21785450518777e-09 6.48858755094389e-08 4.11590104139722e-07 2.5941437154471e-07 4.23001439409671e-08 8.45859885015774e-08
"543" 14401 3.05294356931795e-09 3.31500508297024e-09 8.20968423735235e-09 6.50380716123687e-08 4.12147896633876e-07 2.599318520367e-07 4.25272976157403e-08 8.55334637341219e-08
"544" 14402 3.05068464975189e-09 3.31370642878263e-09 8.20151396951693e-09 6.51902677152986e-08 4.12705689128029e-07 2.6044933252869e-07 4.27544512905136e-08 8.64809389666664e-08
"545" 14403 3.04842573018584e-09 3.31240777459502e-09 8.1933437016815e-09 6.53424638182285e-08 4.13263481622183e-07 2.6096681302068e-07 4.29816049652868e-08 8.74284141992109e-08
"546" 14404 3.04616681061979e-09 3.31110912040741e-09 8.18517343384608e-09 6.54946599211583e-08 4.13821274116337e-07 2.6148429351267e-07 4.320875864006e-08 8.83758894317554e-08
"547" 14405 3.04390789105374e-09 3.3098104662198e-09 8.17700316601066e-09 6.56468560240882e-08 4.14379066610491e-07 2.62001774004659e-07 4.34359123148332e-08 8.93233646642999e-08
"548" 14406 3.04164897148769e-09 3.30851181203219e-09 8.16883289817523e-09 6.57990521270181e-08 4.14936859104644e-07 2.62519254496649e-07 4.36630659896064e-08 9.02708398968444e-08
"549" 14407 3.03939005192164e-09 3.30721315784458e-09 8.16066263033981e-09 6.59512482299479e-08 4.15494651598798e-07 2.63036734988639e-07 4.38902196643796e-08 9.12183151293889e-08
"550" 14408 3.03713113235559e-09 3.30591450365697e-09 8.15249236250439e-09 6.61034443328778e-08 4.16052444092952e-07 2.63554215480629e-07 4.41173733391529e-08 9.21657903619334e-08
"551" 14409 3.03487221278954e-09 3.30461584946936e-09 8.14432209466896e-09 6.62556404358076e-08 4.16610236587105e-07 2.64071695972619e-07 4.43445270139261e-08 9.31132655944779e-08
"552" 14410 3.04180331019475e-09 3.3383748733911e-09 8.17139742646823e-09 6.62538743148863e-08 4.15615848606279e-07 2.64030495748096e-07 4.4358769847881e-08 9.31878532066145e-08
"553" 14411 3.04873440759996e-09 3.37213389731284e-09 8.19847275826749e-09 6.6252108193965e-08 4.14621460625453e-07 2.63989295523574e-07 4.4373012681836e-08 9.32624408187512e-08
"554" 14412 3.05566550500517e-09 3.40589292123457e-09 8.22554809006675e-09 6.62503420730437e-08 4.13627072644627e-07 2.63948095299052e-07 4.4387255515791e-08 9.33370284308878e-08
"555" 14413 3.06259660241038e-09 3.43965194515631e-09 8.25262342186601e-09 6.62485759521224e-08 4.12632684663801e-07 2.6390689507453e-07 4.44014983497459e-08 9.34116160430244e-08
"556" 14414 3.0695276998156e-09 3.47341096907805e-09 8.27969875366527e-09 6.62468098312011e-08 4.11638296682975e-07 2.63865694850008e-07 4.44157411837009e-08 9.34862036551611e-08
"557" 14415 3.04378261342392e-09 3.46743541208592e-09 8.2802694075456e-09 6.62368113574157e-08 4.14137874078009e-07 2.6284689990314e-07 4.43249339035556e-08 9.35075516989543e-08
"558" 14416 3.01803752703225e-09 3.4614598550938e-09 8.28084006142594e-09 6.62268128836303e-08 4.16637451473043e-07 2.61828104956272e-07 4.42341266234102e-08 9.35288997427475e-08
"559" 14417 2.99229244064058e-09 3.45548429810167e-09 8.28141071530627e-09 6.62168144098449e-08 4.19137028868077e-07 2.60809310009403e-07 4.41433193432649e-08 9.35502477865407e-08
"560" 14418 2.9665473542489e-09 3.44950874110955e-09 8.28198136918661e-09 6.62068159360595e-08 4.21636606263111e-07 2.59790515062535e-07 4.40525120631196e-08 9.35715958303339e-08
"561" 14419 2.94080226785723e-09 3.44353318411742e-09 8.28255202306694e-09 6.61968174622742e-08 4.24136183658145e-07 2.58771720115667e-07 4.39617047829742e-08 9.35929438741272e-08
"562" 14420 2.91505718146556e-09 3.4375576271253e-09 8.28312267694728e-09 6.61868189884888e-08 4.26635761053179e-07 2.57752925168799e-07 4.38708975028289e-08 9.36142919179204e-08
"563" 14421 2.88931209507388e-09 3.43158207013317e-09 8.28369333082761e-09 6.61768205147034e-08 4.29135338448213e-07 2.56734130221931e-07 4.37800902226836e-08 9.36356399617136e-08
"564" 14422 2.86356700868221e-09 3.42560651314104e-09 8.28426398470794e-09 6.6166822040918e-08 4.31634915843248e-07 2.55715335275063e-07 4.36892829425383e-08 9.36569880055068e-08
"565" 14423 2.83782192229054e-09 3.41963095614892e-09 8.28483463858828e-09 6.61568235671326e-08 4.34134493238282e-07 2.54696540328195e-07 4.35984756623929e-08 9.36783360493e-08
"566" 14424 2.80642953698374e-09 3.37785994565055e-09 8.24943534040313e-09 6.62327162959901e-08 4.36243990743805e-07 2.54209741840753e-07 4.34754655485284e-08 9.36432761966905e-08
"567" 14425 2.77503715167694e-09 3.33979852069449e-09 8.22586345356087e-09 6.63404001464244e-08 4.38794572514055e-07 2.5315433584023e-07 4.33473622878145e-08 9.35817142674333e-08
"568" 14426 2.74364476637014e-09 3.30173709573842e-09 8.20229156671861e-09 6.64480839968586e-08 4.41345154284306e-07 2.52098929839707e-07 4.32192590271007e-08 9.35201523381761e-08
"569" 14427 2.71225238106334e-09 3.26367567078235e-09 8.17871967987635e-09 6.65557678472928e-08 4.43895736054556e-07 2.51043523839184e-07 4.30911557663869e-08 9.34585904089189e-08
"570" 14428 2.68085999575654e-09 3.22561424582628e-09 8.15514779303409e-09 6.6663451697727e-08 4.46446317824807e-07 2.49988117838661e-07 4.2963052505673e-08 9.33970284796617e-08
"571" 14429 2.64946761044973e-09 3.18755282087021e-09 8.13157590619182e-09 6.67711355481612e-08 4.48996899595057e-07 2.48932711838138e-07 4.28349492449592e-08 9.33354665504044e-08
"572" 14430 2.61807522514293e-09 3.14949139591415e-09 8.10800401934956e-09 6.68788193985954e-08 4.51547481365307e-07 2.47877305837615e-07 4.27068459842454e-08 9.32739046211472e-08
"573" 14431 2.58668283983613e-09 3.11142997095808e-09 8.0844321325073e-09 6.69865032490297e-08 4.54098063135558e-07 2.46821899837092e-07 4.25787427235315e-08 9.321234269189e-08
"574" 14432 2.55529045452933e-09 3.07336854600201e-09 8.06086024566504e-09 6.70941870994639e-08 4.56648644905808e-07 2.45766493836569e-07 4.24506394628177e-08 9.31507807626328e-08
"575" 14433 2.52389806922253e-09 3.03530712104594e-09 8.03728835882278e-09 6.72018709498981e-08 4.59199226676059e-07 2.44711087836045e-07 4.23225362021039e-08 9.30892188333756e-08
"576" 14434 2.49250568391573e-09 2.99724569608987e-09 8.01371647198051e-09 6.73095548003323e-08 4.61749808446309e-07 2.43655681835522e-07 4.219443294139e-08 9.30276569041184e-08
"577" 14435 2.46111329860893e-09 2.95918427113381e-09 7.99014458513825e-09 6.74172386507665e-08 4.6430039021656e-07 2.42600275834999e-07 4.20663296806762e-08 9.29660949748612e-08
"578" 14436 2.46483941644936e-09 2.96211466416354e-09 7.99811246187702e-09 6.75365229008211e-08 4.66058859600105e-07 2.42507808293479e-07 4.20654329025742e-08 9.29790919827896e-08
"579" 14437 2.45998383882591e-09 2.965803541148e-09 8.00784975177101e-09 6.7614897689544e-08 4.68400074964839e-07 2.42609586750116e-07 4.19527342482646e-08 9.240973046685e-08
"580" 14438 2.45512826120245e-09 2.96949241813246e-09 8.01758704166501e-09 6.76932724782669e-08 4.70741290329573e-07 2.42711365206754e-07 4.18400355939551e-08 9.18403689509104e-08
"581" 14439 2.45027268357899e-09 2.97318129511692e-09 8.02732433155902e-09 6.77716472669898e-08 4.73082505694306e-07 2.42813143663391e-07 4.17273369396456e-08 9.12710074349708e-08
"582" 14440 2.44541710595553e-09 2.97687017210138e-09 8.03706162145301e-09 6.78500220557127e-08 4.7542372105904e-07 2.42914922120028e-07 4.1614638285336e-08 9.07016459190312e-08
"583" 14441 2.44056152833207e-09 2.98055904908584e-09 8.04679891134702e-09 6.79283968444357e-08 4.77764936423774e-07 2.43016700576666e-07 4.15019396310265e-08 9.01322844030916e-08
"584" 14442 2.43570595070861e-09 2.9842479260703e-09 8.05653620124102e-09 6.80067716331586e-08 4.80106151788508e-07 2.43118479033303e-07 4.13892409767169e-08 8.9562922887152e-08
"585" 14443 2.43085037308516e-09 2.98793680305476e-09 8.06627349113502e-09 6.80851464218815e-08 4.82447367153242e-07 2.4322025748994e-07 4.12765423224074e-08 8.89935613712124e-08
"586" 14444 2.4259947954617e-09 2.99162568003922e-09 8.07601078102902e-09 6.81635212106044e-08 4.84788582517975e-07 2.43322035946577e-07 4.11638436680978e-08 8.84241998552728e-08
"587" 14445 2.43009438878952e-09 3.00040563098493e-09 8.07778019418425e-09 6.81242136751077e-08 4.85176738178047e-07 2.44189569693499e-07 4.18411161884513e-08 8.90863759893814e-08
"588" 14446 2.43419398211734e-09 3.00918558193065e-09 8.07954960733949e-09 6.8084906139611e-08 4.85564893838119e-07 2.45057103440421e-07 4.25183887088047e-08 8.97485521234899e-08
"589" 14447 2.46689922699146e-09 3.04471182418501e-09 8.12577881063311e-09 6.80813738977684e-08 4.85287626225632e-07 2.45446181068249e-07 4.24834143628263e-08 8.92496518718779e-08
"590" 14448 2.49960447186559e-09 3.08023806643937e-09 8.17200801392673e-09 6.80778416559258e-08 4.85010358613146e-07 2.45835258696077e-07 4.24484400168478e-08 8.87507516202658e-08
"591" 14449 2.53230971673971e-09 3.11576430869372e-09 8.21823721722034e-09 6.80743094140832e-08 4.8473309100066e-07 2.46224336323904e-07 4.24134656708694e-08 8.82518513686538e-08
"592" 14450 2.56934272504285e-09 3.1392583504616e-09 8.24636864482442e-09 6.81212978735839e-08 4.81261886666942e-07 2.45557357318399e-07 4.24914872760529e-08 8.8284456190232e-08
"593" 14451 2.60976411269506e-09 3.1710957157315e-09 8.27914368709e-09 6.79900201372752e-08 4.80310995924602e-07 2.45249364719422e-07 4.25081475851856e-08 8.83682567735264e-08
"594" 14452 2.65018550034727e-09 3.2029330810014e-09 8.31191872935558e-09 6.78587424009665e-08 4.79360105182262e-07 2.44941372120445e-07 4.25248078943182e-08 8.84520573568209e-08
"595" 14453 2.69060688799948e-09 3.2347704462713e-09 8.34469377162115e-09 6.77274646646577e-08 4.78409214439923e-07 2.44633379521468e-07 4.25414682034508e-08 8.85358579401153e-08
"596" 14454 2.7310282756517e-09 3.2666078115412e-09 8.37746881388673e-09 6.7596186928349e-08 4.77458323697583e-07 2.44325386922491e-07 4.25581285125835e-08 8.86196585234097e-08
"597" 14455 2.77144966330391e-09 3.2984451768111e-09 8.41024385615231e-09 6.74649091920403e-08 4.76507432955243e-07 2.44017394323514e-07 4.25747888217161e-08 8.87034591067042e-08
"598" 14456 2.81187105095612e-09 3.330282542081e-09 8.44301889841788e-09 6.73336314557316e-08 4.75556542212903e-07 2.43709401724537e-07 4.25914491308488e-08 8.87872596899986e-08
"599" 14457 2.85229243860833e-09 3.3621199073509e-09 8.47579394068346e-09 6.72023537194228e-08 4.74605651470563e-07 2.43401409125561e-07 4.26081094399814e-08 8.8871060273293e-08
"600" 14458 2.89271382626055e-09 3.3939572726208e-09 8.50856898294904e-09 6.70710759831141e-08 4.73654760728224e-07 2.43093416526584e-07 4.2624769749114e-08 8.89548608565875e-08
"601" 14459 2.89557439141518e-09 3.39098546247539e-09 8.49307225496215e-09 6.70161601494808e-08 4.74566133333708e-07 2.42367181791524e-07 4.25678923435732e-08 8.89765225364681e-08
"602" 14460 2.89843495656981e-09 3.38801365232999e-09 8.47757552697525e-09 6.69612443158476e-08 4.75477505939192e-07 2.41640947056465e-07 4.25110149380324e-08 8.89981842163488e-08
"603" 14461 2.90129552172444e-09 3.38504184218458e-09 8.46207879898836e-09 6.69063284822143e-08 4.76388878544676e-07 2.40914712321405e-07 4.24541375324915e-08 8.90198458962294e-08
"604" 14462 2.90415608687907e-09 3.38207003203918e-09 8.44658207100146e-09 6.68514126485811e-08 4.7730025115016e-07 2.40188477586346e-07 4.23972601269507e-08 8.90415075761101e-08
"605" 14463 2.9070166520337e-09 3.37909822189377e-09 8.43108534301457e-09 6.67964968149478e-08 4.78211623755644e-07 2.39462242851286e-07 4.23403827214099e-08 8.90631692559907e-08
"606" 14464 2.90987721718833e-09 3.37612641174837e-09 8.41558861502767e-09 6.67415809813146e-08 4.79122996361128e-07 2.38736008116227e-07 4.2283505315869e-08 8.90848309358714e-08
"607" 14465 2.91273778234296e-09 3.37315460160296e-09 8.40009188704078e-09 6.66866651476813e-08 4.80034368966612e-07 2.38009773381167e-07 4.22266279103282e-08 8.9106492615752e-08
"608" 14466 2.91559834749759e-09 3.37018279145756e-09 8.38459515905388e-09 6.6631749314048e-08 4.80945741572096e-07 2.37283538646108e-07 4.21697505047874e-08 8.91281542956327e-08
"609" 14467 2.94563310292017e-09 3.37026562568891e-09 8.36905087657696e-09 6.64615805403178e-08 4.81107178548883e-07 2.36620129428137e-07 4.21666279326829e-08 9.03380403254038e-08
"610" 14468 2.97566785834276e-09 3.37034845992025e-09 8.35350659410004e-09 6.62914117665875e-08 4.81268615525669e-07 2.35956720210167e-07 4.21635053605784e-08 9.1547926355175e-08
"611" 14469 3.00570261376534e-09 3.3704312941516e-09 8.33796231162312e-09 6.61212429928573e-08 4.81430052502455e-07 2.35293310992196e-07 4.21603827884739e-08 9.27578123849461e-08
"612" 14470 3.03573736918792e-09 3.37051412838295e-09 8.32241802914619e-09 6.5951074219127e-08 4.81591489479242e-07 2.34629901774226e-07 4.21572602163694e-08 9.39676984147172e-08
"613" 14471 3.06577212461051e-09 3.3705969626143e-09 8.30687374666927e-09 6.57809054453968e-08 4.81752926456028e-07 2.33966492556255e-07 4.21541376442649e-08 9.51775844444884e-08
"614" 14472 3.09580688003309e-09 3.37067979684564e-09 8.29132946419235e-09 6.56107366716665e-08 4.81914363432814e-07 2.33303083338285e-07 4.21510150721604e-08 9.63874704742595e-08
"615" 14473 3.12639183480857e-09 3.36852859632848e-09 8.26164204961007e-09 6.56133536623168e-08 4.82027802748306e-07 2.33211023810225e-07 4.22038633524051e-08 9.75575151084161e-08
"616" 14474 3.15697678958404e-09 3.36637739581131e-09 8.23195463502779e-09 6.56159706529671e-08 4.82141242063798e-07 2.33118964282164e-07 4.22567116326498e-08 9.87275597425727e-08
"617" 14475 3.18756174435952e-09 3.36422619529415e-09 8.20226722044551e-09 6.56185876436173e-08 4.82254681379289e-07 2.33026904754104e-07 4.23095599128945e-08 9.98976043767293e-08
"618" 14476 3.218146699135e-09 3.36207499477698e-09 8.17257980586323e-09 6.56212046342676e-08 4.82368120694781e-07 2.32934845226044e-07 4.23624081931392e-08 1.01067649010886e-07
"619" 14477 3.24873165391047e-09 3.35992379425982e-09 8.14289239128095e-09 6.56238216249178e-08 4.82481560010273e-07 2.32842785697983e-07 4.24152564733839e-08 1.02237693645043e-07
"620" 14478 3.27931660868595e-09 3.35777259374265e-09 8.11320497669867e-09 6.56264386155681e-08 4.82594999325764e-07 2.32750726169923e-07 4.24681047536287e-08 1.03407738279199e-07
"621" 14479 3.30990156346143e-09 3.35562139322549e-09 8.08351756211639e-09 6.56290556062184e-08 4.82708438641256e-07 2.32658666641863e-07 4.25209530338734e-08 1.04577782913356e-07
"622" 14480 3.3404865182369e-09 3.35347019270832e-09 8.05383014753411e-09 6.56316725968686e-08 4.82821877956748e-07 2.32566607113802e-07 4.25738013141181e-08 1.05747827547512e-07
"623" 14481 3.37107147301238e-09 3.35131899219116e-09 8.02414273295183e-09 6.56342895875189e-08 4.8293531727224e-07 2.32474547585742e-07 4.26266495943628e-08 1.06917872181669e-07
"624" 14482 3.37162167236527e-09 3.35131899219116e-09 7.99445531836955e-09 6.57521595182661e-08 4.85175740478749e-07 2.32360820291233e-07 4.26229568662775e-08 1.073250413462e-07
"625" 14483 3.37217187171817e-09 3.34611314729724e-09 7.9706578322137e-09 6.58164811118049e-08 4.85573414119194e-07 2.3223512099128e-07 4.26175664225758e-08 1.07299712585142e-07
"626" 14484 3.37272207107106e-09 3.34090730240332e-09 7.94686034605785e-09 6.58808027053436e-08 4.85971087759639e-07 2.32109421691327e-07 4.26121759788742e-08 1.07274383824085e-07
"627" 14485 3.37327227042395e-09 3.3357014575094e-09 7.923062859902e-09 6.59451242988824e-08 4.86368761400083e-07 2.31983722391373e-07 4.26067855351725e-08 1.07249055063028e-07
"628" 14486 3.37382246977685e-09 3.33049561261549e-09 7.89926537374615e-09 6.60094458924212e-08 4.86766435040528e-07 2.3185802309142e-07 4.26013950914708e-08 1.07223726301971e-07
"629" 14487 3.37437266912974e-09 3.32528976772157e-09 7.87546788759030e-09 6.607376748596e-08 4.87164108680972e-07 2.31732323791467e-07 4.25960046477691e-08 1.07198397540914e-07
"630" 14488 3.37492286848263e-09 3.32008392282765e-09 7.85167040143444e-09 6.61380890794987e-08 4.87561782321417e-07 2.31606624491514e-07 4.25906142040674e-08 1.07173068779856e-07
"631" 14489 3.37547306783553e-09 3.31487807793373e-09 7.82787291527859e-09 6.62024106730375e-08 4.87959455961862e-07 2.31480925191561e-07 4.25852237603657e-08 1.07147740018799e-07
"632" 14490 3.37602326718842e-09 3.30967223303981e-09 7.80407542912274e-09 6.62667322665763e-08 4.88357129602306e-07 2.31355225891607e-07 4.25798333166641e-08 1.07122411257742e-07
"633" 14491 3.37657346654131e-09 3.3044663881459e-09 7.78027794296689e-09 6.6331053860115e-08 4.88754803242751e-07 2.31229526591654e-07 4.25744428729624e-08 1.07097082496685e-07
"634" 14492 3.37712366589421e-09 3.29926054325198e-09 7.75648045681104e-09 6.63953754536538e-08 4.89152476883195e-07 2.31103827291701e-07 4.25690524292607e-08 1.07071753735628e-07
"635" 14493 3.3776738652471e-09 3.29405469835806e-09 7.73268297065519e-09 6.64596970471926e-08 4.8955015052364e-07 2.30978127991748e-07 4.2563661985559e-08 1.07046424974571e-07
"636" 14494 3.37822406459999e-09 3.28884885346414e-09 7.70888548449933e-09 6.65240186407313e-08 4.89947824164084e-07 2.30852428691795e-07 4.25582715418573e-08 1.07021096213513e-07
"637" 14495 3.37877426395289e-09 3.2895659203032e-09 7.71477541292576e-09 6.65935683627103e-08 4.9134971928164e-07 2.29924070232145e-07 4.25502866044372e-08 1.07027736446116e-07
"638" 14496 3.37877426395289e-09 3.28952450318752e-09 7.71857521990331e-09 6.66260695703708e-08 4.91944358732236e-07 2.29026384123889e-07 4.23645783138403e-08 1.07041906769635e-07
"639" 14497 3.37877426395289e-09 3.28948308607185e-09 7.72237502688085e-09 6.66585707780313e-08 4.92538998182831e-07 2.28128698015633e-07 4.21788700232433e-08 1.07056077093154e-07
"640" 14498 3.37877426395289e-09 3.28944166895618e-09 7.7261748338584e-09 6.66910719856918e-08 4.93133637633426e-07 2.27231011907376e-07 4.19931617326463e-08 1.07070247416672e-07
"641" 14499 3.37877426395289e-09 3.2894002518405e-09 7.72997464083594e-09 6.67235731933523e-08 4.93728277084021e-07 2.2633332579912e-07 4.18074534420494e-08 1.07084417740191e-07
"642" 14500 3.37877426395289e-09 3.28935883472483e-09 7.73377444781349e-09 6.67560744010128e-08 4.94322916534617e-07 2.25435639690864e-07 4.16217451514524e-08 1.0709858806371e-07
"643" 14501 3.37877426395289e-09 3.28931741760915e-09 7.73757425479103e-09 6.67885756086733e-08 4.94917555985212e-07 2.24537953582607e-07 4.14360368608555e-08 1.07112758387229e-07
"644" 14502 3.37877426395289e-09 3.28927600049348e-09 7.74137406176857e-09 6.68210768163338e-08 4.95512195435807e-07 2.23640267474351e-07 4.12503285702585e-08 1.07126928710748e-07
"645" 14503 3.37877426395289e-09 3.28923458337781e-09 7.74517386874612e-09 6.68535780239943e-08 4.96106834886402e-07 2.22742581366094e-07 4.10646202796616e-08 1.07141099034267e-07
"646" 14504 3.37809211105138e-09 3.29049182044974e-09 7.74308374729723e-09 6.72301837653658e-08 4.99424571369902e-07 2.22039120019055e-07 4.08899901733204e-08 1.07163904602857e-07
"647" 14505 3.37740995814988e-09 3.29174905752168e-09 7.74099362584835e-09 6.76067895067372e-08 5.02742307853402e-07 2.21335658672015e-07 4.07153600669792e-08 1.07186710171447e-07
"648" 14506 3.37685975879698e-09 3.29300629459361e-09 7.73962785683026e-09 6.77754327568143e-08 5.0227112353728e-07 2.20507518698828e-07 4.05299490732347e-08 1.07218346913672e-07
"649" 14507 3.37630955944409e-09 3.29426353166555e-09 7.73826208781218e-09 6.79440760068914e-08 5.01799939221157e-07 2.19679378725642e-07 4.03445380794901e-08 1.07249983655897e-07
"650" 14508 3.3757593600912e-09 3.29552076873749e-09 7.73689631879409e-09 6.81127192569684e-08 5.01328754905034e-07 2.18851238752455e-07 4.01591270857455e-08 1.07281620398122e-07
"651" 14509 3.3504772898207e-09 3.2817532866197e-09 7.71743277408647e-09 6.82008636279292e-08 5.00300206064845e-07 2.18946983905911e-07 4.01568347764243e-08 1.07290451571756e-07
"652" 14510 3.3504772898207e-09 3.27774255312421e-09 7.70926250625104e-09 6.83695068780063e-08 5.0045374960596e-07 2.18807094275005e-07 4.0151741629575e-08 1.07247529376795e-07
"653" 14511 3.3504772898207e-09 3.27373181962872e-09 7.70109223841562e-09 6.85381501280834e-08 5.00607293147075e-07 2.18667204644099e-07 4.01466484827258e-08 1.07204607181835e-07
"654" 14512 3.3504772898207e-09 3.26972108613322e-09 7.6929219705802e-09 6.87067933781604e-08 5.00760836688189e-07 2.18527315013193e-07 4.01415553358765e-08 1.07161684986874e-07
"655" 14513 3.3504772898207e-09 3.26571035263773e-09 7.68475170274477e-09 6.88754366282375e-08 5.00914380229304e-07 2.18387425382287e-07 4.01364621890272e-08 1.07118762791913e-07
"656" 14514 3.3504772898207e-09 3.26169961914224e-09 7.67658143490935e-09 6.90440798783146e-08 5.01067923770418e-07 2.18247535751381e-07 4.01313690421779e-08 1.07075840596952e-07
"657" 14515 3.3504772898207e-09 3.25768888564675e-09 7.66841116707393e-09 6.92127231283917e-08 5.01221467311533e-07 2.18107646120475e-07 4.01262758953286e-08 1.07032918401991e-07
"658" 14516 3.3504772898207e-09 3.25367815215125e-09 7.6602408992385e-09 6.93813663784687e-08 5.01375010852648e-07 2.17967756489568e-07 4.01211827484794e-08 1.06989996207031e-07
"659" 14517 3.35129139627081e-09 3.24765169762909e-09 7.65112067965869e-09 6.93446875393429e-08 5.01208914419864e-07 2.1789673919335e-07 4.01163917860273e-08 1.06915016737767e-07
"660" 14518 3.35210550272093e-09 3.24162524310694e-09 7.64200046007889e-09 6.93080087002171e-08 5.01042817987081e-07 2.17825721897132e-07 4.01116008235752e-08 1.06840037268504e-07
"661" 14519 3.35291960917105e-09 3.23559878858478e-09 7.63288024049908e-09 6.92713298610913e-08 5.00876721554298e-07 2.17754704600913e-07 4.01068098611231e-08 1.0676505779924e-07
"662" 14520 3.35373371562116e-09 3.22957233406262e-09 7.62376002091927e-09 6.92346510219655e-08 5.00710625121515e-07 2.17683687304695e-07 4.01020188986711e-08 1.06690078329977e-07
"663" 14521 3.35454782207128e-09 3.22354587954046e-09 7.61463980133946e-09 6.91979721828397e-08 5.00544528688731e-07 2.17612670008477e-07 4.0097227936219e-08 1.06615098860713e-07
"664" 14522 3.3553619285214e-09 3.21751942501831e-09 7.60551958175965e-09 6.91612933437139e-08 5.00378432255948e-07 2.17541652712258e-07 4.00924369737669e-08 1.0654011939145e-07
"665" 14523 3.35617603497151e-09 3.21149297049615e-09 7.59639936217984e-09 6.91246145045881e-08 5.00212335823165e-07 2.1747063541604e-07 4.00876460113148e-08 1.06465139922186e-07
"666" 14524 3.35699014142163e-09 3.20546651597399e-09 7.58727914260003e-09 6.90879356654623e-08 5.00046239390382e-07 2.17399618119822e-07 4.00828550488628e-08 1.06390160452923e-07
"667" 14525 3.35780424787174e-09 3.19944006145183e-09 7.57815892302022e-09 6.90512568263365e-08 4.99880142957598e-07 2.17328600823603e-07 4.00780640864107e-08 1.0631518098366e-07
"668" 14526 3.36174282657371e-09 3.19339289837184e-09 7.57008376416485e-09 6.90644767103726e-08 5.00918123163956e-07 2.17508142292643e-07 4.00795505706727e-08 1.06274057872604e-07
"669" 14527 3.36568140527568e-09 3.18734573529184e-09 7.56200860530948e-09 6.90776965944088e-08 5.01956103370314e-07 2.17687683761682e-07 4.00810370549347e-08 1.06232934761549e-07
