"time" "channel1" "channel2" "channel3" "channel4" "channel5" "channel6" "channel7" "channel8"
"1" 30677 2.46465693989057e-08 8.47125528954834e-10 1.24310126314832e-09 4.73118440305319e-09 3.91480377026293e-08 1.15633122180567e-07 9.93321379532587e-09 4.57176869503849e-08
"2" 30678 2.46180766130517e-08 8.40977716515343e-10 1.23440569355097e-09 4.72806041327989e-09 3.94915599861574e-08 1.13876615509323e-07 9.90844554001294e-09 4.5388120261815e-08
"3" 30679 2.45895838271977e-08 8.34829904075852e-10 1.22571012395363e-09 4.72493642350660e-09 3.98350822696855e-08 1.12120108838079e-07 9.88367728470002e-09 4.50585535732451e-08
"4" 30680 2.45610910413437e-08 8.28682091636361e-10 1.21701455435628e-09 4.7218124337333e-09 4.01786045532137e-08 1.10363602166835e-07 9.8589090293871e-09 4.47289868846752e-08
"5" 30681 2.45325982554897e-08 8.2253427919687e-10 1.20831898475894e-09 4.71868844396e-09 4.05221268367418e-08 1.08607095495591e-07 9.83414077407417e-09 4.43994201961054e-08
"6" 30682 2.45041054696357e-08 8.16386466757379e-10 1.19962341516159e-09 4.71556445418671e-09 4.086564912027e-08 1.06850588824347e-07 9.80937251876125e-09 4.40698535075355e-08
"7" 30683 2.44756126837816e-08 8.10238654317888e-10 1.19092784556424e-09 4.71244046441341e-09 4.12091714037981e-08 1.05094082153103e-07 9.78460426344832e-09 4.37402868189656e-08
"8" 30684 2.44471198979276e-08 8.04090841878397e-10 1.1822322759669e-09 4.70931647464012e-09 4.15526936873262e-08 1.03337575481859e-07 9.7598360081354e-09 4.34107201303957e-08
"9" 30685 2.44186271120736e-08 7.97943029438906e-10 1.17353670636955e-09 4.70619248486682e-09 4.18962159708544e-08 1.01581068810615e-07 9.73506775282248e-09 4.30811534418258e-08
"10" 30686 2.43901343262196e-08 7.91795216999415e-10 1.16484113677221e-09 4.70306849509353e-09 4.22397382543825e-08 9.98245621393708e-08 9.71029949750955e-09 4.27515867532559e-08
"11" 30687 2.43616415403656e-08 7.85647404559924e-10 1.15614556717486e-09 4.69994450532023e-09 4.25832605379107e-08 9.80680554681268e-08 9.68553124219663e-09 4.2422020064686e-08
"12" 30688 2.43331487545116e-08 7.79499592120433e-10 1.14744999757751e-09 4.69682051554694e-09 4.29267828214388e-08 9.63115487968827e-08 9.6607629868837e-09 4.20924533761162e-08
"13" 30689 2.43046559686575e-08 7.73351779680943e-10 1.13875442798017e-09 4.69369652577364e-09 4.32703051049669e-08 9.45550421256387e-08 9.63599473157078e-09 4.17628866875463e-08
"14" 30690 2.4272095598734e-08 7.73351779680943e-10 1.13798673233209e-09 4.69057253600034e-09 4.35627645010951e-08 9.45428712308467e-08 9.62730290475201e-09 4.16316157804946e-08
"15" 30691 2.42395352288106e-08 7.73351779680943e-10 1.13721903668402e-09 4.68744854622705e-09 4.38552238972232e-08 9.45307003360547e-08 9.61861107793324e-09 4.1500344873443e-08
"16" 30692 2.42468218931193e-08 7.72388914056767e-10 1.13647742899896e-09 4.69558719833542e-09 4.41707771609242e-08 9.4411021268169e-08 9.45008559612118e-09 4.15062236477913e-08
"17" 30693 2.4254108557428e-08 7.71426048432592e-10 1.13573582131391e-09 4.70372585044379e-09 4.44863304246251e-08 9.42913422002833e-08 9.28156011430911e-09 4.15121024221396e-08
"18" 30694 2.42613952217367e-08 7.70463182808416e-10 1.13499421362885e-09 4.71186450255217e-09 4.4801883688326e-08 9.41716631323976e-08 9.11303463249704e-09 4.1517981196488e-08
"19" 30695 2.42686818860454e-08 7.69500317184241e-10 1.1342526059438e-09 4.72000315466054e-09 4.5117436952027e-08 9.40519840645119e-08 8.94450915068497e-09 4.15238599708363e-08
"20" 30696 2.42759685503541e-08 7.68537451560065e-10 1.13351099825874e-09 4.72814180676891e-09 4.54329902157279e-08 9.39323049966262e-08 8.77598366887291e-09 4.15297387451846e-08
"21" 30697 2.42832552146629e-08 7.6757458593589e-10 1.13276939057369e-09 4.73628045887729e-09 4.57485434794288e-08 9.38126259287406e-08 8.60745818706084e-09 4.15356175195329e-08
"22" 30698 2.42829085218796e-08 7.68804148423788e-10 1.13202778288863e-09 4.75528733965717e-09 4.57570202039847e-08 9.37131647455153e-08 8.43894724634172e-09 4.17535120743913e-08
"23" 30699 2.42825618290963e-08 7.70033710911686e-10 1.13128617520357e-09 4.77429422043705e-09 4.57654969285406e-08 9.361370356229e-08 8.27043630562259e-09 4.19714066292497e-08
"24" 30700 2.43106121349071e-08 7.69070845287511e-10 1.1313122631666e-09 4.77416274936699e-09 4.57788099600874e-08 9.36631904213745e-08 8.11060265062929e-09 4.20968444676502e-08
"25" 30701 2.4338662440718e-08 7.68107979663336e-10 1.13133835112962e-09 4.77403127829694e-09 4.57921229916341e-08 9.3712677280459e-08 7.95076899563599e-09 4.22222823060506e-08
"26" 30702 2.43667127465289e-08 7.6714511403916e-10 1.13136443909264e-09 4.77389980722689e-09 4.58054360231808e-08 9.37621641395435e-08 7.79093534064269e-09 4.2347720144451e-08
"27" 30703 2.43947630523398e-08 7.66182248414985e-10 1.13139052705566e-09 4.77376833615683e-09 4.58187490547275e-08 9.3811650998628e-08 7.6311016856494e-09 4.24731579828515e-08
"28" 30704 2.44228133581507e-08 7.65219382790809e-10 1.13141661501868e-09 4.77363686508678e-09 4.58320620862743e-08 9.38611378577125e-08 7.4712680306561e-09 4.25985958212519e-08
"29" 30705 2.44516984668332e-08 7.6292303284802e-10 1.13217126668525e-09 4.77240354787527e-09 4.58829359434477e-08 9.39411976235157e-08 7.47995985747487e-09 4.27300718285879e-08
"30" 30706 2.44805835755158e-08 7.60626682905231e-10 1.13292591835181e-09 4.77117023066375e-09 4.59338098006211e-08 9.40212573893189e-08 7.48865168429363e-09 4.28615478359239e-08
"31" 30707 2.45094686841983e-08 7.58330332962442e-10 1.13368057001838e-09 4.76993691345224e-09 4.59846836577945e-08 9.41013171551221e-08 7.4973435111124e-09 4.29930238432599e-08
"32" 30708 2.45383537928808e-08 7.56033983019652e-10 1.13443522168494e-09 4.76870359624072e-09 4.60355575149679e-08 9.41813769209253e-08 7.50603533793117e-09 4.31244998505959e-08
"33" 30709 2.45672389015633e-08 7.53737633076863e-10 1.13518987335151e-09 4.76747027902921e-09 4.60864313721414e-08 9.42614366867285e-08 7.51472716474994e-09 4.32559758579319e-08
"34" 30710 2.45835563371261e-08 7.52404148758249e-10 1.13493397480215e-09 4.76699865707501e-09 4.6498129530109e-08 9.4243548514502e-08 7.5144850587378e-09 4.32680167747837e-08
"35" 30711 2.45709886640064e-08 7.53100317518702e-10 1.13091786190147e-09 4.76516224683924e-09 4.69069506659459e-08 9.42146293266261e-08 7.51221885807096e-09 4.31904415251254e-08
"36" 30712 2.44861580619657e-08 7.379645209513e-10 1.11065966273779e-09 4.72224653234142e-09 4.7074065570164e-08 9.41857101387501e-08 7.51123589292949e-09 4.31866920214915e-08
"37" 30713 2.44013274599251e-08 7.22828724383897e-10 1.09040146357411e-09 4.6793308178436e-09 4.72411804743822e-08 9.41567909508741e-08 7.51025292778802e-09 4.31829425178576e-08
"38" 30714 2.43164968578844e-08 7.07692927816495e-10 1.07014326441043e-09 4.63641510334577e-09 4.74082953786003e-08 9.41278717629981e-08 7.50926996264654e-09 4.31791930142237e-08
"39" 30715 2.42316662558437e-08 6.92557131249093e-10 1.04988506524675e-09 4.59349938884795e-09 4.75754102828184e-08 9.40989525751222e-08 7.50828699750507e-09 4.31754435105898e-08
"40" 30716 2.41468356538031e-08 6.77421334681691e-10 1.02962686608307e-09 4.55058367435012e-09 4.77425251870365e-08 9.40700333872462e-08 7.5073040323636e-09 4.31716940069559e-08
"41" 30717 2.40620050517624e-08 6.62285538114289e-10 1.00936866691939e-09 4.5076679598523e-09 4.79096400912546e-08 9.40411141993702e-08 7.50632106722213e-09 4.3167944503322e-08
"42" 30718 2.39771744497217e-08 6.47149741546886e-10 9.89110467755712e-10 4.46475224535448e-09 4.80767549954727e-08 9.40121950114942e-08 7.50533810208066e-09 4.31641949996881e-08
"43" 30719 2.38997612862659e-08 6.31051079355309e-10 9.68852268592032e-10 4.44233548624317e-09 4.79156566993966e-08 9.40944741892504e-08 7.58502227209024e-09 4.31571947455375e-08
"44" 30720 2.38223481228102e-08 6.14952417163731e-10 9.48594069428352e-10 4.41991872713186e-09 4.77545584033204e-08 9.41767533670065e-08 7.66470644209983e-09 4.31501944913869e-08
"45" 30721 2.37449349593544e-08 5.98853754972154e-10 9.28335870264672e-10 4.39750196802056e-09 4.75934601072443e-08 9.42590325447627e-08 7.74439061210941e-09 4.31431942372363e-08
"46" 30722 2.36675217958986e-08 5.82755092780576e-10 9.08077671100992e-10 4.37508520890925e-09 4.74323618111681e-08 9.43413117225188e-08 7.82407478211900e-09 4.31361939830858e-08
"47" 30723 2.35901086324428e-08 5.66656430588998e-10 8.87819471937312e-10 4.35266844979794e-09 4.72712635150919e-08 9.44235909002749e-08 7.90375895212858e-09 4.31291937289352e-08
"48" 30724 2.3512695468987e-08 5.50557768397421e-10 8.67561272773632e-10 4.33025169068664e-09 4.71101652190158e-08 9.45058700780311e-08 7.98344312213817e-09 4.31221934747846e-08
"49" 30725 2.34352823055313e-08 5.34459106205843e-10 8.47303073609952e-10 4.30783493157533e-09 4.69490669229396e-08 9.45881492557872e-08 8.06312729214775e-09 4.3115193220634e-08
"50" 30726 2.33578691420755e-08 5.32266678093769e-10 8.27162270279866e-10 4.18828441618875e-09 4.64181688483961e-08 9.45165579007935e-08 8.07160100257240e-09 4.31219529534808e-08
"51" 30727 2.32804559786197e-08 5.30074249981696e-10 8.0702146694978e-10 4.06873390080216e-09 4.58872707738526e-08 9.44449665457997e-08 8.08007471299704e-09 4.31287126863276e-08
"52" 30728 2.33001901848009e-08 5.29042103137043e-10 8.04757511950083e-10 4.08986308037594e-09 4.58961716786534e-08 9.45462652820028e-08 8.16048520104303e-09 4.31217124321771e-08
"53" 30729 2.3319924390982e-08 5.28009956292391e-10 8.02493556950386e-10 4.11099225994972e-09 4.59050725834542e-08 9.46475640182058e-08 8.24089568908901e-09 4.31147121780265e-08
"54" 30730 2.33396585971632e-08 5.26977809447738e-10 8.00229601950689e-10 4.1321214395235e-09 4.5913973488255e-08 9.47488627544088e-08 8.32130617713499e-09 4.31077119238759e-08
"55" 30731 2.33593928033443e-08 5.25945662603086e-10 7.97965646950992e-10 4.15325061909728e-09 4.59228743930558e-08 9.48501614906119e-08 8.40171666518098e-09 4.31007116697253e-08
"56" 30732 2.33791270095255e-08 5.24913515758433e-10 7.95701691951295e-10 4.17437979867105e-09 4.59317752978566e-08 9.49514602268149e-08 8.48212715322696e-09 4.30937114155747e-08
"57" 30733 2.33988612157066e-08 5.23881368913781e-10 7.93437736951597e-10 4.19550897824483e-09 4.59406762026574e-08 9.50527589630179e-08 8.56253764127294e-09 4.30867111614241e-08
"58" 30734 2.34314748007744e-08 5.26908528227261e-10 7.95189894852577e-10 4.19797561266786e-09 4.58830119497246e-08 9.68559777804663e-08 8.60452014967598e-09 4.3074634823553e-08
"59" 30735 2.34640883858423e-08 5.29935687540742e-10 7.96942052753557e-10 4.20044224709089e-09 4.58253476967917e-08 9.86591965979147e-08 8.64650265807901e-09 4.30625584856818e-08
"60" 30736 2.34967019709101e-08 5.32962846854222e-10 7.98694210654536e-10 4.20290888151391e-09 4.57676834438589e-08 1.00462415415363e-07 8.68848516648205e-09 4.30504821478107e-08
"61" 30737 2.3529315555978e-08 5.35990006167703e-10 8.00446368555516e-10 4.20537551593694e-09 4.57100191909261e-08 1.02265634232812e-07 8.73046767488508e-09 4.30384058099396e-08
"62" 30738 2.35619291410458e-08 5.39017165481183e-10 8.02198526456496e-10 4.20784215035997e-09 4.56523549379932e-08 1.0406885305026e-07 8.77245018328812e-09 4.30263294720684e-08
"63" 30739 2.35945427261137e-08 5.42044324794663e-10 8.03950684357476e-10 4.21030878478300e-09 4.55946906850604e-08 1.05872071867708e-07 8.81443269169116e-09 4.30142531341973e-08
"64" 30740 2.36271563111815e-08 5.45071484108144e-10 8.05702842258455e-10 4.21277541920602e-09 4.55370264321276e-08 1.07675290685157e-07 8.85641520009419e-09 4.30021767963262e-08
"65" 30741 2.36597698962493e-08 5.48098643421624e-10 8.07455000159435e-10 4.21524205362905e-09 4.54793621791947e-08 1.09478509502605e-07 8.89839770849723e-09 4.2990100458455e-08
"66" 30742 2.36923834813172e-08 5.51125802735105e-10 8.09207158060415e-10 4.21770868805208e-09 4.54216979262619e-08 1.11281728320054e-07 8.94038021690026e-09 4.29780241205839e-08
"67" 30743 2.3724997066385e-08 5.54152962048585e-10 8.10959315961394e-10 4.2201753224751e-09 4.5364033673329e-08 1.13084947137502e-07 8.9823627253033e-09 4.29659477827128e-08
"68" 30744 2.37576106514529e-08 5.57180121362066e-10 8.12711473862374e-10 4.22264195689813e-09 4.53063694203962e-08 1.1488816595495e-07 9.02434523370633e-09 4.29538714448416e-08
"69" 30745 2.37902242365207e-08 5.60207280675546e-10 8.14463631763354e-10 4.22510859132116e-09 4.52487051674634e-08 1.16691384772399e-07 9.06632774210937e-09 4.29417951069705e-08
"70" 30746 2.38228378215886e-08 5.63234439989027e-10 8.16215789664333e-10 4.22757522574419e-09 4.51910409145305e-08 1.18494603589847e-07 9.1083102505124e-09 4.29297187690994e-08
"71" 30747 2.38554514066564e-08 5.66261599302507e-10 8.17967947565313e-10 4.23004186016721e-09 4.51333766615977e-08 1.20297822407296e-07 9.15029275891544e-09 4.29176424312282e-08
"72" 30748 2.38880649917242e-08 5.69288758615987e-10 8.19720105466293e-10 4.23250849459024e-09 4.50757124086649e-08 1.22101041224744e-07 9.19227526731848e-09 4.29055660933571e-08
"73" 30749 2.38953410130041e-08 5.70449039883408e-10 8.2142008744123e-10 4.23237702352019e-09 4.50053871799204e-08 1.22028819135908e-07 9.19303066754076e-09 4.29196123073554e-08
"74" 30750 2.39026170342839e-08 5.7160932115083e-10 8.23120069416168e-10 4.23224555245013e-09 4.49350619511759e-08 1.21956597047072e-07 9.19378606776304e-09 4.29336585213537e-08
"75" 30751 2.39098930555638e-08 5.72769602418251e-10 8.24820051391106e-10 4.23211408138008e-09 4.48647367224314e-08 1.21884374958236e-07 9.19454146798532e-09 4.2947704735352e-08
"76" 30752 2.39171690768436e-08 5.73929883685672e-10 8.26520033366043e-10 4.23198261031003e-09 4.47944114936869e-08 1.218121528694e-07 9.1952968682076e-09 4.29617509493503e-08
"77" 30753 2.39244450981235e-08 5.75090164953093e-10 8.28220015340981e-10 4.23185113923997e-09 4.47240862649424e-08 1.21739930780564e-07 9.19605226842988e-09 4.29757971633486e-08
"78" 30754 2.38172663930683e-08 5.74986243122377e-10 8.25916928396752e-10 4.21059048859614e-09 4.46774712318971e-08 1.21712797292256e-07 9.16680977615504e-09 4.2925235708736e-08
"79" 30755 2.37100876880132e-08 5.74882321291662e-10 8.23613841452524e-10 4.18932983795231e-09 4.46308561988517e-08 1.21685663803948e-07 9.13756728388019e-09 4.28746742541234e-08
"80" 30756 2.36007938392419e-08 5.72852668212595e-10 8.17589672101508e-10 4.17253083420033e-09 4.46013142683639e-08 1.21653208084502e-07 9.11127368702976e-09 4.28580177268032e-08
"81" 30757 2.34904599121207e-08 5.76877333760489e-10 8.17589672101508e-10 4.15163746560366e-09 4.48158894484623e-08 1.21797788041421e-07 9.08498009017934e-09 4.27783589121276e-08
"82" 30758 2.33728393206908e-08 5.75613130662353e-10 8.13586603182342e-10 4.13037681495983e-09 4.48158894484623e-08 1.2177346133842e-07 9.06374672996569e-09 4.27617023848074e-08
"83" 30759 2.32552187292609e-08 5.74348927564216e-10 8.09583534263175e-10 4.10911616431599e-09 4.48158894484623e-08 1.21749134635419e-07 9.04251336975203e-09 4.27450458574872e-08
"84" 30760 2.31375981378311e-08 5.73084724466079e-10 8.05580465344009e-10 4.08785551367216e-09 4.48158894484623e-08 1.21724807932418e-07 9.02128000953838e-09 4.27283893301669e-08
"85" 30761 2.30199775464012e-08 5.71820521367943e-10 8.01577396424843e-10 4.06659486302833e-09 4.48158894484623e-08 1.21700481229417e-07 9.00004664932473e-09 4.27117328028467e-08
"86" 30762 2.29023569549713e-08 5.70556318269806e-10 7.97574327505676e-10 4.0453342123845e-09 4.48158894484623e-08 1.21676154526416e-07 8.97881328911108e-09 4.26950762755265e-08
"87" 30763 2.28919150685965e-08 5.71588465114458e-10 7.99582383956015e-10 4.04496693033735e-09 4.48571714998362e-08 1.21639730462277e-07 8.9875923624875e-09 4.27170288385156e-08
"88" 30764 2.28905815126077e-08 5.71588465114458e-10 8.01846338955712e-10 4.04483545926729e-09 4.48549486118772e-08 1.21189179156965e-07 8.91594640672499e-09 4.26908177340976e-08
"89" 30765 2.28892479566189e-08 5.71588465114458e-10 8.04110293955409e-10 4.04470398819724e-09 4.48527257239182e-08 1.20738627851653e-07 8.84430045096249e-09 4.26646066296797e-08
"90" 30766 2.28788060702441e-08 5.68561305800978e-10 8.04110293955409e-10 4.03501899915621e-09 4.48077255644519e-08 1.20726010057154e-07 8.8493025232275e-09 4.27276089170351e-08
"91" 30767 2.28683641838694e-08 5.65534146487497e-10 8.04110293955409e-10 4.02533401011519e-09 4.47627254049857e-08 1.20713392262654e-07 8.85430459549251e-09 4.27906112043904e-08
"92" 30768 2.28579222974946e-08 5.62506987174017e-10 8.04110293955409e-10 4.01564902107416e-09 4.47177252455194e-08 1.20700774468155e-07 8.85930666775752e-09 4.28536134917457e-08
"93" 30769 2.28474804111199e-08 5.59479827860537e-10 8.04110293955409e-10 4.00596403203314e-09 4.46727250860532e-08 1.20688156673656e-07 8.86430874002253e-09 4.2916615779101e-08
"94" 30770 2.28370385247452e-08 5.56452668547056e-10 8.04110293955409e-10 3.99627904299211e-09 4.46277249265869e-08 1.20675538879157e-07 8.86931081228754e-09 4.29796180664564e-08
"95" 30771 2.28265966383704e-08 5.53425509233576e-10 8.04110293955409e-10 3.98659405395109e-09 4.45827247671206e-08 1.20662921084657e-07 8.87431288455255e-09 4.30426203538117e-08
"96" 30772 2.28161547519957e-08 5.50398349920095e-10 8.04110293955409e-10 3.97690906491006e-09 4.45377246076544e-08 1.20650303290158e-07 8.87931495681756e-09 4.3105622641167e-08
"97" 30773 2.2805712865621e-08 5.47371190606615e-10 8.04110293955409e-10 3.96722407586904e-09 4.44927244481881e-08 1.20637685495659e-07 8.88431702908258e-09 4.31686249285224e-08
"98" 30774 2.27952709792462e-08 5.44344031293134e-10 8.04110293955409e-10 3.95753908682801e-09 4.44477242887219e-08 1.2062506770116e-07 8.88931910134759e-09 4.32316272158777e-08
"99" 30775 2.27848290928715e-08 5.41316871979654e-10 8.04110293955409e-10 3.94785409778699e-09 4.44027241292556e-08 1.2061244990666e-07 8.8943211736126e-09 4.3294629503233e-08
"100" 30776 2.27743872064967e-08 5.38289712666174e-10 8.04110293955409e-10 3.93816910874596e-09 4.43577239697894e-08 1.20599832112161e-07 8.89932324587761e-09 4.33576317905884e-08
"101" 30777 2.2763945320122e-08 5.35262553352693e-10 8.04110293955409e-10 3.92848411970494e-09 4.43127238103231e-08 1.20587214317662e-07 8.90432531814262e-09 4.34206340779437e-08
"102" 30778 2.278928288391e-08 5.31469944058283e-10 8.04071162010878e-10 3.92231753364737e-09 4.4250265213318e-08 1.20819043997665e-07 8.92044027734773e-09 4.34758968367275e-08
"103" 30779 2.278928288391e-08 5.27642694153634e-10 8.02050061579029e-10 3.91523065009943e-09 4.4191952022305e-08 1.22468504482106e-07 8.92044027734773e-09 4.34838414655834e-08
"104" 30780 2.278928288391e-08 5.23815444248985e-10 8.0002896114718e-10 3.90814376655148e-09 4.4133638831292e-08 1.24117964966546e-07 8.92044027734773e-09 4.34917860944393e-08
"105" 30781 2.278928288391e-08 5.19988194344337e-10 7.98007860715331e-10 3.90105688300354e-09 4.4075325640279e-08 1.25767425450987e-07 8.92044027734773e-09 4.34997307232952e-08
"106" 30782 2.278928288391e-08 5.16160944439688e-10 7.95986760283482e-10 3.8939699994556e-09 4.40170124492661e-08 1.27416885935427e-07 8.92044027734773e-09 4.35076753521511e-08
"107" 30783 2.27216577354481e-08 5.12472256975993e-10 7.95245152598427e-10 3.89643663387862e-09 4.40549187253921e-08 1.28693285681858e-07 8.90432531814262e-09 4.35104096390409e-08
"108" 30784 2.26963201716601e-08 5.12472256975993e-10 7.93263184111109e-10 3.89827304411439e-09 4.40755597510791e-08 1.30365205143156e-07 8.90607822459932e-09 4.35130553733823e-08
"109" 30785 2.26838619867588e-08 5.12437616365755e-10 7.93250140129599e-10 3.90010945435016e-09 4.41131205767057e-08 1.3193884856012e-07 8.90783113105601e-09 4.35210000022382e-08
"110" 30786 2.26714038018575e-08 5.12402975755516e-10 7.93237096148088e-10 3.90194586458592e-09 4.41506814023324e-08 1.33512491977084e-07 8.90958403751271e-09 4.35289446310941e-08
"111" 30787 2.26589456169562e-08 5.12368335145278e-10 7.93224052166578e-10 3.90378227482169e-09 4.41882422279591e-08 1.35086135394048e-07 8.9113369439694e-09 4.353688925995e-08
"112" 30788 2.26464874320549e-08 5.12333694535039e-10 7.93211008185067e-10 3.90561868505746e-09 4.42258030535858e-08 1.36659778811013e-07 8.9130898504261e-09 4.3544833888806e-08
"113" 30789 2.26340292471536e-08 5.12299053924801e-10 7.93197964203557e-10 3.90745509529322e-09 4.42633638792125e-08 1.38233422227977e-07 8.91484275688279e-09 4.35527785176619e-08
"114" 30790 2.26215710622523e-08 5.12264413314562e-10 7.93184920222046e-10 3.90929150552899e-09 4.43009247048392e-08 1.39807065644941e-07 8.91659566333949e-09 4.35607231465178e-08
"115" 30791 2.2609112877351e-08 5.12229772704324e-10 7.93171876240536e-10 3.91112791576476e-09 4.43384855304659e-08 1.41380709061905e-07 8.91834856979618e-09 4.35686677753737e-08
"116" 30792 2.25966546924497e-08 5.12195132094085e-10 7.93158832259025e-10 3.91296432600052e-09 4.43760463560926e-08 1.42954352478869e-07 8.92010147625288e-09 4.35766124042296e-08
"117" 30793 2.25841965075484e-08 5.12160491483846e-10 7.93145788277515e-10 3.91480073623629e-09 4.44136071817193e-08 1.44527995895833e-07 8.92185438270957e-09 4.35845570330856e-08
"118" 30794 2.25717383226471e-08 5.12125850873608e-10 7.93132744296004e-10 3.91663714647206e-09 4.4451168007346e-08 1.46101639312797e-07 8.92360728916627e-09 4.35925016619415e-08
"119" 30795 2.25592801377458e-08 5.12091210263369e-10 7.93119700314494e-10 3.91847355670782e-09 4.44887288329727e-08 1.47675282729761e-07 8.92536019562297e-09 4.36004462907974e-08
"120" 30796 2.25468219528445e-08 5.12056569653131e-10 7.93106656332983e-10 3.92030996694359e-09 4.45262896585994e-08 1.49248926146726e-07 8.92711310207966e-09 4.36083909196533e-08
"121" 30797 2.25343637679432e-08 5.12021929042892e-10 7.93093612351472e-10 3.92214637717936e-09 4.45638504842261e-08 1.5082256956369e-07 8.92886600853636e-09 4.36163355485093e-08
"122" 30798 2.25219055830418e-08 5.11987288432654e-10 7.93080568369962e-10 3.92398278741512e-09 4.46014113098528e-08 1.52396212980654e-07 8.93061891499305e-09 4.36242801773652e-08
"123" 30799 2.25094473981405e-08 5.11952647822415e-10 7.93067524388451e-10 3.92581919765089e-09 4.46389721354795e-08 1.53969856397618e-07 8.93237182144975e-09 4.36322248062211e-08
"124" 30800 2.24969892132392e-08 5.11918007212177e-10 7.93054480406941e-10 3.92765560788666e-09 4.46765329611061e-08 1.55543499814582e-07 8.93412472790644e-09 4.3640169435077e-08
"125" 30801 2.24845310283379e-08 5.11883366601938e-10 7.9304143642543e-10 3.92949201812243e-09 4.47140937867328e-08 1.57117143231546e-07 8.93587763436314e-09 4.3648114063933e-08
"126" 30802 2.24604601044358e-08 5.11616669738215e-10 8.01723962041266e-10 3.98307146622265e-09 4.49043465998789e-08 1.5817211637492e-07 8.93361143369629e-09 4.3656164955847e-08
"127" 30803 2.24363891805337e-08 5.11349972874493e-10 8.10406487657101e-10 4.03665091432287e-09 4.50945994130249e-08 1.59227089518294e-07 8.93134523302945e-09 4.36642158477611e-08
"128" 30804 2.24123182566316e-08 5.1108327601077e-10 8.19089013272937e-10 4.09023036242310e-09 4.5284852226171e-08 1.60282062661668e-07 8.9290790323626e-09 4.36722667396752e-08
"129" 30805 2.24123182566316e-08 5.10120410386594e-10 8.27784582870282e-10 4.14197340028755e-09 4.54472525552807e-08 1.61394876080054e-07 8.91680868716574e-09 4.36322956482599e-08
"130" 30806 2.24123182566316e-08 5.09157544762419e-10 8.36480152467628e-10 4.19371643815201e-09 4.56096528843903e-08 1.62507689498441e-07 8.90453834196887e-09 4.35923245568445e-08
"131" 30807 2.24119822068772e-08 5.0686119481963e-10 8.45162678083464e-10 4.24769029946239e-09 4.58002511480357e-08 1.63520245047347e-07 8.83259211582247e-09 4.36003400277392e-08
"132" 30808 2.24374505449414e-08 5.0456484487684e-10 8.45891241787008e-10 4.25700800645626e-09 4.58008265524619e-08 1.63379752228525e-07 8.82460261742208e-09 4.36480786429136e-08
"133" 30809 2.24629188830055e-08 5.02268494934051e-10 8.46619805490553e-10 4.26632571345013e-09 4.5801401956888e-08 1.63239259409703e-07 8.8166131190217e-09 4.36958172580879e-08
"134" 30810 2.24883872210697e-08 4.99972144991262e-10 8.47348369194098e-10 4.27564342044401e-09 4.58019773613141e-08 1.6309876659088e-07 8.80862362062133e-09 4.37435558732622e-08
"135" 30811 2.25138555591339e-08 4.97675795048473e-10 8.48076932897643e-10 4.28496112743788e-09 4.58025527657403e-08 1.62958273772058e-07 8.80063412222094e-09 4.37912944884365e-08
"136" 30812 2.2539323897198e-08 4.95379445105683e-10 8.48805496601187e-10 4.29427883443175e-09 4.58031281701664e-08 1.62817780953236e-07 8.79264462382056e-09 4.38390331036108e-08
"137" 30813 2.25647922352622e-08 4.93083095162894e-10 8.49534060304732e-10 4.30359654142562e-09 4.58037035745926e-08 1.62677288134413e-07 8.78465512542018e-09 4.38867717187851e-08
"138" 30814 2.25646188888705e-08 4.91053442083828e-10 8.5329427465605e-10 4.30322925937847e-09 4.58170554514029e-08 1.62540517580557e-07 8.74870637027033e-09 4.39347582810952e-08
"139" 30815 2.25644455424789e-08 4.89023789004761e-10 8.57054489007368e-10 4.30286197733131e-09 4.58304073282132e-08 1.624037470267e-07 8.71275761512047e-09 4.39827448434052e-08
"140" 30816 2.25652803453505e-08 4.86727439061972e-10 8.56798590458009e-10 4.31076481846259e-09 4.58413410515282e-08 1.63592280399404e-07 8.78427779361438e-09 4.39857550726182e-08
"141" 30817 2.25661151482222e-08 4.84431089119183e-10 8.56542691908651e-10 4.31866765959386e-09 4.58522747748431e-08 1.64780813772108e-07 8.85579797210829e-09 4.39887653018311e-08
"142" 30818 2.25669499510938e-08 4.82134739176394e-10 8.56286793359292e-10 4.32657050072513e-09 4.5863208498158e-08 1.65969347144812e-07 8.9273181506022e-09 4.3991775531044e-08
"143" 30819 2.25677847539654e-08 4.79838389233604e-10 8.56030894809933e-10 4.33447334185641e-09 4.5874142221473e-08 1.67157880517516e-07 8.9988383290961e-09 4.3994785760257e-08
"144" 30820 2.25686195568371e-08 4.77542039290815e-10 8.55774996260575e-10 4.34237618298768e-09 4.58850759447879e-08 1.68346413890221e-07 9.07035850759001e-09 4.39977959894699e-08
"145" 30821 2.25694543597087e-08 4.75245689348026e-10 8.55519097711216e-10 4.35027902411895e-09 4.58960096681029e-08 1.69534947262925e-07 9.14187868608392e-09 4.40008062186828e-08
"146" 30822 2.25702891625803e-08 4.72949339405237e-10 8.55263199161857e-10 4.35818186525023e-09 4.59069433914178e-08 1.70723480635629e-07 9.21339886457782e-09 4.40038164478958e-08
"147" 30823 2.2571123965452e-08 4.70652989462447e-10 8.55007300612498e-10 4.3660847063815e-09 4.59178771147327e-08 1.71912014008333e-07 9.28491904307173e-09 4.40068266771087e-08
"148" 30824 2.25719587683236e-08 4.68356639519658e-10 8.54751402063140e-10 4.37398754751277e-09 4.59288108380477e-08 1.73100547381037e-07 9.35643922156564e-09 4.40098369063216e-08
"149" 30825 2.25727935711952e-08 4.66060289576869e-10 8.54495503513781e-10 4.38189038864405e-09 4.59397445613626e-08 1.74289080753742e-07 9.42795940005954e-09 4.40128471355346e-08
"150" 30826 2.25736283740669e-08 4.6376393963408e-10 8.54239604964422e-10 4.38979322977532e-09 4.59506782846775e-08 1.75477614126446e-07 9.49947957855345e-09 4.40158573647475e-08
"151" 30827 2.25739750668502e-08 4.63497242770357e-10 8.51975649964725e-10 4.39730165769643e-09 4.58749455013893e-08 1.76796531375642e-07 9.63898504044199e-09 4.39997630067513e-08
"152" 30828 2.25613116064706e-08 4.63265186516873e-10 8.52231548514084e-10 4.43746066446811e-09 4.603470187995e-08 1.76443077569433e-07 9.65497422237850e-09 4.40410075467242e-08
"153" 30829 2.2548648146091e-08 4.63033130263389e-10 8.52487447063442e-10 4.47761967123980e-09 4.61944582585107e-08 1.76089623763225e-07 9.670963404315e-09 4.40822520866971e-08
"154" 30830 2.25359846857115e-08 4.62801074009904e-10 8.52743345612801e-10 4.51777867801148e-09 4.63542146370714e-08 1.75736169957016e-07 9.68695258625151e-09 4.412349662667e-08
"155" 30831 2.25233212253319e-08 4.6256901775642e-10 8.5299924416216e-10 4.55793768478316e-09 4.65139710156321e-08 1.75382716150807e-07 9.70294176818802e-09 4.41647411666429e-08
"156" 30832 2.25106577649524e-08 4.62336961502936e-10 8.53255142711519e-10 4.59809669155484e-09 4.66737273941929e-08 1.75029262344598e-07 9.71893095012452e-09 4.42059857066158e-08
"157" 30833 2.24979943045728e-08 4.62104905249452e-10 8.53511041260877e-10 4.63825569832652e-09 4.68334837727536e-08 1.7467580853839e-07 9.73492013206103e-09 4.42472302465887e-08
"158" 30834 2.24853308441932e-08 4.61872848995967e-10 8.53766939810236e-10 4.6784147050982e-09 4.69932401513143e-08 1.74322354732181e-07 9.75090931399754e-09 4.42884747865616e-08
"159" 30835 2.24726673838137e-08 4.61640792742483e-10 8.54022838359595e-10 4.71857371186989e-09 4.7152996529875e-08 1.73968900925972e-07 9.76689849593404e-09 4.43297193265345e-08
"160" 30836 2.24600039234341e-08 4.61408736488999e-10 8.54278736908954e-10 4.75873271864157e-09 4.73127529084357e-08 1.73615447119764e-07 9.78288767787055e-09 4.43709638665074e-08
"161" 30837 2.24972689899196e-08 4.6213954585969e-10 8.58242673883588e-10 4.77897291663296e-09 4.73522300167857e-08 1.73319051988896e-07 9.77608907587002e-09 4.44339307328433e-08
"162" 30838 2.25345340564051e-08 4.62870355230381e-10 8.62206610858223e-10 4.79921311462436e-09 4.73917071251357e-08 1.73022656858027e-07 9.76929047386948e-09 4.44968975991792e-08
"163" 30839 2.25717991228906e-08 4.63601164601073e-10 8.66170547832858e-10 4.81945331261575e-09 4.74311842334856e-08 1.72726261727159e-07 9.76249187186896e-09 4.45598644655152e-08
"164" 30840 2.2609064189376e-08 4.64331973971764e-10 8.70134484807493e-10 4.83969351060714e-09 4.74706613418356e-08 1.72429866596291e-07 9.75569326986842e-09 4.46228313318511e-08
"165" 30841 2.26463292558615e-08 4.65062783342455e-10 8.74098421782128e-10 4.85993370859854e-09 4.75101384501856e-08 1.72133471465423e-07 9.74889466786789e-09 4.46857981981871e-08
"166" 30842 2.25882655608575e-08 4.64993502121978e-10 8.74046245856086e-10 4.88245899236187e-09 4.75500376603438e-08 1.71751424678382e-07 9.66095416721711e-09 4.47295010827266e-08
"167" 30843 2.25157517264131e-08 4.65689670882431e-10 8.77754284281362e-10 4.8893142496777e-09 4.74421505667543e-08 1.71857166932891e-07 9.65697868337239e-09 4.46725900958359e-08
"168" 30844 2.19954396790181e-08 4.66652536506606e-10 8.79493398200831e-10 4.90742796413022e-09 4.74482122554698e-08 1.71948795133549e-07 9.65026732792951e-09 4.39268524895395e-08
"169" 30845 2.1475127631623e-08 4.67615402130781e-10 8.812325121203e-10 4.92554167858273e-09 4.74542739441852e-08 1.72040423334207e-07 9.64355597248663e-09 4.31811148832431e-08
"170" 30846 2.0954815584228e-08 4.68578267754957e-10 8.82971626039769e-10 4.94365539303524e-09 4.74603356329006e-08 1.72132051534865e-07 9.63684461704375e-09 4.24353772769467e-08
"171" 30847 2.04345035368329e-08 4.69541133379132e-10 8.84710739959238e-10 4.96176910748775e-09 4.7466397321616e-08 1.72223679735523e-07 9.63013326160086e-09 4.16896396706503e-08
"172" 30848 1.99141914894379e-08 4.70503999003308e-10 8.86449853878708e-10 4.97988282194027e-09 4.74724590103314e-08 1.72315307936181e-07 9.62342190615798e-09 4.09439020643539e-08
"173" 30849 1.93938794420429e-08 4.71466864627483e-10 8.88188967798177e-10 4.99799653639278e-09 4.74785206990468e-08 1.72406936136839e-07 9.6167105507151e-09 4.01981644580575e-08
"174" 30850 1.88735673946478e-08 4.72429730251658e-10 8.89928081717646e-10 5.01611025084529e-09 4.74845823877622e-08 1.72498564337497e-07 9.60999919527222e-09 3.94524268517611e-08
"175" 30851 1.83532553472528e-08 4.73392595875834e-10 8.91667195637115e-10 5.0342239652978e-09 4.74906440764777e-08 1.72590192538155e-07 9.60328783982934e-09 3.87066892454647e-08
"176" 30852 1.78329432998577e-08 4.74355461500009e-10 8.93406309556584e-10 5.05233767975032e-09 4.74967057651931e-08 1.72681820738813e-07 9.59657648438645e-09 3.79609516391683e-08
"177" 30853 1.73126312524627e-08 4.75318327124185e-10 8.95145423476054e-10 5.07045139420283e-09 4.75027674539085e-08 1.72773448939471e-07 9.58986512894357e-09 3.72152140328719e-08
"178" 30854 1.67923192050676e-08 4.7628119274836e-10 8.96884537395523e-10 5.08856510865534e-09 4.75088291426239e-08 1.72865077140129e-07 9.58315377350069e-09 3.64694764265755e-08
"179" 30855 1.62720071576726e-08 4.77244058372536e-10 8.98623651314992e-10 5.10667882310785e-09 4.75148908313393e-08 1.72956705340787e-07 9.57644241805781e-09 3.57237388202791e-08
"180" 30856 1.57516951102776e-08 4.78206923996711e-10 9.00362765234461e-10 5.12479253756037e-09 4.75209525200547e-08 1.73048333541445e-07 9.56973106261493e-09 3.49780012139827e-08
"181" 30857 1.52313830628825e-08 4.79169789620886e-10 9.0210187915393e-10 5.14290625201288e-09 4.75270142087701e-08 1.73139961742103e-07 9.56301970717204e-09 3.42322636076863e-08
"182" 30858 1.46921077540047e-08 4.81466139563676e-10 9.02141011098462e-10 5.14694635453157e-09 4.75597806903246e-08 1.73432142448549e-07 9.57010403846353e-09 3.34348253564653e-08
"183" 30859 1.41528324451269e-08 4.83762489506465e-10 9.02180143042993e-10 5.15098645705025e-09 4.7592547171879e-08 1.73724323154995e-07 9.57718836975502e-09 3.26373871052444e-08
"184" 30860 1.358823021549e-08 4.83994545759949e-10 9.00198174555676e-10 5.15216551193575e-09 4.75721381785554e-08 1.74291629848744e-07 9.57227354404766e-09 3.18696969359589e-08
"185" 30861 1.30236279858531e-08 4.84226602013433e-10 8.98216206068359e-10 5.15334456682125e-09 4.75517291852319e-08 1.74858936542492e-07 9.5673587183403e-09 3.11020067666734e-08
"186" 30862 1.24590257562162e-08 4.84458658266918e-10 8.96234237581041e-10 5.15452362170675e-09 4.75313201919083e-08 1.75426243236241e-07 9.56244389263293e-09 3.03343165973879e-08
"187" 30863 1.18944235265793e-08 4.84690714520402e-10 8.94252269093724e-10 5.15570267659225e-09 4.75109111985847e-08 1.75993549929989e-07 9.55752906692557e-09 2.95666264281024e-08
"188" 30864 1.1879245014556e-08 4.83890623929233e-10 8.93484573445647e-10 5.16215933595293e-09 4.74730437677223e-08 1.7655435115297e-07 9.54141410772046e-09 2.96023772579541e-08
"189" 30865 1.17511323795367e-08 4.84122680182718e-10 8.9150260495833e-10 5.15396642151854e-09 4.66860931961702e-08 1.76095672730475e-07 9.54141410772046e-09 2.8833677589616e-08
"190" 30866 1.16230197445175e-08 4.84354736436202e-10 8.89520636471013e-10 5.14577350708415e-09 4.5899142624618e-08 1.75636994307979e-07 9.54141410772046e-09 2.8064977921278e-08
"191" 30867 1.14949071094983e-08 4.84586792689686e-10 8.87538667983695e-10 5.13758059264977e-09 4.51121920530659e-08 1.75178315885484e-07 9.54141410772046e-09 2.72962782529399e-08
"192" 30868 1.1366794474479e-08 4.8481884894317e-10 8.85556699496378e-10 5.12938767821538e-09 4.43252414815137e-08 1.74719637462989e-07 9.54141410772046e-09 2.65275785846019e-08
"193" 30869 1.12386818394598e-08 4.85050905196655e-10 8.8357473100906e-10 5.12119476378099e-09 4.35382909099616e-08 1.74260959040493e-07 9.54141410772046e-09 2.57588789162638e-08
"194" 30870 1.11105692044405e-08 4.85282961450139e-10 8.81592762521743e-10 5.1130018493466e-09 4.27513403384094e-08 1.73802280617998e-07 9.54141410772046e-09 2.49901792479258e-08
"195" 30871 1.09824565694213e-08 4.85515017703623e-10 8.79610794034426e-10 5.10480893491222e-09 4.19643897668573e-08 1.73343602195503e-07 9.54141410772046e-09 2.42214795795877e-08
"196" 30872 1.0854343934402e-08 4.85747073957107e-10 8.77628825547108e-10 5.09661602047783e-09 4.11774391953051e-08 1.72884923773008e-07 9.54141410772046e-09 2.34527799112496e-08
"197" 30873 1.07262312993828e-08 4.85979130210591e-10 8.75646857059791e-10 5.08842310604344e-09 4.0390488623753e-08 1.72426245350512e-07 9.54141410772046e-09 2.26840802429116e-08
"198" 30874 1.06051437801199e-08 4.86245827074314e-10 8.73422034004625e-10 5.07463956741273e-09 3.96001234316893e-08 1.71376520904622e-07 9.55329693597578e-09 2.1889381996272e-08
"199" 30875 1.04840562608571e-08 4.86512523938037e-10 8.71197210949459e-10 5.06085602878202e-09 3.88097582396256e-08 1.70326796458731e-07 9.5651797642311e-09 2.10946837496323e-08
"200" 30876 1.03629687415942e-08 4.8677922080176e-10 8.68972387894294e-10 5.04707249015131e-09 3.80193930475619e-08 1.69277072012841e-07 9.57706259248642e-09 2.02999855029927e-08
"201" 30877 1.02418812223313e-08 4.87045917665482e-10 8.66747564839128e-10 5.0332889515206e-09 3.72290278554983e-08 1.6822734756695e-07 9.58894542074174e-09 1.95052872563531e-08
"202" 30878 1.02545446827109e-08 4.87045917665482e-10 8.64483609839431e-10 5.0337605734748e-09 3.72373155498276e-08 1.67770878164225e-07 9.54112328586163e-09 1.94792886780515e-08
"203" 30879 1.02784529032502e-08 4.87011277055244e-10 8.62475553389092e-10 5.0480157340597e-09 3.73318854549972e-08 1.67388537242567e-07 9.50240957692773e-09 1.94461835825412e-08
"204" 30880 1.03023611237895e-08 4.86976636445005e-10 8.60467496938754e-10 5.06227089464462e-09 3.74264553601667e-08 1.67006196320909e-07 9.46369586799382e-09 1.94130784870308e-08
"205" 30881 1.03262693443289e-08 4.86941995834767e-10 8.58459440488416e-10 5.07652605522953e-09 3.75210252653362e-08 1.66623855399252e-07 9.42498215905992e-09 1.93799733915205e-08
"206" 30882 1.03501775648682e-08 4.86907355224528e-10 8.56451384038077e-10 5.09078121581444e-09 3.76155951705058e-08 1.66241514477594e-07 9.38626845012602e-09 1.93468682960102e-08
"207" 30883 1.03740857854075e-08 4.8687271461429e-10 8.54443327587739e-10 5.10503637639935e-09 3.77101650756753e-08 1.65859173555936e-07 9.34755474119211e-09 1.93137632004998e-08
"208" 30884 1.03923556613237e-08 4.86141905243599e-10 8.54456371569249e-10 5.11929153698426e-09 3.7766561983965e-08 1.65500874591464e-07 9.37155305518981e-09 1.92978385217686e-08
"209" 30885 1.04097588052816e-08 4.84077611554294e-10 8.54456371569249e-10 5.12748445141864e-09 3.76481233843869e-08 1.65580854229952e-07 9.38439485896859e-09 1.9286643142396e-08
"210" 30886 1.04271619492394e-08 4.82013317864988e-10 8.54456371569249e-10 5.13567736585303e-09 3.75296847848089e-08 1.6566083386844e-07 9.39723666274737e-09 1.92754477630234e-08
"211" 30887 1.04445650931973e-08 4.79949024175683e-10 8.54456371569249e-10 5.14387028028742e-09 3.74112461852308e-08 1.65740813506928e-07 9.41007846652615e-09 1.92642523836507e-08
"212" 30888 1.04619682371552e-08 4.77884730486378e-10 8.54456371569249e-10 5.15206319472181e-09 3.72928075856527e-08 1.65820793145417e-07 9.42292027030493e-09 1.92530570042781e-08
"213" 30889 1.04793713811131e-08 4.75820436797073e-10 8.54456371569249e-10 5.1602561091562e-09 3.71743689860746e-08 1.65900772783905e-07 9.43576207408372e-09 1.92418616249055e-08
"214" 30890 1.0496774525071e-08 4.73756143107768e-10 8.54456371569249e-10 5.16844902359058e-09 3.70559303864965e-08 1.65980752422393e-07 9.4486038778625e-09 1.92306662455329e-08
"215" 30891 1.05141776690289e-08 4.71691849418463e-10 8.54456371569249e-10 5.17664193802497e-09 3.69374917869185e-08 1.66060732060881e-07 9.46144568164128e-09 1.92194708661603e-08
"216" 30892 1.05315808129868e-08 4.69627555729158e-10 8.54456371569249e-10 5.18483485245936e-09 3.68190531873404e-08 1.66140711699369e-07 9.47428748542006e-09 1.92082754867877e-08
"217" 30893 1.05489839569447e-08 4.67563262039853e-10 8.54456371569249e-10 5.19302776689375e-09 3.67006145877623e-08 1.66220691337858e-07 9.48712928919884e-09 1.9197080107415e-08
"218" 30894 1.05663871009026e-08 4.65498968350548e-10 8.54456371569249e-10 5.20122068132814e-09 3.65821759881842e-08 1.66300670976346e-07 9.49997109297762e-09 1.91858847280424e-08
"219" 30895 1.05837902448605e-08 4.63434674661243e-10 8.54456371569249e-10 5.20941359576252e-09 3.64637373886062e-08 1.66380650614834e-07 9.5128128967564e-09 1.91746893486698e-08
"220" 30896 1.08515537526977e-08 4.67459340209138e-10 8.58216585920567e-10 5.21563444414611e-09 3.62663445723281e-08 1.66511585097853e-07 9.53664181020668e-09 1.92984229685885e-08
"221" 30897 1.15944830367587e-08 4.65395046519833e-10 8.58216585920567e-10 5.20881050273827e-09 3.62156975514266e-08 1.67381423721584e-07 9.5244732526604e-09 1.92822577685535e-08
"222" 30898 1.23374123208197e-08 4.63330752830528e-10 8.58216585920567e-10 5.20198656133043e-09 3.6165050530525e-08 1.68251262345315e-07 9.51230469511413e-09 1.92660925685185e-08
"223" 30899 1.30803416048807e-08 4.61266459141223e-10 8.58216585920567e-10 5.1951626199226e-09 3.61144035096235e-08 1.69121100969046e-07 9.50013613756785e-09 1.92499273684835e-08
"224" 30900 1.38232708889417e-08 4.59202165451918e-10 8.58216585920567e-10 5.18833867851476e-09 3.60637564887219e-08 1.69990939592777e-07 9.48796758002157e-09 1.92337621684485e-08
"225" 30901 1.43934126180123e-08 4.50560587426392e-10 8.49534060304732e-10 5.18820720744471e-09 3.59935477957683e-08 1.7021065872432e-07 9.46783351369293e-09 1.91570781619665e-08
"226" 30902 1.51386729642965e-08 4.50525946816153e-10 8.49534060304732e-10 5.18374556055285e-09 3.60910314898955e-08 1.71074646190631e-07 9.46561093630491e-09 1.91361836625729e-08
"227" 30903 1.58839333105808e-08 4.50491306205915e-10 8.49534060304732e-10 5.179283913661e-09 3.61885151840228e-08 1.71938633656941e-07 9.46338835891689e-09 1.91152891631793e-08
"228" 30904 1.66291936568651e-08 4.50456665595676e-10 8.49534060304732e-10 5.17482226676914e-09 3.628599887815e-08 1.72802621123252e-07 9.46116578152887e-09 1.90943946637857e-08
"229" 30905 1.73744540031493e-08 4.50422024985438e-10 8.49534060304732e-10 5.17036061987729e-09 3.63834825722772e-08 1.73666608589562e-07 9.45894320414085e-09 1.90735001643921e-08
"230" 30906 1.81197143494336e-08 4.50387384375199e-10 8.49534060304732e-10 5.16589897298543e-09 3.64809662664045e-08 1.74530596055873e-07 9.45672062675283e-09 1.90526056649985e-08
"231" 30907 1.88649746957178e-08 4.50352743764961e-10 8.49534060304732e-10 5.16143732609358e-09 3.65784499605317e-08 1.75394583522183e-07 9.45449804936481e-09 1.90317111656049e-08
"232" 30908 1.96102350420021e-08 4.50318103154722e-10 8.49534060304732e-10 5.15697567920172e-09 3.66759336546589e-08 1.76258570988494e-07 9.45227547197679e-09 1.90108166662112e-08
"233" 30909 2.03554953882864e-08 4.50283462544483e-10 8.49534060304732e-10 5.15251403230986e-09 3.67734173487862e-08 1.77122558454804e-07 9.45005289458878e-09 1.89899221668176e-08
"234" 30910 2.03548020027198e-08 4.51048912525413e-10 8.55545185674237e-10 5.15773737445903e-09 3.67202418739082e-08 1.77125268126952e-07 9.44884236452811e-09 1.8969027667424e-08
"235" 30911 2.03874155877876e-08 4.51814362506343e-10 8.55289287124878e-10 5.15892061408952e-09 3.66874753923538e-08 1.77175812838603e-07 9.45878834468637e-09 1.89482040100692e-08
"236" 30912 2.04200291728555e-08 4.52579812487273e-10 8.55033388575519e-10 5.16010385372e-09 3.66547089107994e-08 1.77226357550254e-07 9.46873432484462e-09 1.89273803527144e-08
"237" 30913 2.04449136135715e-08 4.61394593563991e-10 8.63794178080418e-10 5.17254555048717e-09 3.6663111062483e-08 1.77224146631223e-07 9.57633412832486e-09 1.89831698598028e-08
"238" 30914 2.04697980542875e-08 4.7020937464071e-10 8.72554967585316e-10 5.18498724725433e-09 3.66715132141666e-08 1.77221935712193e-07 9.68393393180509e-09 1.90389593668912e-08
"239" 30915 2.04946824950035e-08 4.79024155717428e-10 8.81315757090215e-10 5.1974289440215e-09 3.66799153658501e-08 1.77219724793162e-07 9.79153373528533e-09 1.90947488739796e-08
"240" 30916 2.05195669357195e-08 4.87838936794147e-10 8.90076546595113e-10 5.20987064078867e-09 3.66883175175337e-08 1.77217513874131e-07 9.89913353876556e-09 1.9150538381068e-08
"241" 30917 2.05444513764355e-08 4.96653717870865e-10 8.98837336100012e-10 5.22231233755584e-09 3.66967196692173e-08 1.772153029551e-07 1.00067333422458e-08 1.92063278881564e-08
"242" 30918 2.05693358171515e-08 5.05468498947584e-10 9.0759812560491e-10 5.234754034323e-09 3.67051218209009e-08 1.77213092036069e-07 1.0114333145726e-08 1.92621173952448e-08
"243" 30919 2.05942202578675e-08 5.14283280024303e-10 9.16358915109809e-10 5.24719573109017e-09 3.67135239725845e-08 1.77210881117038e-07 1.02219329492063e-08 1.93179069023332e-08
"244" 30920 2.06118286773036e-08 5.14283280024303e-10 9.13110497857208e-10 5.23798236400334e-09 3.66283516468963e-08 1.77125348254267e-07 1.03317553300745e-08 1.93784257087802e-08
"245" 30921 2.06294370967398e-08 5.14283280024303e-10 9.09862080604607e-10 5.22876899691652e-09 3.65431793212082e-08 1.77039815391497e-07 1.04415777109428e-08 1.94389445152272e-08
"246" 30922 2.06470455161759e-08 5.14283280024303e-10 9.06613663352007e-10 5.21955562982969e-09 3.645800699552e-08 1.76954282528726e-07 1.0551400091811e-08 1.94994633216743e-08
"247" 30923 2.06646539356121e-08 5.14283280024303e-10 9.03365246099406e-10 5.21034226274287e-09 3.63728346698319e-08 1.76868749665956e-07 1.06612224726793e-08 1.95599821281213e-08
"248" 30924 2.06822623550482e-08 5.14283280024303e-10 9.00116828846805e-10 5.20112889565604e-09 3.62876623441437e-08 1.76783216803185e-07 1.07710448535475e-08 1.96205009345683e-08
"249" 30925 2.06998707744844e-08 5.14283280024303e-10 8.96868411594205e-10 5.19191552856922e-09 3.62024900184556e-08 1.76697683940415e-07 1.08808672344158e-08 1.96810197410153e-08
"250" 30926 2.07174791939205e-08 5.14283280024303e-10 8.93619994341604e-10 5.18270216148239e-09 3.61173176927674e-08 1.76612151077644e-07 1.0990689615284e-08 1.97415385474624e-08
"251" 30927 2.07350876133567e-08 5.14283280024303e-10 8.90371577089003e-10 5.17348879439557e-09 3.60321453670793e-08 1.76526618214874e-07 1.11005119961523e-08 1.98020573539094e-08
"252" 30928 2.07526960327928e-08 5.14283280024303e-10 8.87123159836403e-10 5.16427542730874e-09 3.59469730413911e-08 1.76441085352103e-07 1.12103343770206e-08 1.98625761603564e-08
"253" 30929 2.0781093031387e-08 5.23098061101021e-10 8.95129297674736e-10 5.18117877096776e-09 3.6018680072133e-08 1.76086113606299e-07 1.13041384937664e-08 1.99391893247996e-08
"254" 30930 2.08094900299812e-08 5.3191284217774e-10 9.03135435513068e-10 5.19808211462679e-09 3.60903871028749e-08 1.75731141860495e-07 1.13979426105123e-08 2.00158024892429e-08
"255" 30931 2.08378870285754e-08 5.40727623254458e-10 9.11141573351401e-10 5.21498545828581e-09 3.61620941336167e-08 1.7537617011469e-07 1.14917467272581e-08 2.00924156536861e-08
"256" 30932 2.08662840271696e-08 5.49542404331177e-10 9.19147711189734e-10 5.23188880194483e-09 3.62338011643586e-08 1.75021198368886e-07 1.1585550844004e-08 2.01690288181294e-08
"257" 30933 2.08946810257638e-08 5.58357185407895e-10 9.27153849028067e-10 5.24879214560385e-09 3.63055081951005e-08 1.74666226623082e-07 1.16793549607499e-08 2.02456419825726e-08
"258" 30934 2.0923078024358e-08 5.67171966484614e-10 9.35159986866399e-10 5.26569548926287e-09 3.63772152258424e-08 1.74311254877277e-07 1.17731590774957e-08 2.03222551470158e-08
"259" 30935 2.09514750229522e-08 5.75986747561332e-10 9.43166124704732e-10 5.2825988329219e-09 3.64489222565842e-08 1.73956283131473e-07 1.18669631942416e-08 2.03988683114591e-08
"260" 30936 2.08098641246817e-08 5.84036078657121e-10 9.51172262543065e-10 5.29690407108784e-09 3.64652278068342e-08 1.73923827412028e-07 1.1967851642279e-08 2.02082280729501e-08
"261" 30937 2.06682532264113e-08 5.9208540975291e-10 9.59178400381398e-10 5.31120930925378e-09 3.64815333570842e-08 1.73891371692582e-07 1.20687400903163e-08 2.00175878344411e-08
"262" 30938 2.05266423281408e-08 6.00134740848699e-10 9.6718453821973e-10 5.32551454741972e-09 3.64978389073341e-08 1.73858915973137e-07 1.21696285383537e-08 1.98269475959322e-08
"263" 30939 2.03850314298704e-08 6.08184071944488e-10 9.75190676058063e-10 5.33981978558566e-09 3.65141444575841e-08 1.73826460253691e-07 1.2270516986391e-08 1.96363073574232e-08
"264" 30940 2.02434205315999e-08 6.16233403040277e-10 9.83196813896396e-10 5.3541250237516e-09 3.65304500078341e-08 1.73794004534246e-07 1.23714054344284e-08 1.94456671189143e-08
"265" 30941 2.00842012138934e-08 6.16164121819799e-10 9.8244216222983e-10 5.35835085966636e-09 3.65252682503439e-08 1.73769677831245e-07 1.23647377022643e-08 1.9246307556109e-08
"266" 30942 1.99249818961868e-08 6.16094840599322e-10 9.81687510563264e-10 5.36257669558111e-09 3.65200864928537e-08 1.73745351128244e-07 1.23580699701002e-08 1.90469479933038e-08
"267" 30943 1.99529227137792e-08 6.10179084413316e-10 9.76496256767878e-10 5.32188343503925e-09 3.64475782606322e-08 1.7402034323556e-07 1.23040737636054e-08 1.91325461396887e-08
"268" 30944 1.99808635313717e-08 6.04263328227309e-10 9.71305002972491e-10 5.28119017449739e-09 3.63750700284106e-08 1.74295335342876e-07 1.22500775571106e-08 1.92181442860736e-08
"269" 30945 2.00088043489641e-08 5.98347572041302e-10 9.66113749177105e-10 5.24049691395552e-09 3.6302561796189e-08 1.74570327450192e-07 1.21960813506158e-08 1.93037424324586e-08
"270" 30946 1.99410621271847e-08 5.94496109544601e-10 9.68928633220051e-10 5.19980365341366e-09 3.6415284157551e-08 1.74428420398594e-07 1.21756855446142e-08 1.92026120974014e-08
"271" 30947 1.98733199054052e-08 5.90644647047899e-10 9.71743517262997e-10 5.15911039287179e-09 3.6528006518913e-08 1.74286513346996e-07 1.21552897386126e-08 1.91014817623443e-08
"272" 30948 1.98055776836258e-08 5.86793184551197e-10 9.74558401305944e-10 5.11841713232993e-09 3.6640728880275e-08 1.74144606295398e-07 1.2134893932611e-08 1.90003514272872e-08
"273" 30949 1.97378354618463e-08 5.82941722054496e-10 9.7737328534889e-10 5.07772387178806e-09 3.6753451241637e-08 1.740026992438e-07 1.21144981266094e-08 1.88992210922301e-08
"274" 30950 1.96700932400668e-08 5.79090259557794e-10 9.80188169391836e-10 5.0370306112462e-09 3.6866173602999e-08 1.73860792192202e-07 1.20941023206078e-08 1.87980907571729e-08
"275" 30951 1.96023510182874e-08 5.75238797061092e-10 9.83003053434782e-10 4.99633735070434e-09 3.69788959643611e-08 1.73718885140605e-07 1.20737065146062e-08 1.86969604221158e-08
"276" 30952 1.95346087965079e-08 5.7138733456439e-10 9.85817937477728e-10 4.95564409016247e-09 3.70916183257231e-08 1.73576978089007e-07 1.20533107086046e-08 1.85958300870587e-08
"277" 30953 1.94668665747285e-08 5.67535872067689e-10 9.88632821520675e-10 4.91495082962061e-09 3.72043406870851e-08 1.73435071037409e-07 1.2032914902603e-08 1.84946997520016e-08
"278" 30954 1.9399124352949e-08 5.63684409570987e-10 9.91447705563621e-10 4.87425756907874e-09 3.73170630484471e-08 1.73293163985811e-07 1.20125190966014e-08 1.83935694169445e-08
"279" 30955 1.93313821311695e-08 5.59832947074285e-10 9.94262589606567e-10 4.83356430853688e-09 3.74297854098091e-08 1.73151256934213e-07 1.19921232905998e-08 1.82924390818873e-08
"280" 30956 1.92636399093901e-08 5.55981484577584e-10 9.97077473649513e-10 4.79287104799501e-09 3.75425077711711e-08 1.73009349882615e-07 1.19717274845982e-08 1.81913087468302e-08
"281" 30957 1.91958976876106e-08 5.52130022080882e-10 9.9989235769246e-10 4.75217778745315e-09 3.76552301325331e-08 1.72867442831017e-07 1.19513316785966e-08 1.80901784117731e-08
"282" 30958 1.91281554658312e-08 5.4827855958418e-10 1.00270724173541e-09 4.71148452691129e-09 3.77679524938951e-08 1.72725535779419e-07 1.19309358725951e-08 1.7989048076716e-08
"283" 30959 1.90547186263544e-08 5.5057490952697e-10 1.00945997478997e-09 4.71584183389609e-09 3.78839708615412e-08 1.72696659952031e-07 1.19507405863539e-08 1.79857973261993e-08
"284" 30960 1.89812817868777e-08 5.52871259469759e-10 1.01621270784453e-09 4.7201991408809e-09 3.79999892291872e-08 1.72667784124643e-07 1.19705453001128e-08 1.79825465756826e-08
"285" 30961 1.89755871691804e-08 5.53903406314411e-10 1.01796486574551e-09 4.70894068374422e-09 3.79050319105998e-08 1.72910653313218e-07 1.19567932366572e-08 1.80192669165812e-08
"286" 30962 1.89698925514832e-08 5.54935553159064e-10 1.01971702364649e-09 4.69768222660753e-09 3.78100745920124e-08 1.73153522501793e-07 1.19430411732017e-08 1.80559872574799e-08
"287" 30963 1.89641979337859e-08 5.55967700003717e-10 1.02146918154746e-09 4.68642376947085e-09 3.77151172734249e-08 1.73396391690368e-07 1.19292891097461e-08 1.80927075983785e-08
"288" 30964 1.9016761643542e-08 5.56733149984646e-10 1.02322133944844e-09 4.67516531233417e-09 3.74564912418664e-08 1.73310239381816e-07 1.18895051891131e-08 1.81376839314756e-08
"289" 30965 1.90693253532982e-08 5.57498599965576e-10 1.02497349734942e-09 4.66390685519748e-09 3.71978652103078e-08 1.73224087073264e-07 1.18497212684801e-08 1.81826602645727e-08
"290" 30966 1.91218890630543e-08 5.58264049946506e-10 1.0267256552504e-09 4.6526483980608e-09 3.69392391787493e-08 1.73137934764712e-07 1.18099373478471e-08 1.82276365976698e-08
"291" 30967 1.91744527728104e-08 5.59029499927436e-10 1.02847781315138e-09 4.64138994092411e-09 3.66806131471907e-08 1.7305178245616e-07 1.1770153427214e-08 1.82726129307669e-08
"292" 30968 1.92270164825665e-08 5.59794949908365e-10 1.03022997105236e-09 4.63013148378743e-09 3.64219871156322e-08 1.72965630147609e-07 1.1730369506581e-08 1.8317589263864e-08
"293" 30969 1.92188630862996e-08 5.59760309298127e-10 1.02895047830557e-09 4.61511881269019e-09 3.61982349570145e-08 1.72847490699562e-07 1.1718413972861e-08 1.83336836218602e-08
"294" 30970 1.92107096900326e-08 5.59725668687888e-10 1.02767098555878e-09 4.60010614159295e-09 3.59744827983968e-08 1.72729351251516e-07 1.1706458439141e-08 1.83497779798564e-08
"295" 30971 1.92025562937656e-08 5.5969102807765e-10 1.02639149281198e-09 4.58509347049571e-09 3.57507306397791e-08 1.7261121180347e-07 1.16945029054209e-08 1.83658723378527e-08
"296" 30972 1.91944028974987e-08 5.59656387467411e-10 1.02511200006519e-09 4.57008079939847e-09 3.55269784811615e-08 1.72493072355424e-07 1.16825473717009e-08 1.83819666958489e-08
"297" 30973 1.91862495012317e-08 5.59621746857172e-10 1.02383250731839e-09 4.55506812830123e-09 3.53032263225438e-08 1.72374932907378e-07 1.16705918379809e-08 1.83980610538451e-08
"298" 30974 1.91780961049648e-08 5.59587106246934e-10 1.0225530145716e-09 4.54005545720399e-09 3.50794741639261e-08 1.72256793459332e-07 1.16586363042609e-08 1.84141554118413e-08
"299" 30975 1.91572792483182e-08 5.61616759326e-10 1.03255416487876e-09 4.52575021903804e-09 3.48093011985811e-08 1.71910419309923e-07 1.16288565281579e-08 1.84224114040398e-08
"300" 30976 1.91364623916717e-08 5.63646412405067e-10 1.04255531518592e-09 4.5114449808721e-09 3.45391282332362e-08 1.71564045160515e-07 1.15990767520548e-08 1.84306673962382e-08
"301" 30977 1.91156455350252e-08 5.65676065484133e-10 1.05255646549308e-09 4.49713974270616e-09 3.42689552678913e-08 1.71217671011106e-07 1.15692969759518e-08 1.84389233884367e-08
"302" 30978 1.90948286783787e-08 5.677057185632e-10 1.06255761580024e-09 4.48283450454022e-09 3.39987823025463e-08 1.70871296861697e-07 1.15395171998488e-08 1.84471793806351e-08
"303" 30979 1.90740118217321e-08 5.69735371642266e-10 1.0725587661074e-09 4.46852926637428e-09 3.37286093372014e-08 1.70524922712288e-07 1.15097374237458e-08 1.84554353728336e-08
"304" 30980 1.90531949650856e-08 5.71765024721333e-10 1.08255991641457e-09 4.45422402820834e-09 3.34584363718565e-08 1.70178548562879e-07 1.14799576476428e-08 1.8463691365032e-08
"305" 30981 1.90531949650856e-08 5.73794677800399e-10 1.09456912317206e-09 4.45645485165427e-09 3.34334598707325e-08 1.69706736606924e-07 1.14912159455123e-08 1.84737549799247e-08
"306" 30982 1.90531949650856e-08 5.75824330879466e-10 1.10657832992956e-09 4.45868567510019e-09 3.34084833696085e-08 1.69234924650968e-07 1.15024742433819e-08 1.84838185948173e-08
"307" 30983 1.89415624689919e-08 5.77888624568771e-10 1.11661861218126e-09 4.46128378059327e-09 3.33288382519099e-08 1.69235393230919e-07 1.14148485542079e-08 1.83003408638919e-08
"308" 30984 1.88299299728983e-08 5.79952918258076e-10 1.12665889443295e-09 4.46388188608635e-09 3.32491931342113e-08 1.6923586181087e-07 1.1327222865034e-08 1.81168631329666e-08
"309" 30985 1.87182974768046e-08 5.82017211947381e-10 1.13669917668464e-09 4.46647999157944e-09 3.31695480165126e-08 1.69236330390821e-07 1.123959717586e-08 1.79333854020412e-08
"310" 30986 1.86066649807109e-08 5.84081505636686e-10 1.14673945893633e-09 4.46907809707252e-09 3.3089902898814e-08 1.69236798970773e-07 1.11519714866861e-08 1.77499076711158e-08
"311" 30987 1.84950324846172e-08 5.86145799325991e-10 1.15677974118802e-09 4.4716762025656e-09 3.30102577811153e-08 1.69237267550724e-07 1.10643457975121e-08 1.75664299401905e-08
"312" 30988 1.83833999885236e-08 5.88210093015296e-10 1.16682002343972e-09 4.47427430805868e-09 3.29306126634167e-08 1.69237736130675e-07 1.09767201083382e-08 1.73829522092651e-08
"313" 30989 1.82717674924299e-08 5.90274386704601e-10 1.17686030569141e-09 4.47687241355176e-09 3.2850967545718e-08 1.69238204710626e-07 1.08890944191642e-08 1.71994744783398e-08
"314" 30990 1.82938859759787e-08 5.92338680393906e-10 1.1748913811856e-09 4.47876308611354e-09 3.27675235117449e-08 1.70516577789282e-07 1.10777248851191e-08 1.70239945077994e-08
"315" 30991 1.83160044595274e-08 5.94402974083211e-10 1.1729224566798e-09 4.48065375867532e-09 3.26840794777718e-08 1.71794950867937e-07 1.12663553510739e-08 1.68485145372591e-08
"316" 30992 1.82170354238133e-08 5.9443761469345e-10 1.17168209587753e-09 4.5095313618923e-09 3.36397251387308e-08 1.72125600605141e-07 1.1361766963347e-08 1.66590340584175e-08
"317" 30993 1.81180663880992e-08 5.94472255303688e-10 1.17044173507527e-09 4.53840896510927e-09 3.45953707996897e-08 1.72456250342344e-07 1.14571785756202e-08 1.6469553579576e-08
"318" 30994 1.80190973523851e-08 5.94506895913927e-10 1.16920137427301e-09 4.56728656832625e-09 3.55510164606487e-08 1.72786900079547e-07 1.15525901878933e-08 1.62800731007345e-08
"319" 30995 1.79949732133386e-08 5.94773592777649e-10 1.16917528630999e-09 4.59356606605014e-09 3.65823949048959e-08 1.72856859395942e-07 1.17058477132374e-08 1.62373500119196e-08
"320" 30996 1.79708490742922e-08 5.95040289641372e-10 1.16914919834697e-09 4.61984556377403e-09 3.76137733491431e-08 1.72926818712337e-07 1.18591052385815e-08 1.61946269231048e-08
"321" 30997 1.79467249352457e-08 5.95306986505095e-10 1.16912311038395e-09 4.64612506149792e-09 3.86451517933903e-08 1.72996778028732e-07 1.20123627639256e-08 1.615190383429e-08
"322" 30998 1.79226007961993e-08 5.95573683368818e-10 1.16909702242092e-09 4.67240455922182e-09 3.96765302376375e-08 1.73066737345127e-07 1.21656202892697e-08 1.61091807454752e-08
"323" 30999 1.78984766571528e-08 5.9584038023254e-10 1.1690709344579e-09 4.69868405694571e-09 4.07079086818847e-08 1.73136696661522e-07 1.23188778146138e-08 1.60664576566604e-08
"324" 31000 1.78743525181064e-08 5.96107077096263e-10 1.16904484649488e-09 4.7249635546696e-09 4.17392871261319e-08 1.73206655977917e-07 1.24721353399578e-08 1.60237345678455e-08
"325" 31001 1.7877681086564e-08 5.94077424017197e-10 1.16376228482892e-09 4.71651606758508e-09 4.2759921916509e-08 1.72619319032165e-07 1.26585090537709e-08 1.6020982570446e-08
"326" 31002 1.78810096550217e-08 5.9204777093813e-10 1.15847972316296e-09 4.70806858050055e-09 4.37805567068861e-08 1.72031982086414e-07 1.2844882767584e-08 1.60182305730466e-08
"327" 31003 1.79450553295024e-08 5.89983477248825e-10 1.153197161497e-09 4.67263416276083e-09 4.37588026783922e-08 1.7111446398341e-07 1.28361909407652e-08 1.61300929553785e-08
"328" 31004 1.80091010039832e-08 5.8791918355952e-10 1.14791459983104e-09 4.63719974502111e-09 4.37370486498983e-08 1.70196945880406e-07 1.28274991139464e-08 1.62419553377104e-08
"329" 31005 1.8073146678464e-08 5.85854889870215e-10 1.14263203816508e-09 4.60176532728139e-09 4.37152946214043e-08 1.69279427777402e-07 1.28188072871276e-08 1.63538177200423e-08
"330" 31006 1.81371923529447e-08 5.8379059618091e-10 1.13734947649912e-09 4.56633090954167e-09 4.36935405929104e-08 1.68361909674399e-07 1.28101154603089e-08 1.64656801023742e-08
"331" 31007 1.82012380274255e-08 5.81726302491605e-10 1.13206691483316e-09 4.53089649180195e-09 4.36717865644165e-08 1.67444391571395e-07 1.28014236334901e-08 1.65775424847062e-08
"332" 31008 1.82652837019062e-08 5.796620088023e-10 1.1267843531672e-09 4.49546207406223e-09 4.36500325359225e-08 1.66526873468391e-07 1.27927318066713e-08 1.66894048670381e-08
"333" 31009 1.8329329376387e-08 5.77597715112995e-10 1.12150179150124e-09 4.46002765632251e-09 4.36282785074286e-08 1.65609355365387e-07 1.27840399798526e-08 1.680126724937e-08
"334" 31010 1.83933750508677e-08 5.7553342142369e-10 1.11621922983528e-09 4.42459323858279e-09 4.36065244789347e-08 1.64691837262384e-07 1.27753481530338e-08 1.69131296317019e-08
"335" 31011 1.84208277583718e-08 5.77296377639034e-10 1.11396831881709e-09 4.39172979517315e-09 4.35847704504407e-08 1.64243185755643e-07 1.27824324843253e-08 1.69600758409262e-08
"336" 31012 1.87314019479876e-08 5.75000027696245e-10 1.10795719344759e-09 4.37566535551548e-09 4.37360858320542e-08 1.63934981807975e-07 1.29055859735645e-08 1.69572352909782e-08
"337" 31013 1.90419761376034e-08 5.72703677753455e-10 1.10194606807808e-09 4.35960091585781e-09 4.38874012136677e-08 1.63626777860307e-07 1.30287394628036e-08 1.69543947410303e-08
"338" 31014 1.93525503272192e-08 5.70407327810666e-10 1.09593494270858e-09 4.34353647620014e-09 4.40387165952812e-08 1.63318573912639e-07 1.31518929520428e-08 1.69515541910823e-08
"339" 31015 1.96631245168349e-08 5.68110977867877e-10 1.08992381733908e-09 4.32747203654247e-09 4.41900319768947e-08 1.63010369964971e-07 1.3275046441282e-08 1.69487136411344e-08
"340" 31016 1.99736987064507e-08 5.65814627925088e-10 1.08391269196957e-09 4.3114075968848e-09 4.43413473585083e-08 1.62702166017303e-07 1.33981999305212e-08 1.69458730911864e-08
"341" 31017 2.02842728960665e-08 5.63518277982298e-10 1.07790156660007e-09 4.29534315722713e-09 4.44926627401218e-08 1.62393962069636e-07 1.35213534197603e-08 1.69430325412384e-08
"342" 31018 2.05948470856822e-08 5.61221928039509e-10 1.07189044123056e-09 4.27927871756946e-09 4.46439781217353e-08 1.62085758121968e-07 1.36445069089995e-08 1.69401919912905e-08
"343" 31019 2.0905421275298e-08 5.5892557809672e-10 1.06587931586106e-09 4.26321427791179e-09 4.47952935033488e-08 1.617775541743e-07 1.37676603982387e-08 1.69373514413425e-08
"344" 31020 2.12159954649138e-08 5.56629228153931e-10 1.05986819049155e-09 4.24714983825412e-09 4.49466088849623e-08 1.61469350226632e-07 1.38908138874779e-08 1.69345108913946e-08
"345" 31021 2.15265696545296e-08 5.54332878211141e-10 1.05385706512205e-09 4.23108539859645e-09 4.50979242665758e-08 1.61161146278964e-07 1.4013967376717e-08 1.69316703414466e-08
"346" 31022 2.18371438441453e-08 5.52036528268352e-10 1.04784593975254e-09 4.21502095893878e-09 4.52492396481893e-08 1.60852942331296e-07 1.41371208659562e-08 1.69288297914986e-08
"347" 31023 2.21477180337611e-08 5.49740178325563e-10 1.04183481438304e-09 4.19895651928111e-09 4.54005550298028e-08 1.60544738383629e-07 1.42602743551954e-08 1.69259892415507e-08
"348" 31024 2.24582922233769e-08 5.47443828382774e-10 1.03582368901353e-09 4.18289207962344e-09 4.55518704114163e-08 1.60236534435961e-07 1.43834278444345e-08 1.69231486916027e-08
"349" 31025 2.27771931556513e-08 5.47177131519051e-10 1.03509512530999e-09 4.20226205770549e-09 4.572359686479e-08 1.60049985683542e-07 1.45114961593811e-08 1.69230601390543e-08
"350" 31026 2.28018266908438e-08 5.49102862767402e-10 1.03633548611225e-09 4.20037138514371e-09 4.58581467882999e-08 1.60078630517785e-07 1.46176047960776e-08 1.69590412055319e-08
"351" 31027 2.28073236181619e-08 5.48836165903679e-10 1.03535102385935e-09 4.20412559910427e-09 4.6354018726503e-08 1.60991046990614e-07 1.46494086668353e-08 1.69649199798803e-08
"352" 31028 2.28128205454801e-08 5.48569469039956e-10 1.03436656160644e-09 4.20787981306482e-09 4.6849890664706e-08 1.61903463463442e-07 1.4681212537593e-08 1.69707987542286e-08
"353" 31029 2.28183174727982e-08 5.48302772176233e-10 1.03338209935354e-09 4.21163402702538e-09 4.73457626029091e-08 1.62815879936271e-07 1.47130164083507e-08 1.69766775285769e-08
"354" 31030 2.28238144001164e-08 5.48036075312511e-10 1.03239763710064e-09 4.21538824098594e-09 4.78416345411122e-08 1.637282964091e-07 1.47448202791084e-08 1.69825563029252e-08
"355" 31031 2.28293113274345e-08 5.47769378448788e-10 1.03141317484773e-09 4.21914245494649e-09 4.83375064793152e-08 1.64640712881928e-07 1.47766241498661e-08 1.69884350772735e-08
"356" 31032 2.27949612205205e-08 5.46806512824612e-10 1.03117032027988e-09 4.22289666890705e-09 4.87834254152704e-08 1.65857964622529e-07 1.47702079722393e-08 1.69884350772735e-08
"357" 31033 2.27606111136064e-08 5.45843647200437e-10 1.03092746571204e-09 4.2266508828676e-09 4.92293443512255e-08 1.6707521636313e-07 1.47637917946124e-08 1.69884350772735e-08
"358" 31034 2.27262610066923e-08 5.44880781576262e-10 1.03068461114419e-09 4.23040509682816e-09 4.96752632871806e-08 1.68292468103731e-07 1.47573756169856e-08 1.69884350772735e-08
"359" 31035 2.26919108997783e-08 5.43917915952086e-10 1.03044175657634e-09 4.23415931078872e-09 5.01211822231357e-08 1.69509719844332e-07 1.47509594393587e-08 1.69884350772735e-08
"360" 31036 2.26575607928642e-08 5.42955050327911e-10 1.03019890200849e-09 4.23791352474927e-09 5.05671011590909e-08 1.70726971584933e-07 1.47445432617319e-08 1.69884350772735e-08
"361" 31037 2.26232106859501e-08 5.41992184703735e-10 1.02995604744064e-09 4.24166773870983e-09 5.1013020095046e-08 1.71944223325535e-07 1.4738127084105e-08 1.69884350772735e-08
"362" 31038 2.25888605790361e-08 5.4102931907956e-10 1.02971319287279e-09 4.24542195267039e-09 5.14589390310011e-08 1.73161475066136e-07 1.47317109064781e-08 1.69884350772735e-08
"363" 31039 2.25860307636956e-08 5.4102931907956e-10 1.02971319287279e-09 4.24660519230087e-09 5.17265332657046e-08 1.74045246704721e-07 1.47552635391625e-08 1.69755663334524e-08
"364" 31040 2.25832009483552e-08 5.4102931907956e-10 1.02971319287279e-09 4.24778843193135e-09 5.19941275004081e-08 1.74929018343307e-07 1.47788161718469e-08 1.69626975896312e-08
"365" 31041 2.25640643404808e-08 5.40762622215837e-10 1.02945729432344e-09 4.24778843193135e-09 5.24378235484043e-08 1.76187214998529e-07 1.48057052168973e-08 1.67192100900537e-08
"366" 31042 2.25449277326064e-08 5.40495925352114e-10 1.02920139577408e-09 4.24778843193135e-09 5.28815195964004e-08 1.77445411653751e-07 1.48325942619476e-08 1.64757225904763e-08
"367" 31043 2.2525791124732e-08 5.40229228488392e-10 1.02894549722472e-09 4.24778843193135e-09 5.33252156443965e-08 1.78703608308973e-07 1.4859483306998e-08 1.62322350908988e-08
"368" 31044 2.25066545168576e-08 5.39962531624669e-10 1.02868959867536e-09 4.24778843193135e-09 5.37689116923926e-08 1.79961804964195e-07 1.48863723520483e-08 1.59887475913214e-08
"369" 31045 2.24875179089832e-08 5.39695834760946e-10 1.028433700126e-09 4.24778843193135e-09 5.42126077403887e-08 1.81220001619418e-07 1.49132613970987e-08 1.57452600917439e-08
"370" 31046 2.24683813011089e-08 5.39429137897223e-10 1.02817780157664e-09 4.24778843193135e-09 5.46563037883848e-08 1.8247819827464e-07 1.4940150442149e-08 1.55017725921665e-08
"371" 31047 2.2442739616653e-08 5.39429137897223e-10 1.02817780157664e-09 4.25182853445004e-09 5.4661485545875e-08 1.82080037726878e-07 1.4940150442149e-08 1.52550520525821e-08
"372" 31048 2.24170979321972e-08 5.39429137897223e-10 1.02817780157664e-09 4.25586863696872e-09 5.46666673033652e-08 1.81681877179117e-07 1.4940150442149e-08 1.50083315129976e-08
"373" 31049 2.23914562477414e-08 5.40194587878153e-10 1.02816475759513e-09 4.25022375044639e-09 5.46718490608553e-08 1.81492016294613e-07 1.49314586153303e-08 1.47685758065444e-08
"374" 31050 2.23658145632856e-08 5.40960037859083e-10 1.02815171361362e-09 4.24457886392405e-09 5.46770308183455e-08 1.8130215541011e-07 1.49227667885115e-08 1.45288201000911e-08
"375" 31051 2.23401728788298e-08 5.41725487840013e-10 1.02813866963211e-09 4.23893397740171e-09 5.46822125758357e-08 1.81112294525606e-07 1.49140749616927e-08 1.42890643936379e-08
"376" 31052 2.2314531194374e-08 5.42490937820942e-10 1.0281256256506e-09 4.23328909087937e-09 5.46873943333258e-08 1.80922433641102e-07 1.4905383134874e-08 1.40493086871847e-08
"377" 31053 2.22888895099182e-08 5.43256387801872e-10 1.02811258166909e-09 4.22764420435703e-09 5.4692576090816e-08 1.80732572756598e-07 1.48966913080552e-08 1.38095529807314e-08
"378" 31054 2.22066940907686e-08 5.44021837782802e-10 1.02737097398403e-09 4.2219993178347e-09 5.47459059075301e-08 1.80933747503307e-07 1.48946672134005e-08 1.37831824817263e-08
"379" 31055 2.2124498671619e-08 5.44787287763732e-10 1.02662936629898e-09 4.21635443131236e-09 5.47992357242443e-08 1.81134922250015e-07 1.48926431187458e-08 1.37568119827211e-08
"380" 31056 2.20423032524694e-08 5.45552737744661e-10 1.02588775861392e-09 4.21070954479002e-09 5.48525655409584e-08 1.81336096996724e-07 1.48906190240911e-08 1.3730441483716e-08
"381" 31057 2.19601078333198e-08 5.46318187725591e-10 1.02514615092887e-09 4.20506465826768e-09 5.49058953576726e-08 1.81537271743432e-07 1.48885949294364e-08 1.37040709847108e-08
"382" 31058 2.18779124141702e-08 5.47083637706521e-10 1.02440454324381e-09 4.19941977174534e-09 5.49592251743867e-08 1.81738446490141e-07 1.48865708347816e-08 1.36777004857056e-08
"383" 31059 2.18664623785322e-08 5.47883728297689e-10 1.02464739781166e-09 4.19941977174534e-09 5.50044972506983e-08 1.81998668330998e-07 1.48619479903981e-08 1.36873110531782e-08
"384" 31060 2.18629817497406e-08 5.47953009518166e-10 1.02266542932434e-09 4.19905248969819e-09 5.50631978551292e-08 1.82151381998761e-07 1.48599675190222e-08 1.3661170790799e-08
"385" 31061 2.18596744673407e-08 5.47222200147475e-10 1.02142506852208e-09 4.22756281086801e-09 5.54552913389079e-08 1.82214119285448e-07 1.48737632057566e-08 1.36350305284199e-08
"386" 31062 2.18563671849407e-08 5.46491390776784e-10 1.02018470771982e-09 4.25607313203783e-09 5.58473848226866e-08 1.82276856572135e-07 1.4887558892491e-08 1.36088902660408e-08
"387" 31063 2.18530599025408e-08 5.45760581406093e-10 1.01894434691756e-09 4.28458345320765e-09 5.62394783064653e-08 1.82339593858822e-07 1.49013545792254e-08 1.35827500036616e-08
"388" 31064 2.18497526201409e-08 5.45029772035401e-10 1.0177039861153e-09 4.31309377437747e-09 5.6631571790244e-08 1.82402331145509e-07 1.49151502659597e-08 1.35566097412825e-08
"389" 31065 2.18464453377409e-08 5.4429896266471e-10 1.01646362531303e-09 4.34160409554729e-09 5.70236652740227e-08 1.82465068432196e-07 1.49289459526941e-08 1.35304694789034e-08
"390" 31066 2.1843138055341e-08 5.43568153294019e-10 1.01522326451077e-09 4.37011441671712e-09 5.74157587578014e-08 1.82527805718883e-07 1.49427416394285e-08 1.35043292165242e-08
"391" 31067 2.18398307729411e-08 5.42837343923328e-10 1.01398290370851e-09 4.39862473788694e-09 5.78078522415801e-08 1.8259054300557e-07 1.49565373261628e-08 1.34781889541451e-08
"392" 31068 2.18365234905411e-08 5.42106534552637e-10 1.01274254290625e-09 4.42713505905676e-09 5.81999457253588e-08 1.82653280292257e-07 1.49703330128972e-08 1.3452048691766e-08
"393" 31069 2.18332162081412e-08 5.41375725181945e-10 1.01150218210398e-09 4.45564538022658e-09 5.85920392091375e-08 1.82716017578944e-07 1.49841286996316e-08 1.34259084293869e-08
"394" 31070 2.21320255984223e-08 5.40679556421493e-10 1.01028790926474e-09 4.46496308722045e-09 5.86433351681192e-08 1.8358372261582e-07 1.49858670649953e-08 1.40839083339062e-08
"395" 31071 2.24308349887033e-08 5.3998338766104e-10 1.0090736364255e-09 4.47428079421432e-09 5.86946311271008e-08 1.84451427652696e-07 1.49876054303591e-08 1.47419082384255e-08
"396" 31072 2.27296443789844e-08 5.39287218900587e-10 1.00785936358626e-09 4.48359850120819e-09 5.87459270860825e-08 1.85319132689572e-07 1.49893437957228e-08 1.53999081429448e-08
"397" 31073 2.30284537692655e-08 5.38591050140135e-10 1.00664509074702e-09 4.49291620820206e-09 5.87972230450642e-08 1.86186837726448e-07 1.49910821610866e-08 1.60579080474642e-08
"398" 31074 2.33272631595465e-08 5.37894881379682e-10 1.00543081790778e-09 4.50223391519593e-09 5.88485190040459e-08 1.87054542763325e-07 1.49928205264503e-08 1.67159079519835e-08
"399" 31075 2.36260725498276e-08 5.37198712619229e-10 1.00421654506854e-09 4.51155162218981e-09 5.88998149630276e-08 1.87922247800201e-07 1.49945588918141e-08 1.73739078565028e-08
"400" 31076 2.36084534873626e-08 5.36502543858777e-10 1.00421654506854e-09 4.50819182143941e-09 5.87507633930734e-08 1.8872721555039e-07 1.4968425246986e-08 1.80020179950091e-08
"401" 31077 2.39024486928632e-08 5.367692407225e-10 1.00498424071661e-09 4.50960668730201e-09 5.84485231609192e-08 1.89714599655152e-07 1.49721440837257e-08 1.86898899550318e-08
"402" 31078 2.41964438983639e-08 5.37035937586222e-10 1.00575193636469e-09 4.51102155316461e-09 5.8146282928765e-08 1.90701983759913e-07 1.49758629204653e-08 1.93777619150545e-08
"403" 31079 2.44904391038645e-08 5.37302634449945e-10 1.00651963201277e-09 4.51243641902721e-09 5.78440426966108e-08 1.91689367864675e-07 1.4979581757205e-08 2.00656338750771e-08
"404" 31080 2.47844343093651e-08 5.37569331313668e-10 1.00728732766084e-09 4.5138512848898e-09 5.75418024644566e-08 1.92676751969437e-07 1.49833005939446e-08 2.07535058350998e-08
"405" 31081 2.50784295148658e-08 5.37836028177391e-10 1.00805502330892e-09 4.5152661507524e-09 5.72395622323024e-08 1.93664136074199e-07 1.49870194306842e-08 2.14413777951225e-08
"406" 31082 2.53724247203664e-08 5.38102725041113e-10 1.00882271895699e-09 4.516681016615e-09 5.69373220001482e-08 1.94651520178961e-07 1.49907382674239e-08 2.21292497551451e-08
"407" 31083 2.56664199258671e-08 5.38369421904836e-10 1.00959041460507e-09 4.5180958824776e-09 5.66350817679939e-08 1.95638904283722e-07 1.49944571041635e-08 2.28171217151678e-08
"408" 31084 2.59604151313677e-08 5.38636118768559e-10 1.01035811025315e-09 4.5195107483402e-09 5.63328415358397e-08 1.96626288388484e-07 1.49981759409032e-08 2.35049936751905e-08
"409" 31085 2.59521203177957e-08 5.40828546880633e-10 1.01234007874046e-09 4.52263473811349e-09 5.60756014631518e-08 1.96822453923777e-07 1.51184721372328e-08 2.35129560145561e-08
"410" 31086 2.60010726244841e-08 5.46976359320123e-10 1.01829902818393e-09 4.5200095014574e-09 5.57354938001352e-08 1.97016745139264e-07 1.51432403925457e-08 2.35909917374664e-08
"411" 31087 2.60500249311725e-08 5.53124171759614e-10 1.02425797762739e-09 4.51738426480132e-09 5.53953861371186e-08 1.97211036354752e-07 1.51680086478586e-08 2.36690274603767e-08
"412" 31088 2.60989772378608e-08 5.59271984199105e-10 1.03021692707085e-09 4.51475902814523e-09 5.50552784741019e-08 1.9740532757024e-07 1.51927769031715e-08 2.3747063183287e-08
"413" 31089 2.61479295445492e-08 5.65419796638596e-10 1.03617587651432e-09 4.51213379148914e-09 5.47151708110853e-08 1.97599618785727e-07 1.52175451584844e-08 2.38250989061973e-08
"414" 31090 2.61968818512376e-08 5.71567609078087e-10 1.04213482595778e-09 4.50950855483305e-09 5.43750631480687e-08 1.97793910001215e-07 1.52423134137974e-08 2.39031346291076e-08
"415" 31091 2.6245834157926e-08 5.77715421517578e-10 1.04809377540124e-09 4.50688331817696e-09 5.40349554850521e-08 1.97988201216703e-07 1.52670816691103e-08 2.3981170352018e-08
"416" 31092 2.62947864646143e-08 5.83863233957069e-10 1.0540527248447e-09 4.50425808152087e-09 5.36948478220354e-08 1.9818249243219e-07 1.52918499244232e-08 2.40592060749283e-08
"417" 31093 2.63437387713027e-08 5.9001104639656e-10 1.06001167428817e-09 4.50163284486478e-09 5.33547401590188e-08 1.98376783647678e-07 1.53166181797361e-08 2.41372417978386e-08
"418" 31094 2.63926910779911e-08 5.96158858836051e-10 1.06597062373163e-09 4.4990076082087e-09 5.30146324960022e-08 1.98571074863166e-07 1.53413864350491e-08 2.42152775207489e-08
"419" 31095 2.64416433846794e-08 6.02306671275542e-10 1.07192957317509e-09 4.49638237155261e-09 5.26745248329856e-08 1.98765366078653e-07 1.5366154690362e-08 2.42933132436592e-08
"420" 31096 2.64905956913678e-08 6.08454483715033e-10 1.07788852261855e-09 4.49375713489652e-09 5.2334417169969e-08 1.98959657294141e-07 1.53909229456749e-08 2.43713489665695e-08
"421" 31097 2.65395479980562e-08 6.14602296154524e-10 1.08384747206202e-09 4.49113189824043e-09 5.19943095069523e-08 1.99153948509628e-07 1.54156912009878e-08 2.44493846894799e-08
"422" 31098 2.65885003047446e-08 6.20750108594014e-10 1.08980642150548e-09 4.48850666158434e-09 5.16542018439357e-08 1.99348239725116e-07 1.54404594563008e-08 2.45274204123902e-08
"423" 31099 2.66450859685249e-08 6.24705492921432e-10 1.09576537094894e-09 4.47501319625675e-09 5.16211707200641e-08 1.99522313055943e-07 1.54652131705207e-08 2.43934403547904e-08
"424" 31100 2.67016716323053e-08 6.28660877248849e-10 1.10172432039241e-09 4.46151973092915e-09 5.15881395961925e-08 1.99696386386771e-07 1.54899668847407e-08 2.42594602971906e-08
"425" 31101 2.67298602974915e-08 6.3480868968834e-10 1.10691557418779e-09 4.46716461745149e-09 5.15502721653301e-08 1.99721511675288e-07 1.55060433132349e-08 2.42179369560488e-08
"426" 31102 2.67580489626777e-08 6.40956502127831e-10 1.11210682798318e-09 4.47280950397383e-09 5.15124047344677e-08 1.99746636963806e-07 1.5522119741729e-08 2.4176413614907e-08
"427" 31103 2.67862376278639e-08 6.47104314567322e-10 1.11729808177857e-09 4.47845439049616e-09 5.14745373036053e-08 1.99771762252323e-07 1.55381961702232e-08 2.41348902737652e-08
"428" 31104 2.68144262930501e-08 6.53252127006813e-10 1.12248933557395e-09 4.4840992770185e-09 5.14366698727428e-08 1.99796887540841e-07 1.55542725987173e-08 2.40933669326234e-08
"429" 31105 2.68426149582363e-08 6.59399939446304e-10 1.12768058936934e-09 4.48974416354084e-09 5.13988024418804e-08 1.99822012829358e-07 1.55703490272115e-08 2.40518435914816e-08
"430" 31106 2.68758474276687e-08 6.59666636310026e-10 1.12893399415311e-09 4.50664750719986e-09 5.16133776219788e-08 1.99668256395611e-07 1.55614150943806e-08 2.39559310242226e-08
"431" 31107 2.6909079897101e-08 6.59933333173749e-10 1.13018739893688e-09 4.52355085085888e-09 5.18279528020771e-08 1.99514499961864e-07 1.55524811615497e-08 2.38600184569636e-08
"432" 31108 2.6881843108104e-08 6.59933333173749e-10 1.12917684872096e-09 4.52355085085888e-09 5.18210469097451e-08 1.99351452952287e-07 1.55795446997154e-08 2.37305197515867e-08
"433" 31109 2.6854606319107e-08 6.59933333173749e-10 1.12816629850504e-09 4.52355085085888e-09 5.18141410174131e-08 1.99188405942709e-07 1.5606608237881e-08 2.36010210462098e-08
"434" 31110 2.682736953011e-08 6.59933333173749e-10 1.12715574828911e-09 4.52355085085888e-09 5.18072351250812e-08 1.99025358933131e-07 1.56336717760467e-08 2.3471522340833e-08
"435" 31111 2.68127004142328e-08 6.58970467549574e-10 1.12715574828911e-09 4.52278915560157e-09 5.1439504931955e-08 1.98960259861583e-07 1.56696692470432e-08 2.34614587259403e-08
"436" 31112 2.67980312983555e-08 6.58007601925398e-10 1.12715574828911e-09 4.52202746034426e-09 5.10717747388288e-08 1.98895160790035e-07 1.57056667180398e-08 2.34513951110477e-08
"437" 31113 2.67833621824783e-08 6.57044736301223e-10 1.12715574828911e-09 4.52126576508694e-09 5.07040445457026e-08 1.98830061718487e-07 1.57416641890363e-08 2.34413314961551e-08
"438" 31114 2.6768693066601e-08 6.56081870677048e-10 1.12715574828911e-09 4.52050406982963e-09 5.03363143525765e-08 1.98764962646939e-07 1.57776616600329e-08 2.34312678812625e-08
"439" 31115 2.67540239507237e-08 6.55119005052872e-10 1.12715574828911e-09 4.51974237457231e-09 4.99685841594503e-08 1.98699863575391e-07 1.58136591310294e-08 2.34212042663699e-08
"440" 31116 2.67393548348465e-08 6.54156139428697e-10 1.12715574828911e-09 4.518980679315e-09 4.96008539663241e-08 1.98634764503843e-07 1.5849656602026e-08 2.34111406514773e-08
"441" 31117 2.67246857189692e-08 6.53193273804521e-10 1.12715574828911e-09 4.51821898405769e-09 4.92331237731979e-08 1.98569665432295e-07 1.58856540730225e-08 2.34010770365847e-08
"442" 31118 2.6710016603092e-08 6.52230408180346e-10 1.12715574828911e-09 4.51745728880037e-09 4.88653935800717e-08 1.98504566360747e-07 1.59216515440191e-08 2.33910134216921e-08
"443" 31119 2.66953474872147e-08 6.5126754255617e-10 1.12715574828911e-09 4.51669559354306e-09 4.84976633869456e-08 1.98439467289199e-07 1.59576490150156e-08 2.33809498067994e-08
"444" 31120 2.66756132810335e-08 6.52230408180346e-10 1.12814021054201e-09 4.50682905585095e-09 4.84141784292722e-08 1.98260624233023e-07 1.59070764674444e-08 2.33759445651177e-08
"445" 31121 2.66558790748524e-08 6.53193273804521e-10 1.12912467279492e-09 4.49696251815884e-09 4.83306934715989e-08 1.98081781176847e-07 1.58565039198732e-08 2.33709393234359e-08
"446" 31122 2.66361448686712e-08 6.54156139428697e-10 1.13010913504782e-09 4.48709598046673e-09 4.82472085139255e-08 1.97902938120671e-07 1.5805931372302e-08 2.33659340817542e-08
"447" 31123 2.66164106624901e-08 6.55119005052872e-10 1.13109359730072e-09 4.47722944277462e-09 4.81637235562521e-08 1.97724095064494e-07 1.57553588247308e-08 2.33609288400724e-08
"448" 31124 2.65966764563089e-08 6.56081870677048e-10 1.13207805955363e-09 4.46736290508251e-09 4.80802385985788e-08 1.97545252008318e-07 1.57047862771596e-08 2.33559235983906e-08
"449" 31125 2.65769422501278e-08 6.57044736301223e-10 1.13306252180653e-09 4.4574963673904e-09 4.79967536409054e-08 1.97366408952142e-07 1.56542137295883e-08 2.33509183567089e-08
"450" 31126 2.65572080439466e-08 6.58007601925398e-10 1.13404698405943e-09 4.44762982969829e-09 4.79132686832321e-08 1.97187565895966e-07 1.56036411820171e-08 2.33459131150271e-08
"451" 31127 2.65374738377655e-08 6.58970467549574e-10 1.13503144631234e-09 4.43776329200618e-09 4.78297837255587e-08 1.9700872283979e-07 1.55530686344459e-08 2.33409078733453e-08
"452" 31128 2.65177396315843e-08 6.59933333173749e-10 1.13601590856524e-09 4.42789675431407e-09 4.77462987678854e-08 1.96829879783613e-07 1.55024960868747e-08 2.33359026316636e-08
"453" 31129 2.64994697556682e-08 6.59933333173749e-10 1.13601590856524e-09 4.42353944732926e-09 4.77067817750535e-08 1.96647180582486e-07 1.5422840999051e-08 2.33278517397495e-08
"454" 31130 2.64811998797521e-08 6.59933333173749e-10 1.13601590856524e-09 4.41918214034445e-09 4.76672647822216e-08 1.96464481381358e-07 1.53431859112273e-08 2.33198008478354e-08
"455" 31131 2.64629300038359e-08 6.59933333173749e-10 1.13601590856524e-09 4.41482483335964e-09 4.76277477893897e-08 1.9628178218023e-07 1.52635308234036e-08 2.33117499559213e-08
"456" 31132 2.64446601279198e-08 6.59933333173749e-10 1.13601590856524e-09 4.41046752637483e-09 4.75882307965578e-08 1.96099082979102e-07 1.51838757355799e-08 2.33036990640072e-08
"457" 31133 2.64263902520036e-08 6.59933333173749e-10 1.13601590856524e-09 4.40611021939002e-09 4.75487138037259e-08 1.95916383777974e-07 1.51042206477562e-08 2.32956481720931e-08
"458" 31134 2.64081203760875e-08 6.59933333173749e-10 1.13601590856524e-09 4.40175291240522e-09 4.7509196810894e-08 1.95733684576847e-07 1.50245655599325e-08 2.3287597280179e-08
"459" 31135 2.63769711212847e-08 6.55874027015616e-10 1.13199979566456e-09 4.41605815057116e-09 4.75362449757957e-08 1.93849065294473e-07 1.49833384517517e-08 2.32846224719855e-08
"460" 31136 2.63458218664818e-08 6.51814720857483e-10 1.12798368276389e-09 4.4303633887371e-09 4.75632931406974e-08 1.919644460121e-07 1.4942111343571e-08 2.32816476637919e-08
"461" 31137 2.6314672611679e-08 6.4775541469935e-10 1.12396756986321e-09 4.44466862690304e-09 4.75903413055991e-08 1.90079826729727e-07 1.49008842353902e-08 2.32786728555984e-08
"462" 31138 2.62835233568762e-08 6.43696108541217e-10 1.11995145696253e-09 4.45897386506898e-09 4.76173894705009e-08 1.88195207447354e-07 1.48596571272095e-08 2.32756980474048e-08
"463" 31139 2.62523741020733e-08 6.39636802383084e-10 1.11593534406186e-09 4.47327910323492e-09 4.76444376354026e-08 1.86310588164981e-07 1.48184300190287e-08 2.32727232392113e-08
"464" 31140 2.62212248472705e-08 6.35577496224952e-10 1.11191923116118e-09 4.48758434140086e-09 4.76714858003043e-08 1.84425968882608e-07 1.4777202910848e-08 2.32697484310177e-08
"465" 31141 2.61900755924677e-08 6.31518190066819e-10 1.1079031182605e-09 4.5018895795668e-09 4.7698533965206e-08 1.82541349600234e-07 1.47359758026672e-08 2.32667736228242e-08
"466" 31142 2.61589263376648e-08 6.27458883908686e-10 1.10388700535983e-09 4.51619481773275e-09 4.77255821301078e-08 1.80656730317861e-07 1.46947486944865e-08 2.32637988146307e-08
"467" 31143 2.61219760348761e-08 6.23399577750553e-10 1.10209571551432e-09 4.53735531321452e-09 4.77110027931362e-08 1.78836486954435e-07 1.46565286461019e-08 2.32638696566694e-08
"468" 31144 2.60850257320873e-08 6.1934027159242e-10 1.1003044256688e-09 4.55851580869629e-09 4.76964234561647e-08 1.77016243591008e-07 1.46183085977173e-08 2.32639404987082e-08
"469" 31145 2.61562303545303e-08 6.1747339354636e-10 1.10025224974276e-09 4.56418782638163e-09 4.76936598521699e-08 1.7521302477356e-07 1.45963343783743e-08 2.33498425826037e-08
"470" 31146 2.62274349769733e-08 6.15606515500301e-10 1.10020007381672e-09 4.56985984406698e-09 4.76908962481752e-08 1.73409805956111e-07 1.45743601590313e-08 2.34357446664992e-08
"471" 31147 2.62986395994163e-08 6.13739637454242e-10 1.10014789789068e-09 4.57553186175232e-09 4.76881326441804e-08 1.71606587138663e-07 1.45523859396883e-08 2.35216467503947e-08
"472" 31148 2.63698442218594e-08 6.11872759408182e-10 1.10009572196464e-09 4.58120387943767e-09 4.76853690401856e-08 1.69803368321215e-07 1.45304117203454e-08 2.36075488342902e-08
"473" 31149 2.64410488443024e-08 6.10005881362123e-10 1.10004354603859e-09 4.58687589712301e-09 4.76826054361909e-08 1.68000149503766e-07 1.45084375010024e-08 2.36934509181857e-08
"474" 31150 2.65375910305334e-08 6.10005881362123e-10 1.10004354603859e-09 4.59514602030144e-09 4.76925028080078e-08 1.68072371592602e-07 1.45276903898401e-08 2.37532304502118e-08
"475" 31151 2.66341332167645e-08 6.10005881362123e-10 1.10004354603859e-09 4.60341614347987e-09 4.77024001798247e-08 1.68144593681438e-07 1.45469432786779e-08 2.38130099822378e-08
"476" 31152 2.67306754029955e-08 6.10005881362123e-10 1.10004354603859e-09 4.61168626665829e-09 4.77122975516416e-08 1.68216815770274e-07 1.45661961675157e-08 2.38727895142639e-08
"477" 31153 2.68272175892265e-08 6.10005881362123e-10 1.10004354603859e-09 4.61995638983672e-09 4.77221949234585e-08 1.6828903785911e-07 1.45854490563534e-08 2.39325690462899e-08
"478" 31154 2.69237597754575e-08 6.10005881362123e-10 1.10004354603859e-09 4.62822651301514e-09 4.77320922952754e-08 1.68361259947946e-07 1.46047019451912e-08 2.3992348578316e-08
"479" 31155 2.70203019616886e-08 6.10005881362123e-10 1.10004354603859e-09 4.63649663619357e-09 4.77419896670923e-08 1.68433482036782e-07 1.46239548340289e-08 2.40521281103421e-08
"480" 31156 2.71168441479196e-08 6.10005881362123e-10 1.10004354603859e-09 4.644766759372e-09 4.77518870389092e-08 1.68505704125618e-07 1.46432077228667e-08 2.41119076423681e-08
"481" 31157 2.72155014778667e-08 6.11931612610474e-10 1.10376462844538e-09 4.64857523565857e-09 4.77447113081685e-08 1.68583248445591e-07 1.46595117162801e-08 2.41377822471018e-08
"482" 31158 2.73151988861638e-08 6.07803025231864e-10 1.10146154150115e-09 4.65647807678984e-09 4.74934184668417e-08 1.684837570892e-07 1.46758157096934e-08 2.42266591391909e-08
"483" 31159 2.74221829587696e-08 6.08963306499285e-10 1.10316152347609e-09 4.66474819996827e-09 4.74567008056133e-08 1.68553172392729e-07 1.468705946647e-08 2.42525337439246e-08
"484" 31160 2.75291670313753e-08 6.10123587766706e-10 1.10486150545103e-09 4.6730183231467e-09 4.74199831443848e-08 1.68622587696257e-07 1.46983032232465e-08 2.42784083486583e-08
"485" 31161 2.76361511039811e-08 6.11283869034127e-10 1.10656148742596e-09 4.68128844632512e-09 4.73832654831564e-08 1.68692002999786e-07 1.47095469800231e-08 2.4304282953392e-08
"486" 31162 2.77431351765868e-08 6.12444150301548e-10 1.1082614694009e-09 4.68955856950355e-09 4.73465478219279e-08 1.68761418303315e-07 1.47207907367997e-08 2.43301575581257e-08
"487" 31163 2.78501192491926e-08 6.13604431568969e-10 1.10996145137584e-09 4.69782869268197e-09 4.73098301606995e-08 1.68830833606844e-07 1.47320344935762e-08 2.43560321628594e-08
"488" 31164 2.79571033217984e-08 6.1476471283639e-10 1.11166143335078e-09 4.7060988158604e-09 4.7273112499471e-08 1.68900248910373e-07 1.47432782503528e-08 2.43819067675932e-08
"489" 31165 2.80640873944041e-08 6.15924994103811e-10 1.11336141532572e-09 4.71436893903883e-09 4.72363948382426e-08 1.68969664213901e-07 1.47545220071294e-08 2.44077813723269e-08
"490" 31166 2.81710714670099e-08 6.17085275371232e-10 1.11506139730065e-09 4.72263906221725e-09 4.71996771770141e-08 1.6903907951743e-07 1.4765765763906e-08 2.44336559770606e-08
"491" 31167 2.82780555396157e-08 6.18245556638654e-10 1.11676137927559e-09 4.73090918539568e-09 4.71629595157857e-08 1.69108494820959e-07 1.47770095206825e-08 2.44595305817943e-08
"492" 31168 2.83850396122214e-08 6.19405837906075e-10 1.11846136125053e-09 4.73917930857411e-09 4.71262418545572e-08 1.69177910124488e-07 1.47882532774591e-08 2.4485405186528e-08
"493" 31169 2.84920236848272e-08 6.20566119173496e-10 1.12016134322547e-09 4.74744943175253e-09 4.70895241933288e-08 1.69247325428017e-07 1.47994970342357e-08 2.45112797912617e-08
"494" 31170 2.8599007757433e-08 6.21726400440917e-10 1.1218613252004e-09 4.75571955493096e-09 4.70528065321003e-08 1.69316740731545e-07 1.48107407910122e-08 2.45371543959955e-08
"495" 31171 2.87059918300387e-08 6.22886681708338e-10 1.12356130717534e-09 4.76398967810939e-09 4.70160888708719e-08 1.69386156035074e-07 1.48219845477888e-08 2.45630290007292e-08
"496" 31172 2.88129759026445e-08 6.24046962975759e-10 1.12526128915028e-09 4.77225980128781e-09 4.69793712096434e-08 1.69455571338603e-07 1.48332283045654e-08 2.45889036054629e-08
"497" 31173 2.88126292098612e-08 6.23281512994829e-10 1.12325323269994e-09 4.78194479032884e-09 4.70525734605186e-08 1.70495026587533e-07 1.48804259090597e-08 2.45271393456457e-08
"498" 31174 2.88242845209775e-08 6.22481422403661e-10 1.12325323269994e-09 4.78640643722069e-09 4.7027942409894e-08 1.70495026587533e-07 1.48962696800668e-08 2.44641724793098e-08
"499" 31175 2.88359398320937e-08 6.21681331812493e-10 1.12325323269994e-09 4.79086808411255e-09 4.70033113592694e-08 1.70495026587533e-07 1.49121134510739e-08 2.44012056129738e-08
"500" 31176 2.884759514321e-08 6.20881241221324e-10 1.12325323269994e-09 4.7953297310044e-09 4.69786803086448e-08 1.70495026587533e-07 1.49279572220809e-08 2.43382387466379e-08
"501" 31177 2.88592504543263e-08 6.20081150630156e-10 1.12325323269994e-09 4.79979137789626e-09 4.69540492580201e-08 1.70495026587533e-07 1.4943800993088e-08 2.4275271880302e-08
"502" 31178 2.88709057654426e-08 6.19281060038988e-10 1.12325323269994e-09 4.80425302478811e-09 4.69294182073955e-08 1.70495026587533e-07 1.49596447640951e-08 2.4212305013966e-08
"503" 31179 2.88772268526035e-08 6.19014363175265e-10 1.12102840964477e-09 4.80755856321250e-09 4.69621846889499e-08 1.70239524517876e-07 1.49517810429633e-08 2.41649868840382e-08
"504" 31180 2.89088855035524e-08 6.18782306921781e-10 1.12078555507693e-09 4.81178439912725e-09 4.69908057645122e-08 1.68566391643782e-07 1.49600322810367e-08 2.41649868840382e-08
"505" 31181 2.89405441545013e-08 6.18550250668297e-10 1.12054270050908e-09 4.81601023504201e-09 4.70194268400745e-08 1.66893258769687e-07 1.496828351911e-08 2.41649868840382e-08
"506" 31182 2.89722028054502e-08 6.18318194414812e-10 1.12029984594123e-09 4.82023607095676e-09 4.70480479156368e-08 1.65220125895593e-07 1.49765347571833e-08 2.41649868840382e-08
"507" 31183 2.90038614563991e-08 6.18086138161328e-10 1.12005699137338e-09 4.82446190687152e-09 4.7076668991199e-08 1.63546993021499e-07 1.49847859952567e-08 2.41649868840382e-08
"508" 31184 2.9035520107348e-08 6.17854081907844e-10 1.11981413680553e-09 4.82868774278627e-09 4.71052900667613e-08 1.61873860147404e-07 1.499303723333e-08 2.41649868840382e-08
"509" 31185 2.90671787582969e-08 6.1762202565436e-10 1.11957128223769e-09 4.83291357870103e-09 4.71339111423236e-08 1.6020072727331e-07 1.50012884714033e-08 2.41649868840382e-08
"510" 31186 2.90988374092458e-08 6.17389969400876e-10 1.11932842766984e-09 4.83713941461578e-09 4.71625322178859e-08 1.58527594399215e-07 1.50095397094766e-08 2.41649868840382e-08
"511" 31187 2.91304960601948e-08 6.17157913147391e-10 1.11908557310199e-09 4.84136525053054e-09 4.71911532934482e-08 1.56854461525121e-07 1.501779094755e-08 2.41649868840382e-08
"512" 31188 2.91232200389149e-08 6.1719255375763e-10 1.1190986170835e-09 4.87023866900253e-09 4.71564694899522e-08 1.56439881686458e-07 1.50625478582621e-08 2.41600170633758e-08
"513" 31189 2.91159440176351e-08 6.17227194367868e-10 1.11911166106501e-09 4.89911208747452e-09 4.71217856864562e-08 1.56025301847795e-07 1.51073047689743e-08 2.41550472427134e-08
"514" 31190 2.91086679963552e-08 6.17261834978107e-10 1.11912470504652e-09 4.92798550594651e-09 4.70871018829602e-08 1.55610722009132e-07 1.51520616796864e-08 2.4150077422051e-08
"515" 31191 2.91013919750754e-08 6.17296475588345e-10 1.11913774902803e-09 4.9568589244185e-09 4.70524180794642e-08 1.55196142170468e-07 1.51968185903986e-08 2.41451076013887e-08
"516" 31192 2.90941159537955e-08 6.17331116198584e-10 1.11915079300954e-09 4.98573234289049e-09 4.70177342759682e-08 1.54781562331805e-07 1.52415755011107e-08 2.41401377807263e-08
"517" 31193 2.90868399325157e-08 6.17365756808823e-10 1.11916383699105e-09 5.01460576136248e-09 4.69830504724722e-08 1.54366982493142e-07 1.52863324118229e-08 2.41351679600639e-08
"518" 31194 2.90795639112358e-08 6.17400397419061e-10 1.11917688097256e-09 5.04347917983447e-09 4.69483666689761e-08 1.53952402654479e-07 1.53310893225351e-08 2.41301981394015e-08
"519" 31195 2.9072287889956e-08 6.174350380293e-10 1.11918992495407e-09 5.07235259830646e-09 4.69136828654801e-08 1.53537822815816e-07 1.53758462332472e-08 2.41252283187392e-08
"520" 31196 2.90650118686761e-08 6.17469678639538e-10 1.11920296893558e-09 5.10122601677845e-09 4.68789990619841e-08 1.53123242977153e-07 1.54206031439594e-08 2.41202584980768e-08
"521" 31197 2.90577358473963e-08 6.17504319249777e-10 1.11921601291709e-09 5.13009943525044e-09 4.68443152584881e-08 1.5270866313849e-07 1.54653600546715e-08 2.41152886774144e-08
"522" 31198 2.90504598261164e-08 6.17538959860015e-10 1.1192290568986e-09 5.15897285372243e-09 4.68096314549921e-08 1.52294083299826e-07 1.55101169653837e-08 2.4110318856752e-08
"523" 31199 2.90431838048366e-08 6.17573600470254e-10 1.11924210088011e-09 5.18784627219442e-09 4.67749476514961e-08 1.51879503461163e-07 1.55548738760958e-08 2.41053490360897e-08
"524" 31200 2.90359077835568e-08 6.17608241080492e-10 1.11925514486163e-09 5.21671969066641e-09 4.67402638480001e-08 1.514649236225e-07 1.5599630786808e-08 2.41003792154273e-08
"525" 31201 2.90286317622769e-08 6.17642881690731e-10 1.11926818884314e-09 5.2455931091384e-09 4.67055800445041e-08 1.51050343783837e-07 1.56443876975201e-08 2.40954093947649e-08
"526" 31202 2.90236868032203e-08 6.17677522300969e-10 1.11928123282465e-09 5.24299500364532e-09 4.66675971170692e-08 1.49476700366873e-07 1.57040926606556e-08 2.40875001869284e-08
"527" 31203 2.90365129669627e-08 6.19973872243759e-10 1.1105856632273e-09 5.20367071613e-09 4.65732183205628e-08 1.48333760941475e-07 1.57201109247779e-08 2.40907509374451e-08
"528" 31204 2.9049339130705e-08 6.22270222186548e-10 1.10189009362995e-09 5.16434642861469e-09 4.64788395240564e-08 1.47190821516076e-07 1.57361291889003e-08 2.40940016879618e-08
"529" 31205 2.90621652944473e-08 6.24566572129337e-10 1.09319452403261e-09 5.12502214109938e-09 4.63844607275501e-08 1.46047882090678e-07 1.57521474530227e-08 2.40972524384785e-08
"530" 31206 2.90749914581897e-08 6.26862922072126e-10 1.08449895443526e-09 5.08569785358407e-09 4.62900819310437e-08 1.4490494266528e-07 1.57681657171451e-08 2.41005031889952e-08
"531" 31207 2.9087817621932e-08 6.29159272014916e-10 1.07580338483792e-09 5.04637356606875e-09 4.61957031345374e-08 1.43762003239881e-07 1.57841839812675e-08 2.41037539395118e-08
"532" 31208 2.91006437856744e-08 6.31455621957705e-10 1.06710781524057e-09 5.00704927855344e-09 4.6101324338031e-08 1.42619063814483e-07 1.58002022453899e-08 2.41070046900285e-08
"533" 31209 2.90876655615981e-08 6.33751971900494e-10 1.06636620755552e-09 5.01238114535464e-09 4.61969684007439e-08 1.42629172756813e-07 1.57522637817663e-08 2.40705322962656e-08
"534" 31210 2.90746873375219e-08 6.36048321843283e-10 1.06562459987046e-09 5.01771301215584e-09 4.62926124634568e-08 1.42639281699144e-07 1.57043253181426e-08 2.40340599025027e-08
"535" 31211 2.90617091134456e-08 6.38344671786073e-10 1.06488299218541e-09 5.02304487895704e-09 4.63882565261696e-08 1.42649390641474e-07 1.5656386854519e-08 2.39975875087398e-08
"536" 31212 2.90487308893694e-08 6.40641021728862e-10 1.06414138450035e-09 5.02837674575824e-09 4.64839005888825e-08 1.42659499583804e-07 1.56084483908953e-08 2.39611151149768e-08
"537" 31213 2.90357526652931e-08 6.42937371671651e-10 1.06339977681529e-09 5.03370861255944e-09 4.65795446515954e-08 1.42669608526134e-07 1.55605099272717e-08 2.39246427212139e-08
"538" 31214 2.90227744412169e-08 6.4523372161444e-10 1.06265816913024e-09 5.03904047936064e-09 4.66751887143083e-08 1.42679717468464e-07 1.55125714636481e-08 2.3888170327451e-08
"539" 31215 2.90354379015964e-08 6.47263374693507e-10 1.05888491079741e-09 5.05405733520286e-09 4.6758056304637e-08 1.42686104145829e-07 1.54925922567739e-08 2.38514499865524e-08
"540" 31216 2.9048101361976e-08 6.49293027772573e-10 1.05511165246458e-09 5.06907419104509e-09 4.68409238949656e-08 1.42692490823194e-07 1.54726130498998e-08 2.38147296456537e-08
"541" 31217 2.90597566730923e-08 6.51589377715363e-10 1.05535450703243e-09 5.07582092370888e-09 4.69262096387897e-08 1.41373573573997e-07 1.53451649093818e-08 2.38229856378522e-08
"542" 31218 2.90714119842085e-08 6.53885727658152e-10 1.05559736160028e-09 5.08256765637268e-09 4.70114953826138e-08 1.40054656324801e-07 1.52177167688639e-08 2.38312416300506e-08
"543" 31219 2.90830672953248e-08 6.56182077600941e-10 1.05584021616813e-09 5.08931438903648e-09 4.70967811264379e-08 1.38735739075605e-07 1.5090268628346e-08 2.38394976222491e-08
"544" 31220 2.90947226064411e-08 6.5847842754373e-10 1.05608307073598e-09 5.09606112170028e-09 4.7182066870262e-08 1.37416821826408e-07 1.49628204878281e-08 2.38477536144475e-08
"545" 31221 2.91063779175574e-08 6.6077477748652e-10 1.05632592530382e-09 5.10280785436408e-09 4.72673526140861e-08 1.36097904577212e-07 1.48353723473101e-08 2.3856009606646e-08
"546" 31222 2.91180332286737e-08 6.63071127429309e-10 1.05656877987167e-09 5.10955458702787e-09 4.73526383579102e-08 1.34778987328016e-07 1.47079242067922e-08 2.38642655988445e-08
"547" 31223 2.91296885397899e-08 6.65367477372098e-10 1.05681163443952e-09 5.11630131969167e-09 4.74379241017342e-08 1.33460070078819e-07 1.45804760662743e-08 2.38725215910429e-08
"548" 31224 2.92077555746266e-08 6.69288221089277e-10 1.05903645749469e-09 5.1081626675833e-09 4.74442556288584e-08 1.32177108313811e-07 1.44460308410225e-08 2.42671444286576e-08
"549" 31225 2.92858226094632e-08 6.73208964806456e-10 1.06126128054985e-09 5.10002401547493e-09 4.74505871559825e-08 1.30894146548803e-07 1.43115856157708e-08 2.46617672662722e-08
"550" 31226 2.92974779205795e-08 6.75505314749245e-10 1.06151717909921e-09 5.0917538922965e-09 4.74466748215721e-08 1.29902933677116e-07 1.41683613171426e-08 2.47067435993693e-08
"551" 31227 2.93091332316958e-08 6.77801664692034e-10 1.06177307764857e-09 5.08348376911807e-09 4.74427624871617e-08 1.2891172080543e-07 1.40251370185144e-08 2.47517199324664e-08
"552" 31228 2.9320788542812e-08 6.80098014634823e-10 1.06202897619793e-09 5.07521364593965e-09 4.74388501527513e-08 1.27920507933744e-07 1.38819127198862e-08 2.47966962655635e-08
"553" 31229 2.93334520031916e-08 6.82394364577612e-10 1.06202897619793e-09 5.03153623618451e-09 4.72857697125957e-08 1.28196290133654e-07 1.38571444645733e-08 2.48034382879007e-08
"554" 31230 2.93461154635712e-08 6.84690714520402e-10 1.06202897619793e-09 4.98785882642937e-09 4.71326892724402e-08 1.28472072333565e-07 1.38323762092604e-08 2.48101803102378e-08
"555" 31231 2.93587789239507e-08 6.86987064463191e-10 1.06202897619793e-09 4.94418141667423e-09 4.69796088322846e-08 1.28747854533475e-07 1.38076079539475e-08 2.48169223325749e-08
"556" 31232 2.93714423843303e-08 6.8928341440598e-10 1.06202897619793e-09 4.90050400691909e-09 4.68265283921291e-08 1.29023636733386e-07 1.37828396986345e-08 2.48236643549121e-08
"557" 31233 2.93841058447099e-08 6.91579764348769e-10 1.06202897619793e-09 4.85682659716396e-09 4.66734479519736e-08 1.29299418933296e-07 1.37580714433216e-08 2.48304063772492e-08
"558" 31234 2.93967693050894e-08 6.93876114291559e-10 1.06202897619793e-09 4.81314918740882e-09 4.6520367511818e-08 1.29575201133207e-07 1.37333031880087e-08 2.48371483995864e-08
"559" 31235 2.9409432765469e-08 6.96172464234348e-10 1.06202897619793e-09 4.76947177765368e-09 4.63672870716625e-08 1.29850983333117e-07 1.37085349326958e-08 2.48438904219235e-08
"560" 31236 2.94220962258485e-08 6.98468814177137e-10 1.06202897619793e-09 4.72579436789854e-09 4.6214206631507e-08 1.30126765533028e-07 1.36837666773828e-08 2.48506324442607e-08
"561" 31237 2.94347596862281e-08 7.00765164119926e-10 1.06202897619793e-09 4.6821169581434e-09 4.60611261913514e-08 1.30402547732938e-07 1.36589984220699e-08 2.48573744665978e-08
"562" 31238 2.93974946197426e-08 7.0209864843854e-10 1.05832093777265e-09 4.65835835716855e-09 4.60283250214066e-08 1.30621271257508e-07 1.3657017950694e-08 2.48423941625719e-08
"563" 31239 2.93602295532571e-08 7.03432132757154e-10 1.05461289934738e-09 4.6345997561937e-09 4.59955238514618e-08 1.30839994782078e-07 1.36550374793181e-08 2.4827413858546e-08
"564" 31240 2.93229644867717e-08 7.04765617075768e-10 1.0509048609221e-09 4.61084115521885e-09 4.5962722681517e-08 1.31058718306648e-07 1.36530570079422e-08 2.48124335545201e-08
"565" 31241 2.92856994202862e-08 7.06099101394382e-10 1.04719682249682e-09 4.587082554244e-09 4.59299215115722e-08 1.31277441831217e-07 1.36510765365664e-08 2.47974532504942e-08
"566" 31242 2.92484343538007e-08 7.07432585712996e-10 1.04348878407155e-09 4.56332395326915e-09 4.58971203416274e-08 1.31496165355787e-07 1.36490960651905e-08 2.47824729464683e-08
"567" 31243 2.92111692873152e-08 7.08766070031609e-10 1.03978074564627e-09 4.5395653522943e-09 4.58643191716826e-08 1.31714888880357e-07 1.36471155938146e-08 2.47674926424424e-08
"568" 31244 2.91739042208297e-08 7.10099554350223e-10 1.03607270722099e-09 4.51580675131945e-09 4.58315180017378e-08 1.31933612404927e-07 1.36451351224387e-08 2.47525123384165e-08
"569" 31245 2.91366391543442e-08 7.11433038668837e-10 1.03236466879572e-09 4.4920481503446e-09 4.5798716831793e-08 1.32152335929497e-07 1.36431546510628e-08 2.47375320343906e-08
"570" 31246 2.90873720839592e-08 7.10470173044662e-10 1.02840073182108e-09 4.47088765486283e-09 4.58123364685754e-08 1.32035025240133e-07 1.36471301349075e-08 2.46936697552638e-08
"571" 31247 2.92495200621958e-08 7.10539454265139e-10 1.02469269339581e-09 4.44836237109949e-09 4.58045117997546e-08 1.31986229461223e-07 1.36459196048469e-08 2.47618115425465e-08
"572" 31248 2.94116680404324e-08 7.10608735485616e-10 1.02098465497053e-09 4.42583708733616e-09 4.57966871309338e-08 1.31937433682313e-07 1.36447090747862e-08 2.48299533298291e-08
"573" 31249 2.9573816018669e-08 7.10678016706093e-10 1.01727661654526e-09 4.40331180357282e-09 4.57888624621129e-08 1.31888637903402e-07 1.36434985447255e-08 2.48980951171118e-08
"574" 31250 2.97359639969056e-08 7.1074729792657e-10 1.01356857811998e-09 4.38078651980948e-09 4.57810377932921e-08 1.31839842124492e-07 1.36422880146649e-08 2.49662369043945e-08
"575" 31251 2.98981119751423e-08 7.10816579147047e-10 1.0098605396947e-09 4.35826123604615e-09 4.57732131244713e-08 1.31791046345582e-07 1.36410774846042e-08 2.50343786916772e-08
"576" 31252 3.00602599533789e-08 7.10885860367524e-10 1.00615250126943e-09 4.33573595228281e-09 4.57653884556504e-08 1.31742250566672e-07 1.36398669545435e-08 2.51025204789599e-08
"577" 31253 3.02224079316155e-08 7.10955141588001e-10 1.00244446284415e-09 4.31321066851947e-09 4.57575637868296e-08 1.31693454787761e-07 1.36386564244829e-08 2.51706622662426e-08
"578" 31254 3.03845559098521e-08 7.11024422808478e-10 9.98736424418875e-10 4.29068538475614e-09 4.57497391180088e-08 1.31644659008851e-07 1.36374458944222e-08 2.52388040535252e-08
"579" 31255 3.05467038880887e-08 7.11093704028955e-10 9.95028385993599e-10 4.2681601009928e-09 4.57419144491879e-08 1.31595863229941e-07 1.36362353643616e-08 2.53069458408079e-08
"580" 31256 3.07088518663254e-08 7.11162985249433e-10 9.91320347568323e-10 4.24563481722946e-09 4.57340897803671e-08 1.31547067451031e-07 1.36350248343009e-08 2.53750876280906e-08
"581" 31257 3.0870999844562e-08 7.1123226646991e-10 9.87612309143047e-10 4.22310953346613e-09 4.57262651115463e-08 1.3149827167212e-07 1.36338143042402e-08 2.54432294153733e-08
"582" 31258 3.10331478227986e-08 7.11301547690387e-10 9.83904270717771e-10 4.20058424970279e-09 4.57184404427254e-08 1.3144947589321e-07 1.36326037741796e-08 2.5511371202656e-08
"583" 31259 3.12142590625179e-08 7.1003734459225e-10 9.81896214267433e-10 4.19213257787328e-09 4.56839109810656e-08 1.31200127608512e-07 1.36175975573845e-08 2.56312136348632e-08
"584" 31260 3.13953703022373e-08 7.08773141494113e-10 9.79888157817094e-10 4.18368090604377e-09 4.56493815194058e-08 1.30950779323813e-07 1.36025913405895e-08 2.57510560670704e-08
"585" 31261 3.13939059719723e-08 7.08541085240629e-10 9.79645303249246e-10 4.17685696463593e-09 4.56366050470215e-08 1.30389978100832e-07 1.3598572233466e-08 2.57112975017714e-08
"586" 31262 3.14381961542141e-08 7.08541085240629e-10 9.79402448681398e-10 4.18142713617981e-09 4.58138514338566e-08 1.30848656523328e-07 1.37380195309827e-08 2.56852989234699e-08
"587" 31263 3.1482486336456e-08 7.08541085240629e-10 9.79159594113549e-10 4.1859973077237e-09 4.59910978206916e-08 1.31307334945823e-07 1.38774668284995e-08 2.56593003451683e-08
"588" 31264 3.15267765186979e-08 7.08541085240629e-10 9.78916739545701e-10 4.19056747926759e-09 4.61683442075267e-08 1.31766013368318e-07 1.40169141260163e-08 2.56333017668667e-08
"589" 31265 3.15710667009397e-08 7.08541085240629e-10 9.78673884977853e-10 4.19513765081147e-09 4.63455905943617e-08 1.32224691790813e-07 1.41563614235331e-08 2.56073031885651e-08
"590" 31266 3.16153568831816e-08 7.08541085240629e-10 9.78431030410005e-10 4.19970782235536e-09 4.65228369811967e-08 1.32683370213309e-07 1.42958087210498e-08 2.55813046102636e-08
"591" 31267 3.16596470654235e-08 7.08541085240629e-10 9.78188175842156e-10 4.20427799389924e-09 4.67000833680318e-08 1.33142048635804e-07 1.44352560185666e-08 2.5555306031962e-08
"592" 31268 3.17039372476653e-08 7.08541085240629e-10 9.77945321274308e-10 4.20884816544313e-09 4.68773297548668e-08 1.33600727058299e-07 1.45747033160834e-08 2.55293074536604e-08
"593" 31269 3.17482274299072e-08 7.08541085240629e-10 9.7770246670646e-10 4.21341833698701e-09 4.70545761417019e-08 1.34059405480794e-07 1.47141506136002e-08 2.55033088753588e-08
"594" 31270 3.1792517612149e-08 7.08541085240629e-10 9.77459612138612e-10 4.2179885085309e-09 4.72318225285369e-08 1.3451808390329e-07 1.48535979111169e-08 2.54773102970573e-08
"595" 31271 3.18368077943909e-08 7.08541085240629e-10 9.77216757570764e-10 4.22255868007478e-09 4.74090689153719e-08 1.34976762325785e-07 1.49930452086337e-08 2.54513117187557e-08
"596" 31272 3.18810979766328e-08 7.08541085240629e-10 9.76973903002915e-10 4.22712885161867e-09 4.7586315302207e-08 1.3543544074828e-07 1.51324925061505e-08 2.54253131404541e-08
"597" 31273 3.19253881588746e-08 7.08541085240629e-10 9.76731048435067e-10 4.23169902316255e-09 4.7763561689042e-08 1.35894119170776e-07 1.52719398036672e-08 2.53993145621525e-08
"598" 31274 3.19696783411165e-08 7.08541085240629e-10 9.76488193867219e-10 4.23626919470644e-09 4.79408080758771e-08 1.36352797593271e-07 1.5411387101184e-08 2.53733159838509e-08
"599" 31275 3.2006943407602e-08 7.0850644463039e-10 9.76488193867219e-10 4.24642999044665e-09 4.81214690832236e-08 1.37402522039161e-07 1.55389515704455e-08 2.53733159838509e-08
"600" 31276 3.20442084740875e-08 7.08471804020152e-10 9.76488193867219e-10 4.25659078618686e-09 4.83021300905702e-08 1.38452246485052e-07 1.56665160397069e-08 2.53733159838509e-08
"601" 31277 3.20814735405729e-08 7.08437163409913e-10 9.76488193867219e-10 4.26675158192706e-09 4.84827910979167e-08 1.39501970930943e-07 1.57940805089684e-08 2.53733159838509e-08
"602" 31278 3.21187386070584e-08 7.08402522799675e-10 9.76488193867219e-10 4.27691237766727e-09 4.86634521052633e-08 1.40551695376833e-07 1.59216449782298e-08 2.53733159838509e-08
"603" 31279 3.21560036735439e-08 7.08367882189436e-10 9.76488193867219e-10 4.28707317340748e-09 4.88441131126098e-08 1.41601419822724e-07 1.60492094474913e-08 2.53733159838509e-08
"604" 31280 3.21820239798696e-08 7.08367882189436e-10 9.7623229531786e-10 4.28345043051698e-09 4.89384919091162e-08 1.42577015787547e-07 1.61676654908066e-08 2.53804225010597e-08
"605" 31281 3.22080442861954e-08 7.08367882189436e-10 9.75976396768501e-10 4.27982768762648e-09 4.90328707056226e-08 1.43552611752369e-07 1.62861215341218e-08 2.53875290182685e-08
"606" 31282 3.22340645925211e-08 7.08367882189436e-10 9.75720498219143e-10 4.27620494473597e-09 4.91272495021289e-08 1.44528207717192e-07 1.64045775774371e-08 2.53946355354772e-08
"607" 31283 3.2211164521245e-08 7.08367882189436e-10 9.75707454237632e-10 4.26118808889375e-09 4.90313754854893e-08 1.45204217111726e-07 1.63857652773447e-08 2.54159830822909e-08
"608" 31284 3.2188264449969e-08 7.08367882189436e-10 9.75694410256122e-10 4.24617123305152e-09 4.89355014688496e-08 1.45880226506259e-07 1.63669529772524e-08 2.54373306291046e-08
"609" 31285 3.21708613060111e-08 7.08402522799675e-10 9.76449061922687e-10 4.24083936625033e-09 4.89869916541494e-08 1.45955054560423e-07 1.63421992630324e-08 2.54373306291046e-08
"610" 31286 3.21534581620532e-08 7.08437163409913e-10 9.77203713589253e-10 4.23550749944913e-09 4.90384818394492e-08 1.46029882614587e-07 1.63174455488125e-08 2.54373306291046e-08
"611" 31287 3.21360550180953e-08 7.08471804020152e-10 9.77958365255819e-10 4.23017563264793e-09 4.9089972024749e-08 1.46104710668751e-07 1.62926918345925e-08 2.54373306291046e-08
"612" 31288 3.21186518741374e-08 7.0850644463039e-10 9.78713016922384e-10 4.22484376584673e-09 4.91414622100487e-08 1.46179538722916e-07 1.62679381203725e-08 2.54373306291046e-08
"613" 31289 3.21012487301795e-08 7.08541085240629e-10 9.7946766858895e-10 4.21951189904553e-09 4.91929523953485e-08 1.4625436677708e-07 1.62431844061525e-08 2.54373306291046e-08
"614" 31290 3.20838455862216e-08 7.08575725850868e-10 9.80222320255516e-10 4.21418003224433e-09 4.92444425806483e-08 1.46329194831244e-07 1.62184306919325e-08 2.54373306291046e-08
"615" 31291 3.20664424422637e-08 7.08610366461106e-10 9.80976971922082e-10 4.20884816544313e-09 4.92959327659481e-08 1.46404022885408e-07 1.61936769777125e-08 2.54373306291046e-08
"616" 31292 3.20490392983058e-08 7.08645007071345e-10 9.81731623588647e-10 4.20351629864193e-09 4.93474229512479e-08 1.46478850939572e-07 1.61689232634926e-08 2.54373306291046e-08
"617" 31293 3.20316361543479e-08 7.08679647681583e-10 9.82486275255213e-10 4.19818443184073e-09 4.93989131365477e-08 1.46553678993736e-07 1.61441695492726e-08 2.54373306291046e-08
"618" 31294 3.201423301039e-08 7.08714288291822e-10 9.83240926921779e-10 4.19285256503953e-09 4.94504033218475e-08 1.466285070479e-07 1.61194158350526e-08 2.54373306291046e-08
"619" 31295 3.19968298664321e-08 7.0874892890206e-10 9.83995578588345e-10 4.18752069823833e-09 4.95018935071473e-08 1.46703335102064e-07 1.60946621208326e-08 2.54373306291046e-08
"620" 31296 3.19794267224742e-08 7.08783569512299e-10 9.8475023025491e-10 4.18218883143713e-09 4.95533836924471e-08 1.46778163156228e-07 1.60699084066126e-08 2.54373306291046e-08
"621" 31297 3.17116632146371e-08 7.02729250885338e-10 9.81744667570158e-10 4.17882903068673e-09 4.96838280944468e-08 1.46802036365861e-07 1.60341675827212e-08 2.53024016298133e-08
"622" 31298 3.0968733930576e-08 7.02763891495576e-10 9.82499319236724e-10 4.18851401972776e-09 4.96675267010701e-08 1.46087005434782e-07 1.60344242298262e-08 2.53073714504757e-08
"623" 31299 3.0225804646515e-08 7.02798532105815e-10 9.83253970903289e-10 4.19819900876878e-09 4.96512253076933e-08 1.45371974503703e-07 1.60346808769313e-08 2.53123412711381e-08
"624" 31300 2.9482875362454e-08 7.02833172716054e-10 9.84008622569855e-10 4.20788399780981e-09 4.96349239143166e-08 1.44656943572625e-07 1.60349375240364e-08 2.53173110918004e-08
"625" 31301 2.8739946078393e-08 7.02867813326292e-10 9.84763274236421e-10 4.21756898685083e-09 4.96186225209399e-08 1.43941912641546e-07 1.60351941711414e-08 2.53222809124628e-08
"626" 31302 2.7997016794332e-08 7.02902453936531e-10 9.85517925902987e-10 4.22725397589186e-09 4.96023211275631e-08 1.43226881710467e-07 1.60354508182465e-08 2.53272507331252e-08
"627" 31303 2.7254087510271e-08 7.02937094546769e-10 9.86272577569552e-10 4.23693896493288e-09 4.95860197341864e-08 1.42511850779389e-07 1.60357074653516e-08 2.53322205537876e-08
"628" 31304 2.651115822621e-08 7.02971735157008e-10 9.87027229236118e-10 4.24662395397391e-09 4.95697183408096e-08 1.4179681984831e-07 1.60359641124567e-08 2.533719037445e-08
"629" 31305 2.5768228942149e-08 7.03771825748176e-10 9.87781880902684e-10 4.25801806692563e-09 4.9424275617685e-08 1.40928909297055e-07 1.60362062184688e-08 2.53455172086872e-08
"630" 31306 2.51485585941411e-08 7.04571916339344e-10 9.89789937353022e-10 4.26061617241871e-09 4.92602645718694e-08 1.40059137613317e-07 1.60564711546339e-08 2.53618418033094e-08
"631" 31307 2.45288882461331e-08 7.05372006930513e-10 9.91797993803361e-10 4.26321427791179e-09 4.90962535260539e-08 1.39189365929579e-07 1.6076736090799e-08 2.53781663979317e-08
"632" 31308 2.39092178981252e-08 7.06172097521681e-10 9.93806050253699e-10 4.26581238340487e-09 4.89322424802383e-08 1.38319594245841e-07 1.60970010269642e-08 2.53944909925539e-08
"633" 31309 2.32895475501173e-08 7.06972188112849e-10 9.95814106704037e-10 4.26841048889795e-09 4.87682314344228e-08 1.37449822562103e-07 1.61172659631293e-08 2.54108155871761e-08
"634" 31310 2.26698772021093e-08 7.07772278704018e-10 9.97822163154376e-10 4.27100859439104e-09 4.86042203886072e-08 1.36580050878365e-07 1.61375308992944e-08 2.54271401817984e-08
"635" 31311 2.27961605859523e-08 7.07772278704018e-10 9.9381909423521e-10 4.26392171084309e-09 4.85908685117969e-08 1.3657155698879e-07 1.61567837881322e-08 2.54434647764206e-08
"636" 31312 2.28891369991607e-08 7.07772278704018e-10 9.96083049234907e-10 4.26087492981383e-09 4.8557107641663e-08 1.36515228059711e-07 1.6164880166751e-08 2.54597185290041e-08
"637" 31313 2.29821134123692e-08 7.07772278704018e-10 9.98347004234604e-10 4.25782814878458e-09 4.85233467715291e-08 1.36458899130633e-07 1.61729765453699e-08 2.54759722815876e-08
"638" 31314 2.30828189699296e-08 6.99722947608229e-10 9.91594271180044e-10 4.24352291061864e-09 4.84484172681572e-08 1.36455325832237e-07 1.60834191006667e-08 2.54156128697278e-08
"639" 31315 2.31835245274899e-08 6.9167361651244e-10 9.84841538125484e-10 4.22921767245269e-09 4.83734877647853e-08 1.3645175253384e-07 1.59938616559636e-08 2.5355253457868e-08
"640" 31316 2.32842300850502e-08 6.83624285416651e-10 9.78088805070924e-10 4.21491243428675e-09 4.82985582614134e-08 1.36448179235444e-07 1.59043042112605e-08 2.52948940460082e-08
"641" 31317 2.33849356426106e-08 6.75574954320862e-10 9.71336072016364e-10 4.20060719612081e-09 4.82236287580415e-08 1.36444605937047e-07 1.58147467665573e-08 2.52345346341485e-08
"642" 31318 2.34856412001709e-08 6.67525623225073e-10 9.64583338961804e-10 4.18630195795487e-09 4.81486992546696e-08 1.36441032638651e-07 1.57251893218542e-08 2.51741752222887e-08
"643" 31319 2.35863467577312e-08 6.59476292129285e-10 9.57830605907244e-10 4.17199671978893e-09 4.80737697512976e-08 1.36437459340254e-07 1.5635631877151e-08 2.51138158104289e-08
"644" 31320 2.35637933792385e-08 6.50661511052566e-10 9.49056772420835e-10 4.16648748908163e-09 4.80598403916245e-08 1.36758000135127e-07 1.55818101637715e-08 2.50422078876674e-08
"645" 31321 2.3700897271326e-08 6.43772461224198e-10 9.40282938934426e-10 4.14995142746976e-09 4.79881333608827e-08 1.3690916758939e-07 1.54969981442283e-08 2.54661583219711e-08
"646" 31322 2.38380011634136e-08 6.36883411395831e-10 9.31509105448017e-10 4.13341536585789e-09 4.79164263301408e-08 1.37060335043653e-07 1.54121861246851e-08 2.58901087562748e-08
"647" 31323 2.39751050555012e-08 6.29994361567463e-10 9.22735271961608e-10 4.11687930424602e-09 4.78447192993989e-08 1.37211502497915e-07 1.53273741051419e-08 2.63140591905784e-08
"648" 31324 2.41122089475888e-08 6.23105311739095e-10 9.13961438475199e-10 4.10034324263415e-09 4.77730122686571e-08 1.37362669952178e-07 1.52425620855987e-08 2.67380096248821e-08
"649" 31325 2.42493128396763e-08 6.16216261910728e-10 9.0518760498879e-10 4.08380718102228e-09 4.77013052379152e-08 1.37513837406441e-07 1.51577500660555e-08 2.71619600591858e-08
"650" 31326 2.43864167317639e-08 6.0932721208236e-10 8.96413771502381e-10 4.06727111941041e-09 4.76295982071733e-08 1.37665004860704e-07 1.50729380465123e-08 2.75859104934894e-08
"651" 31327 2.45235206238515e-08 6.02438162253992e-10 8.87639938015972e-10 4.05073505779855e-09 4.75578911764315e-08 1.37816172314966e-07 1.49881260269691e-08 2.80098609277931e-08
"652" 31328 2.4660624515939e-08 5.95549112425624e-10 8.78866104529563e-10 4.03419899618668e-09 4.74861841456896e-08 1.37967339769229e-07 1.49033140074259e-08 2.84338113620967e-08
"653" 31329 2.47977284080266e-08 5.88660062597257e-10 8.70092271043154e-10 4.01766293457481e-09 4.74144771149477e-08 1.38118507223492e-07 1.48185019878827e-08 2.88577617964004e-08
"654" 31330 2.49348323001142e-08 5.81771012768889e-10 8.61318437556745e-10 4.00112687296294e-09 4.73427700842059e-08 1.38269674677755e-07 1.47336899683395e-08 2.92817122307041e-08
"655" 31331 2.50719361922018e-08 5.74881962940521e-10 8.52544604070336e-10 3.98459081135107e-09 4.7271063053464e-08 1.38420842132017e-07 1.46488779487964e-08 2.97056626650077e-08
"656" 31332 2.52090400842893e-08 5.67992913112153e-10 8.43770770583927e-10 3.9680547497392e-09 4.71993560227221e-08 1.3857200958628e-07 1.45640659292532e-08 3.01296130993114e-08
"657" 31333 2.53461439763769e-08 5.61103863283786e-10 8.34996937097518e-10 3.95151868812733e-09 4.71276489919802e-08 1.38723177040543e-07 1.447925390971e-08 3.05535635336151e-08
"658" 31334 2.54832478684645e-08 5.54214813455418e-10 8.26223103611109e-10 3.93498262651546e-09 4.70559419612384e-08 1.38874344494806e-07 1.43944418901668e-08 3.09775139679187e-08
"659" 31335 2.5620351760552e-08 5.4732576362705e-10 8.174492701247e-10 3.91844656490359e-09 4.69842349304965e-08 1.39025511949068e-07 1.43096298706236e-08 3.14014644022224e-08
"660" 31336 2.57574556526396e-08 5.40436713798683e-10 8.08675436638291e-10 3.90191050329173e-09 4.69125278997546e-08 1.39176679403331e-07 1.42248178510804e-08 3.18254148365261e-08
"661" 31337 2.58945595447272e-08 5.33547663970315e-10 7.99901603151882e-10 3.88537444167986e-09 4.68408208690128e-08 1.39327846857594e-07 1.41400058315372e-08 3.22493652708297e-08
"662" 31338 2.60316634368148e-08 5.26658614141947e-10 7.91127769665473e-10 3.86883838006799e-09 4.67691138382709e-08 1.39479014311857e-07 1.4055193811994e-08 3.26733157051334e-08
"663" 31339 2.61687673289023e-08 5.19769564313579e-10 7.82353936179064e-10 3.85230231845612e-09 4.6697406807529e-08 1.39630181766119e-07 1.39703817924508e-08 3.30972661394371e-08
"664" 31340 2.63058712209899e-08 5.12880514485212e-10 7.73580102692655e-10 3.83576625684425e-09 4.66256997767872e-08 1.39781349220382e-07 1.38855697729076e-08 3.35212165737407e-08
"665" 31341 2.64429751130775e-08 5.05991464656844e-10 7.64806269206246e-10 3.81923019523238e-09 4.65539927460453e-08 1.39932516674645e-07 1.38007577533644e-08 3.39451670080444e-08
"666" 31342 2.64313623740767e-08 5.06060745877321e-10 7.66775193712053e-10 3.85301812087738e-09 4.6578162849598e-08 1.40593105287894e-07 1.38287460922997e-08 3.38855291600959e-08
"667" 31343 2.64364031203931e-08 5.0532993650663e-10 7.66762149730542e-10 3.84619417946955e-09 4.65246440026573e-08 1.4067050913422e-07 1.38355010710214e-08 3.3862611653046e-08
"668" 31344 2.63515725183524e-08 5.0532993650663e-10 7.65994454082466e-10 3.82493352882572e-09 4.64802539360076e-08 1.40342068416787e-07 1.3842299673022e-08 3.37158542630193e-08
"669" 31345 2.62667419163118e-08 5.0532993650663e-10 7.6522675843439e-10 3.80367287818189e-09 4.64358638693579e-08 1.40013627699354e-07 1.38490982750225e-08 3.35690968729926e-08
"670" 31346 2.61819113142711e-08 5.0532993650663e-10 7.64459062786314e-10 3.78241222753805e-09 4.63914738027081e-08 1.3968518698192e-07 1.3855896877023e-08 3.34223394829659e-08
