"time" "channel1" "channel2" "channel3" "channel4" "channel5" "channel6" "channel7" "channel8"
"1" 25793 2.16536413979219e-09 3.15909842279677e-09 1.8905337252425e-08 1.18425272632528e-07 2.57104705954402e-07 6.70280128458421e-08 7.5756477505139e-09 3.1879711877406e-09
"2" 25794 2.16370517707779e-09 3.15118765414194e-09 1.89290606354461e-08 1.18858684906636e-07 2.56302132419853e-07 6.69225967983764e-08 7.57231133814793e-09 3.18993077919004e-09
"3" 25795 2.16204621436339e-09 3.1432768854871e-09 1.89527840184672e-08 1.19292097180744e-07 2.55499558885303e-07 6.68171807509106e-08 7.56897492578197e-09 3.19189037063948e-09
"4" 25796 2.16038725164899e-09 3.13536611683227e-09 1.89765074014883e-08 1.19725509454852e-07 2.54696985350753e-07 6.67117647034448e-08 7.565638513416e-09 3.19384996208892e-09
"5" 25797 2.15872828893459e-09 3.12745534817743e-09 1.90002307845095e-08 1.2015892172896e-07 2.53894411816203e-07 6.66063486559791e-08 7.56230210105004e-09 3.19580955353836e-09
"6" 25798 2.15706932622019e-09 3.1195445795226e-09 1.90239541675306e-08 1.20592334003068e-07 2.53091838281653e-07 6.65009326085133e-08 7.55896568868407e-09 3.1977691449878e-09
"7" 25799 2.15788284303408e-09 3.1195445795226e-09 1.90477688584222e-08 1.20710567645702e-07 2.53037056246942e-07 6.65047887534649e-08 7.56162885481753e-09 3.19897175150658e-09
"8" 25800 2.15869635984798e-09 3.1195445795226e-09 1.90715835493139e-08 1.20828801288336e-07 2.52982274212232e-07 6.65086448984165e-08 7.56429202095099e-09 3.20017435802536e-09
"9" 25801 2.15950987666187e-09 3.1195445795226e-09 1.90953982402056e-08 1.2094703493097e-07 2.52927492177521e-07 6.65125010433681e-08 7.56695518708445e-09 3.20137696454414e-09
"10" 25802 2.16032339347577e-09 3.1195445795226e-09 1.91192129310973e-08 1.21065268573604e-07 2.52872710142811e-07 6.65163571883197e-08 7.56961835321791e-09 3.20257957106293e-09
"11" 25803 2.16495358883567e-09 3.12264102005656e-09 1.91230514093377e-08 1.20473181806919e-07 2.54097732763726e-07 6.68565153071769e-08 7.56334758652047e-09 3.20775449200967e-09
"12" 25804 2.16958378419557e-09 3.12573746059051e-09 1.9126889887578e-08 1.19881095040233e-07 2.55322755384642e-07 6.71966734260341e-08 7.55707681982303e-09 3.21292941295641e-09
"13" 25805 2.17421397955548e-09 3.12883390112447e-09 1.91307283658184e-08 1.19289008273547e-07 2.56547778005558e-07 6.75368315448913e-08 7.55080605312559e-09 3.21810433390316e-09
"14" 25806 2.17884417491538e-09 3.13193034165843e-09 1.91345668440588e-08 1.18696921506862e-07 2.57772800626474e-07 6.78769896637485e-08 7.54453528642815e-09 3.2232792548499e-09
"15" 25807 2.18347437027528e-09 3.13502678219239e-09 1.91384053222992e-08 1.18104834740176e-07 2.58997823247389e-07 6.82171477826057e-08 7.53826451973071e-09 3.22845417579664e-09
"16" 25808 2.18810456563518e-09 3.13812322272634e-09 1.91422438005396e-08 1.1751274797349e-07 2.60222845868305e-07 6.85573059014629e-08 7.53199375303327e-09 3.23362909674338e-09
"17" 25809 2.1870964163719e-09 3.13945670704496e-09 1.91938060502537e-08 1.17284500594461e-07 2.60093247748358e-07 6.8605715126998e-08 7.52572298633583e-09 3.23285440130303e-09
"18" 25810 2.18608826710861e-09 3.14079019136357e-09 1.92453682999678e-08 1.17056253215431e-07 2.59963649628412e-07 6.86541243525331e-08 7.51945221963838e-09 3.23207970586268e-09
"19" 25811 2.18508011784533e-09 3.14212367568219e-09 1.9296930549682e-08 1.16828005836401e-07 2.59834051508465e-07 6.87025335780682e-08 7.51318145294094e-09 3.23130501042233e-09
"20" 25812 2.18524282120811e-09 3.12437640712417e-09 1.90726090427724e-08 1.17218615105408e-07 2.5988055000572e-07 6.87487988245654e-08 7.50922051018917e-09 3.22932770846319e-09
"21" 25813 2.18540552457089e-09 3.10662913856615e-09 1.88482875358629e-08 1.17609224374415e-07 2.59927048502974e-07 6.87950640710626e-08 7.5052595674374e-09 3.22735040650406e-09
"22" 25814 2.1847440680909e-09 3.09658479500153e-09 1.88997584777064e-08 1.1781728581778e-07 2.58857101334683e-07 6.85563319747335e-08 7.48039461704176e-09 3.21866650322717e-09
"23" 25815 2.18408261161092e-09 3.08654045143691e-09 1.895122941955e-08 1.18025347261144e-07 2.57787154166392e-07 6.83175998784044e-08 7.45552966664611e-09 3.20998259995029e-09
"24" 25816 2.18342115513093e-09 3.0764961078723e-09 1.90027003613935e-08 1.18233408704508e-07 2.567172069981e-07 6.80788677820753e-08 7.43066471625047e-09 3.2012986966734e-09
"25" 25817 2.18376784791423e-09 3.07047642985557e-09 1.89904352560867e-08 1.18233408704508e-07 2.55586605136609e-07 6.79131610544985e-08 7.4067827309963e-09 3.19237427209276e-09
"26" 25818 2.18411454069753e-09 3.06445675183885e-09 1.89781701507798e-08 1.18233408704508e-07 2.54456003275118e-07 6.77474543269217e-08 7.38290074574213e-09 3.18344984751212e-09
"27" 25819 2.18446123348082e-09 3.05843707382213e-09 1.89659050454729e-08 1.18233408704508e-07 2.53325401413628e-07 6.75817475993449e-08 7.35901876048796e-09 3.17452542293147e-09
"28" 25820 2.18480792626412e-09 3.05241739580541e-09 1.89536399401661e-08 1.18233408704508e-07 2.52194799552137e-07 6.74160408717681e-08 7.33513677523380e-09 3.16560099835083e-09
"29" 25821 2.18515461904742e-09 3.04639771778868e-09 1.89413748348592e-08 1.18233408704508e-07 2.51064197690646e-07 6.72503341441913e-08 7.31125478997963e-09 3.15667657377019e-09
"30" 25822 2.18550131183072e-09 3.04037803977196e-09 1.89291097295524e-08 1.18233408704508e-07 2.49933595829155e-07 6.70846274166145e-08 7.28737280472546e-09 3.14775214918955e-09
"31" 25823 2.18584800461402e-09 3.03435836175524e-09 1.89168446242455e-08 1.18233408704508e-07 2.48802993967664e-07 6.69189206890377e-08 7.26349081947129e-09 3.1388277246089e-09
"32" 25824 2.18866717692561e-09 3.04206128674864e-09 1.89294519548914e-08 1.18205714340922e-07 2.48084090264141e-07 6.66339233462114e-08 7.25079442662192e-09 3.13212112329115e-09
"33" 25825 2.1914863492372e-09 3.04976421174205e-09 1.89420592855374e-08 1.18178019977335e-07 2.47365186560618e-07 6.63489260033851e-08 7.23809803377256e-09 3.1254145219734e-09
"34" 25826 2.19430552154879e-09 3.05746713673545e-09 1.89546666161833e-08 1.18150325613749e-07 2.46646282857095e-07 6.60639286605588e-08 7.22540164092319e-09 3.11870792065565e-09
"35" 25827 2.19712469386039e-09 3.06517006172885e-09 1.89672739468293e-08 1.18122631250162e-07 2.45927379153572e-07 6.57789313177325e-08 7.21270524807382e-09 3.11200131933789e-09
"36" 25828 2.19994386617198e-09 3.07287298672226e-09 1.89798812774752e-08 1.18094936886576e-07 2.45208475450048e-07 6.54939339749062e-08 7.20000885522446e-09 3.10529471802014e-09
"37" 25829 2.20276303848357e-09 3.08057591171566e-09 1.89924886081211e-08 1.18067242522989e-07 2.44489571746525e-07 6.52089366320799e-08 7.18731246237509e-09 3.09858811670239e-09
"38" 25830 2.20558221079517e-09 3.08827883670906e-09 1.90050959387671e-08 1.18039548159403e-07 2.43770668043002e-07 6.49239392892536e-08 7.17461606952573e-09 3.09188151538464e-09
"39" 25831 2.20840138310676e-09 3.09598176170247e-09 1.9017703269413e-08 1.18011853795816e-07 2.43051764339479e-07 6.46389419464273e-08 7.16191967667636e-09 3.08517491406688e-09
"40" 25832 2.21122055541835e-09 3.10368468669587e-09 1.9030310600059e-08 1.1798415943223e-07 2.42332860635956e-07 6.4353944603601e-08 7.149223283827e-09 3.07846831274913e-09
"41" 25833 2.21403972772995e-09 3.11138761168927e-09 1.90429179307049e-08 1.17956465068643e-07 2.41613956932432e-07 6.40689472607747e-08 7.13652689097763e-09 3.07176171143138e-09
"42" 25834 2.21685890004154e-09 3.11909053668268e-09 1.90555252613508e-08 1.17928770705057e-07 2.40895053228909e-07 6.37839499179485e-08 7.12383049812826e-09 3.06505511011362e-09
"43" 25835 2.2205022321959e-09 3.13913415518349e-09 1.9076381584403e-08 1.18041655881269e-07 2.41106825959749e-07 6.36534038875653e-08 7.12383049812826e-09 3.06331832945825e-09
"44" 25836 2.20007464044815e-09 3.13441332087514e-09 1.90972379074551e-08 1.17285145534935e-07 2.40861508802864e-07 6.36350471353877e-08 7.09394893437467e-09 3.0297321913404e-09
"45" 25837 2.1796470487004e-09 3.12969248656679e-09 1.91180942305072e-08 1.16528635188601e-07 2.40616191645979e-07 6.36166903832101e-08 7.06406737062108e-09 2.99614605322255e-09
"46" 25838 2.15921945695266e-09 3.12497165225844e-09 1.91389505535593e-08 1.15772124842267e-07 2.40370874489094e-07 6.35983336310325e-08 7.03418580686748e-09 2.96255991510471e-09
"47" 25839 2.13879186520491e-09 3.1202508179501e-09 1.91598068766114e-08 1.15015614495933e-07 2.40125557332209e-07 6.35799768788549e-08 7.00430424311389e-09 2.92897377698686e-09
"48" 25840 2.11836427345716e-09 3.11552998364175e-09 1.91806631996636e-08 1.14259104149599e-07 2.39880240175324e-07 6.35616201266772e-08 6.97442267936029e-09 2.89538763886901e-09
"49" 25841 2.10096112949927e-09 3.09295795894467e-09 1.91829141106817e-08 1.13482789726574e-07 2.39758428918153e-07 6.35828289239111e-08 6.97461171356853e-09 2.87561461927768e-09
"50" 25842 2.08355798554137e-09 3.07038593424758e-09 1.91851650216999e-08 1.1270647530355e-07 2.39636617660982e-07 6.36040377211449e-08 6.97480074777677e-09 2.85584159968634e-09
"51" 25843 2.06615484158348e-09 3.0478139095505e-09 1.91874159327181e-08 1.11930160880526e-07 2.39514806403811e-07 6.36252465183787e-08 6.97498978198501e-09 2.83606858009501e-09
"52" 25844 2.04875169762558e-09 3.02524188485342e-09 1.91896668437363e-08 1.11153846457502e-07 2.3939299514664e-07 6.36464553156125e-08 6.97517881619325e-09 2.81629556050367e-09
"53" 25845 2.03134855366769e-09 3.00266986015634e-09 1.91919177547545e-08 1.10377532034478e-07 2.39271183889469e-07 6.36676641128463e-08 6.97536785040149e-09 2.79652254091234e-09
"54" 25846 2.01394540970979e-09 2.98009783545925e-09 1.91941686657727e-08 1.09601217611453e-07 2.39149372632297e-07 6.36888729100801e-08 6.97555688460973e-09 2.776749521321e-09
"55" 25847 1.9965422657519e-09 2.95752581076217e-09 1.91964195767909e-08 1.08824903188429e-07 2.39027561375126e-07 6.3710081707314e-08 6.97574591881797e-09 2.75697650172967e-09
"56" 25848 1.99371245041143e-09 2.9506367609338e-09 1.91604571764259e-08 1.0898371117477e-07 2.38705298523848e-07 6.37479350908117e-08 6.99297471300102e-09 2.74798123511025e-09
"57" 25849 1.99088263507097e-09 2.94374771110543e-09 1.9124494776061e-08 1.09142519161111e-07 2.3838303567257e-07 6.37857884743094e-08 7.01020350718408e-09 2.73898596849083e-09
"58" 25850 1.98805281973051e-09 2.93685866127707e-09 1.9088532375696e-08 1.09301327147452e-07 2.38060772821292e-07 6.38236418578071e-08 7.02743230136713e-09 2.7299907018714e-09
"59" 25851 1.98522300439005e-09 2.9299696114487e-09 1.90525699753311e-08 1.09460135133793e-07 2.37738509970014e-07 6.38614952413048e-08 7.04466109555018e-09 2.72099543525198e-09
"60" 25852 1.98239318904958e-09 2.92308056162033e-09 1.90166075749661e-08 1.09618943120134e-07 2.37416247118735e-07 6.38993486248025e-08 7.06188988973324e-09 2.71200016863256e-09
"61" 25853 1.97956337370912e-09 2.91619151179196e-09 1.89806451746012e-08 1.09777751106475e-07 2.37093984267457e-07 6.39372020083003e-08 7.07911868391629e-09 2.70300490201314e-09
"62" 25854 1.97673355836866e-09 2.9093024619636e-09 1.89446827742362e-08 1.09936559092816e-07 2.36771721416179e-07 6.3975055391798e-08 7.09634747809934e-09 2.69400963539372e-09
"63" 25855 1.97390374302819e-09 2.90241341213523e-09 1.89087203738713e-08 1.10095367079157e-07 2.36449458564901e-07 6.40129087752957e-08 7.11357627228240e-09 2.6850143687743e-09
"64" 25856 1.97107392768773e-09 2.89552436230686e-09 1.88727579735064e-08 1.10254175065498e-07 2.36127195713623e-07 6.40507621587934e-08 7.13080506646545e-09 2.67601910215488e-09
"65" 25857 1.96824411234727e-09 2.88863531247849e-09 1.88367955731414e-08 1.10412983051838e-07 2.35804932862345e-07 6.40886155422911e-08 7.1480338606485e-09 2.66702383553546e-09
"66" 25858 1.96541429700681e-09 2.88174626265013e-09 1.88008331727765e-08 1.10571791038179e-07 2.35482670011066e-07 6.41264689257888e-08 7.16526265483155e-09 2.65802856891604e-09
"67" 25859 1.96258448166634e-09 2.87485721282176e-09 1.87648707724115e-08 1.1073059902452e-07 2.35160407159788e-07 6.41643223092865e-08 7.18249144901461e-09 2.64903330229662e-09
"68" 25860 1.95975466632588e-09 2.86796816299339e-09 1.87289083720466e-08 1.10889407010861e-07 2.3483814430851e-07 6.42021756927843e-08 7.19972024319766e-09 2.6400380356772e-09
"69" 25861 1.95692485098542e-09 2.86107911316502e-09 1.86929459716816e-08 1.11048214997202e-07 2.34515881457232e-07 6.4240029076282e-08 7.21694903738071e-09 2.63104276905778e-09
"70" 25862 1.95409503564495e-09 2.85419006333665e-09 1.86569835713167e-08 1.11207022983543e-07 2.34193618605954e-07 6.42778824597797e-08 7.23417783156377e-09 2.62204750243836e-09
"71" 25863 1.95126522030449e-09 2.84730101350829e-09 1.86210211709517e-08 1.11365830969884e-07 2.33871355754675e-07 6.43157358432774e-08 7.25140662574682e-09 2.61305223581894e-09
"72" 25864 1.94843540496403e-09 2.84041196367992e-09 1.85850587705868e-08 1.11524638956225e-07 2.33549092903397e-07 6.43535892267751e-08 7.26863541992987e-09 2.60405696919952e-09
"73" 25865 1.94560558962357e-09 2.83352291385155e-09 1.85490963702219e-08 1.11683446942566e-07 2.33226830052119e-07 6.43914426102728e-08 7.28586421411293e-09 2.5950617025801e-09
"74" 25866 1.9427757742831e-09 2.82663386402318e-09 1.85131339698569e-08 1.11842254928907e-07 2.32904567200841e-07 6.44292959937705e-08 7.30309300829598e-09 2.58606643596068e-09
"75" 25867 1.93994595894264e-09 2.81974481419482e-09 1.8477171569492e-08 1.12001062915248e-07 2.32582304349563e-07 6.44671493772683e-08 7.32032180247903e-09 2.57707116934126e-09
"76" 25868 1.93711614360218e-09 2.81285576436645e-09 1.8441209169127e-08 1.12159870901589e-07 2.32260041498285e-07 6.4505002760766e-08 7.33755059666209e-09 2.56807590272184e-09
"77" 25869 1.93012295693241e-09 2.80480643327066e-09 1.8441209169127e-08 1.12312783613502e-07 2.31899367382453e-07 6.4591807483404e-08 7.31873829656976e-09 2.54330792612647e-09
"78" 25870 1.92078806501052e-09 2.7959570115837e-09 1.84148876686678e-08 1.12321053736681e-07 2.31516671478156e-07 6.4591807483404e-08 7.29599413591155e-09 2.51852223902141e-09
"79" 25871 1.9093380293725e-09 2.79100412102187e-09 1.83792985626858e-08 1.12257027604282e-07 2.31982971993572e-07 6.45648078750818e-08 7.0867214019858e-09 2.4906629064966e-09
"80" 25872 1.9093380293725e-09 2.79396199911487e-09 1.83792985626858e-08 1.12271101216216e-07 2.3066619750502e-07 6.4644867640885e-08 7.0867214019858e-09 2.49264020845573e-09
"81" 25873 1.90585740058092e-09 2.79788274283205e-09 1.82477712235398e-08 1.11462795592384e-07 2.30959700527174e-07 6.48018626730631e-08 7.07469316280107e-09 2.49083258576157e-09
"82" 25874 1.90237677178934e-09 2.80180348654923e-09 1.81162438843937e-08 1.10654489968553e-07 2.31253203549329e-07 6.49588577052413e-08 7.06266492361633e-09 2.48902496306742e-09
"83" 25875 1.89889614299776e-09 2.80572423026641e-09 1.79847165452477e-08 1.09846184344722e-07 2.31546706571483e-07 6.51158527374194e-08 7.0506366844316e-09 2.48721734037326e-09
"84" 25876 1.90192059078761e-09 2.82607961425937e-09 1.79251270508131e-08 1.09398020179605e-07 2.32176370233853e-07 6.5138907580553e-08 7.04463710593217e-09 2.48721734037326e-09
"85" 25877 1.90494503857746e-09 2.84643499825232e-09 1.78655375563785e-08 1.08949856014488e-07 2.32806033896223e-07 6.51619624236866e-08 7.03863752743275e-09 2.48721734037326e-09
"86" 25878 1.90796948636731e-09 2.86679038224528e-09 1.78059480619438e-08 1.08501691849371e-07 2.33435697558594e-07 6.51850172668201e-08 7.03263794893332e-09 2.48721734037326e-09
"87" 25879 1.91099393415716e-09 2.88714576623824e-09 1.77463585675092e-08 1.08053527684254e-07 2.34065361220964e-07 6.52080721099537e-08 7.0266383704339e-09 2.48721734037326e-09
"88" 25880 1.91401838194702e-09 2.90750115023119e-09 1.76867690730746e-08 1.07605363519137e-07 2.34695024883334e-07 6.52311269530873e-08 7.02063879193447e-09 2.48721734037326e-09
"89" 25881 1.91704282973687e-09 2.92785653422415e-09 1.762717957864e-08 1.0715719935402e-07 2.35324688545704e-07 6.52541817962209e-08 7.01463921343505e-09 2.48721734037326e-09
"90" 25882 1.92622566132485e-09 2.94019722773155e-09 1.75952904481826e-08 1.06600597082655e-07 2.35241324280695e-07 6.57910277829927e-08 7.06632559598421e-09 2.50347109295673e-09
"91" 25883 1.93540849291284e-09 2.95253792123896e-09 1.75634013177252e-08 1.0604399481129e-07 2.35157960015686e-07 6.63278737697645e-08 7.11801197853337e-09 2.51972484554019e-09
"92" 25884 1.94459132450082e-09 2.96487861474637e-09 1.75315121872678e-08 1.05487392539925e-07 2.35074595750676e-07 6.68647197565364e-08 7.16969836108252e-09 2.53597859812365e-09
"93" 25885 1.9537741560888e-09 2.97721930825377e-09 1.74996230568105e-08 1.04930790268561e-07 2.34991231485667e-07 6.74015657433082e-08 7.22138474363168e-09 2.55223235070712e-09
"94" 25886 1.96295698767679e-09 2.98956000176118e-09 1.74677339263531e-08 1.04374187997196e-07 2.34907867220658e-07 6.793841173008e-08 7.27307112618084e-09 2.56848610329058e-09
"95" 25887 1.97213981926477e-09 3.00190069526858e-09 1.74358447958957e-08 1.03817585725831e-07 2.34824502955648e-07 6.84752577168518e-08 7.32475750873e-09 2.58473985587404e-09
"96" 25888 1.98132265085276e-09 3.01424138877599e-09 1.74039556654383e-08 1.03260983454466e-07 2.34741138690639e-07 6.90121037036237e-08 7.37644389127916e-09 2.6009936084575e-09
"97" 25889 1.99050548244074e-09 3.0265820822834e-09 1.7372066534981e-08 1.02704381183101e-07 2.3465777442563e-07 6.95489496903955e-08 7.42813027382832e-09 2.61724736104097e-09
"98" 25890 1.99968831402872e-09 3.0389227757908e-09 1.73401774045236e-08 1.02147778911736e-07 2.34574410160621e-07 7.00857956771673e-08 7.47981665637748e-09 2.63350111362443e-09
"99" 25891 2.00887114561671e-09 3.05126346929821e-09 1.73082882740662e-08 1.01591176640371e-07 2.34491045895611e-07 7.06226416639391e-08 7.53150303892664e-09 2.64975486620789e-09
"100" 25892 2.01805397720469e-09 3.06360416280561e-09 1.72763991436088e-08 1.01034574369006e-07 2.34407681630602e-07 7.1159487650711e-08 7.5831894214758e-09 2.66600861879136e-09
"101" 25893 2.03005598110427e-09 3.07188555015489e-09 1.73722640939647e-08 1.01283919611702e-07 2.33779710532338e-07 7.17023856148823e-08 7.64094808798909e-09 2.67413035274422e-09
"102" 25894 2.04288214484661e-09 3.08422624366229e-09 1.73722640939647e-08 1.01194801405955e-07 2.33869143760591e-07 7.20552369611538e-08 7.7026822383471e-09 2.69342975556001e-09
"103" 25895 2.05570830858895e-09 3.0965669371697e-09 1.73722640939647e-08 1.01105683200208e-07 2.33958576988844e-07 7.24080883074253e-08 7.76441638870511e-09 2.7127291583758e-09
"104" 25896 2.0685344723313e-09 3.1089076306771e-09 1.73722640939647e-08 1.01016564994461e-07 2.34048010217097e-07 7.27609396536967e-08 7.82615053906311e-09 2.73202856119159e-09
"105" 25897 2.08136063607364e-09 3.12124832418451e-09 1.73722640939647e-08 1.00927446788714e-07 2.3413744344535e-07 7.31137909999682e-08 7.88788468942112e-09 2.75132796400737e-09
"106" 25898 2.0825314886997e-09 3.12756933967519e-09 1.7272625885276e-08 1.00563628324783e-07 2.3416598994804e-07 7.29214665230444e-08 7.88664507717457e-09 2.75034816828265e-09
"107" 25899 2.08919926864391e-09 3.12860148651985e-09 1.71767087589941e-08 1.00339859331625e-07 2.34122292860825e-07 7.29793086973185e-08 7.90468743595167e-09 2.75564706279726e-09
"108" 25900 2.09586704858812e-09 3.1296336333645e-09 1.70807916327123e-08 1.00116090338467e-07 2.34078595773611e-07 7.30371508715925e-08 7.92272979472877e-09 2.76094595731186e-09
"109" 25901 2.10253482853233e-09 3.13066578020915e-09 1.69848745064304e-08 9.9892321345309e-08 2.34034898686396e-07 7.30949930458666e-08 7.94077215350588e-09 2.76624485182647e-09
"110" 25902 2.10920260847654e-09 3.1316979270538e-09 1.68889573801485e-08 9.96685523521511e-08 2.33991201599182e-07 7.31528352201406e-08 7.95881451228298e-09 2.77154374634107e-09
"111" 25903 2.11587038842075e-09 3.13273007389846e-09 1.67930402538667e-08 9.94447833589932e-08 2.33947504511967e-07 7.32106773944146e-08 7.97685687106008e-09 2.77684264085567e-09
"112" 25904 2.11422206873522e-09 3.1168981085706e-09 1.67810180031277e-08 9.93153663059145e-08 2.32819561150082e-07 7.26111695538709e-08 7.9532024507251e-09 2.76566497199275e-09
"113" 25905 2.11257374904969e-09 3.10106614324275e-09 1.67689957523887e-08 9.91859492528358e-08 2.31691617788196e-07 7.20116617133271e-08 7.92954803039012e-09 2.75448730312983e-09
"114" 25906 2.11092542936416e-09 3.08523417791489e-09 1.67569735016496e-08 9.90565321997571e-08 2.30563674426311e-07 7.14121538727833e-08 7.90589361005514e-09 2.74330963426691e-09
"115" 25907 2.10927710967863e-09 3.06940221258704e-09 1.67449512509106e-08 9.89271151466784e-08 2.29435731064425e-07 7.08126460322395e-08 7.88223918972016e-09 2.73213196540399e-09
"116" 25908 2.1076287899931e-09 3.05357024725918e-09 1.67329290001716e-08 9.87976980935997e-08 2.2830778770254e-07 7.02131381916958e-08 7.85858476938519e-09 2.72095429654107e-09
"117" 25909 2.10598047030757e-09 3.03773828193133e-09 1.67209067494326e-08 9.8668281040521e-08 2.27179844340654e-07 6.9613630351152e-08 7.83493034905021e-09 2.70977662767815e-09
"118" 25910 2.10433215062204e-09 3.02190631660347e-09 1.67088844986936e-08 9.85388639874423e-08 2.26051900978769e-07 6.90141225106082e-08 7.81127592871523e-09 2.69859895881522e-09
"119" 25911 2.10268383093651e-09 3.00607435127562e-09 1.66968622479546e-08 9.84094469343636e-08 2.24923957616883e-07 6.84146146700644e-08 7.78762150838025e-09 2.6874212899523e-09
"120" 25912 2.10103551125098e-09 2.99024238594776e-09 1.66848399972156e-08 9.82800298812849e-08 2.23796014254997e-07 6.78151068295206e-08 7.76396708804528e-09 2.67624362108938e-09
"121" 25913 2.0988671523905e-09 2.9882127328687e-09 1.66600799760155e-08 9.81326160078957e-08 2.23532171777558e-07 6.79657368645781e-08 7.7560015792629e-09 2.67624362108938e-09
"122" 25914 2.09669879353002e-09 2.98618307978963e-09 1.66353199548155e-08 9.79852021345065e-08 2.23268329300119e-07 6.81163668996356e-08 7.74803607048053e-09 2.67624362108938e-09
"123" 25915 2.09453043466955e-09 2.98415342671056e-09 1.66105599336154e-08 9.78377882611173e-08 2.2300448682268e-07 6.82669969346931e-08 7.74007056169816e-09 2.67624362108938e-09
"124" 25916 2.09236207580907e-09 2.9821237736315e-09 1.65857999124154e-08 9.76903743877281e-08 2.22740644345241e-07 6.84176269697506e-08 7.73210505291579e-09 2.67624362108938e-09
"125" 25917 2.09019371694859e-09 2.98009412055243e-09 1.65610398912153e-08 9.75429605143389e-08 2.22476801867802e-07 6.85682570048081e-08 7.72413954413342e-09 2.67624362108938e-09
"126" 25918 2.08802535808812e-09 2.97806446747336e-09 1.65362798700153e-08 9.73955466409497e-08 2.22212959390363e-07 6.87188870398656e-08 7.71617403535105e-09 2.67624362108938e-09
"127" 25919 2.08585699922764e-09 2.9760348143943e-09 1.65115198488152e-08 9.72481327675605e-08 2.21949116912924e-07 6.88695170749231e-08 7.70820852656868e-09 2.67624362108938e-09
"128" 25920 2.0845234432388e-09 3.05484823493119e-09 1.66425403719434e-08 9.72481327675605e-08 2.21832024387734e-07 6.88673061558922e-08 7.68831656625217e-09 2.67748164862755e-09
"129" 25921 2.08318988724996e-09 3.13366165546808e-09 1.67735608950715e-08 9.72481327675605e-08 2.21714931862545e-07 6.88650952368613e-08 7.66842460593566e-09 2.67871967616572e-09
"130" 25922 2.09351164237739e-09 3.13768632101597e-09 1.67688162184673e-08 9.7126649871521e-08 2.21585447160734e-07 6.89074373984138e-08 7.6643088037294e-09 2.6900213185965e-09
"131" 25923 2.10383339750483e-09 3.14171098656386e-09 1.67640715418631e-08 9.70051669754816e-08 2.21455962458924e-07 6.89497795599664e-08 7.66019300152314e-09 2.70132296102729e-09
"132" 25924 2.11415515263227e-09 3.14573565211176e-09 1.67593268652589e-08 9.68836840794422e-08 2.21326477757113e-07 6.8992121721519e-08 7.65607719931689e-09 2.71262460345807e-09
"133" 25925 2.1244769077597e-09 3.14976031765965e-09 1.67545821886546e-08 9.67622011834028e-08 2.21196993055302e-07 6.90344638830716e-08 7.65196139711063e-09 2.72392624588885e-09
"134" 25926 2.13479866288714e-09 3.15378498320755e-09 1.67498375120504e-08 9.66407182873633e-08 2.21067508353492e-07 6.90768060446241e-08 7.64784559490437e-09 2.73522788831963e-09
"135" 25927 2.14512041801458e-09 3.15780964875544e-09 1.67450928354462e-08 9.65192353913239e-08 2.20938023651681e-07 6.91191482061767e-08 7.64372979269812e-09 2.74652953075041e-09
"136" 25928 2.1412930964397e-09 3.12801259614579e-09 1.67450928354462e-08 9.6403647769712e-08 2.19977931175586e-07 6.91320488472311e-08 7.60352927293766e-09 2.72279448140885e-09
"137" 25929 2.13746577486483e-09 3.09821554353614e-09 1.67450928354462e-08 9.62880601481e-08 2.1901783869949e-07 6.91449494882854e-08 7.5633287531772e-09 2.69905943206728e-09
"138" 25930 2.14912108598111e-09 3.10430450277334e-09 1.67531772371736e-08 9.5969765896343e-08 2.19078881845326e-07 6.91892348088968e-08 7.57833496997224e-09 2.70731542426574e-09
"139" 25931 2.16077639709739e-09 3.11039346201054e-09 1.6761261638901e-08 9.56514716445859e-08 2.19139924991162e-07 6.92335201295082e-08 7.59334118676727e-09 2.71557141646419e-09
"140" 25932 2.17243170821366e-09 3.11648242124774e-09 1.67693460406284e-08 9.53331773928289e-08 2.19200968136997e-07 6.92778054501196e-08 7.6083474035623e-09 2.72382740866265e-09
"141" 25933 2.18408701932994e-09 3.12257138048494e-09 1.67774304423558e-08 9.50148831410719e-08 2.19262011282833e-07 6.9322090770731e-08 7.62335362035734e-09 2.73208340086111e-09
"142" 25934 2.19574233044622e-09 3.12866033972214e-09 1.67855148440832e-08 9.46965888893148e-08 2.19323054428669e-07 6.93663760913424e-08 7.63835983715237e-09 2.74033939305956e-09
"143" 25935 2.19574233044622e-09 3.12842828346865e-09 1.67856061519538e-08 9.43506545362973e-08 2.19648431530533e-07 6.94529130540083e-08 7.63760443693009e-09 2.74033939305956e-09
"144" 25936 2.19574233044622e-09 3.12819622721517e-09 1.67856974598243e-08 9.40047201832798e-08 2.19973808632396e-07 6.95394500166742e-08 7.63684903670781e-09 2.74033939305956e-09
"145" 25937 2.19574233044622e-09 3.12796417096169e-09 1.67857887676949e-08 9.36587858302623e-08 2.2029918573426e-07 6.96259869793401e-08 7.63609363648553e-09 2.74033939305956e-09
"146" 25938 2.19574233044622e-09 3.1277321147082e-09 1.67858800755655e-08 9.33128514772447e-08 2.20624562836124e-07 6.9712523942006e-08 7.63533823626325e-09 2.74033939305956e-09
"147" 25939 2.19574233044622e-09 3.12750005845472e-09 1.6785971383436e-08 9.29669171242272e-08 2.20949939937988e-07 6.97990609046719e-08 7.63458283604097e-09 2.74033939305956e-09
"148" 25940 2.19655584726012e-09 3.12946043031331e-09 1.68298094818242e-08 9.34433620069749e-08 2.2086453973681e-07 6.97972817987652e-08 7.64250472154451e-09 2.74250408479337e-09
"149" 25941 2.19736936407401e-09 3.1314208021719e-09 1.68736475802124e-08 9.39198068897226e-08 2.20779139535631e-07 6.97955026928584e-08 7.65042660704806e-09 2.74466877652718e-09
"150" 25942 2.19818288088791e-09 3.13338117403049e-09 1.69174856786006e-08 9.43962517724703e-08 2.20693739334453e-07 6.97937235869517e-08 7.6583484925516e-09 2.74683346826098e-09
"151" 25943 2.1989963977018e-09 3.13534154588908e-09 1.69613237769887e-08 9.4872696655218e-08 2.20608339133275e-07 6.9791944481045e-08 7.66627037805515e-09 2.74899815999479e-09
"152" 25944 2.1998099145157e-09 3.13730191774766e-09 1.70051618753769e-08 9.53491415379657e-08 2.20522938932096e-07 6.97901653751382e-08 7.67419226355870e-09 2.7511628517286e-09
"153" 25945 2.20062343132959e-09 3.13926228960625e-09 1.70489999737651e-08 9.58255864207134e-08 2.20437538730918e-07 6.97883862692315e-08 7.68211414906224e-09 2.7533275434624e-09
"154" 25946 2.20143694814349e-09 3.14122266146484e-09 1.70928380721533e-08 9.63020313034612e-08 2.2035213852974e-07 6.97866071633247e-08 7.69003603456579e-09 2.75549223519621e-09
"155" 25947 2.20225046495739e-09 3.14318303332343e-09 1.71366761705414e-08 9.67784761862089e-08 2.20266738328561e-07 6.9784828057418e-08 7.69795792006933e-09 2.75765692693002e-09
"156" 25948 2.20306398177128e-09 3.14514340518202e-09 1.71805142689296e-08 9.72549210689566e-08 2.20181338127383e-07 6.97830489515113e-08 7.70587980557288e-09 2.75982161866382e-09
"157" 25949 2.20387749858518e-09 3.14710377704061e-09 1.72243523673178e-08 9.77313659517043e-08 2.20095937926205e-07 6.97812698456045e-08 7.71380169107642e-09 2.76198631039763e-09
"158" 25950 2.20469101539907e-09 3.1490641488992e-09 1.72681904657059e-08 9.8207810834452e-08 2.20010537725026e-07 6.97794907396978e-08 7.72172357657997e-09 2.76415100213144e-09
"159" 25951 2.19002189952181e-09 3.14217509907083e-09 1.72520216622512e-08 9.90161164582834e-08 2.1975099187776e-07 6.92783541573858e-08 7.681677916274e-09 2.75431019803289e-09
"160" 25952 2.17535278364455e-09 3.13528604924247e-09 1.72358528587964e-08 9.98244220821148e-08 2.19491446030495e-07 6.87772175750738e-08 7.64163225596802e-09 2.74446939393434e-09
"161" 25953 2.16068366776729e-09 3.1283969994141e-09 1.72196840553416e-08 1.00632727705946e-07 2.19231900183229e-07 6.82760809927618e-08 7.60158659566205e-09 2.73462858983579e-09
"162" 25954 2.14601455189003e-09 3.12150794958573e-09 1.72035152518868e-08 1.01441033329778e-07 2.18972354335963e-07 6.77749444104498e-08 7.56154093535607e-09 2.72478778573724e-09
"163" 25955 2.13134543601277e-09 3.11461889975736e-09 1.7187346448432e-08 1.02249338953609e-07 2.18712808488698e-07 6.72738078281378e-08 7.5214952750501e-09 2.71494698163869e-09
"164" 25956 2.11667632013551e-09 3.10772984992899e-09 1.71711776449772e-08 1.0305764457744e-07 2.18453262641432e-07 6.67726712458258e-08 7.48144961474413e-09 2.70510617754014e-09
"165" 25957 2.10200720425824e-09 3.10084080010063e-09 1.71550088415224e-08 1.03865950201272e-07 2.18193716794166e-07 6.62715346635138e-08 7.44140395443815e-09 2.69526537344159e-09
"166" 25958 2.08733808838098e-09 3.09395175027226e-09 1.71388400380676e-08 1.04674255825103e-07 2.179341709469e-07 6.57703980812018e-08 7.40135829413218e-09 2.68542456934304e-09
"167" 25959 2.07266897250372e-09 3.08706270044389e-09 1.71226712346128e-08 1.05482561448935e-07 2.17674625099635e-07 6.52692614988898e-08 7.36131263382621e-09 2.67558376524449e-09
"168" 25960 2.05799985662646e-09 3.08017365061552e-09 1.7106502431158e-08 1.06290867072766e-07 2.17415079252369e-07 6.47681249165778e-08 7.32126697352023e-09 2.66574296114594e-09
"169" 25961 2.0433307407492e-09 3.07328460078716e-09 1.70903336277032e-08 1.07099172696597e-07 2.17155533405103e-07 6.42669883342658e-08 7.28122131321426e-09 2.65590215704739e-09
"170" 25962 2.02866162487194e-09 3.06639555095879e-09 1.70741648242484e-08 1.07907478320429e-07 2.16895987557837e-07 6.37658517519538e-08 7.24117565290829e-09 2.64606135294884e-09
"171" 25963 2.01399250899468e-09 3.05950650113042e-09 1.70579960207937e-08 1.0871578394426e-07 2.16636441710572e-07 6.32647151696417e-08 7.20112999260231e-09 2.63622054885029e-09
"172" 25964 2.01260573786149e-09 3.08612740396745e-09 1.71811439277184e-08 1.08943613963662e-07 2.17918266714093e-07 6.28616538116844e-08 7.30782898493085e-09 2.67616650392397e-09
"173" 25965 2.00028897026522e-09 3.07923835413908e-09 1.71649751242636e-08 1.08963532772442e-07 2.18605272435885e-07 6.23583883369176e-08 7.29484686279053e-09 2.67616650392397e-09
"174" 25966 1.98797220266896e-09 3.07234930431072e-09 1.71488063208088e-08 1.08983451581222e-07 2.19292278157678e-07 6.18551228621507e-08 7.2818647406502e-09 2.67616650392397e-09
"175" 25967 1.97565543507269e-09 3.06546025448235e-09 1.7132637517354e-08 1.09003370390003e-07 2.19979283879471e-07 6.13518573873838e-08 7.26888261850988e-09 2.67616650392397e-09
"176" 25968 1.96333866747643e-09 3.05857120465398e-09 1.71164687138992e-08 1.09023289198783e-07 2.20666289601263e-07 6.08485919126169e-08 7.25590049636956e-09 2.67616650392397e-09
"177" 25969 1.95102189988016e-09 3.05168215482561e-09 1.71002999104444e-08 1.09043208007563e-07 2.21353295323056e-07 6.034532643785e-08 7.24291837422923e-09 2.67616650392397e-09
"178" 25970 1.9387051322839e-09 3.04479310499724e-09 1.70841311069896e-08 1.09063126816343e-07 2.22040301044848e-07 5.98420609630831e-08 7.22993625208891e-09 2.67616650392397e-09
"179" 25971 1.94304185000485e-09 3.0467188362456e-09 1.71098966973248e-08 1.09075332702134e-07 2.22519671128047e-07 5.98117341360926e-08 7.24579965675682e-09 2.6882428417951e-09
"180" 25972 1.9473785677258e-09 3.04864456749395e-09 1.71356622876599e-08 1.09087538587924e-07 2.22999041211245e-07 5.9781407309102e-08 7.26166306142472e-09 2.70031917966624e-09
"181" 25973 1.95171528544676e-09 3.04980484876137e-09 1.71794090781775e-08 1.09116199141837e-07 2.23493265665915e-07 5.96387855978248e-08 7.29664848509392e-09 2.71533490471153e-09
"182" 25974 1.95605200316771e-09 3.05096513002879e-09 1.72231558686951e-08 1.09144859695749e-07 2.23987490120586e-07 5.94961638865476e-08 7.33163390876311e-09 2.73035062975682e-09
"183" 25975 1.96038872088866e-09 3.05212541129621e-09 1.72669026592127e-08 1.09173520249662e-07 2.24481714575256e-07 5.93535421752704e-08 7.36661933243231e-09 2.74536635480211e-09
"184" 25976 1.96472543860962e-09 3.05328569256363e-09 1.73106494497303e-08 1.09202180803575e-07 2.24975939029926e-07 5.92109204639932e-08 7.40160475610151e-09 2.76038207984741e-09
"185" 25977 1.96906215633057e-09 3.05444597383105e-09 1.73543962402479e-08 1.09230841357488e-07 2.25470163484596e-07 5.9068298752716e-08 7.4365901797707e-09 2.7753978048927e-09
"186" 25978 1.97486320431654e-09 3.08339786722111e-09 1.73981430307655e-08 1.09333928835262e-07 2.26888997488823e-07 5.89500640907719e-08 7.43780070983137e-09 2.77536238387331e-09
"187" 25979 1.9806642523025e-09 3.11234976061117e-09 1.74418898212831e-08 1.09437016313036e-07 2.28307831493049e-07 5.88318294288278e-08 7.43901123989203e-09 2.77532696285392e-09
"188" 25980 1.98183510492856e-09 3.12039909170696e-09 1.74858322715233e-08 1.1005133612813e-07 2.29088197326561e-07 5.88567001446951e-08 7.44702037195323e-09 2.77532696285392e-09
"189" 25981 1.98300595755463e-09 3.12844842280275e-09 1.75297747217636e-08 1.10665655943224e-07 2.29868563160073e-07 5.88815708605625e-08 7.45502950401442e-09 2.77532696285392e-09
"190" 25982 1.98417681018069e-09 3.13649775389853e-09 1.75737171720039e-08 1.11279975758318e-07 2.30648928993586e-07 5.89064415764298e-08 7.46303863607562e-09 2.77532696285392e-09
"191" 25983 1.98534766280675e-09 3.14454708499432e-09 1.76176596222441e-08 1.11894295573412e-07 2.31429294827098e-07 5.89313122922971e-08 7.47104776813681e-09 2.77532696285392e-09
"192" 25984 1.98651851543282e-09 3.15259641609011e-09 1.76616020724844e-08 1.12508615388506e-07 2.3220966066061e-07 5.89561830081644e-08 7.47905690019801e-09 2.77532696285392e-09
"193" 25985 1.98768936805888e-09 3.1606457471859e-09 1.77055445227246e-08 1.131229352036e-07 2.32990026494122e-07 5.89810537240318e-08 7.4870660322592e-09 2.77532696285392e-09
"194" 25986 1.98869751732216e-09 3.16946052826262e-09 1.76978073274172e-08 1.13097630265692e-07 2.3118760626219e-07 5.87309323325829e-08 7.49507516432039e-09 2.77634217959803e-09
"195" 25987 1.98970566658545e-09 3.17827530933934e-09 1.76900701321097e-08 1.13072325327785e-07 2.29385186030258e-07 5.84808109411341e-08 7.50308429638159e-09 2.77735739634214e-09
"196" 25988 1.99071381584873e-09 3.18709009041606e-09 1.76823329368022e-08 1.13047020389877e-07 2.27582765798326e-07 5.82306895496853e-08 7.51109342844278e-09 2.77837261308625e-09
"197" 25989 1.99172196511201e-09 3.19590487149277e-09 1.76745957414948e-08 1.1302171545197e-07 2.25780345566394e-07 5.79805681582365e-08 7.51910256050398e-09 2.77938782983036e-09
"198" 25990 1.9927301143753e-09 3.20471965256949e-09 1.76668585461873e-08 1.12996410514062e-07 2.23977925334462e-07 5.77304467667877e-08 7.52711169256517e-09 2.78040304657446e-09
"199" 25991 1.99373826363858e-09 3.2085122618639e-09 1.7611930483387e-08 1.12392297387544e-07 2.22072493161195e-07 5.73213937777629e-08 7.53011875236136e-09 2.78668173681379e-09
"200" 25992 1.99474641290186e-09 3.21230487115831e-09 1.75570024205867e-08 1.11788184261027e-07 2.20167060987928e-07 5.69123407887381e-08 7.53312581215754e-09 2.79296042705311e-09
"201" 25993 1.99575456216515e-09 3.21609748045272e-09 1.75020743577863e-08 1.11184071134509e-07 2.18261628814661e-07 5.65032877997134e-08 7.53613287195372e-09 2.79923911729243e-09
"202" 25994 1.97285449088911e-09 3.21796435849878e-09 1.75088662227854e-08 1.11176721308821e-07 2.19391309821226e-07 5.6355367436804e-08 7.51005739149742e-09 2.78066870421988e-09
"203" 25995 1.94995441961307e-09 3.21983123654484e-09 1.75156580877845e-08 1.11169371483133e-07 2.20520990827792e-07 5.62074470738946e-08 7.48398191104111e-09 2.76209829114732e-09
"204" 25996 1.92705434833702e-09 3.2216981145909e-09 1.75224499527836e-08 1.11162021657445e-07 2.21650671834357e-07 5.60595267109853e-08 7.45790643058481e-09 2.74352787807477e-09
"205" 25997 1.90415427706098e-09 3.22356499263696e-09 1.75292418177827e-08 1.11154671831757e-07 2.22780352840922e-07 5.59116063480759e-08 7.4318309501285e-09 2.72495746500222e-09
"206" 25998 1.8804194029133e-09 3.22366891446768e-09 1.75272728932769e-08 1.11120552124718e-07 2.22926796187936e-07 5.57668944104319e-08 7.42200129871378e-09 2.70413380764738e-09
"207" 25999 1.85668452876563e-09 3.22377283629839e-09 1.75253039687711e-08 1.11086432417678e-07 2.2307323953495e-07 5.56221824727878e-08 7.41217164729905e-09 2.68331015029255e-09
"208" 26000 1.83294965461795e-09 3.22387675812911e-09 1.75233350442653e-08 1.11052312710639e-07 2.23219682881964e-07 5.54774705351438e-08 7.40234199588433e-09 2.66248649293772e-09
"209" 26001 1.80921478047027e-09 3.22398067995982e-09 1.75213661197595e-08 1.110181930036e-07 2.23366126228978e-07 5.53327585974998e-08 7.3925123444696e-09 2.64166283558289e-09
"210" 26002 1.7854799063226e-09 3.22408460179054e-09 1.75193971952537e-08 1.10984073296561e-07 2.23512569575992e-07 5.51880466598557e-08 7.38268269305488e-09 2.62083917822805e-09
"211" 26003 1.76174503217492e-09 3.22418852362125e-09 1.75174282707479e-08 1.10949953589522e-07 2.23659012923006e-07 5.50433347222117e-08 7.37285304164016e-09 2.60001552087322e-09
"212" 26004 1.73801015802724e-09 3.22429244545197e-09 1.75154593462421e-08 1.10915833882482e-07 2.2380545627002e-07 5.48986227845677e-08 7.36302339022543e-09 2.57919186351839e-09
"213" 26005 1.71427528387957e-09 3.22439636728269e-09 1.75134904217363e-08 1.10881714175443e-07 2.23951899617034e-07 5.47539108469236e-08 7.35319373881071e-09 2.55836820616356e-09
"214" 26006 1.66452010340617e-09 3.09437415070649e-09 1.70942769236522e-08 1.09811406724897e-07 2.2409174471617e-07 5.47412930524244e-08 7.32447908183895e-09 2.49017328735179e-09
"215" 26007 1.66051943543964e-09 3.09563835380462e-09 1.70882657982827e-08 1.0971187315076e-07 2.23529877828568e-07 5.47445014776897e-08 7.32872575388168e-09 2.49318351656473e-09
"216" 26008 1.65651876747312e-09 3.09690255690276e-09 1.70822546729132e-08 1.09612339576622e-07 2.22968010940966e-07 5.4747709902955e-08 7.33297242592441e-09 2.49619374577766e-09
"217" 26009 1.65251809950659e-09 3.0981667600009e-09 1.70762435475437e-08 1.09512806002485e-07 2.22406144053364e-07 5.47509183282204e-08 7.33721909796714e-09 2.4992039749906e-09
"218" 26010 1.64851743154007e-09 3.09943096309903e-09 1.70702324221742e-08 1.09413272428348e-07 2.21844277165762e-07 5.47541267534857e-08 7.34146577000987e-09 2.50221420420353e-09
"219" 26011 1.64451676357354e-09 3.10069516619717e-09 1.70642212968047e-08 1.0931373885421e-07 2.2128241027816e-07 5.4757335178751e-08 7.3457124420526e-09 2.50522443341647e-09
"220" 26012 1.64051609560701e-09 3.10195936929531e-09 1.70582101714352e-08 1.09214205280073e-07 2.20720543390558e-07 5.47605436040164e-08 7.34995911409533e-09 2.50823466262941e-09
"221" 26013 1.63651542764049e-09 3.10322357239344e-09 1.70521990460656e-08 1.09114671705936e-07 2.20158676502956e-07 5.47637520292817e-08 7.35420578613806e-09 2.51124489184234e-09
"222" 26014 1.64379144892034e-09 3.10438385366086e-09 1.70618399459714e-08 1.09169991593855e-07 2.20556902091449e-07 5.48363757580758e-08 7.37401049989693e-09 2.51915409967888e-09
"223" 26015 1.63979078095381e-09 3.10554413492828e-09 1.70558288206019e-08 1.09125375124936e-07 2.20037923815053e-07 5.48639108863422e-08 7.36419029700727e-09 2.51837940423853e-09
"224" 26016 1.63545406323286e-09 3.14688179045417e-09 1.73051320963971e-08 1.09018986293483e-07 2.19356545209548e-07 5.48572781292495e-08 7.37318239420994e-09 2.51762241930787e-09
"225" 26017 1.6311173455119e-09 3.18821944598006e-09 1.75544353721924e-08 1.0891259746203e-07 2.18675166604043e-07 5.48506453721567e-08 7.3821744914126e-09 2.51686543437721e-09
"226" 26018 1.62678062779095e-09 3.22955710150595e-09 1.78037386479877e-08 1.08806208630577e-07 2.17993787998538e-07 5.4844012615064e-08 7.39116658861527e-09 2.51610844944655e-09
"227" 26019 1.61516788879015e-09 3.23000742943905e-09 1.7754050933089e-08 1.07991047749429e-07 2.1795292908819e-07 5.48304642543234e-08 7.41516490261297e-09 2.50744225667936e-09
"228" 26020 1.60355514978935e-09 3.23045775737215e-09 1.77043632181903e-08 1.07175886868282e-07 2.17912070177843e-07 5.48169158935827e-08 7.43916321661067e-09 2.49877606391217e-09
"229" 26021 1.59194241078855e-09 3.23090808530525e-09 1.76546755032916e-08 1.06360725987135e-07 2.17871211267496e-07 5.48033675328421e-08 7.46316153060838e-09 2.49010987114498e-09
"230" 26022 1.58032967178775e-09 3.23135841323835e-09 1.76049877883929e-08 1.05545565105988e-07 2.17830352357148e-07 5.47898191721015e-08 7.48715984460608e-09 2.48144367837778e-09
"231" 26023 1.56871693278695e-09 3.23180874117145e-09 1.75553000734942e-08 1.0473040422484e-07 2.17789493446801e-07 5.47762708113608e-08 7.51115815860378e-09 2.47277748561059e-09
"232" 26024 1.55710419378615e-09 3.23225906910456e-09 1.75056123585955e-08 1.03915243343693e-07 2.17748634536454e-07 5.47627224506202e-08 7.53515647260148e-09 2.4641112928434e-09
"233" 26025 1.54549145478535e-09 3.23270939703766e-09 1.74559246436968e-08 1.03100082462546e-07 2.17707775626106e-07 5.47491740898796e-08 7.55915478659918e-09 2.45544510007621e-09
"234" 26026 1.53387871578455e-09 3.23315972497076e-09 1.74062369287981e-08 1.02284921581399e-07 2.17666916715759e-07 5.4735625729139e-08 7.58315310059688e-09 2.44677890730902e-09
"235" 26027 1.52226597678375e-09 3.23361005290386e-09 1.73565492138994e-08 1.01469760700251e-07 2.17626057805412e-07 5.47220773683983e-08 7.60715141459458e-09 2.43811271454183e-09
"236" 26028 1.51380845984897e-09 3.26015831796473e-09 1.754016056202e-08 1.01308051980879e-07 2.16444478021576e-07 5.43036470825667e-08 7.56021554977323e-09 2.42248168864343e-09
"237" 26029 1.50535094291419e-09 3.2867065830256e-09 1.77237719101406e-08 1.01146343261507e-07 2.15262898237741e-07 5.38852167967351e-08 7.51327968495188e-09 2.40685066274503e-09
"238" 26030 1.49689342597941e-09 3.31325484808647e-09 1.79073832582611e-08 1.00984634542135e-07 2.14081318453905e-07 5.34667865109035e-08 7.46634382013053e-09 2.39121963684664e-09
"239" 26031 1.48843590904463e-09 3.33980311314734e-09 1.80909946063817e-08 1.00822925822763e-07 2.1289973867007e-07 5.30483562250719e-08 7.41940795530919e-09 2.37558861094824e-09
"240" 26032 1.47997839210985e-09 3.36635137820822e-09 1.82746059545023e-08 1.00661217103391e-07 2.11718158886234e-07 5.26299259392402e-08 7.37247209048784e-09 2.35995758504985e-09
"241" 26033 1.47152087517508e-09 3.39289964326909e-09 1.84582173026228e-08 1.00499508384019e-07 2.10536579102399e-07 5.22114956534086e-08 7.32553622566649e-09 2.34432655915145e-09
"242" 26034 1.4630633582403e-09 3.41944790832996e-09 1.86418286507434e-08 1.00337799664647e-07 2.09354999318564e-07 5.1793065367577e-08 7.27860036084514e-09 2.32869553325306e-09
"243" 26035 1.45460584130552e-09 3.44599617339083e-09 1.8825439998864e-08 1.00176090945275e-07 2.08173419534728e-07 5.13746350817454e-08 7.23166449602379e-09 2.31306450735466e-09
"244" 26036 1.44614832437074e-09 3.4725444384517e-09 1.90090513469846e-08 1.00014382225903e-07 2.06991839750893e-07 5.09562047959138e-08 7.18472863120244e-09 2.29743348145627e-09
"245" 26037 1.44202752515691e-09 3.46580437908247e-09 1.89860615087479e-08 9.98392885658551e-08 2.05972660296167e-07 5.06784681488835e-08 7.11680151217957e-09 2.28381517853639e-09
"246" 26038 1.44518274722293e-09 3.47002646027361e-09 1.90575869271318e-08 1.00075044372806e-07 2.05620694937255e-07 5.04405930851418e-08 7.07494987361301e-09 2.28381517853639e-09
"247" 26039 1.44833796928895e-09 3.47424854146475e-09 1.91291123455157e-08 1.00310800179757e-07 2.05268729578343e-07 5.02027180214001e-08 7.03309823504645e-09 2.28381517853639e-09
"248" 26040 1.45149319135498e-09 3.47847062265589e-09 1.92006377638996e-08 1.00546555986708e-07 2.04916764219431e-07 4.99648429576584e-08 6.99124659647989e-09 2.28381517853639e-09
"249" 26041 1.454648413421e-09 3.48269270384703e-09 1.92721631822835e-08 1.00782311793658e-07 2.04564798860519e-07 4.97269678939167e-08 6.94939495791332e-09 2.28381517853639e-09
"250" 26042 1.45780363548702e-09 3.48691478503817e-09 1.93436886006674e-08 1.01018067600609e-07 2.04212833501607e-07 4.9489092830175e-08 6.90754331934676e-09 2.28381517853639e-09
"251" 26043 1.46859221464505e-09 3.48219395072983e-09 1.93773348701066e-08 1.00839459722323e-07 2.04212833501607e-07 4.96679358863512e-08 6.93136714022916e-09 2.29868921950413e-09
"252" 26044 1.47938079380309e-09 3.47747311642148e-09 1.94109811395458e-08 1.00660851844037e-07 2.04212833501607e-07 4.98467789425274e-08 6.95519096111157e-09 2.31356326047187e-09
"253" 26045 1.48735020064953e-09 3.49532430681021e-09 1.95505015725487e-08 1.00790949198884e-07 2.04480432932402e-07 4.99290581202835e-08 6.97311699114514e-09 2.32723469492083e-09
"254" 26046 1.49531960749597e-09 3.51317549719895e-09 1.96900220055515e-08 1.00921046553731e-07 2.04748032363197e-07 5.00113372980397e-08 6.9910430211787e-09 2.34090612936978e-09
"255" 26047 1.50328901434241e-09 3.53102668758769e-09 1.98295424385544e-08 1.01051143908578e-07 2.05015631793992e-07 5.00936164757958e-08 7.00896905121227e-09 2.35457756381874e-09
"256" 26048 1.51125842118885e-09 3.54887787797642e-09 1.99690628715572e-08 1.01181241263425e-07 2.05283231224787e-07 5.0175895653552e-08 7.02689508124584e-09 2.36824899826769e-09
"257" 26049 1.5192278280353e-09 3.56672906836516e-09 2.01085833045601e-08 1.01311338618272e-07 2.05550830655582e-07 5.02581748313081e-08 7.04482111127941e-09 2.38192043271665e-09
"258" 26050 1.51808890449584e-09 3.57361811819353e-09 2.01348656730748e-08 1.0121204706255e-07 2.04983751478973e-07 5.01598987869743e-08 7.05766291505819e-09 2.38873329709257e-09
"259" 26051 1.51694998095639e-09 3.58050716802189e-09 2.01611480415895e-08 1.01112755506828e-07 2.04416672302364e-07 5.00616227426406e-08 7.07050471883697e-09 2.39554616146849e-09
"260" 26052 1.51581105741694e-09 3.58739621785026e-09 2.01874304101042e-08 1.01013463951106e-07 2.03849593125754e-07 4.99633466983068e-08 7.08334652261575e-09 2.40235902584441e-09
"261" 26053 1.51467213387748e-09 3.59428526767863e-09 2.02137127786189e-08 1.00914172395383e-07 2.03282513949145e-07 4.9865070653973e-08 7.09618832639453e-09 2.40917189022033e-09
"262" 26054 1.51353321033803e-09 3.601174317507e-09 2.02399951471336e-08 1.00814880839661e-07 2.02715434772535e-07 4.97667946096393e-08 7.10903013017331e-09 2.41598475459625e-09
"263" 26055 1.51239428679858e-09 3.60806336733536e-09 2.02662775156483e-08 1.00715589283939e-07 2.02148355595926e-07 4.96685185653055e-08 7.12187193395209e-09 2.42279761897216e-09
"264" 26056 1.51125536325912e-09 3.61495241716373e-09 2.0292559884163e-08 1.00616297728217e-07 2.01581276419316e-07 4.95702425209717e-08 7.13471373773088e-09 2.42961048334808e-09
"265" 26057 1.51922477010556e-09 3.63752444186081e-09 2.03306557997125e-08 1.00419811946455e-07 2.012733934826e-07 4.96025125070211e-08 7.15263976776444e-09 2.43631708466584e-09
"266" 26058 1.52719417695201e-09 3.6600964665579e-09 2.0368751715262e-08 1.00223326164694e-07 2.00965510545884e-07 4.96347824930705e-08 7.17056579779801e-09 2.44302368598359e-09
"267" 26059 1.53516358379845e-09 3.68266849125498e-09 2.04068476308116e-08 1.00026840382932e-07 2.00657627609168e-07 4.96670524791199e-08 7.18849182783158e-09 2.44973028730134e-09
"268" 26060 1.54313299064489e-09 3.70524051595206e-09 2.04449435463611e-08 9.98303546011708e-08 2.00349744672451e-07 4.96993224651693e-08 7.20641785786515e-09 2.45643688861909e-09
"269" 26061 1.55110239749133e-09 3.72781254064915e-09 2.04830394619106e-08 9.96338688194093e-08 2.00041861735735e-07 4.97315924512187e-08 7.22434388789872e-09 2.46314348993685e-09
"270" 26062 1.55907180433777e-09 3.75038456534623e-09 2.05211353774602e-08 9.94373830376477e-08 1.99733978799019e-07 4.97638624372681e-08 7.24226991793229e-09 2.4698500912546e-09
"271" 26063 1.56704121118422e-09 3.77295659004331e-09 2.05592312930097e-08 9.92408972558862e-08 1.99426095862303e-07 4.97961324233175e-08 7.26019594796585e-09 2.47655669257235e-09
"272" 26064 1.57501061803066e-09 3.79552861474039e-09 2.05973272085593e-08 9.90444114741247e-08 1.99118212925586e-07 4.98284024093668e-08 7.27812197799942e-09 2.4832632938901e-09
"273" 26065 1.58628730727703e-09 3.79030902731484e-09 2.06234791372588e-08 9.91303055349363e-08 1.99378865540349e-07 4.99610924187879e-08 7.29604800803299e-09 2.4832632938901e-09
"274" 26066 1.59356332855688e-09 3.80599200218355e-09 2.06453981864529e-08 9.91989519164598e-08 1.9965659125767e-07 5.00453732026738e-08 7.31712141622428e-09 2.49117250172664e-09
"275" 26067 1.60083934983672e-09 3.82167497705227e-09 2.0667317235647e-08 9.92675982979833e-08 1.9993431697499e-07 5.01296539865598e-08 7.33819482441558e-09 2.49908170956317e-09
"276" 26068 1.60811537111657e-09 3.83735795192098e-09 2.06892362848411e-08 9.93362446795068e-08 2.00212042692311e-07 5.02139347704458e-08 7.35926823260687e-09 2.50699091739971e-09
"277" 26069 1.61539139239642e-09 3.8530409267897e-09 2.07111553340352e-08 9.94048910610302e-08 2.00489768409631e-07 5.02982155543317e-08 7.38034164079817e-09 2.51490012523624e-09
"278" 26070 1.62266741367626e-09 3.86872390165841e-09 2.07330743832293e-08 9.94735374425537e-08 2.00767494126951e-07 5.03824963382177e-08 7.40141504898946e-09 2.52280933307278e-09
"279" 26071 1.62994343495611e-09 3.88440687652713e-09 2.07549934324234e-08 9.95421838240772e-08 2.01045219844272e-07 5.04667771221036e-08 7.42248845718075e-09 2.53071854090931e-09
"280" 26072 1.63721945623595e-09 3.90008985139585e-09 2.07769124816175e-08 9.96108302056007e-08 2.01322945561592e-07 5.05510579059896e-08 7.44356186537205e-09 2.53862774874584e-09
"281" 26073 1.6444954775158e-09 3.91577282626456e-09 2.07988315308115e-08 9.96794765871242e-08 2.01600671278913e-07 5.06353386898755e-08 7.46463527356334e-09 2.54653695658238e-09
"282" 26074 1.65177149879565e-09 3.93145580113328e-09 2.08207505800056e-08 9.97481229686476e-08 2.01878396996233e-07 5.07196194737615e-08 7.48570868175464e-09 2.55444616441891e-09
"283" 26075 1.65904752007549e-09 3.94713877600199e-09 2.08426696291997e-08 9.98167693501711e-08 2.02156122713554e-07 5.08039002576474e-08 7.50678208994593e-09 2.56235537225545e-09
"284" 26076 1.66632354135534e-09 3.96282175087071e-09 2.08645886783938e-08 9.98854157316946e-08 2.02433848430874e-07 5.08881810415334e-08 7.52785549813722e-09 2.57026458009198e-09
"285" 26077 1.67359956263519e-09 3.97850472573942e-09 2.08865077275879e-08 9.99540621132181e-08 2.02711574148194e-07 5.09724618254193e-08 7.54892890632852e-09 2.57817378792852e-09
"286" 26078 1.68087558391503e-09 3.99418770060814e-09 2.0908426776782e-08 1.00022708494742e-07 2.02989299865515e-07 5.10567426093053e-08 7.57000231451981e-09 2.58608299576505e-09
"287" 26079 1.68815160519488e-09 4.00987067547685e-09 2.09303458259761e-08 1.00091354876265e-07 2.03267025582835e-07 5.11410233931912e-08 7.5910757227111e-09 2.59399220360158e-09
"288" 26080 1.69542762647472e-09 4.02555365034557e-09 2.09522648751701e-08 1.00160001257789e-07 2.03544751300156e-07 5.12253041770772e-08 7.6121491309024e-09 2.60190141143812e-09
"289" 26081 1.72596105484278e-09 4.12608350834176e-09 2.11137434893116e-08 1.00219538612132e-07 2.0508278418174e-07 5.16833886325572e-08 7.62326201784249e-09 2.6031040179569e-09
"290" 26082 1.75649448321084e-09 4.22661336633795e-09 2.12752221034531e-08 1.00279075966476e-07 2.06620817063324e-07 5.21414730880373e-08 7.63437490478259e-09 2.60430662447568e-09
"291" 26083 1.75882554543409e-09 4.217763944651e-09 2.13188173472734e-08 1.00615556956685e-07 2.06933110048349e-07 5.21347733909515e-08 7.63162449209148e-09 2.61932234952097e-09
"292" 26084 1.76115660765735e-09 4.20891452296404e-09 2.13624125910937e-08 1.00952037946893e-07 2.07245403033375e-07 5.21280736938658e-08 7.62887407940037e-09 2.63433807456627e-09
"293" 26085 1.7634876698806e-09 4.20006510127708e-09 2.1406007834914e-08 1.01288518937102e-07 2.075576960184e-07 5.212137399678e-08 7.62612366670926e-09 2.64935379961156e-09
"294" 26086 1.76581873210386e-09 4.19121567959012e-09 2.14496030787344e-08 1.0162499992731e-07 2.07869989003426e-07 5.21146742996942e-08 7.62337325401815e-09 2.66436952465685e-09
"295" 26087 1.75306706956361e-09 4.14952826140617e-09 2.13038025778311e-08 1.0197234914619e-07 2.07926074110388e-07 5.21561009815884e-08 7.62866105557412e-09 2.67942067072153e-09
"296" 26088 1.74031540702335e-09 4.10784084322221e-09 2.11580020769279e-08 1.02319698365071e-07 2.07982159217351e-07 5.21975276634826e-08 7.63394885713009e-09 2.69447181678621e-09
"297" 26089 1.74664713721313e-09 4.10415215575852e-09 2.1215536320067e-08 1.02338283701477e-07 2.06339193954835e-07 5.16630670410768e-08 7.62805106628126e-09 2.71050275857561e-09
"298" 26090 1.75297886740292e-09 4.10046346829482e-09 2.12730705632061e-08 1.02356869037884e-07 2.0469622869232e-07 5.11286064186711e-08 7.62215327543242e-09 2.72653370036502e-09
"299" 26091 1.7593105975927e-09 4.09677478083113e-09 2.13306048063452e-08 1.02375454374291e-07 2.03053263429804e-07 5.05941457962653e-08 7.61625548458359e-09 2.74256464215442e-09
"300" 26092 1.76564232778248e-09 4.09308609336744e-09 2.13881390494843e-08 1.02394039710697e-07 2.01410298167289e-07 5.00596851738595e-08 7.61035769373475e-09 2.75859558394382e-09
"301" 26093 1.77197405797226e-09 4.08939740590374e-09 2.14456732926234e-08 1.02412625047104e-07 1.99767332904773e-07 4.95252245514538e-08 7.60445990288592e-09 2.77462652573322e-09
"302" 26094 1.77830578816204e-09 4.08570871844005e-09 2.15032075357625e-08 1.02431210383511e-07 1.98124367642258e-07 4.8990763929048e-08 7.59856211203708e-09 2.79065746752262e-09
"303" 26095 1.78463751835182e-09 4.08202003097635e-09 2.15607417789016e-08 1.02449795719918e-07 1.96481402379742e-07 4.84563033066423e-08 7.59266432118825e-09 2.80668840931202e-09
"304" 26096 1.7868058772123e-09 4.08718076519962e-09 2.16035090882472e-08 1.02253572880296e-07 1.95064217937485e-07 4.79218426842365e-08 7.60076069980709e-09 2.80895936410399e-09
"305" 26097 1.78646982745787e-09 4.08326002148244e-09 2.17411047097696e-08 1.01953863964946e-07 1.93200574882456e-07 4.73819843977785e-08 7.59479020349355e-09 2.81117718736688e-09
"306" 26098 1.78613377770345e-09 4.07933927776526e-09 2.1878700331292e-08 1.01654155049595e-07 1.91336931827426e-07 4.68421261113205e-08 7.58881970718001e-09 2.81339501062977e-09
"307" 26099 1.78579772794902e-09 4.07541853404808e-09 2.20162959528144e-08 1.01354446134245e-07 1.89473288772397e-07 4.63022678248624e-08 7.58284921086647e-09 2.81561283389266e-09
"308" 26100 1.78546167819459e-09 4.0714977903309e-09 2.21538915743369e-08 1.01054737218895e-07 1.87609645717368e-07 4.57624095384044e-08 7.57687871455292e-09 2.81783065715555e-09
"309" 26101 1.78463751835182e-09 4.06743848417277e-09 2.21019951621843e-08 9.89242392433996e-08 1.86290244299945e-07 4.56041473407587e-08 7.5820647284583e-09 2.81903326367433e-09
"310" 26102 1.78381335850906e-09 4.06337917801463e-09 2.20500987500318e-08 9.67937412679044e-08 1.84970842882523e-07 4.5445885143113e-08 7.58725074236368e-09 2.82023587019312e-09
"311" 26103 1.78130894989415e-09 4.05103848450723e-09 2.20730544374048e-08 9.65877604152429e-08 1.83725602376947e-07 4.54020014624598e-08 7.59118260292957e-09 2.82018273866403e-09
"312" 26104 1.77880454127925e-09 4.03869779099982e-09 2.20960101247778e-08 9.63817795625814e-08 1.82480361871371e-07 4.53581177818066e-08 7.59511446349546e-09 2.82012960713495e-09
"313" 26105 1.77630013266434e-09 4.02635709749242e-09 2.21189658121509e-08 9.61757987099199e-08 1.81235121365795e-07 4.53142341011533e-08 7.59904632406135e-09 2.82007647560587e-09
"314" 26106 1.77379572404944e-09 4.01401640398501e-09 2.21419214995239e-08 9.59698178572584e-08 1.79989880860219e-07 4.52703504205001e-08 7.60297818462724e-09 2.82002334407678e-09
"315" 26107 1.77129131543454e-09 4.0016757104776e-09 2.21648771868969e-08 9.57638370045969e-08 1.78744640354643e-07 4.52264667398469e-08 7.60691004519313e-09 2.8199702125477e-09
"316" 26108 1.76878690681963e-09 3.9893350169702e-09 2.218783287427e-08 9.55578561519354e-08 1.77499399849067e-07 4.51825830591936e-08 7.61084190575902e-09 2.81991708101862e-09
"317" 26109 1.76745335083079e-09 3.97929067340558e-09 2.20731929401206e-08 9.53190118558642e-08 1.77322725749003e-07 4.52223494285841e-08 7.61484647178962e-09 2.81764612622664e-09
"318" 26110 1.76611979484195e-09 3.96924632984096e-09 2.19585530059712e-08 9.50801675597931e-08 1.77146051648939e-07 4.52621157979746e-08 7.61885103782021e-09 2.81537517143467e-09
"319" 26111 1.7647862388531e-09 3.95920198627635e-09 2.18439130718218e-08 9.48413232637219e-08 1.76969377548875e-07 4.53018821673651e-08 7.62285560385081e-09 2.8131042166427e-09
"320" 26112 1.76345268286426e-09 3.94915764271173e-09 2.17292731376724e-08 9.46024789676508e-08 1.76792703448811e-07 4.53416485367557e-08 7.62686016988141e-09 2.81083326185073e-09
"321" 26113 1.76211912687542e-09 3.93911329914711e-09 2.1614633203523e-08 9.43636346715796e-08 1.76616029348747e-07 4.53814149061462e-08 7.630864735912e-09 2.80856230705875e-09
"322" 26114 1.76078557088658e-09 3.9290689555825e-09 2.14999932693736e-08 9.41247903755085e-08 1.76439355248684e-07 4.54211812755367e-08 7.6348693019426e-09 2.80629135226678e-09
"323" 26115 1.75945201489774e-09 3.91902461201788e-09 2.13853533352242e-08 9.38859460794373e-08 1.7626268114862e-07 4.54609476449272e-08 7.6388738679732e-09 2.80402039747481e-09
"324" 26116 1.75711030964561e-09 3.90691597476396e-09 2.12804195208881e-08 9.36540342494261e-08 1.74939789498596e-07 4.53927372612729e-08 7.64554160013726e-09 2.80272923840755e-09
"325" 26117 1.75476860439349e-09 3.89480733751004e-09 2.1175485706552e-08 9.34221224194148e-08 1.73616897848571e-07 4.53245268776185e-08 7.65220933230131e-09 2.8014380793403e-09
"326" 26118 1.75242689914136e-09 3.88269870025612e-09 2.10705518922158e-08 9.31902105894035e-08 1.72294006198547e-07 4.52563164939642e-08 7.65887706446537e-09 2.80014692027305e-09
"327" 26119 1.75008519388923e-09 3.87059006300219e-09 2.09656180778797e-08 9.29582987593922e-08 1.70971114548523e-07 4.51881061103099e-08 7.66554479662943e-09 2.79885576120579e-09
"328" 26120 1.74774348863711e-09 3.85848142574827e-09 2.08606842635436e-08 9.27263869293809e-08 1.69648222898499e-07 4.51198957266556e-08 7.67221252879349e-09 2.79756460213854e-09
"329" 26121 1.74540178338498e-09 3.84637278849435e-09 2.07557504492075e-08 9.24944750993697e-08 1.68325331248474e-07 4.50516853430013e-08 7.67888026095754e-09 2.79627344307129e-09
"330" 26122 1.74306007813286e-09 3.83426415124043e-09 2.06508166348713e-08 9.22625632693584e-08 1.6700243959845e-07 4.4983474959347e-08 7.6855479931216e-09 2.79498228400403e-09
"331" 26123 1.74071837288073e-09 3.82215551398651e-09 2.05458828205352e-08 9.20306514393471e-08 1.65679547948426e-07 4.49152645756927e-08 7.69221572528566e-09 2.79369112493678e-09
"332" 26124 1.73971022361745e-09 3.81846682652281e-09 2.05496169469235e-08 9.17904569319224e-08 1.65637116127418e-07 4.48909378726916e-08 7.69487889141912e-09 2.79443039935774e-09
"333" 26125 1.73987292698023e-09 3.80982524849729e-09 2.05234650182239e-08 9.16726426716096e-08 1.65538862802547e-07 4.49027071275255e-08 7.70355617714495e-09 2.79516967377871e-09
"334" 26126 1.74003563034301e-09 3.80118367047176e-09 2.04973130895243e-08 9.15548284112967e-08 1.65440609477675e-07 4.49144763823593e-08 7.71223346287077e-09 2.79590894819967e-09
"335" 26127 1.74019833370579e-09 3.79254209244623e-09 2.04711611608247e-08 9.14370141509838e-08 1.65342356152804e-07 4.49262456371932e-08 7.7209107485966e-09 2.79664822262063e-09
"336" 26128 1.74036103706856e-09 3.78390051442071e-09 2.04450092321251e-08 9.13191998906709e-08 1.65244102827932e-07 4.49380148920271e-08 7.72958803432243e-09 2.7973874970416e-09
"337" 26129 1.74052374043134e-09 3.77525893639518e-09 2.04188573034256e-08 9.12013856303581e-08 1.65145849503061e-07 4.4949784146861e-08 7.73826532004825e-09 2.79812677146256e-09
"338" 26130 1.74068644379412e-09 3.76661735836966e-09 2.0392705374726e-08 9.10835713700452e-08 1.65047596178189e-07 4.49615534016949e-08 7.74694260577408e-09 2.79886604588352e-09
"339" 26131 1.7408491471569e-09 3.75797578034413e-09 2.03665534460264e-08 9.09657571097323e-08 1.64949342853318e-07 4.49733226565288e-08 7.75561989149991e-09 2.79960532030449e-09
"340" 26132 1.74930666409168e-09 3.75797578034413e-09 2.03306953975135e-08 9.08369160185149e-08 1.64835207119223e-07 4.49731067499667e-08 7.75536324439483e-09 2.79960532030449e-09
"341" 26133 1.75776418102646e-09 3.77386659887428e-09 2.04839641511933e-08 9.11019939194738e-08 1.65261063551572e-07 4.53934651082741e-08 7.7799715476854e-09 2.80828922358137e-09
"342" 26134 1.76622169796124e-09 3.78975741740442e-09 2.06372329048732e-08 9.13670718204328e-08 1.65686919983921e-07 4.58138234665815e-08 7.80457985097597e-09 2.81697312685826e-09
"343" 26135 1.77467921489602e-09 3.80564823593457e-09 2.0790501658553e-08 9.16321497213918e-08 1.66112776416271e-07 4.6234181824889e-08 7.82918815426653e-09 2.82565703013514e-09
"344" 26136 1.7831367318308e-09 3.82153905446472e-09 2.09437704122328e-08 9.18972276223508e-08 1.6653863284862e-07 4.66545401831964e-08 7.8537964575571e-09 2.83434093341203e-09
"345" 26137 1.79159424876558e-09 3.83742987299486e-09 2.10970391659126e-08 9.21623055233098e-08 1.66964489280969e-07 4.70748985415038e-08 7.87840476084767e-09 2.84302483668892e-09
"346" 26138 1.80005176570035e-09 3.85332069152501e-09 2.12503079195924e-08 9.24273834242688e-08 1.67390345713318e-07 4.74952568998112e-08 7.90301306413824e-09 2.8517087399658e-09
"347" 26139 1.80850928263513e-09 3.86921151005516e-09 2.14035766732722e-08 9.26924613252278e-08 1.67816202145667e-07 4.79156152581186e-08 7.9276213674288e-09 2.86039264324269e-09
"348" 26140 1.81696679956991e-09 3.8851023285853e-09 2.15568454269521e-08 9.29575392261868e-08 1.68242058578017e-07 4.83359736164261e-08 7.95222967071937e-09 2.86907654651958e-09
"349" 26141 1.82542431650469e-09 3.90099314711545e-09 2.17101141806319e-08 9.32226171271458e-08 1.68667915010366e-07 4.87563319747335e-08 7.97683797400994e-09 2.87776044979646e-09
"350" 26142 1.83388183343947e-09 3.91688396564560e-09 2.18633829343117e-08 9.34876950281048e-08 1.69093771442715e-07 4.91766903330409e-08 8.00144627730051e-09 2.88644435307335e-09
"351" 26143 1.84233935037425e-09 3.93277478417574e-09 2.20166516879915e-08 9.37527729290638e-08 1.69519627875064e-07 4.95970486913483e-08 8.02605458059107e-09 2.89512825635023e-09
"352" 26144 1.85079686730903e-09 3.94866560270589e-09 2.21699204416713e-08 9.40178508300228e-08 1.69945484307413e-07 5.00174070496558e-08 8.05066288388164e-09 2.90381215962712e-09
"353" 26145 1.85925438424381e-09 3.97246718989087e-09 2.23589820239565e-08 9.43577959608888e-08 1.69968503602114e-07 5.03736053955786e-08 8.07326163361044e-09 2.91172136746366e-09
"354" 26146 1.86771190117859e-09 3.99626877707585e-09 2.25480436062416e-08 9.46977410917549e-08 1.69991522896814e-07 5.07298037415014e-08 8.09586038333924e-09 2.91963057530019e-09
"355" 26147 1.86455667911257e-09 4.01471221439432e-09 2.27423877501927e-08 9.49997622240401e-08 1.69968004848997e-07 5.0309534003431e-08 8.04877910758847e-09 2.90370589656895e-09
"356" 26148 1.86140145704654e-09 4.03315565171279e-09 2.29367318941438e-08 9.53017833563254e-08 1.69944486801179e-07 4.98892642653606e-08 8.00169783183771e-09 2.88778121783772e-09
"357" 26149 1.85824623498052e-09 4.05159908903127e-09 2.31310760380948e-08 9.56038044886107e-08 1.69920968753361e-07 4.94689945272902e-08 7.95461655608694e-09 2.87185653910649e-09
"358" 26150 1.8550910129145e-09 4.07004252634974e-09 2.33254201820459e-08 9.5905825620896e-08 1.69897450705544e-07 4.90487247892198e-08 7.90753528033618e-09 2.85593186037525e-09
"359" 26151 1.85193579084848e-09 4.08848596366821e-09 2.3519764325997e-08 9.62078467531813e-08 1.69873932657726e-07 4.86284550511494e-08 7.86045400458541e-09 2.84000718164402e-09
"360" 26152 1.84878056878246e-09 4.10692940098669e-09 2.37141084699481e-08 9.65098678854666e-08 1.69850414609908e-07 4.8208185313079e-08 7.81337272883465e-09 2.82408250291278e-09
"361" 26153 1.84562534671644e-09 4.12537283830516e-09 2.39084526138992e-08 9.68118890177518e-08 1.69826896562091e-07 4.77879155750086e-08 7.76629145308388e-09 2.80815782418155e-09
"362" 26154 1.84562534671644e-09 4.12297256653165e-09 2.3937570973339e-08 9.6807408609187e-08 1.70032996056851e-07 4.69825801565494e-08 7.70651378448375e-09 2.79223314545031e-09
"363" 26155 1.84562534671644e-09 4.12057229475815e-09 2.39666893327788e-08 9.68029282006221e-08 1.70239095551612e-07 4.61772447380902e-08 7.64673611588362e-09 2.77630846671908e-09
"364" 26156 1.83434865747007e-09 4.13460666326042e-09 2.40558537260061e-08 9.71143817719913e-08 1.69933711576574e-07 4.53385447141882e-08 7.57701246712524e-09 2.75243915913192e-09
"365" 26157 1.8230719682237e-09 4.14864103176269e-09 2.41450181192334e-08 9.74258353433606e-08 1.69628327601535e-07 4.44998446902862e-08 7.50728881836685e-09 2.72856985154476e-09
"366" 26158 1.81179527897732e-09 4.16267540026497e-09 2.42341825124607e-08 9.77372889147299e-08 1.69322943626496e-07 4.36611446663842e-08 7.43756516960846e-09 2.7047005439576e-09
"367" 26159 1.80051858973095e-09 4.17670976876724e-09 2.4323346905688e-08 9.80487424860991e-08 1.69017559651457e-07 4.28224446424821e-08 7.36784152085008e-09 2.68083123637045e-09
"368" 26160 1.80003047964261e-09 4.19487272464812e-09 2.4313875577542e-08 9.70585609689033e-08 1.69059191310204e-07 4.28158118853894e-08 7.34505373691304e-09 2.67778558613812e-09
"369" 26161 1.79954236955428e-09 4.213035680529e-09 2.43044042493959e-08 9.60683794517075e-08 1.6910082296895e-07 4.28091791282966e-08 7.322265952976e-09 2.6747399359058e-09
"370" 26162 1.79987841930871e-09 4.23119863640989e-09 2.43856146807109e-08 9.62129635933715e-08 1.68020175148926e-07 4.26436147736279e-08 7.32347648303666e-09 2.67546149981707e-09
"371" 26163 1.80021446906313e-09 4.24936159229077e-09 2.44668251120259e-08 9.63575477350355e-08 1.66939527328901e-07 4.24780504189592e-08 7.32468701309733e-09 2.67618306372833e-09
"372" 26164 1.80055051881756e-09 4.26752454817165e-09 2.45480355433409e-08 9.65021318766995e-08 1.65858879508877e-07 4.23124860642905e-08 7.32589754315799e-09 2.6769046276396e-09
"373" 26165 1.80088656857199e-09 4.28568750405254e-09 2.46292459746559e-08 9.66467160183635e-08 1.64778231688852e-07 4.21469217096217e-08 7.32710807321866e-09 2.67762619155087e-09
"374" 26166 1.80122261832642e-09 4.30385045993342e-09 2.4710456405971e-08 9.67913001600276e-08 1.63697583868828e-07 4.1981357354953e-08 7.32831860327932e-09 2.67834775546214e-09
"375" 26167 1.80155866808085e-09 4.3220134158143e-09 2.4791666837286e-08 9.69358843016916e-08 1.62616936048803e-07 4.18157930002843e-08 7.32952913333998e-09 2.67906931937341e-09
"376" 26168 1.80172137144362e-09 4.32005304395571e-09 2.47949935184276e-08 9.66775114253053e-08 1.61448468834886e-07 4.1677891060207e-08 7.32952913333998e-09 2.67881108755996e-09
"377" 26169 1.8018840748064e-09 4.31809267209712e-09 2.47983201995693e-08 9.64191385489191e-08 1.6028000162097e-07 4.15399891201298e-08 7.32952913333998e-09 2.67855285574651e-09
"378" 26170 1.80204677816918e-09 4.31613230023853e-09 2.4801646880711e-08 9.61607656725328e-08 1.59111534407053e-07 4.14020871800526e-08 7.32952913333998e-09 2.67829462393306e-09
"379" 26171 1.80220948153196e-09 4.31417192837994e-09 2.48049735618526e-08 9.59023927961465e-08 1.57943067193136e-07 4.12641852399753e-08 7.32952913333998e-09 2.67803639211961e-09
"380" 26172 1.80237218489474e-09 4.31221155652135e-09 2.48083002429943e-08 9.56440199197603e-08 1.5677459997922e-07 4.11262832998981e-08 7.32952913333998e-09 2.67777816030616e-09
"381" 26173 1.80253488825752e-09 4.31025118466276e-09 2.4811626924136e-08 9.5385647043374e-08 1.55606132765303e-07 4.09883813598209e-08 7.32952913333998e-09 2.67751992849271e-09
"382" 26174 1.8026975916203e-09 4.30829081280417e-09 2.48149536052776e-08 9.51272741669878e-08 1.54437665551386e-07 4.08504794197436e-08 7.32952913333998e-09 2.67726169667925e-09
"383" 26175 1.80286029498308e-09 4.30633044094559e-09 2.48182802864193e-08 9.48689012906015e-08 1.5326919833747e-07 4.07125774796664e-08 7.32952913333998e-09 2.6770034648658e-09
"384" 26176 1.80302299834586e-09 4.304370069087e-09 2.48216069675609e-08 9.46105284142153e-08 1.52100731123553e-07 4.05746755395891e-08 7.32952913333998e-09 2.67674523305235e-09
"385" 26177 1.81463573734666e-09 4.31799917828459e-09 2.50222050914494e-08 9.43726544932155e-08 1.51249587427971e-07 4.06157222617692e-08 7.32875919202476e-09 2.68541142581955e-09
"386" 26178 1.82624847634746e-09 4.33162828748219e-09 2.52228032153378e-08 9.41347805722158e-08 1.50398443732389e-07 4.06567689839492e-08 7.32798925070954e-09 2.69407761858674e-09
"387" 26179 1.83786121534826e-09 4.34525739667978e-09 2.54234013392263e-08 9.3896906651216e-08 1.49547300036807e-07 4.06978157061293e-08 7.32721930939431e-09 2.70274381135393e-09
"388" 26180 1.84947395434906e-09 4.35888650587738e-09 2.56239994631147e-08 9.36590327302163e-08 1.48696156341225e-07 4.07388624283093e-08 7.32644936807909e-09 2.71141000412112e-09
"389" 26181 1.86108669334986e-09 4.37251561507497e-09 2.58245975870031e-08 9.34211588092166e-08 1.47845012645642e-07 4.07799091504893e-08 7.32567942676387e-09 2.72007619688831e-09
"390" 26182 1.8683627146297e-09 4.38201613689396e-09 2.60038878295674e-08 9.334502694619e-08 1.47881735502962e-07 4.09762104650288e-08 7.30565659661088e-09 2.72497517551191e-09
"391" 26183 1.87417440564454e-09 4.39757097733991e-09 2.62071573537022e-08 9.32074796104929e-08 1.48368829307465e-07 4.11035650559907e-08 7.26384858132315e-09 2.71801034238071e-09
"392" 26184 1.88380277520538e-09 4.4124296490254e-09 2.63807054134279e-08 9.24678913694909e-08 1.48723329355664e-07 4.13084639669257e-08 7.25515675450438e-09 2.72471694369846e-09
"393" 26185 1.89343114476622e-09 4.42728832071089e-09 2.65542534731536e-08 9.1728303128489e-08 1.49077829403862e-07 4.15133628778608e-08 7.24646492768561e-09 2.73142354501621e-09
"394" 26186 1.90305951432706e-09 4.44214699239639e-09 2.67278015328792e-08 9.0988714887487e-08 1.4943232945206e-07 4.17182617887958e-08 7.23777310086684e-09 2.73813014633397e-09
"395" 26187 1.91268788388791e-09 4.45700566408188e-09 2.69013495926049e-08 9.0249126646485e-08 1.49786829500258e-07 4.19231606997309e-08 7.22908127404807e-09 2.74483674765172e-09
"396" 26188 1.92231625344875e-09 4.47186433576738e-09 2.70748976523306e-08 8.9509538405483e-08 1.50141329548457e-07 4.21280596106659e-08 7.2203894472293e-09 2.75154334896947e-09
"397" 26189 1.93194462300959e-09 4.48672300745287e-09 2.72484457120562e-08 8.87699501644811e-08 1.50495829596655e-07 4.2332958521601e-08 7.21169762041054e-09 2.75824995028722e-09
"398" 26190 1.94157299257043e-09 4.50158167913836e-09 2.74219937717819e-08 8.80303619234791e-08 1.50850329644853e-07 4.2537857432536e-08 7.20300579359177e-09 2.76495655160498e-09
"399" 26191 1.94804614006525e-09 4.53632119429166e-09 2.75065600540214e-08 8.73101248988861e-08 1.50874615244978e-07 4.26233902953065e-08 7.23006933175742e-09 2.76371852406681e-09
"400" 26192 1.94639782037972e-09 4.53535832866748e-09 2.74827453631297e-08 8.66193414393714e-08 1.51483586565778e-07 4.26357620100777e-08 7.22340159959336e-09 2.76552614676096e-09
"401" 26193 1.94474950069419e-09 4.53439546304331e-09 2.7458930672238e-08 8.59285579798567e-08 1.52092557886578e-07 4.26481337248488e-08 7.2167338674293e-09 2.76733376945512e-09
"402" 26194 1.94310118100866e-09 4.53343259741913e-09 2.74351159813464e-08 8.52377745203419e-08 1.52701529207378e-07 4.26605054396199e-08 7.21006613526524e-09 2.76914139214927e-09
"403" 26195 1.94145286132313e-09 4.53246973179496e-09 2.74113012904547e-08 8.45469910608272e-08 1.53310500528178e-07 4.2672877154391e-08 7.20339840310119e-09 2.77094901484343e-09
"404" 26196 1.9398045416376e-09 4.53150686617078e-09 2.7387486599563e-08 8.38562076013124e-08 1.53919471848978e-07 4.26852488691622e-08 7.19673067093713e-09 2.77275663753758e-09
"405" 26197 1.93815622195207e-09 4.53054400054661e-09 2.73636719086713e-08 8.31654241417977e-08 1.54528443169778e-07 4.26976205839333e-08 7.19006293877307e-09 2.77456426023173e-09
"406" 26198 1.93650790226654e-09 4.52958113492243e-09 2.73398572177796e-08 8.24746406822829e-08 1.55137414490577e-07 4.27099922987044e-08 7.18339520660902e-09 2.77637188292589e-09
"407" 26199 1.93485958258101e-09 4.52861826929826e-09 2.73160425268879e-08 8.17838572227682e-08 1.55746385811377e-07 4.27223640134756e-08 7.17672747444496e-09 2.77817950562004e-09
"408" 26200 1.93321126289548e-09 4.52765540367408e-09 2.72922278359963e-08 8.10930737632535e-08 1.56355357132177e-07 4.27347357282467e-08 7.1700597422809e-09 2.7799871283142e-09
"409" 26201 1.93156294320995e-09 4.5266925380499e-09 2.72684131451046e-08 8.04022903037387e-08 1.56964328452977e-07 4.27471074430178e-08 7.16339201011684e-09 2.78179475100835e-09
"410" 26202 1.92991462352442e-09 4.52572967242573e-09 2.72445984542129e-08 7.9711506844224e-08 1.57573299773777e-07 4.27594791577889e-08 7.15672427795279e-09 2.78360237370251e-09
"411" 26203 1.92826630383889e-09 4.52476680680155e-09 2.72207837633212e-08 7.90207233847092e-08 1.58182271094577e-07 4.27718508725601e-08 7.15005654578873e-09 2.78540999639666e-09
"412" 26204 1.92280130560735e-09 4.52070750064342e-09 2.72169452850808e-08 7.90402603345143e-08 1.5751143775975e-07 4.24479206134256e-08 7.15232274645557e-09 2.78324530466286e-09
"413" 26205 1.91733630737582e-09 4.51664819448529e-09 2.72131068068405e-08 7.90597972843194e-08 1.56840604424924e-07 4.21239903542911e-08 7.15458894712241e-09 2.78108061292905e-09
"414" 26206 1.91187130914428e-09 4.51258888832716e-09 2.72092683286001e-08 7.90793342341245e-08 1.56169771090098e-07 4.18000600951567e-08 7.15685514778926e-09 2.77891592119524e-09
"415" 26207 1.90640631091274e-09 4.50852958216902e-09 2.72054298503597e-08 7.90988711839295e-08 1.55498937755271e-07 4.14761298360222e-08 7.1591213484561e-09 2.77675122946144e-09
"416" 26208 1.9009413126812e-09 4.50447027601089e-09 2.72015913721193e-08 7.91184081337346e-08 1.54828104420445e-07 4.11521995768878e-08 7.16138754912295e-09 2.77458653772763e-09
"417" 26209 1.89547631444967e-09 4.50041096985276e-09 2.71977528938789e-08 7.91379450835397e-08 1.54157271085618e-07 4.08282693177533e-08 7.16365374978979e-09 2.77242184599382e-09
"418" 26210 1.89564966084132e-09 4.49811461990997e-09 2.71461906441648e-08 7.87936426456888e-08 1.54841058491654e-07 4.07960879519409e-08 7.16591995045663e-09 2.77620677064711e-09
"419" 26211 1.89582300723296e-09 4.49581826996718e-09 2.70946283944507e-08 7.8449340207838e-08 1.5552484589769e-07 4.07639065861286e-08 7.16818615112348e-09 2.7799916953004e-09
"420" 26212 1.89599635362461e-09 4.49352192002439e-09 2.70430661447366e-08 7.81050377699871e-08 1.56208633303726e-07 4.07317252203162e-08 7.17045235179032e-09 2.78377661995369e-09
"421" 26213 1.89583365026183e-09 4.49341799819367e-09 2.69952380214107e-08 7.78087742336212e-08 1.57729748463807e-07 4.0793993927052e-08 7.17665041302305e-09 2.78377661995369e-09
"422" 26214 1.89567094689906e-09 4.49331407636296e-09 2.69474098980849e-08 7.75125106972552e-08 1.59250863623887e-07 4.08562626337878e-08 7.18284847425579e-09 2.78377661995369e-09
"423" 26215 1.89550824353628e-09 4.49101772642017e-09 2.69086767267024e-08 7.71486713095993e-08 1.59702546996287e-07 4.0871158287311e-08 7.18686758137933e-09 2.78377661995369e-09
"424" 26216 1.8953455401735e-09 4.48872137647738e-09 2.68699435553199e-08 7.67848319219434e-08 1.60154230368686e-07 4.08860539408342e-08 7.19088668850287e-09 2.78377661995369e-09
"425" 26217 1.89518283681072e-09 4.48642502653459e-09 2.68312103839374e-08 7.64209925342874e-08 1.60605913741086e-07 4.09009495943574e-08 7.1949057956264e-09 2.78377661995369e-09
"426" 26218 1.89401198418466e-09 4.48010401104391e-09 2.68562132597053e-08 7.62652145899958e-08 1.61118251806685e-07 4.08428198791283e-08 7.19794193760847e-09 2.78401714125744e-09
"427" 26219 1.89284113155859e-09 4.47378299555322e-09 2.68812161354732e-08 7.61094366457042e-08 1.61630589872284e-07 4.07846901638992e-08 7.20097807959054e-09 2.7842576625612e-09
"428" 26220 1.89167027893253e-09 4.46746198006254e-09 2.69062190112411e-08 7.59536587014126e-08 1.62142927937883e-07 4.07265604486701e-08 7.2040142215726e-09 2.78449818386496e-09
"429" 26221 1.89049942630647e-09 4.46114096457185e-09 2.6931221887009e-08 7.5797880757121e-08 1.62655266003482e-07 4.0668430733441e-08 7.20705036355467e-09 2.78473870516871e-09
"430" 26222 1.8893285736804e-09 4.45481994908117e-09 2.69562247627769e-08 7.56421028128294e-08 1.63167604069081e-07 4.06103010182119e-08 7.21008650553674e-09 2.78497922647247e-09
"431" 26223 1.88815772105434e-09 4.44849893359049e-09 2.69812276385448e-08 7.54863248685378e-08 1.6367994213468e-07 4.05521713029828e-08 7.2131226475188e-09 2.78521974777623e-09
"432" 26224 1.88698686842828e-09 4.4421779180998e-09 2.70062305143127e-08 7.53305469242462e-08 1.64192280200279e-07 4.04940415877537e-08 7.21615878950087e-09 2.78546026907998e-09
"433" 26225 1.88334353627392e-09 4.42213429959899e-09 2.70063609541278e-08 7.52024633435411e-08 1.64292920107911e-07 4.05552024877741e-08 7.20800933907813e-09 2.78348296712085e-09
"434" 26226 1.87970020411956e-09 4.40209068109819e-09 2.70064913939429e-08 7.50743797628359e-08 1.64393560015542e-07 4.06163633877945e-08 7.1998598886554e-09 2.78150566516171e-09
"435" 26227 1.87722772459127e-09 4.39112854053782e-09 2.6987885981909e-08 7.49040378229833e-08 1.64215736145844e-07 4.0663565794194e-08 7.18867429625059e-09 2.77954607371228e-09
"436" 26228 1.87475524506297e-09 4.38016639997745e-09 2.6969280569875e-08 7.47336958831306e-08 1.64037912276147e-07 4.07107682005936e-08 7.17748870384579e-09 2.77758648226284e-09
"437" 26229 1.87228276553468e-09 4.36920425941708e-09 2.69506751578411e-08 7.45633539432779e-08 1.63860088406449e-07 4.07579706069932e-08 7.16630311144099e-09 2.7756268908134e-09
"438" 26230 1.86981028600638e-09 4.35824211885671e-09 2.69320697458072e-08 7.43930120034252e-08 1.63682264536751e-07 4.08051730133928e-08 7.15511751903618e-09 2.77366729936396e-09
"439" 26231 1.86733780647809e-09 4.34727997829635e-09 2.69134643337732e-08 7.42226700635726e-08 1.63504440667053e-07 4.08523754197924e-08 7.14393192663138e-09 2.77170770791452e-09
"440" 26232 1.86486532694979e-09 4.33631783773598e-09 2.68948589217393e-08 7.40523281237199e-08 1.63326616797355e-07 4.08995778261919e-08 7.13274633422658e-09 2.76974811646508e-09
"441" 26233 1.8623928474215e-09 4.32535569717561e-09 2.68762535097054e-08 7.38819861838672e-08 1.63148792927658e-07 4.09467802325915e-08 7.12156074182177e-09 2.76778852501564e-09
"442" 26234 1.8599203678932e-09 4.31439355661524e-09 2.68576480976714e-08 7.37116442440146e-08 1.6297096905796e-07 4.09939826389911e-08 7.11037514941697e-09 2.7658289335662e-09
"443" 26235 1.85661308549327e-09 4.29461663497816e-09 2.6833031560268e-08 7.36117078871771e-08 1.62710391016069e-07 4.09918386599532e-08 7.09846323897577e-09 2.76588206509528e-09
"444" 26236 1.85330580309334e-09 4.27483971334107e-09 2.68084150228646e-08 7.35117715303396e-08 1.62449812974179e-07 4.09896946809153e-08 7.08655132853457e-09 2.76593519662437e-09
"445" 26237 1.84999852069341e-09 4.25506279170398e-09 2.67837984854611e-08 7.34118351735022e-08 1.62189234932288e-07 4.09875507018774e-08 7.07463941809336e-09 2.76598832815345e-09
"446" 26238 1.84669123829348e-09 4.23528587006690e-09 2.67591819480577e-08 7.33118988166647e-08 1.61928656890398e-07 4.09854067228395e-08 7.06272750765216e-09 2.76604145968253e-09
"447" 26239 1.84338395589355e-09 4.21550894842981e-09 2.67345654106542e-08 7.32119624598272e-08 1.61668078848507e-07 4.09832627438016e-08 7.05081559721096e-09 2.76609459121162e-09
"448" 26240 1.84007667349362e-09 4.19573202679272e-09 2.67099488732508e-08 7.31120261029898e-08 1.61407500806617e-07 4.09811187647637e-08 7.03890368676976e-09 2.7661477227407e-09
"449" 26241 1.83676939109369e-09 4.17595510515564e-09 2.66853323358474e-08 7.30120897461523e-08 1.61146922764726e-07 4.09789747857258e-08 7.02699177632856e-09 2.76620085426978e-09
"450" 26242 1.83043766090391e-09 4.17402937390729e-09 2.66793212104779e-08 7.2931957466005e-08 1.60762838823122e-07 4.09372652572765e-08 6.98500926792552e-09 2.75244086727235e-09
"451" 26243 1.82410593071413e-09 4.17210364265893e-09 2.66733100851084e-08 7.28518251858577e-08 1.60378754881517e-07 4.08955557288272e-08 6.94302675952249e-09 2.73868088027493e-09
"452" 26244 1.81777420052434e-09 4.17017791141058e-09 2.66672989597389e-08 7.27716929057104e-08 1.59994670939913e-07 4.08538462003779e-08 6.90104425111945e-09 2.7249208932775e-09
"453" 26245 1.81144247033456e-09 4.16825218016223e-09 2.66612878343694e-08 7.26915606255631e-08 1.59610586998308e-07 4.08121366719286e-08 6.85906174271642e-09 2.71116090628007e-09
"454" 26246 1.80511074014478e-09 4.16632644891388e-09 2.66552767089998e-08 7.26114283454158e-08 1.59226503056703e-07 4.07704271434793e-08 6.81707923431338e-09 2.69740091928264e-09
"455" 26247 1.798779009955e-09 4.16440071766553e-09 2.66492655836303e-08 7.25312960652685e-08 1.58842419115099e-07 4.07287176150299e-08 6.77509672591034e-09 2.68364093228522e-09
"456" 26248 1.79244727976522e-09 4.16247498641718e-09 2.66432544582608e-08 7.24511637851212e-08 1.58458335173494e-07 4.06870080865806e-08 6.73311421750731e-09 2.66988094528779e-09
"457" 26249 1.78594220318379e-09 4.16028255830511e-09 2.66432544582608e-08 7.23136164494241e-08 1.58308747044378e-07 4.07266990230561e-08 6.72096964957904e-09 2.66004014118924e-09
"458" 26250 1.77943712660236e-09 4.15809013019303e-09 2.66432544582608e-08 7.2176069113727e-08 1.58159158915261e-07 4.07663899595315e-08 6.70882508165078e-09 2.65019933709069e-09
"459" 26251 1.77293205002093e-09 4.15589770208096e-09 2.66432544582608e-08 7.20385217780299e-08 1.58009570786144e-07 4.0806080896007e-08 6.69668051372251e-09 2.64035853299214e-09
"460" 26252 1.79033519397882e-09 4.16952681127855e-09 2.66460041223962e-08 7.19269409203356e-08 1.57487373154773e-07 4.14147067663075e-08 6.92577250250007e-09 2.68030448806582e-09
"461" 26253 1.80773833793672e-09 4.18315592047615e-09 2.66487537865316e-08 7.18153600626413e-08 1.56965175523403e-07 4.20233326366081e-08 7.15486449127763e-09 2.72025044313949e-09
"462" 26254 1.82514148189461e-09 4.19678502967375e-09 2.6651503450667e-08 7.17037792049469e-08 1.56442977892032e-07 4.26319585069086e-08 7.38395648005518e-09 2.76019639821317e-09
"463" 26255 1.84254462585251e-09 4.21041413887134e-09 2.66542531148024e-08 7.15921983472526e-08 1.55920780260662e-07 4.32405843772091e-08 7.61304846883274e-09 2.80014235328685e-09
"464" 26256 1.8599477698104e-09 4.22404324806894e-09 2.66570027789378e-08 7.14806174895582e-08 1.55398582629291e-07 4.38492102475097e-08 7.8421404576103e-09 2.84008830836052e-09
"465" 26257 1.8773509137683e-09 4.23767235726653e-09 2.66597524430732e-08 7.13690366318639e-08 1.5487638499792e-07 4.44578361178102e-08 8.07123244638785e-09 2.8800342634342e-09
"466" 26258 1.89475405772619e-09 4.25130146646413e-09 2.66625021072086e-08 7.12574557741696e-08 1.5435418736655e-07 4.50664619881107e-08 8.30032443516541e-09 2.91998021850788e-09
"467" 26259 1.91215720168409e-09 4.26493057566172e-09 2.6665251771344e-08 7.11458749164752e-08 1.53831989735179e-07 4.56750878584113e-08 8.52941642394297e-09 2.95992617358155e-09
"468" 26260 1.92956034564198e-09 4.27855968485932e-09 2.66680014354794e-08 7.10342940587809e-08 1.53309792103808e-07 4.62837137287118e-08 8.75850841272053e-09 2.99987212865523e-09
"469" 26261 1.94696348959988e-09 4.29218879405692e-09 2.66707510996148e-08 7.09227132010865e-08 1.52787594472438e-07 4.68923395990124e-08 8.98760040149808e-09 3.03981808372891e-09
"470" 26262 1.96436663355777e-09 4.30581790325451e-09 2.66735007637502e-08 7.08111323433922e-08 1.52265396841067e-07 4.75009654693129e-08 9.21669239027564e-09 3.07976403880258e-09
"471" 26263 1.98176977751567e-09 4.31944701245211e-09 2.66762504278856e-08 7.06995514856978e-08 1.51743199209696e-07 4.81095913396134e-08 9.4457843790532e-09 3.11970999387626e-09
"472" 26264 1.99917292147356e-09 4.3330761216497e-09 2.6679000092021e-08 7.05879706280035e-08 1.51221001578326e-07 4.8718217209914e-08 9.67487636783075e-09 3.15965594894994e-09
"473" 26265 2.01657606543146e-09 4.3467052308473e-09 2.66817497561564e-08 7.04763897703091e-08 1.50698803946955e-07 4.93268430802145e-08 9.90396835660831e-09 3.19960190402361e-09
"474" 26266 2.03397920938935e-09 4.36033434004489e-09 2.66844994202917e-08 7.03648089126148e-08 1.50176606315585e-07 4.9935468950515e-08 1.01330603453859e-08 3.23954785909729e-09
"475" 26267 2.05138235334725e-09 4.37396344924249e-09 2.66872490844271e-08 7.02532280549205e-08 1.49654408684214e-07 5.05440948208156e-08 1.03621523341634e-08 3.27949381417097e-09
"476" 26268 2.06878549730515e-09 4.38759255844008e-09 2.66899987485625e-08 7.01416471972261e-08 1.49132211052843e-07 5.11527206911161e-08 1.0591244322941e-08 3.31943976924464e-09
"477" 26269 2.08618864126304e-09 4.40122166763768e-09 2.66927484126979e-08 7.00300663395318e-08 1.48610013421473e-07 5.17613465614167e-08 1.08203363117185e-08 3.35938572431832e-09
"478" 26270 2.10775515655024e-09 4.4160110581027e-09 2.66595356764684e-08 6.99243807562649e-08 1.48126227054655e-07 5.23210210925769e-08 1.10854693947715e-08 3.41510438936795e-09
"479" 26271 2.13166337708957e-09 4.43160053915888e-09 2.66526444406981e-08 6.99633377617331e-08 1.47664462476304e-07 5.29675003463752e-08 1.13545343383903e-08 3.47084076492727e-09
"480" 26272 2.16262864247188e-09 4.49179731932611e-09 2.67844717914188e-08 7.0594220769602e-08 1.47324771719004e-07 5.29180134872907e-08 1.13703104965006e-08 3.49889491305872e-09
"481" 26273 2.19359390785419e-09 4.55199409949333e-09 2.69162991421396e-08 7.12251037774708e-08 1.46985080961704e-07 5.28685266282062e-08 1.13860866546108e-08 3.52694906119017e-09
"482" 26274 2.19593561310632e-09 4.55026578388822e-09 2.69320685632484e-08 7.13799572395271e-08 1.47613692684301e-07 5.27474870802159e-08 1.1386856595926e-08 3.52700219271926e-09
"483" 26275 2.19827731835844e-09 4.54853746828312e-09 2.69478379843572e-08 7.15348107015833e-08 1.48242304406899e-07 5.26264475322257e-08 1.13876265372413e-08 3.52705532424834e-09
"484" 26276 2.20061902361057e-09 4.54680915267801e-09 2.6963607405466e-08 7.16896641636396e-08 1.48870916129496e-07 5.25054079842355e-08 1.13883964785565e-08 3.52710845577742e-09
"485" 26277 2.19645565228126e-09 4.52864619679713e-09 2.69074389818635e-08 7.14843761669813e-08 1.49163367211878e-07 5.25183086252899e-08 1.13831377591864e-08 3.52535396461235e-09
"486" 26278 2.19229228095196e-09 4.51048324091625e-09 2.68512705582609e-08 7.12790881703231e-08 1.4945581829426e-07 5.25312092663442e-08 1.13778790398163e-08 3.52359947344728e-09
"487" 26279 2.18812890962265e-09 4.49232028503537e-09 2.67951021346583e-08 7.10738001736648e-08 1.49748269376642e-07 5.25441099073986e-08 1.13726203204462e-08 3.52184498228221e-09
"488" 26280 2.18396553829335e-09 4.47415732915448e-09 2.67389337110557e-08 7.08685121770066e-08 1.50040720459023e-07 5.2557010548453e-08 1.13673616010761e-08 3.52009049111714e-09
"489" 26281 2.17980216696404e-09 4.4559943732736e-09 2.66827652874531e-08 7.06632241803483e-08 1.50333171541405e-07 5.25699111895073e-08 1.13621028817061e-08 3.51833599995206e-09
"490" 26282 2.17563879563474e-09 4.43783141739272e-09 2.66265968638505e-08 7.045793618369e-08 1.50625622623787e-07 5.25828118305617e-08 1.1356844162336e-08 3.51658150878699e-09
"491" 26283 2.1653170405073e-09 4.42768315199739e-09 2.65427280762707e-08 7.03610862932798e-08 1.51631101633548e-07 5.20819213279778e-08 1.12938994819173e-08 3.49857326503846e-09
"492" 26284 2.15499528537986e-09 4.41753488660205e-09 2.64588592886909e-08 7.02642364028696e-08 1.52636580643309e-07 5.15810308253939e-08 1.12309548014986e-08 3.48056502128992e-09
"493" 26285 2.14216912163752e-09 4.40542624934813e-09 2.64588592886909e-08 7.10828405009493e-08 1.55215908046886e-07 5.1087338773013e-08 1.11692206511406e-08 3.46052634405317e-09
"494" 26286 2.12934295789518e-09 4.39331761209421e-09 2.64588592886909e-08 7.19014445990291e-08 1.57795235450464e-07 5.05936467206321e-08 1.11074865007826e-08 3.44048766681642e-09
"495" 26287 2.11651679415284e-09 4.38120897484029e-09 2.64588592886909e-08 7.27200486971088e-08 1.60374562854042e-07 5.00999546682512e-08 1.10457523504246e-08 3.42044898957967e-09
"496" 26288 2.1036906304105e-09 4.36910033758637e-09 2.64588592886909e-08 7.35386527951886e-08 1.62953890257619e-07 4.96062626158703e-08 1.09840182000666e-08 3.40041031234292e-09
"497" 26289 2.09086446666815e-09 4.35699170033244e-09 2.64588592886909e-08 7.43572568932683e-08 1.65533217661197e-07 4.91125705634894e-08 1.09222840497086e-08 3.38037163510617e-09
"498" 26290 2.07803830292581e-09 4.34488306307852e-09 2.64588592886909e-08 7.51758609913481e-08 1.68112545064774e-07 4.86188785111085e-08 1.08605498993506e-08 3.36033295786942e-09
"499" 26291 2.06521213918347e-09 4.3327744258246e-09 2.64588592886909e-08 7.59944650894278e-08 1.70691872468352e-07 4.81251864587276e-08 1.07988157489926e-08 3.34029428063266e-09
"500" 26292 2.05238597544113e-09 4.32066578857068e-09 2.64588592886909e-08 7.68130691875076e-08 1.73271199871929e-07 4.76314944063467e-08 1.07370815986346e-08 3.32025560339591e-09
"501" 26293 2.03955981169878e-09 4.30855715131676e-09 2.64588592886909e-08 7.76316732855873e-08 1.75850527275507e-07 4.71378023539658e-08 1.06753474482766e-08 3.30021692615916e-09
"502" 26294 2.0310703656774e-09 4.30855715131676e-09 2.63679949134886e-08 7.77599300454535e-08 1.76478498373771e-07 4.68119374286945e-08 1.06536298760386e-08 3.28220868241063e-09
"503" 26295 2.02258091965601e-09 4.30855715131676e-09 2.62771305382864e-08 7.78881868053198e-08 1.77106469472035e-07 4.64860725034233e-08 1.06319123038007e-08 3.26420043866209e-09
"504" 26296 2.01409147363462e-09 4.30855715131676e-09 2.61862661630841e-08 7.8016443565186e-08 1.77734440570298e-07 4.6160207578152e-08 1.06101947315628e-08 3.24619219491356e-09
"505" 26297 2.00560202761323e-09 4.30855715131676e-09 2.60954017878819e-08 7.81447003250522e-08 1.78362411668562e-07 4.58343426528808e-08 1.05884771593249e-08 3.22818395116502e-09
"506" 26298 1.99711258159184e-09 4.30855715131676e-09 2.60045374126796e-08 7.82729570849185e-08 1.78990382766826e-07 4.55084777276095e-08 1.0566759587087e-08 3.21017570741649e-09
"507" 26299 2.00027844668673e-09 4.31457682933348e-09 2.60133112461661e-08 7.86759141029687e-08 1.79679240590653e-07 4.57277886255336e-08 1.06080157774536e-08 3.21244666220846e-09
"508" 26300 1.99794738446348e-09 4.32588537599623e-09 2.60183639972457e-08 7.89388216502459e-08 1.80440342004384e-07 4.56969328722598e-08 1.06299899967966e-08 3.20843892676111e-09
"509" 26301 1.99561632224022e-09 4.33719392265899e-09 2.60234167483253e-08 7.92017291975231e-08 1.81201443418115e-07 4.5666077118986e-08 1.06519642161396e-08 3.20443119131376e-09
"510" 26302 1.99328526001696e-09 4.34850246932174e-09 2.60284694994049e-08 7.94646367448002e-08 1.81962544831846e-07 4.56352213657121e-08 1.06739384354826e-08 3.20042345586641e-09
"511" 26303 1.99095419779371e-09 4.35981101598449e-09 2.60335222504845e-08 7.97275442920774e-08 1.82723646245577e-07 4.56043656124383e-08 1.06959126548256e-08 3.19641572041906e-09
"512" 26304 1.98862313557045e-09 4.37111956264725e-09 2.60385750015642e-08 7.99904518393546e-08 1.83484747659308e-07 4.55735098591645e-08 1.07178868741686e-08 3.19240798497171e-09
"513" 26305 1.99262380353698e-09 4.38319355929093e-09 2.60473488350506e-08 8.03827764397104e-08 1.84235183109696e-07 4.56402475629723e-08 1.07479574721304e-08 3.19369914403897e-09
"514" 26306 1.9966244715035e-09 4.39526755593461e-09 2.6056122668537e-08 8.07751010400663e-08 1.84985618560085e-07 4.570698526678e-08 1.07780280700922e-08 3.19499030310622e-09
"515" 26307 2.00062513947003e-09 4.4073415525783e-09 2.60648965020234e-08 8.11674256404222e-08 1.85736054010473e-07 4.57737229705877e-08 1.08080986680541e-08 3.19628146217347e-09
"516" 26308 2.00462580743656e-09 4.41941554922198e-09 2.60736703355098e-08 8.1559750240778e-08 1.86486489460861e-07 4.58404606743955e-08 1.08381692660159e-08 3.19757262124073e-09
"517" 26309 2.00679416629703e-09 4.4282303302987e-09 2.60736833794913e-08 8.16664604614423e-08 1.86601008451501e-07 4.59542301377897e-08 1.08899574362157e-08 3.21262376730541e-09
"518" 26310 2.00728227638537e-09 4.42796363343498e-09 2.60774566378241e-08 8.17055948308165e-08 1.86609333951875e-07 4.58180337699652e-08 1.08867228115003e-08 3.21783410927154e-09
"519" 26311 2.00777038647371e-09 4.42769693657125e-09 2.6081229896157e-08 8.17447292001908e-08 1.8661765945225e-07 4.56818374021407e-08 1.08834881867849e-08 3.22304445123767e-09
"520" 26312 2.00825849656204e-09 4.42743023970753e-09 2.60850031544898e-08 8.17838635695651e-08 1.86625984952625e-07 4.55456410343162e-08 1.08802535620695e-08 3.2282547932038e-09
"521" 26313 2.00874660665038e-09 4.42716354284381e-09 2.60887764128226e-08 8.18229979389393e-08 1.86634310452999e-07 4.54094446664917e-08 1.08770189373542e-08 3.23346513516993e-09
"522" 26314 2.00923471673872e-09 4.42689684598008e-09 2.60925496711555e-08 8.18621323083136e-08 1.86642635953374e-07 4.52732482986672e-08 1.08737843126388e-08 3.23867547713607e-09
"523" 26315 2.00972282682706e-09 4.42663014911636e-09 2.60963229294883e-08 8.19012666776878e-08 1.86650961453749e-07 4.51370519308426e-08 1.08705496879234e-08 3.2438858191022e-09
"524" 26316 2.01021093691539e-09 4.42636345225264e-09 2.61000961878211e-08 8.19404010470621e-08 1.86659286954123e-07 4.50008555630181e-08 1.0867315063208e-08 3.24909616106833e-09
"525" 26317 2.01069904700373e-09 4.42609675538892e-09 2.61038694461539e-08 8.19795354164364e-08 1.86667612454498e-07 4.48646591951936e-08 1.08640804384927e-08 3.25430650303446e-09
"526" 26318 2.01118715709207e-09 4.42583005852519e-09 2.61076427044868e-08 8.20186697858106e-08 1.86675937954873e-07 4.47284628273691e-08 1.08608458137773e-08 3.25951684500059e-09
"527" 26319 2.0116752671804e-09 4.42556336166147e-09 2.61114159628196e-08 8.20578041551849e-08 1.86684263455247e-07 4.45922664595446e-08 1.08576111890619e-08 3.26472718696672e-09
"528" 26320 2.01216337726874e-09 4.42529666479775e-09 2.61151892211524e-08 8.20969385245592e-08 1.86692588955622e-07 4.44560700917201e-08 1.08543765643465e-08 3.26993752893286e-09
"529" 26321 2.01181668448544e-09 4.34418689431807e-09 2.5963181935157e-08 8.19886590205442e-08 1.86554164503747e-07 4.4472714677984e-08 1.08630683911653e-08 3.27390984336082e-09
"530" 26322 2.01146999170215e-09 4.26307712383839e-09 2.58111746491617e-08 8.18803795165293e-08 1.86415740051872e-07 4.44893592642479e-08 1.08717602179841e-08 3.27788215778878e-09
"531" 26323 1.99946798780257e-09 4.25675610834771e-09 2.57949325628987e-08 8.18935829085537e-08 1.86289707776618e-07 4.44614507699283e-08 1.08646758866926e-08 3.27179085732413e-09
"532" 26324 1.98746598390299e-09 4.25043509285702e-09 2.57786904766357e-08 8.19067863005782e-08 1.86163675501364e-07 4.44335422756087e-08 1.08575915554011e-08 3.26569955685948e-09
"533" 26325 1.97546398000341e-09 4.24411407736634e-09 2.57624483903726e-08 8.19199896926027e-08 1.8603764322611e-07 4.44056337812891e-08 1.08505072241096e-08 3.25960825639483e-09
"534" 26326 1.96346197610384e-09 4.23779306187566e-09 2.57462063041096e-08 8.19331930846272e-08 1.85911610950857e-07 4.43777252869695e-08 1.08434228928181e-08 3.25351695593018e-09
"535" 26327 1.95145997220426e-09 4.23147204638497e-09 2.57299642178466e-08 8.19463964766517e-08 1.85785578675603e-07 4.43498167926499e-08 1.08363385615266e-08 3.24742565546553e-09
"536" 26328 1.93945796830468e-09 4.22515103089429e-09 2.57137221315836e-08 8.19595998686761e-08 1.85659546400349e-07 4.43219082983303e-08 1.08292542302351e-08 3.24133435500088e-09
"537" 26329 1.92745596440511e-09 4.21883001540361e-09 2.56974800453206e-08 8.19728032607006e-08 1.85533514125095e-07 4.42939998040107e-08 1.08221698989437e-08 3.23524305453623e-09
"538" 26330 1.91545396050553e-09 4.21250899991292e-09 2.56812379590576e-08 8.19860066527251e-08 1.85407481849841e-07 4.42660913096911e-08 1.08150855676522e-08 3.22915175407158e-09
"539" 26331 1.90345195660595e-09 4.20618798442224e-09 2.56649958727946e-08 8.19992100447496e-08 1.85281449574588e-07 4.42381828153715e-08 1.08080012363607e-08 3.22306045360693e-09
"540" 26332 1.89144995270638e-09 4.19986696893156e-09 2.56487537865316e-08 8.20124134367741e-08 1.85155417299334e-07 4.42102743210519e-08 1.08009169050692e-08 3.21696915314228e-09
"541" 26333 1.8794479488068e-09 4.19354595344087e-09 2.56325117002686e-08 8.20256168287985e-08 1.8502938502408e-07 4.41823658267323e-08 1.07938325737777e-08 3.21087785267763e-09
"542" 26334 1.86744594490722e-09 4.18722493795019e-09 2.56162696140056e-08 8.2038820220823e-08 1.84903352748826e-07 4.41544573324127e-08 1.07867482424862e-08 3.20478655221298e-09
"543" 26335 1.85544394100764e-09 4.1809039224595e-09 2.56000275277426e-08 8.20520236128475e-08 1.84777320473572e-07 4.41265488380931e-08 1.07796639111947e-08 3.19869525174833e-09
"544" 26336 1.85509724822435e-09 4.1809039224595e-09 2.55917785353364e-08 8.20928671061325e-08 1.8438695424229e-07 4.4056388701719e-08 1.07883411969206e-08 3.20085994348214e-09
"545" 26337 1.85392639559828e-09 4.18117061932323e-09 2.55857804539484e-08 8.239279509348e-08 1.86337972371633e-07 4.41744828900161e-08 1.0824082020812e-08 3.20085994348214e-09
"546" 26338 1.85275554297222e-09 4.18143731618695e-09 2.55797823725604e-08 8.26927230808275e-08 1.88288990500975e-07 4.42925770783131e-08 1.08598228447035e-08 3.20085994348214e-09
"547" 26339 1.85158469034616e-09 4.18170401305067e-09 2.55737842911725e-08 8.2992651068175e-08 1.90240008630318e-07 4.44106712666101e-08 1.0895563668595e-08 3.20085994348214e-09
"548" 26340 1.85041383772009e-09 4.18197070991440e-09 2.55677862097845e-08 8.32925790555225e-08 1.9219102675966e-07 4.45287654549072e-08 1.09313044924865e-08 3.20085994348214e-09
"549" 26341 1.84842946828014e-09 4.18004497866604e-09 2.55180413378789e-08 8.27701278071047e-08 1.94552822192045e-07 4.47351757117769e-08 1.09583680306521e-08 3.19869525174833e-09
"550" 26342 1.84644509884018e-09 4.17811924741769e-09 2.54682964659733e-08 8.2247676558687e-08 1.9691461762443e-07 4.49415859686465e-08 1.09854315688178e-08 3.19653056001452e-09
"551" 26343 1.84446072940022e-09 4.17619351616934e-09 2.54185515940677e-08 8.17252253102693e-08 1.99276413056815e-07 4.51479962255162e-08 1.10124951069834e-08 3.19436586828072e-09
"552" 26344 1.84247635996026e-09 4.17426778492099e-09 2.53688067221621e-08 8.12027740618515e-08 2.01638208489199e-07 4.53544064823859e-08 1.10395586451491e-08 3.19220117654691e-09
"553" 26345 1.8404919905203e-09 4.17234205367264e-09 2.53190618502565e-08 8.06803228134338e-08 2.04000003921584e-07 4.55608167392556e-08 1.10666221833147e-08 3.1900364848131e-09
"554" 26346 1.83884367083477e-09 4.17041632242429e-09 2.52831907577621e-08 7.99183240207586e-08 2.04005759005064e-07 4.56478609479607e-08 1.10639590171813e-08 3.18611730191422e-09
"555" 26347 1.83685930139482e-09 4.17041632242429e-09 2.5227434760487e-08 7.91053981478023e-08 2.04012357252942e-07 4.56707885047692e-08 1.10550250843504e-08 3.18016768552713e-09
"556" 26348 1.83487493195486e-09 4.17041632242429e-09 2.51716787632119e-08 7.8292472274846e-08 2.0401895550082e-07 4.56937160615777e-08 1.10460911515195e-08 3.17421806914003e-09
"557" 26349 1.8328905625149e-09 4.17041632242429e-09 2.51159227659368e-08 7.74795464018897e-08 2.04025553748697e-07 4.57166436183863e-08 1.10371572186886e-08 3.16826845275294e-09
"558" 26350 1.83090619307494e-09 4.17041632242429e-09 2.50601667686617e-08 7.66666205289333e-08 2.04032151996575e-07 4.57395711751948e-08 1.10282232858577e-08 3.16231883636584e-09
"559" 26351 1.82892182363498e-09 4.17041632242429e-09 2.50044107713866e-08 7.5853694655977e-08 2.04038750244453e-07 4.57624987320033e-08 1.10192893530268e-08 3.15636921997875e-09
"560" 26352 1.82693745419503e-09 4.17041632242429e-09 2.49486547741115e-08 7.50407687830207e-08 2.04045348492331e-07 4.57854262888118e-08 1.10103554201959e-08 3.15041960359165e-09
"561" 26353 1.82612393738113e-09 4.16822389431222e-09 2.48928987768364e-08 7.42113026637075e-08 2.04753658726947e-07 4.57833643363499e-08 1.10136918325618e-08 3.14448769771425e-09
"562" 26354 1.82531042056723e-09 4.16603146620014e-09 2.48371427795613e-08 7.33818365443944e-08 2.05461968961563e-07 4.57813023838881e-08 1.10170282449278e-08 3.13855579183685e-09
"563" 26355 1.82449690375334e-09 4.16383903808807e-09 2.47813867822862e-08 7.25523704250812e-08 2.06170279196179e-07 4.57792404314262e-08 1.10203646572937e-08 3.13262388595945e-09
"564" 26356 1.82368338693944e-09 4.161646609976e-09 2.47256307850111e-08 7.1722904305768e-08 2.06878589430796e-07 4.57771784789644e-08 1.10237010696597e-08 3.12669198008205e-09
"565" 26357 1.82286987012555e-09 4.15945418186392e-09 2.4669874787736e-08 7.08934381864548e-08 2.07586899665412e-07 4.57751165265025e-08 1.10270374820257e-08 3.12076007420465e-09
"566" 26358 1.82205635331165e-09 4.15726175375185e-09 2.46141187904609e-08 7.00639720671417e-08 2.08295209900028e-07 4.57730545740407e-08 1.10303738943916e-08 3.11482816832725e-09
"567" 26359 1.82124283649776e-09 4.15506932563977e-09 2.45583627931858e-08 6.92345059478285e-08 2.09003520134644e-07 4.57709926215788e-08 1.10337103067576e-08 3.10889626244985e-09
"568" 26360 1.82042931968386e-09 4.1528768975277e-09 2.45026067959108e-08 6.84050398285153e-08 2.0971183036926e-07 4.57689306691169e-08 1.10370467191236e-08 3.10296435657245e-09
"569" 26361 1.81961580286997e-09 4.15068446941563e-09 2.44468507986357e-08 6.75755737092022e-08 2.10420140603876e-07 4.57668687166551e-08 1.10403831314895e-08 3.09703245069505e-09
"570" 26362 1.81880228605607e-09 4.14849204130355e-09 2.43910948013606e-08 6.6746107589889e-08 2.11128450838492e-07 4.57648067641932e-08 1.10437195438555e-08 3.09110054481765e-09
"571" 26363 1.81798876924218e-09 4.14629961319148e-09 2.43353388040855e-08 6.59166414705758e-08 2.11836761073108e-07 4.57627448117314e-08 1.10470559562215e-08 3.08516863894025e-09
"572" 26364 1.81717525242828e-09 4.14410718507941e-09 2.42795828068104e-08 6.50871753512626e-08 2.12545071307724e-07 4.57606828592695e-08 1.10503923685874e-08 3.07923673306284e-09
"573" 26365 1.80307939087032e-09 4.10840480430194e-09 2.40845100991557e-08 6.48381848363793e-08 2.11712010691554e-07 4.5660545682453e-08 1.09069841283189e-08 3.02351806801322e-09
"574" 26366 1.79991352577543e-09 4.10621237618986e-09 2.40287541018806e-08 6.47971055321173e-08 2.11473769357111e-07 4.5660612622446e-08 1.08832570025192e-08 3.00774535803727e-09
"575" 26367 1.79674766068054e-09 4.10401994807779e-09 2.39729981046055e-08 6.47560262278552e-08 2.11235528022669e-07 4.5660679562439e-08 1.08595298767195e-08 2.99197264806132e-09
"576" 26368 1.79241094295958e-09 4.10574826368289e-09 2.39192110318362e-08 6.48973277775129e-08 2.10319708038214e-07 4.56643198008286e-08 1.08297304669557e-08 2.97989631019018e-09
"577" 26369 1.78807422523863e-09 4.107476579288e-09 2.38654239590669e-08 6.50386293271705e-08 2.0940388805376e-07 4.56679600392181e-08 1.07999310571919e-08 2.96781997231905e-09
"578" 26370 1.7840735572721e-09 4.10528415117592e-09 2.38133760002171e-08 6.50017758588232e-08 2.08479203931331e-07 4.57479396777063e-08 1.07941881257975e-08 2.96081971816846e-09
"579" 26371 1.78007288930558e-09 4.10309172306385e-09 2.37613280413673e-08 6.49649223904759e-08 2.07554519808903e-07 4.58279193161945e-08 1.07884451944032e-08 2.95381946401787e-09
"580" 26372 1.77607222133905e-09 4.10089929495178e-09 2.37092800825175e-08 6.49280689221286e-08 2.06629835686474e-07 4.59078989546827e-08 1.07827022630088e-08 2.94681920986727e-09
"581" 26373 1.77207155337253e-09 4.0987068668397e-09 2.36572321236677e-08 6.48912154537813e-08 2.05705151564046e-07 4.59878785931709e-08 1.07769593316145e-08 2.93981895571668e-09
"582" 26374 1.768070885406e-09 4.09651443872763e-09 2.36051841648178e-08 6.4854361985434e-08 2.04780467441617e-07 4.60678582316591e-08 1.07712164002201e-08 2.93281870156609e-09
"583" 26375 1.76407021743947e-09 4.09432201061556e-09 2.3553136205968e-08 6.48175085170867e-08 2.03855783319189e-07 4.61478378701473e-08 1.07654734688258e-08 2.9258184474155e-09
"584" 26376 1.76006954947295e-09 4.09212958250348e-09 2.35010882471182e-08 6.47806550487394e-08 2.0293109919676e-07 4.62278175086355e-08 1.07597305374314e-08 2.9188181932649e-09
"585" 26377 1.75606888150642e-09 4.08993715439141e-09 2.34490402882684e-08 6.47438015803921e-08 2.02006415074331e-07 4.63077971471237e-08 1.07539876060371e-08 2.91181793911431e-09
"586" 26378 1.7520682135399e-09 4.08774472627934e-09 2.33969923294186e-08 6.47069481120448e-08 2.01081730951903e-07 4.63877767856119e-08 1.07482446746427e-08 2.90481768496372e-09
"587" 26379 1.74660321530836e-09 4.05776068604463e-09 2.33449443705687e-08 6.45956677198367e-08 1.99232437279918e-07 4.6443369374767e-08 1.07762766368569e-08 2.91286857687781e-09
"588" 26380 1.74113821707682e-09 4.02777664580992e-09 2.32928964117189e-08 6.44843873276285e-08 1.97383143607934e-07 4.6498961963922e-08 1.08043085990711e-08 2.9209194687919e-09
"589" 26381 1.74030341420519e-09 4.01869516786947e-09 2.32406527931464e-08 6.38618745981001e-08 1.96172318106663e-07 4.64114491752657e-08 1.08255419592847e-08 2.9289349396866e-09
"590" 26382 1.73946861133355e-09 4.00961368992903e-09 2.3188409174574e-08 6.32393618685717e-08 1.94961492605392e-07 4.63239363866094e-08 1.08467753194984e-08 2.9369504105813e-09
"591" 26383 1.73863380846192e-09 4.00053221198859e-09 2.31361655560015e-08 6.26168491390434e-08 1.93750667104122e-07 4.62364235979531e-08 1.0868008679712e-08 2.944965881476e-09
"592" 26384 1.73779900559028e-09 3.99145073404815e-09 2.3083921937429e-08 6.1994336409515e-08 1.92539841602851e-07 4.61489108092968e-08 1.08892420399257e-08 2.9529813523707e-09
"593" 26385 1.73696420271865e-09 3.98236925610771e-09 2.30316783188565e-08 6.13718236799866e-08 1.91329016101581e-07 4.60613980206404e-08 1.09104754001393e-08 2.9609968232654e-09
"594" 26386 1.73612939984701e-09 3.97328777816727e-09 2.2979434700284e-08 6.07493109504582e-08 1.9011819060031e-07 4.59738852319841e-08 1.0931708760353e-08 2.9690122941601e-09
"595" 26387 1.73529459697538e-09 3.96420630022683e-09 2.29271910817116e-08 6.01267982209298e-08 1.8890736509904e-07 4.58863724433278e-08 1.09529421205666e-08 2.9770277650548e-09
"596" 26388 1.73529459697538e-09 3.95608768791056e-09 2.30027537198783e-08 5.99324097688511e-08 1.87691974168405e-07 4.57492068431738e-08 1.09449329885054e-08 2.97601254831069e-09
"597" 26389 1.73529459697538e-09 3.94796907559429e-09 2.30783163580451e-08 5.97380213167723e-08 1.86476583237771e-07 4.56120412430199e-08 1.09369238564442e-08 2.97499733156659e-09
"598" 26390 1.73529459697538e-09 3.93985046327803e-09 2.31538789962118e-08 5.95436328646935e-08 1.85261192307137e-07 4.54748756428659e-08 1.09289147243831e-08 2.97398211482248e-09
"599" 26391 1.73529459697538e-09 3.93173185096176e-09 2.32294416343786e-08 5.93492444126148e-08 1.84045801376502e-07 4.5337710042712e-08 1.09209055923219e-08 2.97296689807837e-09
"600" 26392 1.73529459697538e-09 3.9286354104278e-09 2.33521951400382e-08 5.97336641491463e-08 1.82933422387203e-07 4.5359476040134e-08 1.09178985325257e-08 2.96668820783905e-09
"601" 26393 1.73529459697538e-09 3.92553896989385e-09 2.34749486456978e-08 6.01180838856778e-08 1.81821043397904e-07 4.5381242037556e-08 1.09148914727295e-08 2.96040951759972e-09
"602" 26394 1.73529459697538e-09 3.92244252935989e-09 2.35977021513575e-08 6.05025036222092e-08 1.80708664408605e-07 4.54030080349781e-08 1.09118844129333e-08 2.9541308273604e-09
"603" 26395 1.73529459697538e-09 3.91934608882593e-09 2.37204556570171e-08 6.08869233587407e-08 1.79596285419305e-07 4.54247740324001e-08 1.09088773531371e-08 2.94785213712108e-09
"604" 26396 1.73529459697538e-09 3.91624964829197e-09 2.38432091626767e-08 6.12713430952722e-08 1.78483906430006e-07 4.54465400298221e-08 1.09058702933409e-08 2.94157344688175e-09
"605" 26397 1.73529459697538e-09 3.91315320775802e-09 2.39659626683363e-08 6.16557628318037e-08 1.77371527440707e-07 4.54683060272441e-08 1.09028632335448e-08 2.93529475664243e-09
"606" 26398 1.73529459697538e-09 3.91005676722406e-09 2.40887161739959e-08 6.20401825683352e-08 1.76259148451408e-07 4.54900720246661e-08 1.08998561737486e-08 2.92901606640311e-09
"607" 26399 1.73612939984701e-09 3.90872328290545e-09 2.42202304691604e-08 6.24513721862178e-08 1.7613000712166e-07 4.55086295968228e-08 1.08806032849108e-08 2.92499062044606e-09
"608" 26400 1.73696420271865e-09 3.90738979858683e-09 2.4351744764325e-08 6.28625618041004e-08 1.76000865791912e-07 4.55271871689795e-08 1.0861350396073e-08 2.92096517448902e-09
"609" 26401 1.73779900559028e-09 3.90605631426822e-09 2.44832590594895e-08 6.3273751421983e-08 1.75871724462164e-07 4.55457447411362e-08 1.08420975072353e-08 2.91693972853197e-09
"610" 26402 1.73863380846192e-09 3.9047228299496e-09 2.4614773354654e-08 6.36849410398656e-08 1.75742583132416e-07 4.55643023132929e-08 1.08228446183975e-08 2.91291428257493e-09
"611" 26403 1.73946861133355e-09 3.90338934563099e-09 2.47462876498185e-08 6.40961306577482e-08 1.75613441802668e-07 4.55828598854496e-08 1.08035917295598e-08 2.90888883661788e-09
"612" 26404 1.74030341420519e-09 3.90205586131238e-09 2.4877801944983e-08 6.45073202756308e-08 1.7548430047292e-07 4.56014174576063e-08 1.0784338840722e-08 2.90486339066084e-09
"613" 26405 1.74030341420519e-09 3.89999156762307e-09 2.48775460464337e-08 6.45713464080294e-08 1.75380904235822e-07 4.56311418246596e-08 1.07680930116804e-08 2.90486339066084e-09
"614" 26406 1.74247177306566e-09 3.91003591118769e-09 2.49022930236522e-08 6.45479550891017e-08 1.75605683392973e-07 4.56202211094911e-08 1.07518471826388e-08 2.9018531614479e-09
"615" 26407 1.74464013192614e-09 3.9200802547523e-09 2.49270400008708e-08 6.4524563770174e-08 1.75830462550124e-07 4.56093003943225e-08 1.07356013535972e-08 2.89884293223497e-09
"616" 26408 1.74680849078662e-09 3.93012459831692e-09 2.49517869780893e-08 6.45011724512463e-08 1.76055241707275e-07 4.5598379679154e-08 1.07193555245557e-08 2.89583270302203e-09
"617" 26409 1.7489768496471e-09 3.94016894188154e-09 2.49765339553078e-08 6.44777811323186e-08 1.76280020864426e-07 4.55874589639855e-08 1.07031096955141e-08 2.89282247380909e-09
"618" 26410 1.75114520850757e-09 3.95021328544616e-09 2.50012809325264e-08 6.44543898133909e-08 1.76504800021577e-07 4.55765382488169e-08 1.06868638664725e-08 2.88981224459616e-09
"619" 26411 1.75331356736805e-09 3.96025762901077e-09 2.50260279097449e-08 6.44309984944632e-08 1.76729579178728e-07 4.55656175336484e-08 1.06706180374309e-08 2.88680201538322e-09
"620" 26412 1.75331356736805e-09 3.95892414469216e-09 2.51253921948219e-08 6.47442738991402e-08 1.76864199518237e-07 4.57363315733802e-08 1.06566238679632e-08 2.89180725706499e-09
"621" 26413 1.75331356736805e-09 3.95759066037354e-09 2.52247564798988e-08 6.50575493038172e-08 1.76998819857746e-07 4.5907045613112e-08 1.06426296984956e-08 2.89681249874675e-09
"622" 26414 1.75331356736805e-09 3.95625717605493e-09 2.53241207649757e-08 6.53708247084942e-08 1.77133440197255e-07 4.60777596528439e-08 1.06286355290279e-08 2.90181774042851e-09
"623" 26415 1.74203687812168e-09 3.95502761356703e-09 2.54078330247774e-08 6.55292466511149e-08 1.76307968060669e-07 4.61790583890469e-08 1.05990833178441e-08 2.90192400348668e-09
"624" 26416 1.74203687812168e-09 3.95379805107913e-09 2.55071973098544e-08 6.57876049505731e-08 1.76399699788971e-07 4.63254457257776e-08 1.05991560233088e-08 2.91071416982173e-09
"625" 26417 1.7423729278761e-09 3.91239111433277e-09 2.53512471937665e-08 6.61077356125659e-08 1.76653831846383e-07 4.65060009478676e-08 1.05804164286812e-08 2.91948662564709e-09
"626" 26418 1.74270897763053e-09 3.8709841775864e-09 2.51952970776787e-08 6.64278662745587e-08 1.76907963903795e-07 4.66865561699575e-08 1.05616768340536e-08 2.92825908147245e-09
"627" 26419 1.74304502738496e-09 3.82957724084004e-09 2.50393469615908e-08 6.67479969365516e-08 1.77162095961208e-07 4.68671113920474e-08 1.05429372394259e-08 2.93703153729781e-09
"628" 26420 1.74338107713939e-09 3.78817030409367e-09 2.4883396845503e-08 6.70681275985444e-08 1.7741622801862e-07 4.70476666141373e-08 1.05241976447983e-08 2.94580399312316e-09
"629" 26421 1.74371712689382e-09 3.74676336734731e-09 2.47274467294151e-08 6.73882582605372e-08 1.77670360076032e-07 4.72282218362272e-08 1.05054580501707e-08 2.95457644894852e-09
"630" 26422 1.74405317664824e-09 3.70535643060094e-09 2.45714966133273e-08 6.770838892253e-08 1.77924492133444e-07 4.74087770583171e-08 1.04867184555431e-08 2.96334890477388e-09
"631" 26423 1.74438922640267e-09 3.66394949385458e-09 2.44155464972394e-08 6.80285195845228e-08 1.78178624190856e-07 4.7589332280407e-08 1.04679788609155e-08 2.97212136059924e-09
"632" 26424 1.7447252761571e-09 3.62254255710821e-09 2.42595963811516e-08 6.83486502465156e-08 1.78432756248268e-07 4.77698875024969e-08 1.04492392662879e-08 2.9808938164246e-09
"633" 26425 1.74506132591153e-09 3.58113562036185e-09 2.41036462650637e-08 6.86687809085084e-08 1.7868688830568e-07 4.79504427245868e-08 1.04304996716602e-08 2.98966627224996e-09
"634" 26426 1.74870465806589e-09 3.54763945227032e-09 2.38901358178737e-08 6.93200606939087e-08 1.78677258693836e-07 4.7996707971084e-08 1.04065013576625e-08 2.98966627224996e-09
"635" 26427 1.75304137578684e-09 3.51159066539046e-09 2.36767949424434e-08 6.93536858325756e-08 1.78649406209799e-07 4.80501716677842e-08 1.03877617630349e-08 2.99843872807531e-09
"636" 26428 1.75737809350779e-09 3.4755418785106e-09 2.34634540670131e-08 6.93873109712426e-08 1.78621553725763e-07 4.81036353644844e-08 1.03690221684073e-08 3.00721118390067e-09
"637" 26429 1.76171481122875e-09 3.43949309163075e-09 2.32501131915827e-08 6.94209361099095e-08 1.78593701241727e-07 4.81570990611846e-08 1.03502825737797e-08 3.01598363972603e-09
"638" 26430 1.7660515289497e-09 3.40344430475089e-09 2.30367723161524e-08 6.94545612485765e-08 1.7856584875769e-07 4.82105627578848e-08 1.03315429791521e-08 3.02475609555139e-09
"639" 26431 1.77038824667065e-09 3.36739551787103e-09 2.28234314407221e-08 6.94881863872434e-08 1.78537996273654e-07 4.8264026454585e-08 1.03128033845245e-08 3.03352855137675e-09
"640" 26432 1.77472496439161e-09 3.33134673099118e-09 2.26100905652917e-08 6.95218115259104e-08 1.78510143789618e-07 4.83174901512852e-08 1.02940637898968e-08 3.0423010072021e-09
"641" 26433 1.77906168211256e-09 3.29529794411132e-09 2.23967496898614e-08 6.95554366645774e-08 1.78482291305581e-07 4.83709538479854e-08 1.02753241952692e-08 3.05107346302746e-09
"642" 26434 1.78339839983352e-09 3.25924915723146e-09 2.21834088144311e-08 6.95890618032443e-08 1.78454438821545e-07 4.84244175446856e-08 1.02565846006416e-08 3.05984591885282e-09
"643" 26435 1.78773511755447e-09 3.2232003703516e-09 2.19700679390007e-08 6.96226869419113e-08 1.78426586337509e-07 4.84778812413858e-08 1.0237845006014e-08 3.06861837467818e-09
"644" 26436 1.79207183527542e-09 3.18715158347175e-09 2.17567270635704e-08 6.96563120805782e-08 1.78398733853472e-07 4.8531344938086e-08 1.02191054113864e-08 3.07739083050354e-09
"645" 26437 1.79640855299638e-09 3.15110279659189e-09 2.15433861881401e-08 6.96899372192452e-08 1.78370881369436e-07 4.85848086347862e-08 1.02003658167588e-08 3.08616328632890e-09
"646" 26438 1.79640855299638e-09 3.14834233414213e-09 2.1536646499067e-08 6.97369472985877e-08 1.7818062855629e-07 4.8497578692685e-08 1.02026174763327e-08 3.09292301917573e-09
"647" 26439 1.78913253171653e-09 3.13461973113201e-09 2.14353915533733e-08 6.93731079109318e-08 1.7732316164733e-07 4.83704871672953e-08 1.01787936554503e-08 3.08606444910269e-09
"648" 26440 1.78185651043668e-09 3.12089712812188e-09 2.13341366076796e-08 6.90092685232759e-08 1.7646569473837e-07 4.82433956419056e-08 1.01549698345679e-08 3.07920587902966e-09
"649" 26441 1.77458048915684e-09 3.10717452511176e-09 2.1232881661986e-08 6.86454291356199e-08 1.7560822782941e-07 4.81163041165158e-08 1.01311460136855e-08 3.07234730895662e-09
"650" 26442 1.76730446787699e-09 3.09345192210163e-09 2.11316267162923e-08 6.8281589747964e-08 1.7475076092045e-07 4.79892125911261e-08 1.01073221928031e-08 3.06548873888358e-09
"651" 26443 1.76002844659714e-09 3.0797293190915e-09 2.10303717705986e-08 6.7917750360308e-08 1.73893294011491e-07 4.78621210657364e-08 1.00834983719207e-08 3.05863016881055e-09
"652" 26444 1.7527524253173e-09 3.06600671608138e-09 2.09291168249049e-08 6.75539109726521e-08 1.73035827102531e-07 4.77350295403467e-08 1.00596745510383e-08 3.05177159873751e-09
"653" 26445 1.74547640403745e-09 3.05228411307125e-09 2.08278618792113e-08 6.71900715849961e-08 1.72178360193571e-07 4.7607938014957e-08 1.00358507301559e-08 3.04491302866447e-09
"654" 26446 1.73820038275761e-09 3.03856151006113e-09 2.07266069335176e-08 6.68262321973402e-08 1.71320893284611e-07 4.74808464895673e-08 1.00120269092734e-08 3.03805445859143e-09
"655" 26447 1.73092436147776e-09 3.024838907051e-09 2.06253519878239e-08 6.64623928096843e-08 1.70463426375651e-07 4.73537549641775e-08 9.98820308839104e-09 3.0311958885184e-09
"656" 26448 1.73457833666099e-09 3.01094310098968e-09 2.05119704395391e-08 6.60671632915523e-08 1.69628747768247e-07 4.72073676274468e-08 9.97401043619006e-09 3.02423105538719e-09
"657" 26449 1.73823231184422e-09 2.99704729492837e-09 2.03985888912544e-08 6.56719337734203e-08 1.68794069160842e-07 4.70609802907161e-08 9.95981778398907e-09 3.01726622225599e-09
"658" 26450 1.73095629056437e-09 2.97930002637035e-09 2.02799769572297e-08 6.52744692470974e-08 1.68072073030318e-07 4.68785639361434e-08 9.93874437579778e-09 3.00239218128825e-09
"659" 26451 1.73278859967042e-09 2.97251489837269e-09 2.02746030876931e-08 6.51063936313436e-08 1.68184755507198e-07 4.68767028036606e-08 9.92275519386127e-09 2.99437671039355e-09
"660" 26452 1.73462090877647e-09 2.96572977037504e-09 2.02692292181566e-08 6.49383180155898e-08 1.68297437984078e-07 4.68748416711778e-08 9.90676601192476e-09 2.98636123949885e-09
"661" 26453 1.73645321788252e-09 2.95894464237739e-09 2.02638553486201e-08 6.47702423998361e-08 1.68410120460958e-07 4.68729805386951e-08 9.89077682998826e-09 2.97834576860415e-09
"662" 26454 1.73828552698856e-09 2.95215951437974e-09 2.02584814790835e-08 6.46021667840823e-08 1.68522802937838e-07 4.68711194062123e-08 9.87478764805175e-09 2.97033029770945e-09
"663" 26455 1.74011783609461e-09 2.94537438638208e-09 2.0253107609547e-08 6.44340911683285e-08 1.68635485414718e-07 4.68692582737295e-08 9.85879846611525e-09 2.96231482681475e-09
"664" 26456 1.74195014520066e-09 2.93858925838443e-09 2.02477337400105e-08 6.42660155525748e-08 1.68748167891599e-07 4.68673971412467e-08 9.84280928417874e-09 2.95429935592005e-09
"665" 26457 1.74378245430671e-09 2.93180413038678e-09 2.02423598704739e-08 6.4097939936821e-08 1.68860850368479e-07 4.6865536008764e-08 9.82682010224223e-09 2.94628388502535e-09
"666" 26458 1.73650643302687e-09 2.90933602752041e-09 2.02251724539026e-08 6.40270585471066e-08 1.68714336605466e-07 4.6733128845898e-08 9.80574669405094e-09 2.93837467718881e-09
"667" 26459 1.72923041174702e-09 2.88686792465405e-09 2.02079850373312e-08 6.39561771573922e-08 1.68567822842453e-07 4.66007216830321e-08 9.78467328585964e-09 2.93046546935228e-09
"668" 26460 1.72195439046717e-09 2.86439982178768e-09 2.01907976207598e-08 6.38852957676778e-08 1.68421309079439e-07 4.64683145201661e-08 9.76359987766835e-09 2.92255626151575e-09
"669" 26461 1.71467836918733e-09 2.84193171892131e-09 2.01736102041884e-08 6.38144143779634e-08 1.68274795316426e-07 4.63359073573002e-08 9.74252646947706e-09 2.91464705367921e-09
