"time" "channel1" "channel2" "channel3" "channel4" "channel5" "channel6" "channel7" "channel8"
"1" 11312 1.37725276253216e-08 6.99668830947948e-09 3.07348928212978e-09 1.26469264575946e-09 3.70455610099446e-09 2.84163981406268e-09 2.58068953619506e-09 7.10936693295249e-08
"2" 11313 1.36391571566714e-08 6.96654111621343e-09 3.07349533955793e-09 1.26469264575946e-09 3.70837974061509e-09 2.83815025801621e-09 2.60968934663934e-09 7.12351864273246e-08
"3" 11314 1.35133750938351e-08 6.93830013292276e-09 3.09271399249781e-09 1.26360873911517e-09 3.71004218386679e-09 2.83646889649137e-09 2.61161334844493e-09 7.10923368967491e-08
"4" 11315 1.33875930309988e-08 6.91005914963208e-09 3.11193264543769e-09 1.26252483247088e-09 3.7117046271185e-09 2.83478753496652e-09 2.61353735025052e-09 7.09494873661737e-08
"5" 11316 1.32618109681626e-08 6.88181816634141e-09 3.13115129837756e-09 1.26144092582659e-09 3.71336707037021e-09 2.83310617344168e-09 2.61546135205611e-09 7.08066378355983e-08
"6" 11317 1.31360289053263e-08 6.85357718305074e-09 3.15036995131744e-09 1.2603570191823e-09 3.71502951362192e-09 2.83142481191684e-09 2.6173853538617e-09 7.06637883050229e-08
"7" 11318 1.301024684249e-08 6.82533619976006e-09 3.16958860425732e-09 1.25927311253801e-09 3.71669195687363e-09 2.829743450392e-09 2.61930935566729e-09 7.05209387744474e-08
"8" 11319 1.28844647796538e-08 6.79709521646939e-09 3.1888072571972e-09 1.25818920589372e-09 3.71835440012533e-09 2.82806208886715e-09 2.62123335747288e-09 7.0378089243872e-08
"9" 11320 1.27586827168175e-08 6.76885423317871e-09 3.20802591013708e-09 1.25710529924943e-09 3.72001684337704e-09 2.82638072734231e-09 2.62315735927848e-09 7.02352397132966e-08
"10" 11321 1.26329006539812e-08 6.74061324988804e-09 3.22724456307695e-09 1.25602139260514e-09 3.72167928662875e-09 2.82469936581747e-09 2.62508136108407e-09 7.00923901827211e-08
"11" 11322 1.2507118591145e-08 6.71237226659737e-09 3.24646321601683e-09 1.25493748596085e-09 3.72334172988046e-09 2.82301800429263e-09 2.62700536288966e-09 6.99495406521457e-08
"12" 11323 1.23813365283087e-08 6.68413128330669e-09 3.26568186895671e-09 1.25385357931656e-09 3.72500417313217e-09 2.82133664276778e-09 2.62892936469525e-09 6.98066911215703e-08
"13" 11324 1.22555544654724e-08 6.65589030001602e-09 3.28490052189659e-09 1.25276967267227e-09 3.72666661638387e-09 2.81965528124294e-09 2.63085336650084e-09 6.96638415909949e-08
"14" 11325 1.21297724026361e-08 6.62764931672534e-09 3.30411917483647e-09 1.25168576602798e-09 3.72832905963558e-09 2.8179739197181e-09 2.63277736830643e-09 6.95209920604194e-08
"15" 11326 1.20039903397999e-08 6.59940833343467e-09 3.32333782777634e-09 1.25060185938369e-09 3.72999150288729e-09 2.81629255819325e-09 2.63470137011202e-09 6.9378142529844e-08
"16" 11327 1.20087820489413e-08 6.59274176822246e-09 3.33456431598461e-09 1.24458344644329e-09 3.72417204513006e-09 2.8203459996293e-09 2.60762556147334e-09 6.92912230311991e-08
"17" 11328 1.19381365322475e-08 6.55306352507954e-09 3.35078136407903e-09 1.24246865803068e-09 3.72749673021653e-09 2.81803905199047e-09 2.60278117061077e-09 6.92909001374553e-08
"18" 11329 1.18674910155537e-08 6.51338528193661e-09 3.36699841217344e-09 1.24035386961806e-09 3.730821415303e-09 2.81573210435164e-09 2.59793677974821e-09 6.92905772437115e-08
"19" 11330 1.179684549886e-08 6.47370703879368e-09 3.38321546026785e-09 1.23823908120544e-09 3.73414610038947e-09 2.81342515671281e-09 2.59309238888565e-09 6.92902543499676e-08
"20" 11331 1.17261999821662e-08 6.43402879565075e-09 3.39943250836226e-09 1.23612429279282e-09 3.73747078547594e-09 2.81111820907398e-09 2.58824799802308e-09 6.92899314562238e-08
"21" 11332 1.16555544654724e-08 6.39435055250782e-09 3.41564955645668e-09 1.23400950438021e-09 3.74079547056241e-09 2.80881126143515e-09 2.58340360716052e-09 6.928960856248e-08
"22" 11333 1.16136040153839e-08 6.38867115412681e-09 3.41165347409087e-09 1.23400950438021e-09 3.7905054040508e-09 2.82190052815736e-09 2.57741912924555e-09 6.92880926015671e-08
"23" 11334 1.15389500776714e-08 6.36259761859026e-09 3.40990632382361e-09 1.23189471596759e-09 3.7944956304054e-09 2.8162257101469e-09 2.60200005331517e-09 6.94188447245203e-08
"24" 11335 1.14642961399589e-08 6.33652408305371e-09 3.40815917355635e-09 1.22977992755497e-09 3.79848585676e-09 2.81055089213643e-09 2.62658097738478e-09 6.95495968474736e-08
"25" 11336 1.13896422022464e-08 6.31045054751716e-09 3.40641202328909e-09 1.22766513914235e-09 3.80247608311461e-09 2.80487607412597e-09 2.6511619014544e-09 6.96803489704269e-08
"26" 11337 1.13149882645339e-08 6.28437701198061e-09 3.40466487302183e-09 1.22555035072974e-09 3.80646630946921e-09 2.7992012561155e-09 2.67574282552402e-09 6.98111010933801e-08
"27" 11338 1.12403343268215e-08 6.25830347644406e-09 3.40291772275456e-09 1.22343556231712e-09 3.81045653582381e-09 2.79352643810504e-09 2.70032374959363e-09 6.99418532163334e-08
"28" 11339 1.1165680389109e-08 6.23222994090751e-09 3.4011705724873e-09 1.2213207739045e-09 3.81444676217841e-09 2.78785162009458e-09 2.72490467366325e-09 7.00726053392866e-08
"29" 11340 1.10910264513965e-08 6.20615640537096e-09 3.39942342222004e-09 1.21920598549188e-09 3.81843698853301e-09 2.78217680208411e-09 2.74948559773286e-09 7.02033574622399e-08
"30" 11341 1.1016372513684e-08 6.1800828698344e-09 3.39767627195278e-09 1.21709119707927e-09 3.82242721488761e-09 2.77650198407365e-09 2.77406652180248e-09 7.03341095851932e-08
"31" 11342 1.09417185759715e-08 6.15400933429785e-09 3.39592912168552e-09 1.21497640866665e-09 3.82641744124222e-09 2.77082716606318e-09 2.7986474458721e-09 7.04648617081464e-08
"32" 11343 1.08670646382591e-08 6.1279357987613e-09 3.39418197141826e-09 1.21286162025403e-09 3.83040766759682e-09 2.76515234805272e-09 2.82322836994171e-09 7.05956138310997e-08
"33" 11344 1.07924107005466e-08 6.10186226322475e-09 3.39243482115099e-09 1.21074683184142e-09 3.83439789395142e-09 2.75947753004225e-09 2.84780929401133e-09 7.07263659540529e-08
"34" 11345 1.07177567628341e-08 6.0757887276882e-09 3.39068767088373e-09 1.2086320434288e-09 3.83838812030602e-09 2.75380271203179e-09 2.87239021808094e-09 7.08571180770062e-08
"35" 11346 1.06431028251216e-08 6.04971519215165e-09 3.38894052061647e-09 1.20651725501618e-09 3.84237834666062e-09 2.74812789402132e-09 2.89697114215056e-09 7.09878701999594e-08
"36" 11347 1.05684488874091e-08 6.0236416566151e-09 3.38719337034921e-09 1.20440246660356e-09 3.84636857301522e-09 2.74245307601086e-09 2.92155206622018e-09 7.11186223229127e-08
"37" 11348 1.05491305853003e-08 6.01261951708821e-09 3.38044657405358e-09 1.19269159302022e-09 3.62375668608831e-09 2.70112169955505e-09 2.9024563074568e-09 7.08670657690254e-08
"38" 11349 1.05423438636901e-08 6.00636807220137e-09 3.38044657405358e-09 1.19248541666656e-09 3.62492037622281e-09 2.69264118078855e-09 2.87944377238508e-09 7.08611004331801e-08
"39" 11350 1.05355571420798e-08 6.00011662731453e-09 3.38044657405358e-09 1.19227924031289e-09 3.62608406635731e-09 2.68416066202205e-09 2.85643123731335e-09 7.08551350973349e-08
"40" 11351 1.05287704204696e-08 5.99386518242769e-09 3.38044657405358e-09 1.19207306395923e-09 3.62724775649181e-09 2.67568014325555e-09 2.83341870224163e-09 7.08491697614897e-08
"41" 11352 1.05219836988594e-08 5.98761373754084e-09 3.38044657405358e-09 1.19186688760556e-09 3.62841144662631e-09 2.66719962448905e-09 2.8104061671699e-09 7.08432044256445e-08
"42" 11353 1.05151969772492e-08 5.981362292654e-09 3.38044657405358e-09 1.1916607112519e-09 3.62957513676082e-09 2.65871910572254e-09 2.78739363209818e-09 7.08372390897992e-08
"43" 11354 1.05084102556389e-08 5.97511084776716e-09 3.38044657405358e-09 1.19145453489823e-09 3.63073882689532e-09 2.65023858695604e-09 2.76438109702645e-09 7.0831273753954e-08
"44" 11355 1.05016235340287e-08 5.96885940288032e-09 3.38044657405358e-09 1.19124835854457e-09 3.63190251702982e-09 2.64175806818954e-09 2.74136856195472e-09 7.08253084181088e-08
"45" 11356 1.04948368124185e-08 5.96260795799348e-09 3.38044657405358e-09 1.1910421821909e-09 3.63306620716432e-09 2.63327754942304e-09 2.718356026883e-09 7.08193430822635e-08
"46" 11357 1.04880500908083e-08 5.95635651310664e-09 3.38044657405358e-09 1.19083600583723e-09 3.63422989729882e-09 2.62479703065654e-09 2.69534349181127e-09 7.08133777464183e-08
"47" 11358 1.0481263369198e-08 5.9501050682198e-09 3.38044657405358e-09 1.19062982948357e-09 3.63539358743332e-09 2.61631651189004e-09 2.67233095673955e-09 7.08074124105731e-08
"48" 11359 1.04744766475878e-08 5.94385362333296e-09 3.38044657405358e-09 1.1904236531299e-09 3.63655727756782e-09 2.60783599312353e-09 2.64931842166782e-09 7.08014470747279e-08
"49" 11360 1.04676899259776e-08 5.93760217844612e-09 3.38044657405358e-09 1.19021747677624e-09 3.63772096770232e-09 2.59935547435703e-09 2.6263058865961e-09 7.07954817388826e-08
"50" 11361 1.04609032043673e-08 5.93135073355928e-09 3.38044657405358e-09 1.19001130042257e-09 3.63888465783682e-09 2.59087495559053e-09 2.60329335152437e-09 7.07895164030374e-08
"51" 11362 1.04541164827571e-08 5.92509928867244e-09 3.38044657405358e-09 1.18980512406891e-09 3.64004834797133e-09 2.58239443682403e-09 2.58028081645264e-09 7.07835510671922e-08
"52" 11363 1.04473297611469e-08 5.9188478437856e-09 3.38044657405358e-09 1.18959894771524e-09 3.64121203810583e-09 2.57391391805753e-09 2.55726828138092e-09 7.0777585731347e-08
"53" 11364 1.04405430395367e-08 5.91259639889876e-09 3.38044657405358e-09 1.18939277136158e-09 3.64237572824033e-09 2.56543339929102e-09 2.53425574630919e-09 7.07716203955017e-08
"54" 11365 1.04337563179264e-08 5.90634495401192e-09 3.38044657405358e-09 1.18918659500791e-09 3.64353941837483e-09 2.55695288052452e-09 2.51124321123747e-09 7.07656550596565e-08
"55" 11366 1.04269695963162e-08 5.90009350912508e-09 3.38044657405358e-09 1.18898041865425e-09 3.64470310850933e-09 2.54847236175802e-09 2.48823067616574e-09 7.07596897238113e-08
"56" 11367 1.0420182874706e-08 5.89384206423824e-09 3.38044657405358e-09 1.18877424230058e-09 3.64586679864383e-09 2.53999184299152e-09 2.46521814109402e-09 7.07537243879661e-08
"57" 11368 1.04133961530958e-08 5.88759061935140e-09 3.38044657405358e-09 1.18856806594691e-09 3.64703048877833e-09 2.53151132422502e-09 2.44220560602229e-09 7.07477590521208e-08
"58" 11369 1.03982193414678e-08 5.87625767109742e-09 3.3834300066146e-09 1.20088374239939e-09 3.68111128039766e-09 2.52639867583015e-09 2.41164020403771e-09 7.07417937162756e-08
"59" 11370 1.03980678759246e-08 5.87729957857856e-09 3.38641949660377e-09 1.20958837108762e-09 3.70937281567669e-09 2.52471731430531e-09 2.41164020403771e-09 7.06527912754752e-08
"60" 11371 1.03923230170362e-08 5.86949713369016e-09 3.39040346411327e-09 1.22211022389376e-09 3.73580632805477e-09 2.52864563851856e-09 2.41121302107525e-09 7.06503854395759e-08
"61" 11372 1.03865781581478e-08 5.86169468880175e-09 3.39438743162278e-09 1.23463207669989e-09 3.76223984043285e-09 2.53257396273181e-09 2.4107858381128e-09 7.06479796036765e-08
"62" 11373 1.03808332992593e-08 5.85389224391334e-09 3.39837139913229e-09 1.24715392950603e-09 3.78867335281093e-09 2.53650228694505e-09 2.41035865515035e-09 7.06455737677772e-08
"63" 11374 1.03750884403709e-08 5.84608979902493e-09 3.40235536664179e-09 1.25967578231217e-09 3.81510686518901e-09 2.5404306111583e-09 2.40993147218789e-09 7.06431679318778e-08
"64" 11375 1.03693435814825e-08 5.83828735413653e-09 3.4063393341513e-09 1.27219763511831e-09 3.84154037756708e-09 2.54435893537155e-09 2.40950428922544e-09 7.06407620959785e-08
"65" 11376 1.03635987225941e-08 5.83048490924812e-09 3.41032330166081e-09 1.28471948792444e-09 3.86797388994516e-09 2.5482872595848e-09 2.40907710626298e-09 7.06383562600791e-08
"66" 11377 1.03578538637057e-08 5.82268246435971e-09 3.41430726917032e-09 1.29724134073058e-09 3.89440740232324e-09 2.55221558379805e-09 2.40864992330053e-09 7.06359504241798e-08
"67" 11378 1.03521090048173e-08 5.81488001947131e-09 3.41829123667982e-09 1.30976319353672e-09 3.92084091470132e-09 2.5561439080113e-09 2.40822274033808e-09 7.06335445882804e-08
"68" 11379 1.03463641459289e-08 5.8070775745829e-09 3.42227520418933e-09 1.32228504634285e-09 3.9472744270794e-09 2.56007223222455e-09 2.40779555737562e-09 7.06311387523811e-08
"69" 11380 1.03406192870405e-08 5.79927512969449e-09 3.42625917169884e-09 1.33480689914899e-09 3.97370793945748e-09 2.56400055643779e-09 2.40736837441317e-09 7.06287329164817e-08
"70" 11381 1.03348744281521e-08 5.79147268480608e-09 3.43024313920834e-09 1.34732875195513e-09 4.00014145183555e-09 2.56792888065104e-09 2.40694119145071e-09 7.06263270805824e-08
"71" 11382 1.03291295692637e-08 5.78367023991768e-09 3.43422710671785e-09 1.35985060476127e-09 4.02657496421363e-09 2.57185720486429e-09 2.40651400848826e-09 7.0623921244683e-08
"72" 11383 1.03000320268414e-08 5.77264810039079e-09 3.40801985270893e-09 1.37146135174286e-09 4.03571729430482e-09 2.57235767375548e-09 2.40473314699218e-09 7.05824762093907e-08
"73" 11384 1.0270934484419e-08 5.7616259608639e-09 3.3818125987e-09 1.38307209872446e-09 4.04485962439602e-09 2.57285814264667e-09 2.40295228549609e-09 7.05410311740983e-08
"74" 11385 1.02418369419967e-08 5.75060382133701e-09 3.35560534469108e-09 1.39468284570606e-09 4.05400195448721e-09 2.57335861153786e-09 2.40117142400001e-09 7.0499586138806e-08
"75" 11386 1.02127393995744e-08 5.73958168181012e-09 3.32939809068215e-09 1.40629359268766e-09 4.0631442845784e-09 2.57385908042905e-09 2.39939056250392e-09 7.04581411035136e-08
"76" 11387 1.01836418571521e-08 5.72855954228323e-09 3.30319083667323e-09 1.41790433966926e-09 4.07228661466959e-09 2.57435954932024e-09 2.39760970100784e-09 7.04166960682213e-08
"77" 11388 1.01545443147297e-08 5.71753740275634e-09 3.2769835826643e-09 1.42951508665086e-09 4.08142894476078e-09 2.57486001821143e-09 2.39582883951175e-09 7.03752510329289e-08
"78" 11389 1.01254467723074e-08 5.70651526322945e-09 3.25077632865538e-09 1.44112583363246e-09 4.09057127485198e-09 2.57536048710262e-09 2.39404797801567e-09 7.03338059976366e-08
"79" 11390 1.01047393199028e-08 5.70651526322945e-09 3.22158564208544e-09 1.44232951622054e-09 4.07145206966413e-09 2.57180751455777e-09 2.39340720357199e-09 7.03338059976366e-08
"80" 11391 1.00983258462729e-08 5.70310762420084e-09 3.22159169951358e-09 1.42602381483041e-09 4.06646473990901e-09 2.5591501529064e-09 2.38877696368217e-09 6.95473328911629e-08
"81" 11392 1.00919123726429e-08 5.69969998517224e-09 3.22159775694173e-09 1.40971811344028e-09 4.06147741015388e-09 2.54649279125504e-09 2.38414672379235e-09 6.87608597846892e-08
"82" 11393 1.0085498899013e-08 5.69629234614363e-09 3.22160381436988e-09 1.39341241205016e-09 4.05649008039876e-09 2.53383542960368e-09 2.37951648390252e-09 6.79743866782155e-08
"83" 11394 1.00790854253831e-08 5.69288470711503e-09 3.22160987179803e-09 1.37710671066003e-09 4.05150275064364e-09 2.52117806795232e-09 2.3748862440127e-09 6.71879135717418e-08
"84" 11395 1.00726719517531e-08 5.68947706808642e-09 3.22161592922618e-09 1.3608010092699e-09 4.04651542088851e-09 2.50852070630095e-09 2.37025600412288e-09 6.64014404652681e-08
"85" 11396 1.00662584781232e-08 5.68606942905781e-09 3.22162198665433e-09 1.34449530787977e-09 4.04152809113339e-09 2.49586334464959e-09 2.36562576423306e-09 6.56149673587944e-08
"86" 11397 1.00598450044933e-08 5.68266179002921e-09 3.22162804408248e-09 1.32818960648965e-09 4.03654076137826e-09 2.48320598299823e-09 2.36099552434324e-09 6.48284942523207e-08
"87" 11398 1.00534315308633e-08 5.6792541510006e-09 3.22163410151063e-09 1.31188390509952e-09 4.03155343162314e-09 2.47054862134687e-09 2.35636528445342e-09 6.4042021145847e-08
"88" 11399 1.00470180572334e-08 5.67584651197199e-09 3.22164015893878e-09 1.29557820370939e-09 4.02656610186802e-09 2.4578912596955e-09 2.3517350445636e-09 6.32555480393733e-08
"89" 11400 1.00406045836035e-08 5.67243887294339e-09 3.22164621636692e-09 1.27927250231926e-09 4.02157877211289e-09 2.44523389804414e-09 2.34710480467378e-09 6.24690749328996e-08
"90" 11401 1.00341911099735e-08 5.66903123391478e-09 3.22165227379507e-09 1.26296680092914e-09 4.01659144235777e-09 2.43257653639278e-09 2.34247456478396e-09 6.16826018264259e-08
"91" 11402 1.00277776363436e-08 5.66562359488617e-09 3.22165833122322e-09 1.24666109953901e-09 4.01160411260264e-09 2.41991917474142e-09 2.33784432489414e-09 6.08961287199522e-08
"92" 11403 1.00213641627137e-08 5.66221595585757e-09 3.22166438865137e-09 1.23035539814888e-09 4.00661678284752e-09 2.40726181309005e-09 2.33321408500432e-09 6.01096556134785e-08
"93" 11404 1.00045839826782e-08 5.666832767951e-09 3.22290975708735e-09 1.216423686401e-09 4.00512112774674e-09 2.40320665588003e-09 2.32281183969773e-09 5.9403325601063e-08
"94" 11405 1.00223508371923e-08 5.65512910061839e-09 3.22416421166555e-09 1.20041056177441e-09 4.00512112774674e-09 2.39086122939867e-09 2.31946314869527e-09 5.86390128942423e-08
"95" 11406 1.00582426655502e-08 5.58751551321026e-09 3.22241706139829e-09 1.19979203271342e-09 4.01060700920212e-09 2.39086122939867e-09 2.32715747744308e-09 5.84247734397809e-08
"96" 11407 1.00951763566298e-08 5.59159434064137e-09 3.22466599349684e-09 1.19136625459686e-09 3.9954772247011e-09 2.38743337407661e-09 2.3348518061909e-09 5.84247734397809e-08
"97" 11408 1.01321100477095e-08 5.59567316807248e-09 3.22691492559538e-09 1.1829404764803e-09 3.98034744020007e-09 2.38400551875455e-09 2.34254613493871e-09 5.84247734397809e-08
"98" 11409 1.01690437387892e-08 5.59975199550358e-09 3.22916385769392e-09 1.17451469836375e-09 3.96521765569904e-09 2.38057766343249e-09 2.35024046368653e-09 5.84247734397809e-08
"99" 11410 1.02059774298688e-08 5.60383082293469e-09 3.23141278979246e-09 1.16608892024719e-09 3.95008787119802e-09 2.37714980811043e-09 2.35793479243435e-09 5.84247734397809e-08
"100" 11411 1.02429111209485e-08 5.6079096503658e-09 3.23366172189101e-09 1.15766314213064e-09 3.93495808669699e-09 2.37372195278837e-09 2.36562912118216e-09 5.84247734397809e-08
"101" 11412 1.02798448120282e-08 5.61198847779691e-09 3.23591065398955e-09 1.14923736401408e-09 3.91982830219597e-09 2.37029409746631e-09 2.37332344992998e-09 5.84247734397809e-08
"102" 11413 1.03167785031078e-08 5.61606730522802e-09 3.23815958608809e-09 1.14081158589752e-09 3.90469851769494e-09 2.36686624214426e-09 2.38101777867779e-09 5.84247734397809e-08
"103" 11414 1.03537121941875e-08 5.62014613265912e-09 3.24040851818664e-09 1.13238580778097e-09 3.88956873319392e-09 2.3634383868222e-09 2.38871210742561e-09 5.84247734397809e-08
"104" 11415 1.03906458852672e-08 5.62422496009023e-09 3.24265745028518e-09 1.12396002966441e-09 3.87443894869289e-09 2.36001053150014e-09 2.39640643617342e-09 5.84247734397809e-08
"105" 11416 1.04275795763468e-08 5.62830378752134e-09 3.24490638238372e-09 1.11553425154786e-09 3.85930916419186e-09 2.35658267617808e-09 2.40410076492124e-09 5.84247734397809e-08
"106" 11417 1.04645132674265e-08 5.63238261495245e-09 3.24715531448227e-09 1.1071084734313e-09 3.84417937969084e-09 2.35315482085602e-09 2.41179509366905e-09 5.84247734397809e-08
"107" 11418 1.05014469585062e-08 5.63646144238356e-09 3.24940424658081e-09 1.09868269531474e-09 3.82904959518981e-09 2.34972696553396e-09 2.41948942241687e-09 5.84247734397809e-08
"108" 11419 1.05383806495859e-08 5.64054026981467e-09 3.25165317867935e-09 1.09025691719819e-09 3.81391981068879e-09 2.3462991102119e-09 2.42718375116468e-09 5.84247734397809e-08
"109" 11420 1.05753143406655e-08 5.64461909724577e-09 3.25390211077789e-09 1.08183113908163e-09 3.79879002618776e-09 2.34287125488985e-09 2.4348780799125e-09 5.84247734397809e-08
"110" 11421 1.06122480317452e-08 5.64869792467688e-09 3.25615104287644e-09 1.07340536096508e-09 3.78366024168674e-09 2.33944339956779e-09 2.44257240866032e-09 5.84247734397809e-08
"111" 11422 1.06491817228249e-08 5.65277675210799e-09 3.25839997497498e-09 1.06497958284852e-09 3.76853045718571e-09 2.33601554424573e-09 2.45026673740813e-09 5.84247734397809e-08
"112" 11423 1.06861154139045e-08 5.6568555795391e-09 3.26064890707352e-09 1.05655380473196e-09 3.75340067268468e-09 2.33258768892367e-09 2.45796106615595e-09 5.84247734397809e-08
"113" 11424 1.06861154139045e-08 5.65780868452679e-09 3.26064890707352e-09 1.04804162620553e-09 3.73910281476882e-09 2.33127996329324e-09 2.46280545701851e-09 5.83945253590046e-08
"114" 11425 1.06863112359352e-08 5.70699729874015e-09 3.26089676927509e-09 1.04023437714997e-09 3.72247737516701e-09 2.33127996329324e-09 2.46529866311303e-09 5.83635238594927e-08
"115" 11426 1.06865070579659e-08 5.75618591295352e-09 3.26114463147666e-09 1.03242712809441e-09 3.7058519355652e-09 2.33127996329324e-09 2.46779186920755e-09 5.83325223599809e-08
"116" 11427 1.06867028799965e-08 5.80537452716689e-09 3.26139249367822e-09 1.02461987903885e-09 3.6892264959634e-09 2.33127996329324e-09 2.47028507530207e-09 5.8301520860469e-08
"117" 11428 1.06834517866942e-08 5.82414437093224e-09 3.21951540411728e-09 1.01629422752404e-09 3.693216722318e-09 2.33414736477368e-09 2.47113944122697e-09 5.80435684457447e-08
"118" 11429 1.06742340520664e-08 5.87306140796364e-09 3.21951237540321e-09 1.01483134370633e-09 3.69172106721721e-09 2.33364689588249e-09 2.46593831857368e-09 5.79907097387624e-08
"119" 11430 1.06650163174386e-08 5.92197844499504e-09 3.21950934668913e-09 1.01336845988862e-09 3.69022541211643e-09 2.3331464269913e-09 2.46073719592038e-09 5.79378510317801e-08
"120" 11431 1.06557985828108e-08 5.97089548202644e-09 3.21950631797506e-09 1.01190557607091e-09 3.68872975701565e-09 2.33264595810011e-09 2.45553607326708e-09 5.78849923247978e-08
"121" 11432 1.0646580848183e-08 6.01981251905784e-09 3.21950328926098e-09 1.01044269225321e-09 3.68723410191486e-09 2.33214548920892e-09 2.45033495061379e-09 5.78321336178155e-08
"122" 11433 1.06373631135552e-08 6.06872955608924e-09 3.21950026054691e-09 1.0089798084355e-09 3.68573844681408e-09 2.33164502031773e-09 2.44513382796049e-09 5.77792749108333e-08
"123" 11434 1.06281453789274e-08 6.11764659312064e-09 3.21949723183284e-09 1.00751692461779e-09 3.6842427917133e-09 2.33114455142654e-09 2.43993270530719e-09 5.7726416203851e-08
"124" 11435 1.06189276442996e-08 6.16656363015204e-09 3.21949420311876e-09 1.00605404080008e-09 3.68274713661251e-09 2.33064408253535e-09 2.4347315826539e-09 5.76735574968687e-08
"125" 11436 1.06097099096718e-08 6.21548066718344e-09 3.21949117440469e-09 1.00459115698238e-09 3.68125148151173e-09 2.33014361364416e-09 2.4295304600006e-09 5.76206987898864e-08
"126" 11437 1.06004921750439e-08 6.26439770421485e-09 3.21948814569061e-09 1.00312827316467e-09 3.67975582641095e-09 2.32964314475297e-09 2.4243293373473e-09 5.75678400829041e-08
"127" 11438 1.05912744404161e-08 6.31331474124625e-09 3.21948511697654e-09 1.00166538934696e-09 3.67826017131016e-09 2.32914267586178e-09 2.41912821469401e-09 5.75149813759218e-08
"128" 11439 1.05820567057883e-08 6.36223177827765e-09 3.21948208826246e-09 1.00020250552925e-09 3.67676451620938e-09 2.32864220697059e-09 2.41392709204071e-09 5.74621226689396e-08
"129" 11440 1.05584454476553e-08 6.38670474286429e-09 3.21573386809823e-09 1.00090743500013e-09 3.68025619086372e-09 2.32583479044057e-09 2.41577952369155e-09 5.74718824687878e-08
"130" 11441 1.05348341895222e-08 6.41117770745094e-09 3.21198564793399e-09 1.001612364471e-09 3.68374786551806e-09 2.32302737391055e-09 2.41763195534239e-09 5.74816422686361e-08
"131" 11442 1.05112229313892e-08 6.43565067203759e-09 3.20823742776975e-09 1.00231729394187e-09 3.6872395401724e-09 2.32021995738053e-09 2.41948438699322e-09 5.74914020684843e-08
"132" 11443 1.04876116732562e-08 6.46012363662424e-09 3.20448920760551e-09 1.00302222341274e-09 3.69073121482674e-09 2.31741254085051e-09 2.42133681864406e-09 5.75011618683326e-08
"133" 11444 1.04640004151231e-08 6.48459660121089e-09 3.20074098744127e-09 1.00372715288362e-09 3.69422288948108e-09 2.31460512432049e-09 2.4231892502949e-09 5.75109216681808e-08
"134" 11445 1.04403891569901e-08 6.50906956579754e-09 3.19699276727703e-09 1.00443208235449e-09 3.69771456413542e-09 2.31179770779047e-09 2.42504168194574e-09 5.75206814680291e-08
"135" 11446 1.0416777898857e-08 6.53354253038419e-09 3.1932445471128e-09 1.00513701182536e-09 3.70120623878976e-09 2.30899029126045e-09 2.42689411359657e-09 5.75304412678773e-08
"136" 11447 1.0407996164778e-08 6.50977998574516e-09 3.19149739684553e-09 1.00584194129623e-09 3.70985182993321e-09 2.3048751491e-09 2.42468550964652e-09 5.77981534824499e-08
"137" 11448 1.04125476954013e-08 6.50094080307722e-09 3.18750131447973e-09 9.98034692240673e-10 3.68075695815039e-09 2.26597583750582e-09 2.39825047545152e-09 5.76252528867108e-08
"138" 11449 1.04121560513399e-08 6.49573126567152e-09 3.18450576706241e-09 9.98034692240673e-10 3.66246907529687e-09 2.23642600214179e-09 2.38435639883296e-09 5.74257425163864e-08
"139" 11450 1.04117644072786e-08 6.49052172826582e-09 3.1815102196451e-09 9.98034692240673e-10 3.64418119244335e-09 2.20687616677776e-09 2.3704623222144e-09 5.72262321460619e-08
"140" 11451 1.04113727632172e-08 6.48531219086012e-09 3.17851467222778e-09 9.98034692240673e-10 3.62589330958983e-09 2.17732633141374e-09 2.35656824559584e-09 5.70267217757375e-08
"141" 11452 1.04109811191559e-08 6.48010265345442e-09 3.17551912481046e-09 9.98034692240673e-10 3.60760542673632e-09 2.14777649604971e-09 2.34267416897728e-09 5.6827211405413e-08
"142" 11453 1.04105894750946e-08 6.47489311604872e-09 3.17252357739315e-09 9.98034692240673e-10 3.5893175438828e-09 2.11822666068569e-09 2.32878009235872e-09 5.66277010350886e-08
"143" 11454 1.04101978310332e-08 6.46968357864302e-09 3.16952802997583e-09 9.98034692240673e-10 3.57102966102928e-09 2.08867682532166e-09 2.31488601574017e-09 5.64281906647641e-08
"144" 11455 1.04098061869719e-08 6.46447404123732e-09 3.16653248255852e-09 9.98034692240673e-10 3.55274177817577e-09 2.05912698995763e-09 2.30099193912161e-09 5.62286802944397e-08
"145" 11456 1.04094145429105e-08 6.45926450383162e-09 3.1635369351412e-09 9.98034692240673e-10 3.53445389532225e-09 2.02957715459361e-09 2.28709786250305e-09 5.60291699241152e-08
"146" 11457 1.04090228988492e-08 6.45405496642591e-09 3.16054138772388e-09 9.98034692240673e-10 3.51616601246873e-09 2.00002731922958e-09 2.27320378588449e-09 5.58296595537908e-08
"147" 11458 1.04086312547878e-08 6.44884542902021e-09 3.15754584030657e-09 9.98034692240673e-10 3.49787812961521e-09 1.97047748386555e-09 2.25930970926593e-09 5.56301491834663e-08
"148" 11459 1.04082396107265e-08 6.44363589161451e-09 3.15455029288925e-09 9.98034692240673e-10 3.4795902467617e-09 1.94092764850153e-09 2.24541563264737e-09 5.54306388131419e-08
"149" 11460 1.04137702515032e-08 6.47695837827232e-09 3.19267916228595e-09 9.89608914124117e-10 3.45215781823058e-09 1.90202833690735e-09 2.21655840302109e-09 5.53419880910882e-08
"150" 11461 1.04145275792195e-08 6.4688007234101e-09 3.20889621038036e-09 9.81801665068557e-10 3.42106813539588e-09 1.86312902531317e-09 2.21890790931458e-09 5.51347129333843e-08
"151" 11462 1.04152849069358e-08 6.46064306854789e-09 3.22511325847478e-09 9.73994416012998e-10 3.38997845256118e-09 1.82422971371899e-09 2.22125741560808e-09 5.49274377756805e-08
"152" 11463 1.04164338787135e-08 6.46159617353558e-09 3.24507549801935e-09 9.7469934548387e-10 3.38997845256118e-09 1.82553915512341e-09 2.24426995067981e-09 5.49190272008134e-08
"153" 11464 1.04175828504912e-08 6.44214997166611e-09 3.26130466097006e-09 9.7469934548387e-10 3.36903021738765e-09 1.82423142949297e-09 2.26051353359186e-09 5.46501219190717e-08
"154" 11465 1.02403815926648e-08 6.3945360798946e-09 3.28151779143028e-09 9.75610451308408e-10 3.36819909647027e-09 1.82579110534298e-09 2.29186285032963e-09 5.32523048237115e-08
"155" 11466 1.00631803348383e-08 6.34692218812309e-09 3.3017309218905e-09 9.76521557132946e-10 3.36736797555288e-09 1.827350781193e-09 2.3232121670674e-09 5.18544877283512e-08
"156" 11467 9.88597907701186e-09 6.29930829635157e-09 3.32194405235072e-09 9.77432662957484e-10 3.3665368546355e-09 1.82891045704301e-09 2.35456148380517e-09 5.0456670632991e-08
"157" 11468 9.70877781918541e-09 6.25169440458006e-09 3.34215718281094e-09 9.78343768782022e-10 3.36570573371812e-09 1.83047013289302e-09 2.38591080054294e-09 4.90588535376307e-08
"158" 11469 9.53157656135897e-09 6.20408051280854e-09 3.36237031327115e-09 9.7925487460656e-10 3.36487461280074e-09 1.83202980874303e-09 2.41726011728071e-09 4.76610364422704e-08
"159" 11470 9.35437530353252e-09 6.15646662103703e-09 3.38258344373137e-09 9.80165980431098e-10 3.36404349188336e-09 1.83358948459304e-09 2.44860943401849e-09 4.62632193469102e-08
"160" 11471 9.17717404570607e-09 6.10885272926552e-09 3.40279657419159e-09 9.81077086255636e-10 3.36321237096598e-09 1.83514916044305e-09 2.47995875075626e-09 4.48654022515499e-08
"161" 11472 8.99997278787963e-09 6.061238837494e-09 3.42300970465181e-09 9.81988192080174e-10 3.3623812500486e-09 1.83670883629306e-09 2.51130806749403e-09 4.34675851561897e-08
"162" 11473 8.82277153005318e-09 6.01362494572249e-09 3.44322283511202e-09 9.82899297904712e-10 3.36155012913122e-09 1.83826851214307e-09 2.5426573842318e-09 4.20697680608294e-08
"163" 11474 8.64557027222673e-09 5.96601105395098e-09 3.46343596557224e-09 9.8381040372925e-10 3.36071900821384e-09 1.83982818799309e-09 2.57400670096957e-09 4.06719509654692e-08
"164" 11475 8.46836901440028e-09 5.91839716217946e-09 3.48364909603246e-09 9.84721509553788e-10 3.35988788729645e-09 1.8413878638431e-09 2.60535601770734e-09 3.92741338701089e-08
"165" 11476 8.29116775657384e-09 5.87078327040795e-09 3.50386222649268e-09 9.85632615378326e-10 3.35905676637907e-09 1.84294753969311e-09 2.63670533444511e-09 3.78763167747487e-08
"166" 11477 8.11396649874739e-09 5.82316937863644e-09 3.52407535695289e-09 9.86543721202863e-10 3.35822564546169e-09 1.84450721554312e-09 2.66805465118288e-09 3.64784996793884e-08
"167" 11478 7.93676524092094e-09 5.77555548686492e-09 3.54428848741311e-09 9.87454827027401e-10 3.35739452454431e-09 1.84606689139313e-09 2.69940396792065e-09 3.50806825840281e-08
"168" 11479 7.7595639830945e-09 5.72794159509341e-09 3.56450161787333e-09 9.88365932851939e-10 3.35656340362693e-09 1.84762656724314e-09 2.73075328465842e-09 3.36828654886679e-08
"169" 11480 7.58236272526805e-09 5.6803277033219e-09 3.58471474833355e-09 9.89277038676477e-10 3.35573228270955e-09 1.84918624309315e-09 2.76210260139619e-09 3.22850483933076e-08
"170" 11481 7.4051614674416e-09 5.63271381155038e-09 3.60492787879376e-09 9.90188144501015e-10 3.35490116179217e-09 1.85074591894316e-09 2.79345191813396e-09 3.08872312979474e-08
"171" 11482 7.226161019177e-09 5.59621086179921e-09 3.62514100925398e-09 1.00210519443802e-09 3.39097857721589e-09 1.86533316079098e-09 2.79423583288715e-09 2.95381555518225e-08
"172" 11483 7.09725766507012e-09 5.57280352713399e-09 3.68122801958421e-09 1.00301630026256e-09 3.39264142330149e-09 1.86558339523658e-09 2.79615983469274e-09 2.81875729682265e-08
"173" 11484 6.96835431096324e-09 5.54939619246877e-09 3.73731502991444e-09 1.0039274060871e-09 3.39430426938709e-09 1.86583362968217e-09 2.79808383649833e-09 2.68369903846304e-08
"174" 11485 7.00706879640001e-09 5.52598885780355e-09 3.75747364352132e-09 1.0039274060871e-09 3.37585000121654e-09 1.85049568449757e-09 2.79879674058828e-09 2.66622903373571e-08
"175" 11486 7.04578328183678e-09 5.50258152313833e-09 3.77763225712819e-09 1.0039274060871e-09 3.35739573304599e-09 1.83515773931297e-09 2.79950964467823e-09 2.64875902900838e-08
"176" 11487 7.08449776727355e-09 5.4791741884731e-09 3.79779087073507e-09 1.0039274060871e-09 3.33894146487544e-09 1.81981979412837e-09 2.80022254876818e-09 2.63128902428105e-08
"177" 11488 7.12321225271032e-09 5.45576685380788e-09 3.81794948434195e-09 1.0039274060871e-09 3.32048719670489e-09 1.80448184894376e-09 2.80093545285813e-09 2.61381901955372e-08
"178" 11489 7.16192673814710e-09 5.43235951914266e-09 3.83810809794883e-09 1.0039274060871e-09 3.30203292853434e-09 1.78914390375916e-09 2.80164835694808e-09 2.59634901482639e-08
"179" 11490 7.20064122358387e-09 5.40895218447744e-09 3.85826671155571e-09 1.0039274060871e-09 3.28357866036379e-09 1.77380595857456e-09 2.80236126103803e-09 2.57887901009906e-08
"180" 11491 7.23935570902064e-09 5.38554484981222e-09 3.87842532516259e-09 1.0039274060871e-09 3.26512439219324e-09 1.75846801338996e-09 2.80307416512798e-09 2.56140900537173e-08
"181" 11492 7.27807019445741e-09 5.362137515147e-09 3.89858393876946e-09 1.0039274060871e-09 3.24667012402269e-09 1.74313006820536e-09 2.80378706921793e-09 2.5439390006444e-08
"182" 11493 7.31678467989418e-09 5.33873018048178e-09 3.91874255237634e-09 1.0039274060871e-09 3.22821585585214e-09 1.72779212302075e-09 2.80449997330788e-09 2.52646899591707e-08
"183" 11494 7.35549916533095e-09 5.31532284581655e-09 3.93890116598322e-09 1.0039274060871e-09 3.20976158768159e-09 1.71245417783615e-09 2.80521287739783e-09 2.50899899118974e-08
"184" 11495 7.39421365076772e-09 5.29191551115133e-09 3.9590597795901e-09 1.0039274060871e-09 3.19130731951104e-09 1.69711623265155e-09 2.80592578148778e-09 2.49152898646241e-08
"185" 11496 7.4329281362045e-09 5.26850817648611e-09 3.97921839319698e-09 1.0039274060871e-09 3.17285305134049e-09 1.68177828746695e-09 2.80663868557773e-09 2.47405898173508e-08
"186" 11497 7.47164262164127e-09 5.24510084182089e-09 3.99937700680386e-09 1.0039274060871e-09 3.15439878316994e-09 1.66644034228235e-09 2.80735158966768e-09 2.45658897700775e-08
"187" 11498 7.51035710707804e-09 5.22169350715567e-09 4.01953562041073e-09 1.0039274060871e-09 3.13594451499939e-09 1.65110239709774e-09 2.80806449375763e-09 2.43911897228042e-08
"188" 11499 7.55486080789062e-09 5.24658159206768e-09 4.07562263074096e-09 1.00454593514809e-09 3.13478122769878e-09 1.6479847611717e-09 2.80920458081004e-09 2.44333487737096e-08
"189" 11500 7.5993645087032e-09 5.27146967697969e-09 4.13170964107119e-09 1.00516446420909e-09 3.13361794039817e-09 1.64486712524566e-09 2.81034466786244e-09 2.44755078246151e-08
"190" 11501 7.64386820951579e-09 5.29635776189171e-09 4.18779665140142e-09 1.00578299327009e-09 3.13245465309756e-09 1.64174948931963e-09 2.81148475491484e-09 2.45176668755205e-08
"191" 11502 7.68837191032837e-09 5.32124584680372e-09 4.24388366173165e-09 1.00640152233108e-09 3.13129136579695e-09 1.63863185339359e-09 2.81262484196725e-09 2.4559825926426e-08
"192" 11503 7.73287561114096e-09 5.34613393171573e-09 4.29997067206187e-09 1.00702005139208e-09 3.13012807849634e-09 1.63551421746755e-09 2.81376492901965e-09 2.46019849773314e-08
"193" 11504 7.77737931195354e-09 5.37102201662775e-09 4.3560576823921e-09 1.00763858045307e-09 3.12896479119573e-09 1.63239658154151e-09 2.81490501607206e-09 2.46441440282369e-08
"194" 11505 7.78002454308284e-09 5.37959479181533e-09 4.35830661449064e-09 1.00763858045307e-09 3.12647142844359e-09 1.62834314010546e-09 2.81490501607206e-09 2.4640584528291e-08
"195" 11506 7.78266977421214e-09 5.38816756700291e-09 4.36055554658919e-09 1.00763858045307e-09 3.12397806569144e-09 1.62428969866941e-09 2.81490501607206e-09 2.46370250283451e-08
"196" 11507 7.71732555153273e-09 5.38463706363734e-09 4.36180394373924e-09 1.00684725057233e-09 3.11350485448093e-09 1.62335389315941e-09 2.80421704963797e-09 2.41320216299936e-08
"197" 11508 7.65198132885331e-09 5.38110656027178e-09 4.3630523408893e-09 1.00605592069158e-09 3.10303164327042e-09 1.6224180876494e-09 2.79352908320388e-09 2.36270182316422e-08
"198" 11509 7.5866371061739e-09 5.37757605690621e-09 4.36430073803935e-09 1.00526459081083e-09 3.09255843205992e-09 1.62148228213939e-09 2.78284111676979e-09 2.31220148332907e-08
"199" 11510 7.52129288349449e-09 5.37404555354065e-09 4.3655491351894e-09 1.00447326093008e-09 3.08208522084941e-09 1.62054647662939e-09 2.7721531503357e-09 2.26170114349392e-08
"200" 11511 7.45594866081507e-09 5.37051505017508e-09 4.36679753233946e-09 1.00368193104933e-09 3.0716120096389e-09 1.61961067111938e-09 2.76146518390161e-09 2.21120080365878e-08
"201" 11512 7.39060443813566e-09 5.36698454680952e-09 4.36804592948951e-09 1.00289060116858e-09 3.06113879842839e-09 1.61867486560937e-09 2.75077721746752e-09 2.16070046382363e-08
"202" 11513 7.32526021545625e-09 5.36345404344395e-09 4.36929432663957e-09 1.00209927128784e-09 3.05066558721788e-09 1.61773906009937e-09 2.74008925103343e-09 2.11020012398848e-08
"203" 11514 7.25991599277683e-09 5.35992354007839e-09 4.37054272378962e-09 1.00130794140709e-09 3.04019237600737e-09 1.61680325458936e-09 2.72940128459934e-09 2.05969978415334e-08
"204" 11515 7.19457177009742e-09 5.35639303671282e-09 4.37179112093968e-09 1.00051661152634e-09 3.02971916479686e-09 1.61586744907935e-09 2.71871331816525e-09 2.00919944431819e-08
"205" 11516 7.129227547418e-09 5.35286253334726e-09 4.37303951808973e-09 9.9972528164559e-10 3.01924595358635e-09 1.61493164356935e-09 2.70802535173116e-09 1.95869910448304e-08
"206" 11517 7.06388332473859e-09 5.34933202998169e-09 4.37428791523979e-09 9.98933951764841e-10 3.00877274237584e-09 1.61399583805934e-09 2.69733738529707e-09 1.9081987646479e-08
"207" 11518 6.99853910205918e-09 5.34580152661613e-09 4.37553631238984e-09 9.98142621884093e-10 2.99829953116533e-09 1.61306003254933e-09 2.68664941886298e-09 1.85769842481275e-08
"208" 11519 6.92840317023837e-09 5.3969118599097e-09 4.4104641741647e-09 1.0057770701199e-09 2.99331280566105e-09 1.62739703995156e-09 2.69904723612992e-09 1.80697705748113e-08
"209" 11520 6.88058562355495e-09 5.47498375367434e-09 4.41045811673655e-09 1.00469316347561e-09 2.98250682381647e-09 1.62739703995156e-09 2.69199256284275e-09 1.7673466531008e-08
"210" 11521 6.76051162744498e-09 5.32509141103189e-09 4.38129468859328e-09 1.00440058671207e-09 2.97968069043026e-09 1.62820772823877e-09 2.69448576893727e-09 1.76013231883864e-08
"211" 11522 6.78204672445970e-09 5.40919274344975e-09 4.37332069614612e-09 1.00202659706982e-09 2.98034562744756e-09 1.62914353374877e-09 2.69213458416922e-09 1.75291798457648e-08
"212" 11523 6.8035818214744e-09 5.4932940758676e-09 4.36534670369895e-09 9.99652607427578e-10 2.98101056446485e-09 1.63007933925878e-09 2.68978339940118e-09 1.74570365031431e-08
"213" 11524 6.82511691848911e-09 5.57739540828546e-09 4.35737271125179e-09 9.97278617785333e-10 2.98167550148215e-09 1.63101514476879e-09 2.68743221463313e-09 1.73848931605215e-08
"214" 11525 6.84665201550382e-09 5.66149674070332e-09 4.34939871880463e-09 9.94904628143087e-10 2.98234043849944e-09 1.63195095027879e-09 2.68508102986509e-09 1.73127498178998e-08
"215" 11526 6.86818711251853e-09 5.74559807312117e-09 4.34142472635747e-09 9.92530638500842e-10 2.98300537551673e-09 1.6328867557888e-09 2.68272984509704e-09 1.72406064752782e-08
"216" 11527 6.88972220953324e-09 5.82969940553903e-09 4.3334507339103e-09 9.90156648858596e-10 2.98367031253403e-09 1.63382256129881e-09 2.680378660329e-09 1.71684631326566e-08
"217" 11528 6.91125730654795e-09 5.91380073795688e-09 4.32547674146314e-09 9.87782659216351e-10 2.98433524955132e-09 1.63475836680881e-09 2.67802747556095e-09 1.70963197900349e-08
"218" 11529 6.93279240356266e-09 5.99790207037474e-09 4.31750274901598e-09 9.85408669574105e-10 2.98500018656862e-09 1.63569417231882e-09 2.67567629079291e-09 1.70241764474133e-08
"219" 11530 6.95432750057737e-09 6.0820034027926e-09 4.30952875656881e-09 9.8303467993186e-10 2.98566512358591e-09 1.63662997782883e-09 2.67332510602486e-09 1.69520331047917e-08
"220" 11531 6.97586259759208e-09 6.16610473521045e-09 4.30155476412165e-09 9.80660690289614e-10 2.9863300606032e-09 1.63756578333883e-09 2.67097392125682e-09 1.687988976217e-08
"221" 11532 6.99739769460679e-09 6.25020606762831e-09 4.29358077167449e-09 9.78286700647369e-10 2.9869949976205e-09 1.63850158884884e-09 2.66862273648877e-09 1.68077464195484e-08
"222" 11533 7.0189327916215e-09 6.33430740004616e-09 4.28560677922732e-09 9.75912711005123e-10 2.98765993463779e-09 1.63943739435885e-09 2.66627155172073e-09 1.67356030769267e-08
"223" 11534 7.04046788863621e-09 6.41840873246402e-09 4.27763278678016e-09 9.73538721362878e-10 2.98832487165509e-09 1.64037319986885e-09 2.66392036695268e-09 1.66634597343051e-08
"224" 11535 7.06200298565092e-09 6.50251006488188e-09 4.269658794333e-09 9.71164731720632e-10 2.98898980867238e-09 1.64130900537886e-09 2.66156918218464e-09 1.65913163916835e-08
"225" 11536 7.08353808266563e-09 6.58661139729973e-09 4.26168480188584e-09 9.68790742078387e-10 2.98965474568967e-09 1.64224481088887e-09 2.65921799741659e-09 1.65191730490618e-08
"226" 11537 7.10507317968034e-09 6.67071272971759e-09 4.25371080943867e-09 9.66416752436142e-10 2.99031968270697e-09 1.64318061639887e-09 2.65686681264855e-09 1.64470297064402e-08
"227" 11538 7.12660827669505e-09 6.75481406213544e-09 4.24573681699151e-09 9.64042762793896e-10 2.99098461972426e-09 1.64411642190888e-09 2.6545156278805e-09 1.63748863638185e-08
"228" 11539 7.14814337370976e-09 6.8389153945533e-09 4.23776282454435e-09 9.61668773151651e-10 2.99164955674156e-09 1.64505222741889e-09 2.65216444311246e-09 1.63027430211969e-08
"229" 11540 7.16967847072447e-09 6.92301672697116e-09 4.22978883209718e-09 9.59294783509405e-10 2.99231449375885e-09 1.64598803292889e-09 2.64981325834442e-09 1.62305996785753e-08
"230" 11541 7.17368689174318e-09 6.91694288707122e-09 4.23302921300199e-09 9.69442646673297e-10 3.00378541262072e-09 1.6469238384389e-09 2.64874530093828e-09 1.60475467064407e-08
"231" 11542 7.13422264291537e-09 6.85205541088598e-09 4.23078028090345e-09 9.70233976554045e-10 3.00694411522405e-09 1.65004147436494e-09 2.64689286928744e-09 1.60517519938743e-08
"232" 11543 7.14686133246987e-09 6.87581795552501e-09 4.22678419853765e-09 9.70406777373797e-10 3.01425842241428e-09 1.65340934473657e-09 2.6491014732375e-09 1.59110248085769e-08
"233" 11544 7.15950002202436e-09 6.89958050016404e-09 4.22278811617184e-09 9.7057957819355e-10 3.02157272960452e-09 1.65677721510821e-09 2.65131007718755e-09 1.57702976232795e-08
"234" 11545 7.17213871157886e-09 6.92334304480307e-09 4.21879203380604e-09 9.70752379013302e-10 3.02888703679475e-09 1.66014508547984e-09 2.65351868113761e-09 1.56295704379821e-08
"235" 11546 7.18477740113335e-09 6.9471055894421e-09 4.21479595144023e-09 9.70925179833054e-10 3.03620134398499e-09 1.66351295585148e-09 2.65572728508766e-09 1.54888432526847e-08
"236" 11547 7.19741609068785e-09 6.97086813408113e-09 4.21079986907443e-09 9.71097980652806e-10 3.04351565117522e-09 1.66688082622311e-09 2.65793588903772e-09 1.53481160673873e-08
"237" 11548 7.21005478024234e-09 6.99463067872016e-09 4.20680378670862e-09 9.71270781472558e-10 3.05082995836545e-09 1.67024869659475e-09 2.66014449298777e-09 1.52073888820899e-08
"238" 11549 7.22269346979684e-09 7.01839322335919e-09 4.20280770434282e-09 9.7144358229231e-10 3.05814426555569e-09 1.67361656696638e-09 2.66235309693783e-09 1.50666616967925e-08
"239" 11550 7.23533215935133e-09 7.04215576799822e-09 4.19881162197701e-09 9.71616383112062e-10 3.06545857274592e-09 1.67698443733801e-09 2.66456170088788e-09 1.49259345114951e-08
"240" 11551 7.24797084890583e-09 7.06591831263725e-09 4.19481553961121e-09 9.71789183931814e-10 3.07277287993616e-09 1.68035230770965e-09 2.66677030483794e-09 1.47852073261977e-08
"241" 11552 7.26060953846032e-09 7.08968085727628e-09 4.1908194572454e-09 9.71961984751566e-10 3.08008718712639e-09 1.68372017808128e-09 2.66897890878799e-09 1.46444801409003e-08
"242" 11553 7.27324822801482e-09 7.11344340191531e-09 4.1868233748796e-09 9.72134785571318e-10 3.08740149431663e-09 1.68708804845292e-09 2.67118751273805e-09 1.45037529556029e-08
"243" 11554 7.28588691756931e-09 7.13720594655434e-09 4.18282729251379e-09 9.7230758639107e-10 3.09471580150686e-09 1.69045591882455e-09 2.6733961166881e-09 1.43630257703055e-08
"244" 11555 7.30106372919725e-09 7.16169442024582e-09 4.17061844164148e-09 9.73098916271818e-10 3.08540466909529e-09 1.68534327042968e-09 2.67474979522173e-09 1.43191066709883e-08
"245" 11556 7.31624054082518e-09 7.1861828939373e-09 4.15840959076917e-09 9.73890246152567e-10 3.07609353668371e-09 1.68023062203482e-09 2.67610347375536e-09 1.42751875716712e-08
"246" 11557 7.33141735245311e-09 7.21067136762878e-09 4.14620073989686e-09 9.74681576033316e-10 3.06678240427214e-09 1.67511797363995e-09 2.67745715228899e-09 1.42312684723541e-08
"247" 11558 7.34659416408105e-09 7.23515984132026e-09 4.13399188902455e-09 9.75472905914064e-10 3.05747127186056e-09 1.67000532524508e-09 2.67881083082262e-09 1.4187349373037e-08
"248" 11559 7.36177097570898e-09 7.25964831501173e-09 4.12178303815224e-09 9.76264235794812e-10 3.04816013944899e-09 1.66489267685022e-09 2.68016450935626e-09 1.41434302737198e-08
"249" 11560 7.37694778733692e-09 7.28413678870321e-09 4.10957418727993e-09 9.77055565675561e-10 3.03884900703741e-09 1.65978002845535e-09 2.68151818788989e-09 1.40995111744027e-08
"250" 11561 7.39212459896485e-09 7.30862526239469e-09 4.09736533640762e-09 9.77846895556309e-10 3.02953787462584e-09 1.65466738006048e-09 2.68287186642352e-09 1.40555920750856e-08
"251" 11562 7.40730141059279e-09 7.33311373608617e-09 4.08515648553531e-09 9.78638225437058e-10 3.02022674221426e-09 1.64955473166561e-09 2.68422554495715e-09 1.40116729757684e-08
"252" 11563 7.38138464457908e-09 7.32427455341823e-09 4.08815809038077e-09 9.80753013849675e-10 3.03219742127807e-09 1.64225853708073e-09 2.67125852340128e-09 1.38542913766686e-08
"253" 11564 7.37478618067422e-09 7.33516348920494e-09 4.08716361286043e-09 9.82867802262293e-10 3.04416810034187e-09 1.69574509052273e-09 2.67752984142678e-09 1.36961563588331e-08
"254" 11565 7.36818771676937e-09 7.34605242499165e-09 4.08616913534009e-09 9.8498259067491e-10 3.05613877940568e-09 1.74923164396472e-09 2.68380115945228e-09 1.35380213409976e-08
"255" 11566 7.36158925286452e-09 7.35694136077836e-09 4.08517465781976e-09 9.87097379087527e-10 3.06810945846948e-09 1.80271819740672e-09 2.69007247747777e-09 1.33798863231622e-08
"256" 11567 7.35499078895967e-09 7.36783029656508e-09 4.08418018029942e-09 9.89212167500145e-10 3.08008013753329e-09 1.85620475084871e-09 2.69634379550327e-09 1.32217513053267e-08
"257" 11568 7.34839232505482e-09 7.37871923235179e-09 4.08318570277908e-09 9.91326955912762e-10 3.09205081659709e-09 1.90969130429071e-09 2.70261511352876e-09 1.30636162874912e-08
"258" 11569 7.34179386114996e-09 7.3896081681385e-09 4.08219122525874e-09 9.9344174432538e-10 3.1040214956609e-09 1.9631778577327e-09 2.70888643155426e-09 1.29054812696558e-08
"259" 11570 7.33519539724511e-09 7.40049710392521e-09 4.0811967477384e-09 9.95556532737997e-10 3.1159921747247e-09 2.0166644111747e-09 2.71515774957976e-09 1.27473462518203e-08
"260" 11571 7.32859693334026e-09 7.41138603971192e-09 4.08020227021806e-09 9.97671321150614e-10 3.12796285378851e-09 2.07015096461669e-09 2.72142906760525e-09 1.25892112339848e-08
"261" 11572 7.3219984694354e-09 7.42227497549863e-09 4.07920779269772e-09 9.99786109563232e-10 3.13993353285231e-09 2.12363751805869e-09 2.72770038563075e-09 1.24310762161493e-08
"262" 11573 7.31540000553055e-09 7.43316391128534e-09 4.07821331517738e-09 1.00190089797585e-09 3.15190421191612e-09 2.17712407150069e-09 2.73397170365625e-09 1.22729411983139e-08
"263" 11574 7.3088015416257e-09 7.44405284707205e-09 4.07721883765704e-09 1.00401568638847e-09 3.16387489097992e-09 2.23061062494268e-09 2.74024302168174e-09 1.21148061804784e-08
"264" 11575 7.30220307772085e-09 7.45494178285876e-09 4.0762243601367e-09 1.00613047480108e-09 3.17584557004373e-09 2.28409717838468e-09 2.74651433970724e-09 1.19566711626429e-08
"265" 11576 7.295604613816e-09 7.46583071864547e-09 4.07522988261636e-09 1.0082452632137e-09 3.18781624910753e-09 2.33758373182667e-09 2.75278565773273e-09 1.17985361448075e-08
"266" 11577 7.31457562835091e-09 7.48175158685098e-09 4.07497899170072e-09 1.00944894580178e-09 3.196295253517e-09 2.40023637509958e-09 2.7720239973141e-09 1.18079730509119e-08
"267" 11578 7.35529595801227e-09 7.49522309071718e-09 4.06625838393478e-09 9.95517234053899e-10 3.18947909519313e-09 2.39001107830985e-09 2.77238016961331e-09 1.17643071625352e-08
"268" 11579 7.36088935135741e-09 7.49681332226386e-09 4.06353189971755e-09 9.83028756781675e-10 3.18366124877146e-09 2.40684013552412e-09 2.78071695127936e-09 1.17561209736057e-08
"269" 11580 7.36648274470255e-09 7.49840355381055e-09 4.06080541550032e-09 9.70540279509451e-10 3.1778434023498e-09 2.42366919273839e-09 2.7890537329454e-09 1.17479347846761e-08
"270" 11581 7.37207613804769e-09 7.49999378535723e-09 4.05807893128309e-09 9.58051802237227e-10 3.17202555592813e-09 2.44049824995267e-09 2.79739051461145e-09 1.17397485957466e-08
"271" 11582 7.37766953139282e-09 7.50158401690391e-09 4.05535244706587e-09 9.45563324965004e-10 3.16620770950646e-09 2.45732730716694e-09 2.80572729627749e-09 1.1731562406817e-08
"272" 11583 7.38326292473796e-09 7.5031742484506e-09 4.05262596284864e-09 9.3307484769278e-10 3.16038986308479e-09 2.47415636438122e-09 2.81406407794354e-09 1.17233762178875e-08
"273" 11584 7.3888563180831e-09 7.50476447999728e-09 4.04989947863141e-09 9.20586370420556e-10 3.15457201666313e-09 2.49098542159549e-09 2.82240085960958e-09 1.17151900289579e-08
"274" 11585 7.39444971142824e-09 7.50635471154396e-09 4.04717299441418e-09 9.08097893148332e-10 3.14875417024146e-09 2.50781447880976e-09 2.83073764127563e-09 1.17070038400284e-08
"275" 11586 7.40004310477338e-09 7.50794494309064e-09 4.04444651019695e-09 8.95609415876109e-10 3.14293632381979e-09 2.52464353602404e-09 2.83907442294167e-09 1.16988176510989e-08
"276" 11587 7.40563649811852e-09 7.50953517463733e-09 4.04172002597972e-09 8.83120938603885e-10 3.13711847739812e-09 2.54147259323831e-09 2.84741120460772e-09 1.16906314621693e-08
"277" 11588 7.41122989146366e-09 7.51112540618401e-09 4.03899354176249e-09 8.70632461331661e-10 3.13130063097646e-09 2.55830165045259e-09 2.85574798627376e-09 1.16824452732398e-08
"278" 11589 7.4168232848088e-09 7.51271563773069e-09 4.03626705754526e-09 8.58143984059438e-10 3.12548278455479e-09 2.57513070766686e-09 2.86408476793981e-09 1.16742590843102e-08
"279" 11590 7.42241667815394e-09 7.51430586927738e-09 4.03354057332803e-09 8.45655506787214e-10 3.11966493813312e-09 2.59195976488113e-09 2.87242154960585e-09 1.16660728953807e-08
"280" 11591 7.42801007149908e-09 7.51589610082406e-09 4.0308140891108e-09 8.3316702951499e-10 3.11384709171145e-09 2.60878882209541e-09 2.8807583312719e-09 1.16578867064511e-08
"281" 11592 7.43360346484422e-09 7.51748633237074e-09 4.02808760489357e-09 8.20678552242766e-10 3.10802924528979e-09 2.62561787930968e-09 2.88909511293794e-09 1.16497005175216e-08
"282" 11593 7.43919685818936e-09 7.51907656391742e-09 4.02536112067634e-09 8.08190074970543e-10 3.10221139886812e-09 2.64244693652395e-09 2.89743189460399e-09 1.16415143285921e-08
"283" 11594 7.4447902515345e-09 7.52066679546411e-09 4.02263463645911e-09 7.95701597698319e-10 3.09639355244645e-09 2.65927599373823e-09 2.90576867627003e-09 1.16333281396625e-08
"284" 11595 7.45038364487964e-09 7.52225702701079e-09 4.01990815224189e-09 7.83213120426095e-10 3.09057570602478e-09 2.6761050509525e-09 2.91410545793608e-09 1.1625141950733e-08
"285" 11596 7.45597703822478e-09 7.52384725855747e-09 4.01718166802466e-09 7.70724643153871e-10 3.08475785960312e-09 2.69293410816678e-09 2.92244223960212e-09 1.16169557618034e-08
"286" 11597 7.46157043156992e-09 7.52543749010416e-09 4.01445518380743e-09 7.58236165881648e-10 3.07894001318145e-09 2.70976316538105e-09 2.93077902126817e-09 1.16087695728739e-08
"287" 11598 7.46716382491505e-09 7.52702772165084e-09 4.0117286995902e-09 7.45747688609424e-10 3.07312216675978e-09 2.72659222259532e-09 2.93911580293421e-09 1.16005833839444e-08
"288" 11599 7.47275721826019e-09 7.52997583910735e-09 4.01573083938415e-09 7.4540208696992e-10 3.08060406776872e-09 2.75607864146096e-09 2.94666866984707e-09 1.16396225833374e-08
"289" 11600 7.5218124496961e-09 7.5412643861146e-09 4.01199776279029e-09 7.4419840438184e-10 3.08459429412333e-09 2.75944651183259e-09 2.9546492792139e-09 1.1590294551298e-08
"290" 11601 7.60317952469459e-09 7.62260037576446e-09 4.01698226524828e-09 7.42994721793761e-10 3.08542561645765e-09 2.7679270305991e-09 2.97545376982708e-09 1.1590294551298e-08
"291" 11602 7.68454659969309e-09 7.70393636541431e-09 4.02196676770628e-09 7.41791039205682e-10 3.08625693879198e-09 2.7764075493656e-09 2.99625826044027e-09 1.1590294551298e-08
"292" 11603 7.76591367469158e-09 7.78527235506417e-09 4.02695127016427e-09 7.40587356617602e-10 3.08708826112631e-09 2.7848880681321e-09 3.01706275105346e-09 1.1590294551298e-08
"293" 11604 7.84728074969008e-09 7.86660834471402e-09 4.03193577262227e-09 7.39383674029523e-10 3.08791958346063e-09 2.7933685868986e-09 3.03786724166664e-09 1.1590294551298e-08
"294" 11605 7.92864782468857e-09 7.94794433436388e-09 4.03692027508026e-09 7.38179991441443e-10 3.08875090579496e-09 2.8018491056651e-09 3.05867173227983e-09 1.1590294551298e-08
"295" 11606 8.01001489968707e-09 8.02928032401373e-09 4.04190477753826e-09 7.36976308853364e-10 3.08958222812929e-09 2.8103296244316e-09 3.07947622289302e-09 1.1590294551298e-08
"296" 11607 8.09138197468556e-09 8.11061631366358e-09 4.04688927999625e-09 7.35772626265284e-10 3.09041355046361e-09 2.81881014319811e-09 3.10028071350621e-09 1.1590294551298e-08
"297" 11608 8.17274904968406e-09 8.19195230331344e-09 4.05187378245425e-09 7.34568943677205e-10 3.09124487279794e-09 2.82729066196461e-09 3.12108520411939e-09 1.1590294551298e-08
"298" 11609 8.25411612468255e-09 8.27328829296329e-09 4.05685828491224e-09 7.33365261089125e-10 3.09207619513227e-09 2.83577118073111e-09 3.14188969473258e-09 1.1590294551298e-08
"299" 11610 8.33548319968105e-09 8.35462428261315e-09 4.06184278737024e-09 7.32161578501046e-10 3.09290751746659e-09 2.84425169949761e-09 3.16269418534577e-09 1.1590294551298e-08
"300" 11611 8.41685027467954e-09 8.435960272263e-09 4.06682728982823e-09 7.30957895912967e-10 3.09373883980092e-09 2.85273221826411e-09 3.18349867595895e-09 1.1590294551298e-08
"301" 11612 8.49821734967804e-09 8.51729626191286e-09 4.07181179228623e-09 7.29754213324887e-10 3.09457016213525e-09 2.86121273703061e-09 3.20430316657214e-09 1.1590294551298e-08
"302" 11613 8.57639608394262e-09 8.59889865904307e-09 4.07853133015519e-09 7.3045914279576e-10 3.09573405368669e-09 2.86969325579712e-09 3.22467991473136e-09 1.16243962007611e-08
"303" 11614 8.6545748182072e-09 8.68050105617328e-09 4.08525086802415e-09 7.31164072266632e-10 3.09689794523814e-09 2.87817377456362e-09 3.24505666289057e-09 1.16584978502241e-08
"304" 11615 8.73275355247178e-09 8.76210345330349e-09 4.09197040589311e-09 7.31869001737505e-10 3.09806183678959e-09 2.88665429333012e-09 3.26543341104979e-09 1.16925994996872e-08
"305" 11616 8.81093228673636e-09 8.8437058504337e-09 4.09868994376207e-09 7.32573931208377e-10 3.09922572834104e-09 2.89513481209662e-09 3.28581015920901e-09 1.17267011491502e-08
"306" 11617 8.88911102100094e-09 8.92530824756391e-09 4.10540948163103e-09 7.33278860679249e-10 3.10038961989248e-09 2.90361533086312e-09 3.30618690736823e-09 1.17608027986133e-08
"307" 11618 8.96728975526552e-09 9.00691064469413e-09 4.11212901949999e-09 7.33983790150122e-10 3.10155351144393e-09 2.91209584962963e-09 3.32656365552744e-09 1.17949044480763e-08
"308" 11619 9.0454684895301e-09 9.08851304182434e-09 4.11884855736895e-09 7.34688719620994e-10 3.10271740299538e-09 2.92057636839613e-09 3.34694040368666e-09 1.18290060975394e-08
"309" 11620 9.06575507003657e-09 9.13039279456489e-09 4.11884855736895e-09 7.34515918801242e-10 3.09224419178487e-09 2.91727191452288e-09 3.36553629034979e-09 1.17697923875205e-08
"310" 11621 9.08604165054303e-09 9.17227254730545e-09 4.11884855736895e-09 7.3434311798149e-10 3.08177098057436e-09 2.91396746064964e-09 3.38413217701292e-09 1.17105786775017e-08
"311" 11622 9.09417316596161e-09 9.12370555054625e-09 4.11211993335776e-09 7.3434311798149e-10 3.07445667338412e-09 2.9037421638599e-09 3.38598460866376e-09 1.17440830660413e-08
"312" 11623 9.03224663077844e-09 9.07609165877474e-09 4.10315146339026e-09 7.42495968676554e-10 3.06863802129467e-09 2.89108480220854e-09 3.43080249753219e-09 1.17440830660413e-08
"313" 11624 8.97032009559526e-09 9.02847776700322e-09 4.09418299342276e-09 7.50648819371618e-10 3.06281936920522e-09 2.87842744055718e-09 3.47562038640061e-09 1.17440830660413e-08
"314" 11625 8.90839356041208e-09 8.98086387523171e-09 4.08521452345526e-09 7.58801670066682e-10 3.05700071711577e-09 2.86577007890582e-09 3.52043827526903e-09 1.17440830660413e-08
"315" 11626 8.84646702522891e-09 8.9332499834602e-09 4.07624605348775e-09 7.66954520761745e-10 3.05118206502632e-09 2.85311271725445e-09 3.56525616413746e-09 1.17440830660413e-08
"316" 11627 8.78454049004573e-09 8.88563609168868e-09 4.06727758352025e-09 7.75107371456809e-10 3.04536341293687e-09 2.84045535560309e-09 3.61007405300588e-09 1.17440830660413e-08
"317" 11628 8.72261395486255e-09 8.83802219991717e-09 4.05830911355275e-09 7.83260222151873e-10 3.03954476084742e-09 2.82779799395173e-09 3.6548919418743e-09 1.17440830660413e-08
"318" 11629 8.66068741967938e-09 8.79040830814566e-09 4.04934064358525e-09 7.91413072846937e-10 3.03372610875797e-09 2.81514063230037e-09 3.69970983074273e-09 1.17440830660413e-08
"319" 11630 8.5987608844962e-09 8.74279441637414e-09 4.04037217361774e-09 7.99565923542e-10 3.02790745666852e-09 2.80248327064901e-09 3.74452771961115e-09 1.17440830660413e-08
"320" 11631 8.53683434931302e-09 8.69518052460263e-09 4.03140370365024e-09 8.07718774237064e-10 3.02208880457907e-09 2.78982590899764e-09 3.78934560847958e-09 1.17440830660413e-08
"321" 11632 8.47490781412985e-09 8.64756663283111e-09 4.02243523368274e-09 8.15871624932128e-10 3.01627015248961e-09 2.77716854734628e-09 3.834163497348e-09 1.17440830660413e-08
"322" 11633 8.41298127894667e-09 8.5999527410596e-09 4.01346676371524e-09 8.24024475627192e-10 3.01045150040016e-09 2.76451118569492e-09 3.87898138621642e-09 1.17440830660413e-08
"323" 11634 8.40376354431887e-09 8.59859485514977e-09 4.01122691775892e-09 8.32968656203004e-10 3.01045150040016e-09 2.76077139520286e-09 3.92558013658093e-09 1.18285285006614e-08
"324" 11635 8.36069335028945e-09 8.57438829804348e-09 4.00498493200864e-09 8.4129430771782e-10 3.00679323901184e-09 2.75871468200962e-09 3.97175170398299e-09 1.19370702427195e-08
"325" 11636 8.31762315626003e-09 8.55018174093718e-09 3.99874294625837e-09 8.49619959232636e-10 3.00313497762352e-09 2.75665796881639e-09 4.01792327138504e-09 1.20456119847777e-08
"326" 11637 8.38212460567875e-09 8.64523191949331e-09 4.01271409096831e-09 8.49619959232636e-10 3.00213666572133e-09 2.76725861727451e-09 4.02967919522527e-09 1.20455043535297e-08
"327" 11638 8.36266566978238e-09 8.64007195303594e-09 4.00671996741961e-09 8.52871679165506e-10 2.99465476471239e-09 2.76551383925128e-09 4.0310328737589e-09 1.20463062988295e-08
"328" 11639 8.34320673388601e-09 8.63491198657858e-09 4.0007258438709e-09 8.56123399098375e-10 2.98717286370344e-09 2.76376906122805e-09 4.03238655229253e-09 1.20471082441293e-08
"329" 11640 8.32374779798964e-09 8.62975202012121e-09 3.99473172032219e-09 8.59375119031246e-10 2.9796909626945e-09 2.76202428320482e-09 4.03374023082616e-09 1.20479101894291e-08
"330" 11641 8.30428886209327e-09 8.62459205366385e-09 3.98873759677349e-09 8.62626838964115e-10 2.97220906168556e-09 2.76027950518158e-09 4.03509390935979e-09 1.20487121347289e-08
"331" 11642 8.28482992619689e-09 8.61943208720648e-09 3.98274347322478e-09 8.65878558896985e-10 2.96472716067662e-09 2.75853472715835e-09 4.03644758789342e-09 1.20495140800286e-08
"332" 11643 8.26537099030052e-09 8.61427212074912e-09 3.97674934967607e-09 8.69130278829855e-10 2.95724525966767e-09 2.75678994913512e-09 4.03780126642705e-09 1.20503160253284e-08
"333" 11644 8.24591205440415e-09 8.60911215429176e-09 3.97075522612737e-09 8.72381998762725e-10 2.94976335865873e-09 2.75504517111188e-09 4.03915494496068e-09 1.20511179706282e-08
"334" 11645 8.22645311850778e-09 8.60395218783439e-09 3.96476110257866e-09 8.75633718695595e-10 2.94228145764979e-09 2.75330039308865e-09 4.04050862349432e-09 1.2051919915928e-08
"335" 11646 8.20699418261141e-09 8.59879222137703e-09 3.95876697902995e-09 8.78885438628465e-10 2.93479955664085e-09 2.75155561506542e-09 4.04186230202795e-09 1.20527218612278e-08
"336" 11647 8.18753524671504e-09 8.59363225491966e-09 3.95277285548124e-09 8.82137158561335e-10 2.92731765563191e-09 2.74981083704218e-09 4.04321598056158e-09 1.20535238065275e-08
"337" 11648 8.16807631081867e-09 8.5884722884623e-09 3.94677873193254e-09 8.85388878494205e-10 2.91983575462296e-09 2.74806605901895e-09 4.04456965909521e-09 1.20543257518273e-08
"338" 11649 8.14861737492229e-09 8.58331232200493e-09 3.94078460838383e-09 8.88640598427075e-10 2.91235385361402e-09 2.74632128099572e-09 4.04592333762884e-09 1.20551276971271e-08
"339" 11650 8.12915843902592e-09 8.57815235554757e-09 3.93479048483512e-09 8.91892318359945e-10 2.90487195260508e-09 2.74457650297249e-09 4.04727701616247e-09 1.20559296424269e-08
"340" 11651 8.10969950312955e-09 8.5729923890902e-09 3.92879636128642e-09 8.95144038292815e-10 2.89739005159614e-09 2.74283172494925e-09 4.0486306946961e-09 1.20567315877267e-08
"341" 11652 8.09024056723318e-09 8.56783242263284e-09 3.92280223773771e-09 8.98395758225685e-10 2.88990815058719e-09 2.74108694692602e-09 4.04998437322973e-09 1.20575335330265e-08
"342" 11653 8.07078163133681e-09 8.56267245617547e-09 3.916808114189e-09 9.01647478158555e-10 2.88242624957825e-09 2.73934216890279e-09 4.05133805176336e-09 1.20583354783262e-08
"343" 11654 8.05132269544044e-09 8.55751248971811e-09 3.9108139906403e-09 9.04899198091425e-10 2.87494434856931e-09 2.73759739087955e-09 4.05269173029699e-09 1.2059137423626e-08
"344" 11655 8.03186375954407e-09 8.55235252326074e-09 3.90481986709159e-09 9.08150918024295e-10 2.86746244756037e-09 2.73585261285632e-09 4.05404540883062e-09 1.20599393689258e-08
"345" 11656 8.00831525397947e-09 8.55235252326074e-09 3.90407325177282e-09 9.12021167018161e-10 2.86929107471216e-09 2.72681164024821e-09 4.05539908736426e-09 1.20610445064082e-08
"346" 11657 8.02973567761302e-09 8.57235221889736e-09 3.90033714646488e-09 9.16183992775569e-10 2.8701219942126e-09 2.71852137097687e-09 4.05440102163833e-09 1.2025593631964e-08
"347" 11658 8.07744611524057e-09 8.57643104632847e-09 3.89859302491169e-09 9.16183992775569e-10 2.86895810266115e-09 2.71010598448275e-09 4.0623100608504e-09 1.19899274950239e-08
"348" 11659 8.09422629527599e-09 8.59221354109219e-09 3.89560959235067e-09 9.16390169129235e-10 2.86895810266115e-09 2.70169059798862e-09 4.0587472188752e-09 1.19593368189425e-08
"349" 11660 8.09288150146764e-09 8.59439132824953e-09 3.8938745569397e-09 9.20552994886643e-10 2.88724497842994e-09 2.7024413013254e-09 4.05639547461564e-09 1.19236706820024e-08
"350" 11661 8.09153670765928e-09 8.59656911540687e-09 3.89213952152874e-09 9.24715820644051e-10 2.90553185419873e-09 2.70319200466219e-09 4.05404373035608e-09 1.18880045450623e-08
"351" 11662 8.09019191385093e-09 8.59874690256421e-09 3.89040448611778e-09 9.28878646401459e-10 2.92381872996751e-09 2.70394270799897e-09 4.05169198609651e-09 1.18523384081222e-08
"352" 11663 8.08884712004258e-09 8.60092468972155e-09 3.88866945070681e-09 9.33041472158866e-10 2.9421056057363e-09 2.70469341133576e-09 4.04934024183695e-09 1.18166722711821e-08
"353" 11664 8.08750232623422e-09 8.6031024768789e-09 3.88693441529585e-09 9.37204297916274e-10 2.96039248150509e-09 2.70544411467254e-09 4.04698849757739e-09 1.1781006134242e-08
"354" 11665 8.08615753242587e-09 8.60528026403624e-09 3.88519937988488e-09 9.41367123673682e-10 2.97867935727388e-09 2.70619481800933e-09 4.04463675331783e-09 1.17453399973019e-08
"355" 11666 8.08481273861752e-09 8.60745805119358e-09 3.88346434447392e-09 9.4552994943109e-10 2.99696623304267e-09 2.70694552134611e-09 4.04228500905827e-09 1.17096738603618e-08
"356" 11667 8.08346794480916e-09 8.60963583835092e-09 3.88172930906296e-09 9.49692775188498e-10 3.01525310881145e-09 2.7076962246829e-09 4.03993326479871e-09 1.16740077234217e-08
"357" 11668 8.08212315100081e-09 8.61181362550827e-09 3.87999427365199e-09 9.53855600945906e-10 3.03353998458024e-09 2.70844692801968e-09 4.03758152053915e-09 1.16383415864816e-08
"358" 11669 8.00075607600231e-09 8.61168042176809e-09 3.87999427365199e-09 9.57107320878776e-10 3.03636511088172e-09 2.70919763135647e-09 4.0386500374368e-09 1.16392314614681e-08
"359" 11670 7.91938900100382e-09 8.61154721802791e-09 3.87999427365199e-09 9.60359040811646e-10 3.0391902371832e-09 2.70994833469325e-09 4.03971855433445e-09 1.16401213364546e-08
"360" 11671 7.83802192600533e-09 8.61141401428773e-09 3.87999427365199e-09 9.63610760744516e-10 3.04201536348468e-09 2.71069903803004e-09 4.0407870712321e-09 1.1641011211441e-08
"361" 11672 7.75665485100683e-09 8.61128081054755e-09 3.87999427365199e-09 9.66862480677386e-10 3.04484048978616e-09 2.71144974136682e-09 4.04185558812975e-09 1.16419010864275e-08
"362" 11673 7.67528777600833e-09 8.61114760680737e-09 3.87999427365199e-09 9.70114200610256e-10 3.04766561608764e-09 2.71220044470361e-09 4.0429241050274e-09 1.1642790961414e-08
"363" 11674 7.59392070100984e-09 8.61101440306720e-09 3.87999427365199e-09 9.73365920543126e-10 3.05049074238912e-09 2.71295114804039e-09 4.04399262192505e-09 1.16436808364004e-08
"364" 11675 7.51255362601134e-09 8.61088119932702e-09 3.87999427365199e-09 9.76617640475996e-10 3.0533158686906e-09 2.71370185137718e-09 4.0450611388227e-09 1.16445707113869e-08
"365" 11676 7.43118655101285e-09 8.61074799558684e-09 3.87999427365199e-09 9.79869360408866e-10 3.05614099499208e-09 2.71445255471396e-09 4.04612965572036e-09 1.16454605863734e-08
"366" 11677 7.38213131957695e-09 8.57049253623647e-09 3.88000335979422e-09 9.8021496204837e-10 3.06611505025149e-09 2.71520325805075e-09 4.03223501961028e-09 1.16439446254605e-08
"367" 11678 7.33307608814104e-09 8.5302370768861e-09 3.88001244593644e-09 9.80560563687874e-10 3.0760891055109e-09 2.71595396138753e-09 4.0183403835002e-09 1.16424286645476e-08
"368" 11679 7.28402085670514e-09 8.48998161753574e-09 3.88002153207866e-09 9.80906165327378e-10 3.08606316077031e-09 2.71670466472432e-09 4.00444574739013e-09 1.16409127036347e-08
"369" 11680 7.24333731920589e-09 8.45162719845913e-09 3.88177776848815e-09 9.7729511756314e-10 3.07658644870949e-09 2.70810246028299e-09 3.99055111128006e-09 1.1675062879662e-08
"370" 11681 7.19343604707884e-09 8.41309517439563e-09 3.88178685463037e-09 9.82196248325334e-10 3.06744230586578e-09 2.71215761749301e-09 3.97544537745434e-09 1.16981328558627e-08
"371" 11682 7.14353477495179e-09 8.37456315033212e-09 3.88179594077259e-09 9.87097379087527e-10 3.05829816302208e-09 2.71621277470304e-09 3.96033964362862e-09 1.17212028320634e-08
"372" 11683 7.09363350282474e-09 8.33603112626862e-09 3.88180502691482e-09 9.91998509849721e-10 3.04915402017837e-09 2.72026793191307e-09 3.94523390980291e-09 1.17442728082641e-08
"373" 11684 7.04373223069769e-09 8.29749910220511e-09 3.88181411305704e-09 9.96899640611915e-10 3.04000987733467e-09 2.7243230891231e-09 3.93012817597719e-09 1.17673427844649e-08
"374" 11685 6.99383095857064e-09 8.2589670781416e-09 3.88182319919926e-09 1.00180077137411e-09 3.03086573449097e-09 2.72837824633313e-09 3.91502244215148e-09 1.17904127606656e-08
"375" 11686 6.94392968644359e-09 8.22043505407810e-09 3.88183228534149e-09 1.0067019021363e-09 3.02172159164726e-09 2.73243340354316e-09 3.89991670832576e-09 1.18134827368663e-08
"376" 11687 6.89402841431654e-09 8.18190303001459e-09 3.88184137148371e-09 1.0116030328985e-09 3.01257744880356e-09 2.73648856075319e-09 3.88481097450005e-09 1.1836552713067e-08
"377" 11688 6.84412714218949e-09 8.14337100595108e-09 3.88185045762593e-09 1.01650416366069e-09 3.00343330595985e-09 2.74054371796322e-09 3.86970524067433e-09 1.18596226892677e-08
"378" 11689 6.79422587006244e-09 8.10483898188758e-09 3.88185954376816e-09 1.02140529442288e-09 2.99428916311615e-09 2.74459887517325e-09 3.85459950684861e-09 1.18826926654685e-08
"379" 11690 6.74432459793539e-09 8.06630695782407e-09 3.88186862991038e-09 1.02630642518508e-09 2.98514502027244e-09 2.74865403238328e-09 3.8394937730229e-09 1.19057626416692e-08
"380" 11691 6.69442332580834e-09 8.02777493376056e-09 3.8818777160526e-09 1.03120755594727e-09 2.97600087742874e-09 2.75270918959331e-09 3.82438803919718e-09 1.19288326178699e-08
"381" 11692 6.68323653911806e-09 8.02777493376056e-09 3.87788466240087e-09 1.03610868670947e-09 2.96968306938819e-09 2.75358501015289e-09 3.81997083129707e-09 1.19519025940706e-08
"382" 11693 6.67401880449026e-09 8.0314045790228e-09 3.83127699001165e-09 1.0446208652359e-09 2.95721383862412e-09 2.76593043663425e-09 3.81982825047908e-09 1.19771828452361e-08
"383" 11694 6.66480106986245e-09 8.03503422428504e-09 3.78466931762243e-09 1.05313304376233e-09 2.94474460786006e-09 2.77827586311561e-09 3.81968566966109e-09 1.20024630964015e-08
"384" 11695 6.69865352926407e-09 8.15594931518115e-09 3.75599858516822e-09 1.05321944417221e-09 2.9414195199397e-09 2.78039599280723e-09 3.81989926114232e-09 1.20148636962063e-08
"385" 11696 6.69747859708004e-09 8.15567773799918e-09 3.71113806304626e-09 1.05301326781854e-09 2.92978161150996e-09 2.78868626207857e-09 3.82331952229953e-09 1.20343832959028e-08
"386" 11697 6.696303664896e-09 8.15540616081722e-09 3.6662775409243e-09 1.05280709146487e-09 2.91814370308022e-09 2.7969765313499e-09 3.82673978345674e-09 1.20539028955993e-08
"387" 11698 6.69512873271197e-09 8.15513458363525e-09 3.62141701880234e-09 1.05260091511121e-09 2.90650579465048e-09 2.80526680062123e-09 3.83016004461396e-09 1.20734224952958e-08
"388" 11699 6.69395380052794e-09 8.15486300645328e-09 3.57655649668038e-09 1.05239473875754e-09 2.89486788622074e-09 2.81355706989256e-09 3.83358030577117e-09 1.20929420949923e-08
"389" 11700 6.6927788683439e-09 8.15459142927132e-09 3.53169597455842e-09 1.05218856240388e-09 2.883229977791e-09 2.82184733916389e-09 3.83700056692838e-09 1.21124616946888e-08
"390" 11701 6.69160393615987e-09 8.15431985208935e-09 3.48683545243646e-09 1.05198238605021e-09 2.87159206936126e-09 2.83013760843522e-09 3.84042082808559e-09 1.21319812943853e-08
"391" 11702 6.69042900397584e-09 8.15404827490738e-09 3.4419749303145e-09 1.05177620969655e-09 2.85995416093152e-09 2.83842787770655e-09 3.8438410892428e-09 1.21515008940818e-08
"392" 11703 6.6892540717918e-09 8.15377669772542e-09 3.39711440819254e-09 1.05157003334288e-09 2.84831625250178e-09 2.84671814697788e-09 3.84726135040002e-09 1.21710204937783e-08
"393" 11704 6.68807913960777e-09 8.15350512054345e-09 3.35225388607059e-09 1.05136385698922e-09 2.83667834407204e-09 2.85500841624921e-09 3.85068161155723e-09 1.21905400934748e-08
"394" 11705 6.68690420742374e-09 8.15323354336148e-09 3.30739336394863e-09 1.05115768063555e-09 2.8250404356423e-09 2.86329868552054e-09 3.85410187271444e-09 1.22100596931713e-08
"395" 11706 6.6857292752397e-09 8.15296196617952e-09 3.26253284182667e-09 1.05095150428189e-09 2.81340252721256e-09 2.87158895479187e-09 3.85752213387165e-09 1.22295792928678e-08
"396" 11707 6.68455434305567e-09 8.15269038899755e-09 3.21767231970471e-09 1.05074532792822e-09 2.80176461878282e-09 2.8798792240632e-09 3.86094239502886e-09 1.22490988925643e-08
"397" 11708 6.68337941087164e-09 8.15241881181558e-09 3.17281179758275e-09 1.05053915157455e-09 2.79012671035308e-09 2.88816949333454e-09 3.86436265618608e-09 1.22686184922608e-08
"398" 11709 6.6822044786876e-09 8.15214723463362e-09 3.12795127546079e-09 1.05033297522089e-09 2.77848880192335e-09 2.89645976260587e-09 3.86778291734329e-09 1.22881380919573e-08
"399" 11710 6.68102954650357e-09 8.15187565745165e-09 3.08309075333883e-09 1.05012679886722e-09 2.76685089349361e-09 2.9047500318772e-09 3.8712031785005e-09 1.23076576916538e-08
"400" 11711 6.67985461431954e-09 8.15160408026968e-09 3.03823023121687e-09 1.04992062251356e-09 2.75521298506387e-09 2.91304030114853e-09 3.87462343965771e-09 1.23271772913503e-08
"401" 11712 6.6786796821355e-09 8.15133250308772e-09 2.99336970909491e-09 1.04971444615989e-09 2.74357507663413e-09 2.92133057041986e-09 3.87804370081492e-09 1.23466968910468e-08
"402" 11713 6.67750474995147e-09 8.15106092590575e-09 2.94850918697296e-09 1.04950826980623e-09 2.73193716820439e-09 2.92962083969119e-09 3.88146396197214e-09 1.23662164907433e-08
"403" 11714 6.68509315576544e-09 8.15078934872378e-09 2.95150473439027e-09 1.04842436316194e-09 2.72728260908333e-09 2.9357909792709e-09 3.85602699350306e-09 1.20994820808438e-08
"404" 11715 6.68509315576544e-09 8.14861156156644e-09 2.93528768629586e-09 1.04842436316194e-09 2.72478924633119e-09 2.94015292432898e-09 3.85766583367267e-09 1.21171142993195e-08
"405" 11716 6.69778376613264e-09 8.14861156156644e-09 2.92131654158591e-09 1.05224158727984e-09 2.80342746486842e-09 2.94769420603751e-09 3.87498017144845e-09 1.21161364946463e-08
"406" 11717 6.78127892306218e-09 8.2106293833854e-09 2.91707562573262e-09 1.07205228668228e-09 2.8064205878225e-09 2.94376588182426e-09 3.87875660490487e-09 1.2120018888336e-08
"407" 11718 6.86477407999171e-09 8.27264720520436e-09 2.91283470987932e-09 1.09186298608472e-09 2.80941371077658e-09 2.93983755761101e-09 3.8825330383613e-09 1.21239012820257e-08
"408" 11719 6.94826923692125e-09 8.33466502702332e-09 2.90859379402603e-09 1.11167368548716e-09 2.81240683373066e-09 2.93590923339776e-09 3.88630947181773e-09 1.21277836757154e-08
"409" 11720 7.03176439385079e-09 8.39668284884228e-09 2.90435287817273e-09 1.1314843848896e-09 2.81539995668474e-09 2.93198090918451e-09 3.89008590527416e-09 1.21316660694052e-08
"410" 11721 7.11525955078033e-09 8.45870067066125e-09 2.90011196231943e-09 1.15129508429204e-09 2.81839307963882e-09 2.92805258497126e-09 3.89386233873059e-09 1.21355484630949e-08
"411" 11722 7.19875470770986e-09 8.5207184924802e-09 2.89587104646614e-09 1.17110578369448e-09 2.8213862025929e-09 2.92412426075802e-09 3.89763877218702e-09 1.21394308567846e-08
"412" 11723 7.2822498646394e-09 8.58273631429917e-09 2.89163013061284e-09 1.19091648309693e-09 2.82437932554698e-09 2.92019593654477e-09 3.90141520564345e-09 1.21433132504743e-08
"413" 11724 7.36574502156894e-09 8.64475413611813e-09 2.88738921475954e-09 1.21072718249937e-09 2.82737244850106e-09 2.91626761233152e-09 3.90519163909988e-09 1.2147195644164e-08
"414" 11725 7.44924017849847e-09 8.70677195793709e-09 2.88314829890625e-09 1.23053788190181e-09 2.83036557145514e-09 2.91233928811827e-09 3.90896807255631e-09 1.21510780378537e-08
"415" 11726 7.53273533542801e-09 8.76878977975605e-09 2.87890738305295e-09 1.25034858130425e-09 2.83335869440922e-09 2.90841096390502e-09 3.91274450601273e-09 1.21549604315434e-08
"416" 11727 7.61623049235755e-09 8.83080760157501e-09 2.87466646719965e-09 1.27015928070669e-09 2.8363518173633e-09 2.90448263969177e-09 3.91652093946916e-09 1.21588428252331e-08
"417" 11728 7.69972564928709e-09 8.89282542339397e-09 2.87042555134636e-09 1.28996998010913e-09 2.83934494031738e-09 2.90055431547852e-09 3.92029737292559e-09 1.21627252189229e-08
"418" 11729 7.78322080621662e-09 8.95484324521293e-09 2.86618463549306e-09 1.30978067951157e-09 2.84233806327146e-09 2.89662599126528e-09 3.92407380638202e-09 1.21666076126126e-08
"419" 11730 7.86671596314616e-09 9.01686106703189e-09 2.86194371963976e-09 1.32959137891401e-09 2.84533118622554e-09 2.89269766705203e-09 3.92785023983845e-09 1.21704900063023e-08
"420" 11731 7.9502111200757e-09 9.07887888885085e-09 2.85770280378647e-09 1.34940207831645e-09 2.84832430917961e-09 2.88876934283878e-09 3.93162667329488e-09 1.2174372399992e-08
"421" 11732 8.03370627700524e-09 9.14089671066981e-09 2.85346188793317e-09 1.36921277771889e-09 2.85131743213369e-09 2.88484101862553e-09 3.93540310675131e-09 1.21782547936817e-08
"422" 11733 8.11720143393477e-09 9.20291453248877e-09 2.84922097207987e-09 1.38902347712133e-09 2.85431055508777e-09 2.88091269441228e-09 3.93917954020774e-09 1.21821371873714e-08
"423" 11734 8.17200152425908e-09 9.23093350954582e-09 2.86519318668679e-09 1.40671938811116e-09 2.81091842963993e-09 2.86158815583799e-09 3.94409606071657e-09 1.21872126482302e-08
"424" 11735 8.25950510220733e-09 9.2793466237584e-09 2.87891646919517e-09 1.4265300875136e-09 2.81324601132588e-09 2.86102770199637e-09 3.91844717924082e-09 1.20600200252228e-08
"425" 11736 8.34700868015558e-09 9.32775973797099e-09 2.89263975170355e-09 1.44634078691604e-09 2.81557359301182e-09 2.86046724815476e-09 3.89279829776507e-09 1.19328274022154e-08
"426" 11737 8.43451225810382e-09 9.37617285218357e-09 2.90636303421193e-09 1.46615148631848e-09 2.81790117469777e-09 2.85990679431315e-09 3.86714941628932e-09 1.1805634779208e-08
"427" 11738 8.52201583605207e-09 9.42458596639615e-09 2.92008631672031e-09 1.48596218572092e-09 2.82022875638372e-09 2.85934634047153e-09 3.84150053481357e-09 1.16784421562006e-08
"428" 11739 8.51958482303449e-09 9.41791423148234e-09 2.97392439495199e-09 1.4924126007107e-09 2.81673708172938e-09 2.85866076940712e-09 3.81050739037501e-09 1.15461740723345e-08
"429" 11740 8.53037996566343e-09 9.41419578372665e-09 2.97192332505501e-09 1.4924126007107e-09 2.83336252133119e-09 2.8577883803955e-09 3.78036917135288e-09 1.14141212509643e-08
"430" 11741 8.54117510829236e-09 9.41047733597096e-09 2.96992225515804e-09 1.4924126007107e-09 2.849987960933e-09 2.85691599138389e-09 3.75023095233075e-09 1.1282068429594e-08
"431" 11742 8.55197025092129e-09 9.40675888821527e-09 2.96792118526106e-09 1.4924126007107e-09 2.86661340053481e-09 2.85604360237227e-09 3.72009273330862e-09 1.11500156082238e-08
"432" 11743 8.56276539355023e-09 9.40304044045958e-09 2.96592011536408e-09 1.4924126007107e-09 2.88323884013662e-09 2.85517121336065e-09 3.68995451428649e-09 1.10179627868535e-08
"433" 11744 8.57356053617916e-09 9.39932199270389e-09 2.96391904546711e-09 1.4924126007107e-09 2.89986427973843e-09 2.85429882434904e-09 3.65981629526436e-09 1.08859099654833e-08
"434" 11745 8.5843556788081e-09 9.3956035449482e-09 2.96191797557013e-09 1.4924126007107e-09 2.91648971934023e-09 2.85342643533742e-09 3.62967807624224e-09 1.0753857144113e-08
"435" 11746 8.59515082143703e-09 9.39188509719251e-09 2.95991690567315e-09 1.4924126007107e-09 2.93311515894204e-09 2.85255404632581e-09 3.59953985722011e-09 1.06218043227428e-08
"436" 11747 8.60594596406597e-09 9.38816664943682e-09 2.95791583577618e-09 1.4924126007107e-09 2.94974059854385e-09 2.85168165731419e-09 3.56940163819798e-09 1.04897515013725e-08
"437" 11748 8.6167411066949e-09 9.38444820168113e-09 2.9559147658792e-09 1.4924126007107e-09 2.96636603814566e-09 2.85080926830257e-09 3.53926341917585e-09 1.03576986800023e-08
"438" 11749 8.63191791832283e-09 9.39547034120802e-09 2.95392278212445e-09 1.49220642435703e-09 2.98299147774747e-09 2.85080926830257e-09 3.5403319360735e-09 1.03567208753291e-08
"439" 11750 8.63870463993306e-09 9.40141097736778e-09 2.95317010937753e-09 1.49220642435703e-09 3.00194490186912e-09 2.84993687929096e-09 3.53320625212309e-09 1.03578260128115e-08
"440" 11751 8.64549136154329e-09 9.40735161352754e-09 2.9524174366306e-09 1.49220642435703e-09 3.02089832599077e-09 2.84906449027934e-09 3.52608056817269e-09 1.03589311502938e-08
"441" 11752 8.65227808315351e-09 9.4132922496873e-09 2.95166476388368e-09 1.49220642435703e-09 3.03985175011242e-09 2.84819210126772e-09 3.51895488422229e-09 1.03600362877762e-08
"442" 11753 8.65345301533755e-09 9.41351425592093e-09 2.95291316103374e-09 1.49329033100132e-09 3.03785693906054e-09 2.84844233571332e-09 3.51182920027188e-09 1.03665397798611e-08
"443" 11754 8.6452143908631e-09 9.40739084507265e-09 2.95415247204157e-09 1.4997407459911e-09 3.07077404054536e-09 2.85411715372378e-09 3.50470351632148e-09 1.03665397798611e-08
"444" 11755 8.63697576638866e-09 9.40126743422438e-09 2.9553917830494e-09 1.50619116098088e-09 3.10369114203018e-09 2.85979197173425e-09 3.49757783237107e-09 1.03665397798611e-08
"445" 11756 8.62873714191422e-09 9.39514402337611e-09 2.95663109405723e-09 1.51264157597065e-09 3.136608243515e-09 2.86546678974471e-09 3.49045214842067e-09 1.03665397798611e-08
"446" 11757 8.62049851743978e-09 9.38902061252784e-09 2.95787040506506e-09 1.51909199096043e-09 3.16952534499983e-09 2.87114160775518e-09 3.48332646447027e-09 1.03665397798611e-08
"447" 11758 8.61225989296534e-09 9.38289720167957e-09 2.95910971607289e-09 1.52554240595021e-09 3.20244244648465e-09 2.87681642576564e-09 3.47620078051986e-09 1.03665397798611e-08
"448" 11759 8.60402126849089e-09 9.3767737908313e-09 2.96034902708072e-09 1.53199282093998e-09 3.23535954796947e-09 2.88249124377611e-09 3.46907509656946e-09 1.03665397798611e-08
"449" 11760 8.59578264401645e-09 9.37065037998302e-09 2.96158833808856e-09 1.53844323592976e-09 3.2682766494543e-09 2.88816606178657e-09 3.46194941261905e-09 1.03665397798611e-08
"450" 11761 8.58754401954201e-09 9.36452696913475e-09 2.96282764909639e-09 1.54489365091954e-09 3.30119375093912e-09 2.89384087979703e-09 3.45482372866865e-09 1.03665397798611e-08
"451" 11762 8.57930539506757e-09 9.35840355828648e-09 2.96406696010422e-09 1.55134406590932e-09 3.33411085242394e-09 2.8995156978075e-09 3.44769804471825e-09 1.03665397798611e-08
"452" 11763 8.57106677059313e-09 9.35228014743821e-09 2.96530627111205e-09 1.55779448089909e-09 3.36702795390877e-09 2.90519051581796e-09 3.44057236076784e-09 1.03665397798611e-08
"453" 11764 8.56282814611869e-09 9.34615673658994e-09 2.96654558211988e-09 1.56424489588887e-09 3.39994505539359e-09 2.91086533382843e-09 3.43344667681744e-09 1.03665397798611e-08
"454" 11765 8.55458952164425e-09 9.34003332574166e-09 2.96778489312771e-09 1.57069531087865e-09 3.43286215687841e-09 2.91654015183889e-09 3.42632099286703e-09 1.03665397798611e-08
"455" 11766 8.5463508971698e-09 9.33390991489339e-09 2.96902420413554e-09 1.57714572586843e-09 3.46577925836324e-09 2.92221496984936e-09 3.41919530891663e-09 1.03665397798611e-08
"456" 11767 8.53811227269536e-09 9.32778650404512e-09 2.97026351514338e-09 1.5835961408582e-09 3.49869635984806e-09 2.92788978785982e-09 3.41206962496623e-09 1.03665397798611e-08
"457" 11768 8.52987364822092e-09 9.32166309319685e-09 2.97150282615121e-09 1.59004655584798e-09 3.53161346133289e-09 2.93356460587029e-09 3.40494394101582e-09 1.03665397798611e-08
"458" 11769 8.52163502374648e-09 9.31553968234858e-09 2.97274213715904e-09 1.59649697083776e-09 3.56453056281771e-09 2.93923942388075e-09 3.39781825706542e-09 1.03665397798611e-08
"459" 11770 8.52178648928975e-09 9.31449777486744e-09 2.97099801560585e-09 1.5904255330214e-09 3.56453056281771e-09 2.94154637151958e-09 3.39824544002787e-09 1.03665397798611e-08
"460" 11771 8.52193795483301e-09 9.3134558673863e-09 2.96925389405266e-09 1.58435409520504e-09 3.56453056281771e-09 2.94385331915841e-09 3.39867262299033e-09 1.03665397798611e-08
"461" 11772 8.52208942037628e-09 9.31241395990516e-09 2.96750977249948e-09 1.57828265738868e-09 3.56453056281771e-09 2.94616026679724e-09 3.39909980595278e-09 1.03665397798611e-08
"462" 11773 8.52224088591955e-09 9.31137205242402e-09 2.96576565094629e-09 1.57221121957232e-09 3.56453056281771e-09 2.94846721443607e-09 3.39952698891523e-09 1.03665397798611e-08
"463" 11774 8.54619943162654e-09 9.36610686127822e-09 2.97401173530761e-09 1.55989554311985e-09 3.52995121949812e-09 2.95014857596091e-09 3.39995417187769e-09 1.04884219779526e-08
"464" 11775 8.54619943162654e-09 9.36610686127822e-09 2.97899623776561e-09 1.55382410530349e-09 3.4970341180133e-09 2.94590831657766e-09 3.42517587039098e-09 1.05794694124639e-08
"465" 11776 8.54619943162654e-09 9.36610686127822e-09 2.98398074022361e-09 1.54775266748713e-09 3.46411701652848e-09 2.94166805719441e-09 3.45039756890428e-09 1.06705168469753e-08
"466" 11777 8.54619943162654e-09 9.36610686127822e-09 2.9889652426816e-09 1.54168122967077e-09 3.43119991504365e-09 2.93742779781116e-09 3.47561926741758e-09 1.07615642814866e-08
"467" 11778 8.54619943162654e-09 9.36610686127822e-09 2.9939497451396e-09 1.53560979185441e-09 3.39828281355883e-09 2.93318753842791e-09 3.50084096593087e-09 1.08526117159979e-08
"468" 11779 8.54619943162654e-09 9.36610686127822e-09 2.99893424759759e-09 1.52953835403805e-09 3.36536571207401e-09 2.92894727904466e-09 3.52606266444417e-09 1.09436591505093e-08
"469" 11780 8.54619943162654e-09 9.36610686127822e-09 3.00391875005559e-09 1.52346691622169e-09 3.33244861058918e-09 2.92470701966141e-09 3.55128436295747e-09 1.10347065850206e-08
"470" 11781 8.54619943162654e-09 9.36610686127822e-09 3.00890325251358e-09 1.51739547840533e-09 3.29953150910436e-09 2.92046676027816e-09 3.57650606147076e-09 1.11257540195319e-08
"471" 11782 8.54619943162654e-09 9.36610686127822e-09 3.01388775497158e-09 1.51132404058897e-09 3.26661440761954e-09 2.91622650089491e-09 3.60172775998406e-09 1.12168014540433e-08
"472" 11783 8.54619943162654e-09 9.36610686127822e-09 3.01887225742957e-09 1.50525260277261e-09 3.23369730613471e-09 2.91198624151166e-09 3.62694945849736e-09 1.13078488885546e-08
"473" 11784 8.54619943162654e-09 9.36610686127822e-09 3.02385675988757e-09 1.49918116495625e-09 3.20078020464989e-09 2.90774598212841e-09 3.65217115701065e-09 1.13988963230659e-08
"474" 11785 8.54619943162654e-09 9.36610686127822e-09 3.02884126234556e-09 1.49310972713989e-09 3.16786310316507e-09 2.90350572274516e-09 3.67739285552395e-09 1.14899437575773e-08
"475" 11786 8.54619943162654e-09 9.36610686127822e-09 3.03382576480356e-09 1.48703828932353e-09 3.13494600168024e-09 2.8992654633619e-09 3.70261455403725e-09 1.15809911920886e-08
"476" 11787 8.54619943162654e-09 9.36610686127822e-09 3.03881026726155e-09 1.48096685150717e-09 3.10202890019542e-09 2.89502520397865e-09 3.72783625255054e-09 1.16720386265999e-08
"477" 11788 8.54619943162654e-09 9.36610686127822e-09 3.04379476971955e-09 1.47489541369081e-09 3.0691117987106e-09 2.8907849445954e-09 3.75305795106384e-09 1.17630860611113e-08
"478" 11789 8.54619943162654e-09 9.36610686127822e-09 3.04877927217755e-09 1.46882397587445e-09 3.03619469722577e-09 2.88654468521215e-09 3.77827964957714e-09 1.18541334956226e-08
"479" 11790 8.54619943162654e-09 9.36610686127822e-09 3.05376377463554e-09 1.46275253805809e-09 3.00327759574095e-09 2.8823044258289e-09 3.80350134809043e-09 1.19451809301339e-08
"480" 11791 8.53780934160883e-09 9.35508472175133e-09 3.06173170965456e-09 1.46708816463525e-09 2.99862202953516e-09 2.8821176078817e-09 3.82758295955133e-09 1.19947833293529e-08
"481" 11792 8.5249045131299e-09 9.34375177349735e-09 3.06969964467357e-09 1.47353857962503e-09 2.99978571966966e-09 2.8821176078817e-09 3.84525179115177e-09 1.20651469220016e-08
"482" 11793 8.51199968465098e-09 9.33241882524338e-09 3.07766757969258e-09 1.4799889946148e-09 3.00094940980416e-09 2.8821176078817e-09 3.86292062275221e-09 1.21355105146503e-08
"483" 11794 8.49909485617206e-09 9.32108587698941e-09 3.0856355147116e-09 1.48643940960458e-09 3.00211309993867e-09 2.8821176078817e-09 3.88058945435264e-09 1.2205874107299e-08
"484" 11795 8.48619002769313e-09 9.30975292873544e-09 3.09360344973061e-09 1.49288982459436e-09 3.00327679007317e-09 2.8821176078817e-09 3.89825828595308e-09 1.22762376999477e-08
"485" 11796 8.50802049146908e-09 9.31737776863694e-09 3.09360344973061e-09 1.49288982459436e-09 3.03353535199049e-09 2.88585739837376e-09 3.89070541904023e-09 1.22557494190197e-08
"486" 11797 8.52985095524502e-09 9.32500260853844e-09 3.09360344973061e-09 1.49288982459436e-09 3.06379391390781e-09 2.88959718886582e-09 3.88315255212737e-09 1.22352611380917e-08
"487" 11798 8.55168141902097e-09 9.33262744843994e-09 3.09360344973061e-09 1.49288982459436e-09 3.09405247582513e-09 2.89333697935788e-09 3.87559968521451e-09 1.22147728571637e-08
"488" 11799 8.57351188279691e-09 9.34025228834145e-09 3.09360344973061e-09 1.49288982459436e-09 3.12431103774245e-09 2.89707676984994e-09 3.86804681830165e-09 1.21942845762357e-08
"489" 11800 8.59534234657286e-09 9.34787712824295e-09 3.09360344973061e-09 1.49288982459436e-09 3.15456959965978e-09 2.900816560342e-09 3.86049395138879e-09 1.21737962953077e-08
"490" 11801 8.6171728103488e-09 9.35550196814445e-09 3.09360344973061e-09 1.49288982459436e-09 3.1848281615771e-09 2.90455635083406e-09 3.85294108447594e-09 1.21533080143797e-08
"491" 11802 8.63900327412475e-09 9.36312680804595e-09 3.09360344973061e-09 1.49288982459436e-09 3.21508672349442e-09 2.90829614132612e-09 3.84538821756308e-09 1.21328197334517e-08
"492" 11803 8.6608337379007e-09 9.37075164794746e-09 3.09360344973061e-09 1.49288982459436e-09 3.24534528541174e-09 2.91203593181818e-09 3.83783535065022e-09 1.21123314525237e-08
"493" 11804 8.68266420167664e-09 9.37837648784896e-09 3.09360344973061e-09 1.49288982459436e-09 3.27560384732907e-09 2.91577572231024e-09 3.83028248373736e-09 1.20918431715957e-08
"494" 11805 8.71486137185807e-09 9.37797687662842e-09 3.09236413872278e-09 1.49051583495211e-09 3.30237073459205e-09 2.91091330836097e-09 3.82850162224128e-09 1.19912117966095e-08
"495" 11806 8.71251150749e-09 9.39389774483393e-09 3.09111574157273e-09 1.49022325818857e-09 3.32764196675425e-09 2.91434116368303e-09 3.81966720644106e-09 1.19485631160285e-08
"496" 11807 8.71016164312194e-09 9.40981861303944e-09 3.08986734442267e-09 1.48993068142503e-09 3.35291319891644e-09 2.91776901900509e-09 3.81083279064084e-09 1.19059144354475e-08
"497" 11808 8.70781177875387e-09 9.42573948124495e-09 3.08861894727262e-09 1.48963810466149e-09 3.37818443107864e-09 2.92119687432715e-09 3.80199837484062e-09 1.18632657548665e-08
"498" 11809 8.71823367340251e-09 9.54187049446394e-09 3.11132281460479e-09 1.49316275201585e-09 3.37436079145802e-09 2.92294165235038e-09 3.79273621658643e-09 1.18269250054358e-08
"499" 11810 8.69789190465289e-09 9.5869802812462e-09 3.11530072468615e-09 1.49703300100972e-09 3.37436079145802e-09 2.92375234063759e-09 3.78988627870118e-09 1.18095565760202e-08
"500" 11811 8.67755013590327e-09 9.63209006802846e-09 3.11927863476751e-09 1.50090325000358e-09 3.37436079145802e-09 2.9245630289248e-09 3.78703634081593e-09 1.17921881466047e-08
"501" 11812 8.65720836715364e-09 9.67719985481072e-09 3.12325654484887e-09 1.50477349899745e-09 3.37436079145802e-09 2.92537371721201e-09 3.78418640293067e-09 1.17748197171891e-08
"502" 11813 8.63686659840402e-09 9.72230964159298e-09 3.12723445493023e-09 1.50864374799132e-09 3.37436079145802e-09 2.92618440549922e-09 3.78133646504542e-09 1.17574512877736e-08
"503" 11814 8.6165248296544e-09 9.76741942837524e-09 3.13121236501159e-09 1.51251399698518e-09 3.37436079145802e-09 2.92699509378643e-09 3.77848652716017e-09 1.1740082858358e-08
"504" 11815 8.59618306090477e-09 9.81252921515749e-09 3.13519027509294e-09 1.51638424597905e-09 3.37436079145802e-09 2.92780578207364e-09 3.77563658927492e-09 1.17227144289425e-08
"505" 11816 8.57584129215515e-09 9.85763900193975e-09 3.1391681851743e-09 1.52025449497292e-09 3.37436079145802e-09 2.92861647036084e-09 3.77278665138967e-09 1.17053459995269e-08
"506" 11817 8.55549952340553e-09 9.90274878872201e-09 3.14314609525566e-09 1.52412474396678e-09 3.37436079145802e-09 2.92942715864805e-09 3.76993671350441e-09 1.16879775701113e-08
"507" 11818 8.5351577546559e-09 9.94785857550427e-09 3.14712400533702e-09 1.52799499296065e-09 3.37436079145802e-09 2.93023784693526e-09 3.76708677561916e-09 1.16706091406958e-08
"508" 11819 8.51481598590628e-09 9.99296836228653e-09 3.15110191541838e-09 1.53186524195452e-09 3.37436079145802e-09 2.93104853522247e-09 3.76423683773391e-09 1.16532407112802e-08
"509" 11820 8.49447421715665e-09 1.00380781490688e-08 3.15507982549974e-09 1.53573549094838e-09 3.37436079145802e-09 2.93185922350968e-09 3.76138689984866e-09 1.16358722818647e-08
"510" 11821 8.47413244840703e-09 1.0083187935851e-08 3.15905773558109e-09 1.53960573994225e-09 3.37436079145802e-09 2.93266991179689e-09 3.75853696196341e-09 1.16185038524491e-08
"511" 11822 8.4537906796574e-09 1.01282977226333e-08 3.16303564566245e-09 1.54347598893611e-09 3.37436079145802e-09 2.9334806000841e-09 3.75568702407816e-09 1.16011354230336e-08
"512" 11823 8.43344891090778e-09 1.01734075094156e-08 3.16701355574381e-09 1.54734623792998e-09 3.37436079145802e-09 2.93429128837131e-09 3.7528370861929e-09 1.1583766993618e-08
"513" 11824 8.41310714215816e-09 1.02185172961978e-08 3.17099146582517e-09 1.55121648692385e-09 3.37436079145802e-09 2.93510197665852e-09 3.74998714830765e-09 1.15663985642024e-08
"514" 11825 8.4296990644882e-09 1.02667528054235e-08 3.17721830800507e-09 1.55517313632759e-09 3.37352886487286e-09 2.9337925352541e-09 3.74998714830765e-09 1.15792782155631e-08
"515" 11826 8.44609516478758e-09 1.02667528054235e-08 3.1831972879834e-09 1.55842485626046e-09 3.37502451997364e-09 2.93117536821925e-09 3.7523383330757e-09 1.15929112856594e-08
"516" 11827 8.46249126508695e-09 1.02667528054235e-08 3.18917626796174e-09 1.56167657619333e-09 3.37652017507442e-09 2.9285582011844e-09 3.75468951784374e-09 1.16065443557558e-08
"517" 11828 8.47888736538632e-09 1.02667528054235e-08 3.19515524794008e-09 1.5649282961262e-09 3.37801583017521e-09 2.92594103414955e-09 3.75704070261179e-09 1.16201774258521e-08
"518" 11829 8.49528346568569e-09 1.02667528054235e-08 3.20113422791841e-09 1.56818001605907e-09 3.37951148527599e-09 2.9233238671147e-09 3.75939188737983e-09 1.16338104959484e-08
"519" 11830 8.51167956598507e-09 1.02667528054235e-08 3.20711320789674e-09 1.57143173599194e-09 3.38100714037677e-09 2.92070670007986e-09 3.76174307214788e-09 1.16474435660447e-08
"520" 11831 8.51148374395440e-09 1.02197419783675e-08 3.21585198794713e-09 1.57160453681169e-09 3.38034159910864e-09 2.91939897444942e-09 3.75732586424777e-09 1.16600003236615e-08
"521" 11832 8.55200825158508e-09 1.02124093944544e-08 3.2158550166612e-09 1.57280821939977e-09 3.37601880353692e-09 2.9177158971506e-09 3.75305123716565e-09 1.1683422018609e-08
"522" 11833 8.59253275921576e-09 1.02050768105413e-08 3.21585804537528e-09 1.57401190198785e-09 3.3716960079652e-09 2.91603281985177e-09 3.74877661008353e-09 1.17068437135565e-08
"523" 11834 8.63305726684644e-09 1.01977442266282e-08 3.21586107408935e-09 1.57521558457593e-09 3.36737321239348e-09 2.91434974255294e-09 3.74450198300141e-09 1.17302654085039e-08
"524" 11835 8.67358177447712e-09 1.01904116427151e-08 3.21586410280343e-09 1.57641926716401e-09 3.36305041682175e-09 2.91266666525412e-09 3.74022735591929e-09 1.17536871034514e-08
"525" 11836 8.7141062821078e-09 1.0183079058802e-08 3.2158671315175e-09 1.57762294975209e-09 3.35872762125003e-09 2.91098358795529e-09 3.73595272883717e-09 1.17771087983989e-08
"526" 11837 8.75463078973848e-09 1.01757464748889e-08 3.21587016023157e-09 1.57882663234017e-09 3.35440482567831e-09 2.90930051065647e-09 3.73167810175505e-09 1.18005304933464e-08
"527" 11838 8.79515529736916e-09 1.01684138909758e-08 3.21587318894565e-09 1.58003031492825e-09 3.35008203010659e-09 2.90761743335764e-09 3.72740347467293e-09 1.18239521882938e-08
"528" 11839 8.83567980499984e-09 1.01610813070627e-08 3.21587621765972e-09 1.58123399751633e-09 3.34575923453487e-09 2.90593435605882e-09 3.72312884759081e-09 1.18473738832413e-08
"529" 11840 8.87620431263052e-09 1.01537487231496e-08 3.2158792463738e-09 1.58243768010441e-09 3.34143643896315e-09 2.90425127875999e-09 3.71885422050869e-09 1.18707955781888e-08
"530" 11841 8.9167288202612e-09 1.01464161392365e-08 3.21588227508787e-09 1.58364136269249e-09 3.33711364339142e-09 2.90256820146117e-09 3.71457959342657e-09 1.18942172731362e-08
"531" 11842 8.95725332789189e-09 1.01390835553234e-08 3.21588530380195e-09 1.58484504528057e-09 3.3327908478197e-09 2.90088512416234e-09 3.71030496634445e-09 1.19176389680837e-08
"532" 11843 8.99777783552257e-09 1.01317509714103e-08 3.21588833251602e-09 1.58604872786865e-09 3.32846805224798e-09 2.89920204686351e-09 3.70603033926233e-09 1.19410606630312e-08
"533" 11844 9.03830234315325e-09 1.01244183874972e-08 3.21589136123009e-09 1.58725241045672e-09 3.32414525667626e-09 2.89751896956469e-09 3.70175571218021e-09 1.19644823579786e-08
"534" 11845 9.07882685078393e-09 1.01170858035841e-08 3.21589438994417e-09 1.5884560930448e-09 3.31982246110454e-09 2.89583589226586e-09 3.69748108509809e-09 1.19879040529261e-08
"535" 11846 9.11935135841461e-09 1.0109753219671e-08 3.21589741865824e-09 1.58965977563288e-09 3.31549966553282e-09 2.89415281496704e-09 3.69320645801597e-09 1.20113257478736e-08
"536" 11847 9.15987586604529e-09 1.01024206357579e-08 3.21590044737232e-09 1.59086345822096e-09 3.31117686996109e-09 2.89246973766821e-09 3.68893183093385e-09 1.20347474428211e-08
"537" 11848 9.18557084962198e-09 1.01433235610705e-08 3.21390240618942e-09 1.59206714080904e-09 3.30170015790027e-09 2.89209438599982e-09 3.68871823945262e-09 1.18002167230442e-08
"538" 11849 9.22069778593819e-09 1.01849080141888e-08 3.21415329710506e-09 1.59327082339712e-09 3.29970534684839e-09 2.89171903433143e-09 3.68629604402134e-09 1.18002167230442e-08
"539" 11850 9.26076789693907e-09 1.02228628220449e-08 3.21340365307221e-09 1.58666725692964e-09 3.2869035468672e-09 2.88199420643288e-09 3.67133289101362e-09 1.18268264976295e-08
"540" 11851 9.30083800793995e-09 1.02608176299009e-08 3.21265400903936e-09 1.58006369046216e-09 3.27410174688602e-09 2.87226937853434e-09 3.65636973800589e-09 1.18534362722149e-08
"541" 11852 9.34090811894083e-09 1.0298772437757e-08 3.21190436500651e-09 1.57346012399468e-09 3.26129994690483e-09 2.86254455063579e-09 3.64140658499817e-09 1.18800460468002e-08
"542" 11853 9.36602320075080e-09 1.03252899857608e-08 3.22685181495235e-09 1.56711575875683e-09 3.24966203847509e-09 2.85319507440564e-09 3.62644343199044e-09 1.18920752262969e-08
"543" 11854 9.37096637543546e-09 1.03302331156862e-08 3.22585128000386e-09 1.55839740387673e-09 3.23769135941129e-09 2.84172546848386e-09 3.613902474414e-09 1.18858263998304e-08
"544" 11855 9.37590955012013e-09 1.03351762456115e-08 3.22485074505537e-09 1.54967904899663e-09 3.22572068034748e-09 2.83025586256209e-09 3.60136151683755e-09 1.18795775733639e-08
"545" 11856 9.38085272480479e-09 1.03401193755369e-08 3.22385021010689e-09 1.54096069411654e-09 3.21375000128368e-09 2.81878625664031e-09 3.58882055926111e-09 1.18733287468973e-08
"546" 11857 9.38579589948946e-09 1.03450625054622e-08 3.2228496751584e-09 1.53224233923644e-09 3.20177932221987e-09 2.80731665071853e-09 3.57627960168466e-09 1.18670799204308e-08
"547" 11858 9.39073907417412e-09 1.03500056353875e-08 3.22184914020991e-09 1.52352398435634e-09 3.18980864315606e-09 2.79584704479675e-09 3.56373864410822e-09 1.18608310939642e-08
"548" 11859 9.39568224885879e-09 1.03549487653129e-08 3.22084860526142e-09 1.51480562947624e-09 3.17783796409226e-09 2.78437743887497e-09 3.55119768653178e-09 1.18545822674977e-08
"549" 11860 9.40062542354345e-09 1.03598918952382e-08 3.21984807031293e-09 1.50608727459615e-09 3.16586728502845e-09 2.7729078329532e-09 3.53865672895533e-09 1.18483334410311e-08
"550" 11861 9.39964631339009e-09 1.03263030011001e-08 3.17772311855043e-09 1.5057946978326e-09 3.16304115164225e-09 2.77078770326157e-09 3.54107892438661e-09 1.17312249662938e-08
"551" 11862 9.40344051629707e-09 1.03341942484819e-08 3.15750998809021e-09 1.50488359200807e-09 3.16387227255963e-09 2.76866757356995e-09 3.51229438389812e-09 1.17327409272067e-08
"552" 11863 9.40723471920406e-09 1.03420854958638e-08 3.13729685762999e-09 1.50397248618353e-09 3.16470339347701e-09 2.76654744387832e-09 3.48350984340962e-09 1.17342568881195e-08
"553" 11864 9.41102892211104e-09 1.03499767432456e-08 3.11708372716977e-09 1.50306138035899e-09 3.16553451439439e-09 2.76442731418670e-09 3.45472530292112e-09 1.17357728490324e-08
"554" 11865 9.41482312501802e-09 1.03578679906275e-08 3.09687059670956e-09 1.50215027453445e-09 3.16636563531177e-09 2.76230718449507e-09 3.42594076243262e-09 1.17372888099453e-08
"555" 11866 9.41321975661054e-09 1.03660256454897e-08 3.08064143375884e-09 1.50123916870991e-09 3.20327417165287e-09 2.76074750864506e-09 3.39900865359496e-09 1.17363989349588e-08
"556" 11867 9.41161638820306e-09 1.03741833003519e-08 3.06441227080813e-09 1.50032806288538e-09 3.24018270799397e-09 2.75918783279505e-09 3.3720765447573e-09 1.17355090599724e-08
"557" 11868 9.41001301979557e-09 1.03823409552142e-08 3.04818310785742e-09 1.49941695706084e-09 3.27709124433507e-09 2.75762815694504e-09 3.34514443591964e-09 1.17346191849859e-08
"558" 11869 9.40840965138809e-09 1.03904986100764e-08 3.03195394490671e-09 1.4985058512363e-09 3.31399978067617e-09 2.75606848109503e-09 3.31821232708198e-09 1.17337293099994e-08
"559" 11870 9.4068062829806e-09 1.03986562649386e-08 3.015724781956e-09 1.49759474541176e-09 3.35090831701727e-09 2.75450880524501e-09 3.29128021824432e-09 1.17328394350129e-08
"560" 11871 9.40520291457312e-09 1.04068139198008e-08 2.99949561900529e-09 1.49668363958722e-09 3.38781685335837e-09 2.752949129395e-09 3.26434810940665e-09 1.17319495600265e-08
"561" 11872 9.40359954616564e-09 1.0414971574663e-08 2.98326645605458e-09 1.49577253376269e-09 3.42472538969947e-09 2.75138945354499e-09 3.23741600056899e-09 1.173105968504e-08
"562" 11873 9.40199617775816e-09 1.04231292295252e-08 2.96703729310387e-09 1.49486142793815e-09 3.46163392604057e-09 2.74982977769498e-09 3.21048389173133e-09 1.17301698100535e-08
"563" 11874 9.42112622216164e-09 1.04243539116949e-08 2.95082024500946e-09 1.49776754623151e-09 3.46196649525769e-09 2.74758453078056e-09 3.17991848974675e-09 1.17448095098259e-08
"564" 11875 9.44025626656513e-09 1.04255785938645e-08 2.93460319691505e-09 1.50067366452488e-09 3.46229906447481e-09 2.74533928386613e-09 3.14935308776217e-09 1.17594492095983e-08
"565" 11876 9.45938631096861e-09 1.04268032760342e-08 2.91838614882063e-09 1.50357978281825e-09 3.46263163369193e-09 2.74309403695171e-09 3.11878768577758e-09 1.17740889093707e-08
"566" 11877 9.47851635537210e-09 1.04280279582039e-08 2.90216910072622e-09 1.50648590111161e-09 3.46296420290905e-09 2.74084879003729e-09 3.088222283793e-09 1.1788728609143e-08
"567" 11878 9.49764639977558e-09 1.04292526403735e-08 2.88595205263181e-09 1.50939201940498e-09 3.46329677212617e-09 2.73860354312287e-09 3.05765688180842e-09 1.18033683089154e-08
"568" 11879 9.51677644417906e-09 1.04304773225432e-08 2.86973500453739e-09 1.51229813769834e-09 3.46362934134329e-09 2.73635829620844e-09 3.02709147982383e-09 1.18180080086878e-08
"569" 11880 9.53590648858255e-09 1.04317020047128e-08 2.85351795644298e-09 1.51520425599171e-09 3.46396191056041e-09 2.73411304929402e-09 2.99652607783925e-09 1.18326477084602e-08
"570" 11881 9.55503653298603e-09 1.04329266868825e-08 2.83730090834857e-09 1.51811037428508e-09 3.46429447977753e-09 2.7318678023796e-09 2.96596067585466e-09 1.18472874082325e-08
"571" 11882 9.57416657738952e-09 1.04341513690521e-08 2.82108386025416e-09 1.52101649257844e-09 3.46462704899465e-09 2.72962255546517e-09 2.93539527387008e-09 1.18619271080049e-08
"572" 11883 9.59509581223116e-09 1.04242651092014e-08 2.80486681215974e-09 1.51291666675934e-09 3.42805108187067e-09 2.71434974255295e-09 2.93539527387008e-09 1.18278254585419e-08
"573" 11884 9.56592795291508e-09 1.04012832342648e-08 2.75277588419532e-09 1.51582278505271e-09 3.42588968408481e-09 2.71341393704294e-09 2.93425518681768e-09 1.179523064655e-08
"574" 11885 9.53676009359899e-09 1.03783013593282e-08 2.7006849562309e-09 1.51872890334607e-09 3.42372828629895e-09 2.71247813153293e-09 2.93311509976527e-09 1.17626358345582e-08
"575" 11886 9.50759223428291e-09 1.03553194843915e-08 2.64859402826647e-09 1.52163502163944e-09 3.42156688851309e-09 2.71154232602292e-09 2.93197501271287e-09 1.17300410225664e-08
"576" 11887 9.47842437496683e-09 1.03323376094549e-08 2.59650310030205e-09 1.5245411399328e-09 3.41940549072723e-09 2.71060652051292e-09 2.93083492566046e-09 1.16974462105746e-08
"577" 11888 9.44925651565075e-09 1.03093557345183e-08 2.54441217233763e-09 1.52744725822617e-09 3.41724409294137e-09 2.70967071500291e-09 2.92969483860806e-09 1.16648513985827e-08
"578" 11889 9.3998096401535e-09 1.02880972948685e-08 2.48931963952774e-09 1.5267423287553e-09 3.41724409294137e-09 2.71060480473894e-09 2.92969483860806e-09 1.16167270118321e-08
"579" 11890 9.40713947136834e-09 1.03121262469879e-08 2.43348049139908e-09 1.52583122293076e-09 3.41558124685577e-09 2.70979411645173e-09 2.93453922947062e-09 1.15686026250814e-08
"580" 11891 9.35884156764877e-09 1.02869665848939e-08 2.37764437198449e-09 1.52583122293076e-09 3.41558124685577e-09 2.70898342816452e-09 2.93297139996425e-09 1.15934629293747e-08
"581" 11892 9.3105436639292e-09 1.02618069227999e-08 2.3218082525699e-09 1.52583122293076e-09 3.41558124685577e-09 2.70817273987731e-09 2.93140357045788e-09 1.16183232336679e-08
"582" 11893 9.26224576020964e-09 1.02366472607059e-08 2.26597213315532e-09 1.52583122293076e-09 3.41558124685577e-09 2.7073620515901e-09 2.9298357409515e-09 1.16431835379612e-08
"583" 11894 9.21394785649007e-09 1.02114875986119e-08 2.21013601374073e-09 1.52583122293076e-09 3.41558124685577e-09 2.70655136330289e-09 2.92826791144513e-09 1.16680438422544e-08
"584" 11895 9.1656499527705e-09 1.0186327936518e-08 2.15429989432614e-09 1.52583122293076e-09 3.41558124685577e-09 2.70574067501568e-09 2.92670008193875e-09 1.16929041465477e-08
"585" 11896 9.11735204905094e-09 1.0161168274424e-08 2.09846377491156e-09 1.52583122293076e-09 3.41558124685577e-09 2.70492998672847e-09 2.92513225243238e-09 1.1717764450841e-08
"586" 11897 9.06905414533137e-09 1.013600861233e-08 2.04262765549697e-09 1.52583122293076e-09 3.41558124685577e-09 2.70411929844126e-09 2.92356442292601e-09 1.17426247551342e-08
"587" 11898 9.0207562416118e-09 1.0110848950236e-08 1.98679153608238e-09 1.52583122293076e-09 3.41558124685577e-09 2.70330861015405e-09 2.92199659341963e-09 1.17674850594275e-08
"588" 11899 8.97245833789224e-09 1.0085689288142e-08 1.9309554166678e-09 1.52583122293076e-09 3.41558124685577e-09 2.70249792186684e-09 2.92042876391326e-09 1.17923453637207e-08
"589" 11900 8.92416043417267e-09 1.00605296260481e-08 1.87511929725321e-09 1.52583122293076e-09 3.41558124685577e-09 2.70168723357963e-09 2.91886093440688e-09 1.1817205668014e-08
"590" 11901 8.8758625304531e-09 1.00353699639541e-08 1.81928317783862e-09 1.52583122293076e-09 3.41558124685577e-09 2.70087654529242e-09 2.91729310490051e-09 1.18420659723073e-08
"591" 11902 8.82756462673354e-09 1.00102103018601e-08 1.76344705842404e-09 1.52583122293076e-09 3.41558124685577e-09 2.70006585700522e-09 2.91572527539414e-09 1.18669262766005e-08
"592" 11903 8.77926672301397e-09 9.98505063976612e-09 1.70761093900945e-09 1.52583122293076e-09 3.41558124685577e-09 2.69925516871801e-09 2.91415744588776e-09 1.18917865808938e-08
"593" 11904 8.7309688192944e-09 9.95989097767214e-09 1.65177481959486e-09 1.52583122293076e-09 3.41558124685577e-09 2.6984444804308e-09 2.91258961638139e-09 1.19166468851871e-08
"594" 11905 8.68267091557484e-09 9.93473131557816e-09 1.59593870018027e-09 1.52583122293076e-09 3.41558124685577e-09 2.69763379214359e-09 2.91102178687501e-09 1.19415071894803e-08
"595" 11906 8.67623148153855e-09 9.92588696320862e-09 1.59394065899737e-09 1.52644975199176e-09 3.4169113223073e-09 2.69775890936638e-09 2.91059404442104e-09 1.20120860446249e-08
"596" 11907 8.66979204750227e-09 9.91704261083907e-09 1.59194261781447e-09 1.52706828105275e-09 3.41824139775883e-09 2.69788402658918e-09 2.91016630196707e-09 1.20826648997695e-08
"597" 11908 8.66335261346598e-09 9.90819825846952e-09 1.58994457663157e-09 1.52768681011375e-09 3.41957147321037e-09 2.69800914381198e-09 2.9097385595131e-09 1.21532437549141e-08
"598" 11909 8.65691317942969e-09 9.89935390609998e-09 1.58794653544867e-09 1.52830533917475e-09 3.4209015486619e-09 2.69813426103478e-09 2.90931081705913e-09 1.22238226100587e-08
"599" 11910 8.6600571636762e-09 9.89078113091240e-09 1.58669208087046e-09 1.52830533917475e-09 3.42007022632757e-09 2.69881983209919e-09 2.90888307460516e-09 1.25250195116096e-08
"600" 11911 8.65839104270026e-09 9.89104753839275e-09 1.61460105443553e-09 1.53217558816861e-09 3.41973745569351e-09 2.70106507901361e-09 2.92320489367769e-09 1.25228092366449e-08
"601" 11912 8.65672492172432e-09 9.89131394587311e-09 1.6425100280006e-09 1.53604583716248e-09 3.41940468505944e-09 2.70331032592803e-09 2.93752671275022e-09 1.25205989616801e-08
"602" 11913 8.65505880074838e-09 9.89158035335347e-09 1.67041900156567e-09 1.53991608615634e-09 3.41907191442538e-09 2.70555557284246e-09 2.95184853182275e-09 1.25183886867154e-08
"603" 11914 8.65339267977244e-09 9.89184676083382e-09 1.69832797513074e-09 1.54378633515021e-09 3.41873914379131e-09 2.70780081975688e-09 2.96617035089528e-09 1.25161784117507e-08
"604" 11915 8.6517265587965e-09 9.89211316831418e-09 1.72623694869581e-09 1.54765658414408e-09 3.41840637315725e-09 2.7100460666713e-09 2.98049216996781e-09 1.2513968136786e-08
"605" 11916 8.65006043782055e-09 9.89237957579454e-09 1.75414592226088e-09 1.55152683313794e-09 3.41807360252318e-09 2.71229131358573e-09 2.99481398904034e-09 1.25117578618213e-08
"606" 11917 8.64839431684461e-09 9.89264598327489e-09 1.78205489582595e-09 1.55539708213181e-09 3.41774083188911e-09 2.71453656050015e-09 3.00913580811286e-09 1.25095475868566e-08
"607" 11918 8.64672819586867e-09 9.89291239075525e-09 1.80996386939102e-09 1.55926733112568e-09 3.41740806125505e-09 2.71678180741457e-09 3.02345762718539e-09 1.25073373118918e-08
"608" 11919 8.64506207489273e-09 9.89317879823561e-09 1.83787284295609e-09 1.56313758011954e-09 3.41707529062098e-09 2.719027054329e-09 3.03777944625792e-09 1.25051270369271e-08
"609" 11920 8.64818766305819e-09 9.83880436905683e-09 1.83210235189636e-09 1.55858205099685e-09 3.41125603428069e-09 2.70599948833119e-09 3.02901548162942e-09 1.25051270369271e-08
"610" 11921 8.62899486608625e-09 9.75746837940697e-09 1.86126578003963e-09 1.56274487675426e-09 3.41125603428069e-09 2.70730892973561e-09 3.03970400755503e-09 1.23942174074142e-08
"611" 11922 8.6098020691143e-09 9.67613238975712e-09 1.89042920818291e-09 1.56690770251167e-09 3.41125603428069e-09 2.70861837114002e-09 3.05039253348063e-09 1.22833077779013e-08
"612" 11923 8.59060927214236e-09 9.59479640010726e-09 1.91959263632618e-09 1.57107052826908e-09 3.41125603428069e-09 2.70992781254444e-09 3.06108105940624e-09 1.21723981483884e-08
"613" 11924 8.56829088700496e-09 9.50530275559519e-09 1.91884602100741e-09 1.57198163409361e-09 3.41474770893504e-09 2.72058673017901e-09 3.06813573269341e-09 1.20615961501234e-08
"614" 11925 8.54597250186756e-09 9.41580911108312e-09 1.91809940568863e-09 1.57289273991815e-09 3.41823938358938e-09 2.73124564781358e-09 3.07519040598057e-09 1.19507941518584e-08
"615" 11926 8.52365411673016e-09 9.32631546657105e-09 1.91735279036986e-09 1.57380384574269e-09 3.42173105824372e-09 2.74190456544814e-09 3.08224507926774e-09 1.18399921535934e-08
"616" 11927 8.50133573159277e-09 9.23682182205898e-09 1.91660617505109e-09 1.57471495156723e-09 3.42522273289806e-09 2.75256348308271e-09 3.08929975255491e-09 1.17291901553284e-08
"617" 11928 8.47901734645537e-09 9.14732817754691e-09 1.91585955973231e-09 1.57562605739177e-09 3.4287144075524e-09 2.76322240071728e-09 3.09635442584208e-09 1.16183881570635e-08
"618" 11929 8.45669896131797e-09 9.05783453303484e-09 1.91511294441354e-09 1.5765371632163e-09 3.43220608220674e-09 2.77388131835185e-09 3.10340909912924e-09 1.15075861587985e-08
"619" 11930 8.43438057618057e-09 8.96834088852277e-09 1.91436632909477e-09 1.57744826904084e-09 3.43569775686108e-09 2.78454023598642e-09 3.11046377241641e-09 1.13967841605335e-08
"620" 11931 8.41206219104317e-09 8.8788472440107e-09 1.91361971377599e-09 1.57835937486538e-09 3.43918943151542e-09 2.79519915362099e-09 3.11751844570358e-09 1.12859821622685e-08
"621" 11932 8.42701722023408e-09 8.7886720716929e-09 1.91885207843555e-09 1.57944328150967e-09 3.43852449449812e-09 2.79426334811098e-09 3.11310123780347e-09 1.12378563208399e-08
"622" 11933 8.44197224942499e-09 8.69849689937511e-09 1.92408444309512e-09 1.58052718815396e-09 3.43785955748083e-09 2.79332754260097e-09 3.10868402990336e-09 1.11897304794113e-08
"623" 11934 8.4569272786159e-09 8.60832172705732e-09 1.92931680775468e-09 1.58161109479825e-09 3.43719462046354e-09 2.79239173709097e-09 3.10426682200325e-09 1.11416046379827e-08
"624" 11935 8.47188230780681e-09 8.51814655473953e-09 1.93454917241424e-09 1.58269500144254e-09 3.43652968344624e-09 2.79145593158096e-09 3.09984961410314e-09 1.10934787965541e-08
"625" 11936 8.48683733699772e-09 8.42797138242174e-09 1.9397815370738e-09 1.58377890808683e-09 3.43586474642895e-09 2.79052012607095e-09 3.09543240620303e-09 1.10453529551254e-08
"626" 11937 8.50179236618863e-09 8.33779621010394e-09 1.94501390173336e-09 1.58486281473112e-09 3.43519980941165e-09 2.78958432056095e-09 3.09101519830292e-09 1.09972271136968e-08
"627" 11938 8.51674739537954e-09 8.24762103778615e-09 1.95024626639293e-09 1.58594672137541e-09 3.43453487239436e-09 2.78864851505094e-09 3.08659799040281e-09 1.09491012722682e-08
"628" 11939 8.53170242457045e-09 8.15744586546836e-09 1.95547863105249e-09 1.5870306280197e-09 3.43386993537707e-09 2.78771270954093e-09 3.0821807825027e-09 1.09009754308396e-08
"629" 11940 8.54665745376136e-09 8.06727069315057e-09 1.96071099571205e-09 1.58811453466399e-09 3.43320499835977e-09 2.78677690403092e-09 3.07776357460259e-09 1.0852849589411e-08
"630" 11941 8.56161248295227e-09 7.97709552083278e-09 1.96594336037161e-09 1.58919844130828e-09 3.43254006134248e-09 2.78584109852092e-09 3.07334636670248e-09 1.08047237479824e-08
"631" 11942 8.59409418813919e-09 7.97709552083278e-09 1.9599613516792e-09 1.57776049514643e-09 3.42106914248061e-09 2.78490529301091e-09 3.06764593144046e-09 1.08675075360667e-08
"632" 11943 8.61978917171587e-09 7.95265144838802e-09 1.9661881938591e-09 1.57776049514643e-09 3.40959822361874e-09 2.78085185157487e-09 3.06508115519119e-09 1.09262815976521e-08
"633" 11944 8.64548415529256e-09 7.92820737594327e-09 1.972415036039e-09 1.57776049514643e-09 3.39812730475687e-09 2.77679841013882e-09 3.06251637894192e-09 1.09850556592375e-08
"634" 11945 8.67117913886924e-09 7.90376330349852e-09 1.9786418782189e-09 1.57776049514643e-09 3.386656385895e-09 2.77274496870277e-09 3.05995160269264e-09 1.10438297208228e-08
"635" 11946 8.69687412244593e-09 7.87931923105377e-09 1.98486872039881e-09 1.57776049514643e-09 3.37518546703313e-09 2.76869152726673e-09 3.05738682644337e-09 1.11026037824082e-08
"636" 11947 8.7076140768317e-09 7.86697843716216e-09 1.98511658260037e-09 1.57758769432668e-09 3.3638809334883e-09 2.76869152726673e-09 3.05603314790974e-09 1.11026037824082e-08
"637" 11948 8.69243726520377e-09 7.85432683454347e-09 1.98911266496618e-09 1.58032101180030e-09 3.38915236706744e-09 2.78408774162777e-09 3.05382454395969e-09 1.11049019870596e-08
"638" 11949 8.67726045357584e-09 7.84167523192478e-09 1.99310874733198e-09 1.58305432927391e-09 3.41442380064659e-09 2.79948395598881e-09 3.05161594000963e-09 1.1107200191711e-08
"639" 11950 8.6620836419479e-09 7.82902362930610e-09 1.99710482969779e-09 1.58578764674752e-09 3.43969523422573e-09 2.81488017034986e-09 3.04940733605958e-09 1.11094983963625e-08
"640" 11951 8.64690683031997e-09 7.8163720266874e-09 2.00110091206359e-09 1.58852096422114e-09 3.46496666780487e-09 2.8302763847109e-09 3.04719873210952e-09 1.11117966010139e-08
"641" 11952 8.63173001869203e-09 7.80372042406872e-09 2.0050969944294e-09 1.59125428169475e-09 3.49023810138402e-09 2.84567259907194e-09 3.04499012815947e-09 1.11140948056653e-08
"642" 11953 8.6165532070641e-09 7.79106882145003e-09 2.0090930767952e-09 1.59398759916836e-09 3.51550953496316e-09 2.86106881343299e-09 3.04278152420941e-09 1.11163930103167e-08
"643" 11954 8.60137639543616e-09 7.77841721883134e-09 2.01308915916101e-09 1.59672091664198e-09 3.54078096854231e-09 2.87646502779403e-09 3.04057292025936e-09 1.11186912149681e-08
"644" 11955 8.58619958380823e-09 7.76576561621265e-09 2.01708524152681e-09 1.59945423411559e-09 3.56605240212145e-09 2.89186124215507e-09 3.0383643163093e-09 1.11209894196195e-08
"645" 11956 8.57102277218029e-09 7.75311401359396e-09 2.02108132389261e-09 1.60218755158921e-09 3.59132383570059e-09 2.90725745651612e-09 3.03615571235925e-09 1.11232876242709e-08
"646" 11957 8.55584596055236e-09 7.74046241097527e-09 2.02507740625842e-09 1.60492086906282e-09 3.61659526927974e-09 2.92265367087716e-09 3.03394710840919e-09 1.11255858289223e-08
"647" 11958 8.54066914892443e-09 7.72781080835658e-09 2.02907348862422e-09 1.60765418653643e-09 3.64186670285888e-09 2.9380498852382e-09 3.03173850445914e-09 1.11278840335737e-08
"648" 11959 8.52549233729649e-09 7.71515920573789e-09 2.03306957099003e-09 1.61038750401005e-09 3.66713813643803e-09 2.95344609959924e-09 3.02952990050908e-09 1.11301822382251e-08
"649" 11960 8.51031552566856e-09 7.7025076031192e-09 2.03706565335583e-09 1.61312082148366e-09 3.69240957001717e-09 2.96884231396029e-09 3.02732129655903e-09 1.11324804428765e-08
"650" 11961 8.49513871404062e-09 7.68985600050052e-09 2.04106173572164e-09 1.61585413895727e-09 3.71768100359631e-09 2.98423852832133e-09 3.02511269260897e-09 1.11347786475279e-08
"651" 11962 8.47996190241269e-09 7.67720439788183e-09 2.04505781808744e-09 1.61858745643089e-09 3.74295243717546e-09 2.99963474268237e-09 3.02290408865892e-09 1.11370768521793e-08
"652" 11963 8.46478509078475e-09 7.66455279526314e-09 2.04905390045325e-09 1.6213207739045e-09 3.7682238707546e-09 3.01503095704342e-09 3.02069548470886e-09 1.11393750568307e-08
"653" 11964 8.46478509078475e-09 7.6763452650892e-09 2.04905390045325e-09 1.62302320960979e-09 3.79233060711452e-09 3.03261071759448e-09 3.02105165700808e-09 1.11332823881763e-08
"654" 11965 8.44546678867589e-09 7.66840961646062e-09 2.05304998281905e-09 1.62472564531508e-09 3.81643734347443e-09 2.98940773011866e-09 3.00216948972594e-09 1.11279431382575e-08
"655" 11966 8.42614848656704e-09 7.66047396783203e-09 2.05704606518486e-09 1.62642808102036e-09 3.84054407983434e-09 2.94620474264284e-09 2.98328732244379e-09 1.11226038883386e-08
"656" 11967 8.40683018445818e-09 7.65253831920345e-09 2.06104214755066e-09 1.62813051672565e-09 3.86465081619426e-09 2.90300175516702e-09 2.96440515516165e-09 1.11172646384198e-08
"657" 11968 8.38751188234932e-09 7.64460267057486e-09 2.06503822991647e-09 1.62983295243093e-09 3.88875755255417e-09 2.8597987676912e-09 2.9455229878795e-09 1.1111925388501e-08
"658" 11969 8.37775860244221e-09 7.62691396583576e-09 2.06528609211803e-09 1.62880207066261e-09 3.87961300687658e-09 2.79939137133271e-09 2.93590297885155e-09 1.11065861385822e-08
"659" 11970 8.40594735160493e-09 7.61081549264335e-09 2.06752593807435e-09 1.62906127189224e-09 3.86880601794727e-09 2.7365519101126e-09 2.91744855402337e-09 1.12619227439711e-08
"660" 11971 8.43413610076765e-09 7.59471701945094e-09 2.06976578403067e-09 1.62932047312186e-09 3.85799902901797e-09 2.67371244889248e-09 2.8989941291952e-09 1.141725934936e-08
"661" 11972 8.46232484993037e-09 7.57861854625853e-09 2.07200562998699e-09 1.62957967435149e-09 3.84719204008866e-09 2.61087298767237e-09 2.88053970436702e-09 1.15725959547489e-08
"662" 11973 8.49051359909309e-09 7.56252007306612e-09 2.07424547594331e-09 1.62983887558112e-09 3.83638505115936e-09 2.54803352645226e-09 2.86208527953885e-09 1.17279325601379e-08
"663" 11974 8.51870234825581e-09 7.54642159987371e-09 2.07648532189963e-09 1.63009807681075e-09 3.82557806223006e-09 2.48519406523214e-09 2.84363085471067e-09 1.18832691655268e-08
"664" 11975 8.54689109741853e-09 7.53032312668130e-09 2.07872516785595e-09 1.63035727804038e-09 3.81477107330075e-09 2.42235460401203e-09 2.8251764298825e-09 1.20386057709157e-08
"665" 11976 8.57507984658125e-09 7.51422465348888e-09 2.08096501381227e-09 1.63061647927e-09 3.80396408437145e-09 2.35951514279192e-09 2.80672200505433e-09 1.21939423763046e-08
"666" 11977 8.60326859574397e-09 7.49812618029647e-09 2.08320485976859e-09 1.63087568049963e-09 3.79315709544214e-09 2.2966756815718e-09 2.78826758022615e-09 1.23492789816935e-08
"667" 11978 8.63145734490669e-09 7.48202770710406e-09 2.08544470572491e-09 1.63113488172926e-09 3.78235010651284e-09 2.23383622035169e-09 2.76981315539798e-09 1.25046155870824e-08
"668" 11979 8.63809260097365e-09 7.47014643478455e-09 2.08743668947966e-09 1.63113488172926e-09 3.77586651740609e-09 2.23140415549006e-09 2.77024089785195e-09 1.26658295986299e-08
"669" 11980 8.67985479335682e-09 7.47014643478455e-09 2.08343454968571e-09 1.6296916472536e-09 3.76838461639715e-09 2.20191773662442e-09 2.76268803093909e-09 1.27915639107302e-08
