"time" "channel1" "channel2" "channel3" "channel4" "channel5" "channel6" "channel7" "channel8"
"1978" 47298 5.48839705930755e-09 6.84711668122453e-09 1.13646506278763e-07 5.4920551414794e-07 4.09992157890115e-07 3.33385039079878e-08 2.24361069814084e-08 3.50560655675489e-09
"1979" 47299 5.48839705930755e-09 6.84289050846773e-09 1.13636769719827e-07 5.47324489702189e-07 4.1119976887298e-07 3.332304570864e-08 2.24423448780575e-08 3.50225380060045e-09
"1980" 47300 5.46916689082403e-09 6.82383402958923e-09 1.13732617303533e-07 5.45120795615696e-07 4.11101744537637e-07 3.33161353146689e-08 2.24904254452928e-08 3.48961856043195e-09
"1981" 47301 5.44993672234051e-09 6.80477755071073e-09 1.13828464887238e-07 5.42917101529204e-07 4.11003720202294e-07 3.33092249206978e-08 2.2538506012528e-08 3.47698332026344e-09
"1982" 47302 5.43070655385699e-09 6.78572107183224e-09 1.13924312470944e-07 5.40713407442712e-07 4.10905695866952e-07 3.33023145267266e-08 2.25865865797633e-08 3.46434808009493e-09
"1983" 47303 5.41147638537347e-09 6.76666459295374e-09 1.1402016005465e-07 5.3850971335622e-07 4.10807671531609e-07 3.32954041327555e-08 2.26346671469985e-08 3.45171283992643e-09
"1984" 47304 5.39224621688995e-09 6.74760811407525e-09 1.14116007638355e-07 5.36306019269728e-07 4.10709647196266e-07 3.32884937387844e-08 2.26827477142337e-08 3.43907759975792e-09
"1985" 47305 5.37301604840643e-09 6.72855163519675e-09 1.14211855222061e-07 5.34102325183236e-07 4.10611622860924e-07 3.32815833448133e-08 2.2730828281469e-08 3.42644235958942e-09
"1986" 47306 5.35378587992291e-09 6.70949515631825e-09 1.14307702805767e-07 5.31898631096743e-07 4.10513598525581e-07 3.32746729508421e-08 2.27789088487042e-08 3.41380711942091e-09
"1987" 47307 5.3345557114394e-09 6.69043867743976e-09 1.14403550389472e-07 5.29694937010251e-07 4.10415574190239e-07 3.3267762556871e-08 2.28269894159395e-08 3.40117187925241e-09
"1988" 47308 5.31532554295588e-09 6.67138219856126e-09 1.14499397973178e-07 5.27491242923759e-07 4.10317549854896e-07 3.32608521628999e-08 2.28750699831747e-08 3.3885366390839e-09
"1989" 47309 5.29609537447236e-09 6.65232571968276e-09 1.14595245556883e-07 5.25287548837267e-07 4.10219525519553e-07 3.32539417689288e-08 2.292315055041e-08 3.37590139891539e-09
"1990" 47310 5.27897291234187e-09 6.64103763084835e-09 1.14766232302677e-07 5.2416990768921e-07 4.08762441882525e-07 3.32588571504311e-08 2.2971146831231e-08 3.36118842375668e-09
"1991" 47311 5.2849475172961e-09 6.63589332429384e-09 1.13203360319942e-07 5.24002626722055e-07 4.08789499131884e-07 3.32556513300041e-08 2.30075101828959e-08 3.35800207984058e-09
"1992" 47312 5.29092212225033e-09 6.63074901773933e-09 1.11640488337207e-07 5.238353457549e-07 4.08816556381243e-07 3.32524455095771e-08 2.30438735345609e-08 3.35481573592447e-09
"1993" 47313 5.29689672720457e-09 6.62560471118482e-09 1.10077616354472e-07 5.23668064787745e-07 4.08843613630602e-07 3.32492396891502e-08 2.30802368862258e-08 3.35162939200837e-09
"1994" 47314 5.29867053658584e-09 6.64946548837404e-09 1.08624034425617e-07 5.23709174409887e-07 4.10213420148198e-07 3.32789484271733e-08 2.30881326496869e-08 3.34930203866067e-09
"1995" 47315 6.00396797593946e-09 6.69920851270022e-09 1.06866366025265e-07 5.23541157816399e-07 4.10621807960707e-07 3.3270827225244e-08 2.37226873261301e-08 3.34611569474456e-09
"1996" 47316 6.70926541529308e-09 6.7489515370264e-09 1.05108697624913e-07 5.23373141222911e-07 4.11030195773216e-07 3.32627060233148e-08 2.43572420025734e-08 3.34292935082846e-09
"1997" 47317 7.4145628546467e-09 6.79869456135258e-09 1.03351029224562e-07 5.23205124629422e-07 4.11438583585725e-07 3.32545848213855e-08 2.49917966790166e-08 3.33974300691235e-09
"1998" 47318 8.11986029400032e-09 6.84843758567875e-09 1.0159336082421e-07 5.23037108035934e-07 4.11846971398234e-07 3.32464636194562e-08 2.56263513554599e-08 3.33655666299625e-09
"1999" 47319 8.82515773335394e-09 6.89818061000493e-09 9.98356924238581e-08 5.22869091442446e-07 4.12255359210743e-07 3.3238342417527e-08 2.62609060319031e-08 3.33337031908015e-09
"2000" 47320 9.53045517270756e-09 6.94792363433111e-09 9.80780240235063e-08 5.22701074848958e-07 4.12663747023252e-07 3.32302212155977e-08 2.68954607083464e-08 3.33018397516404e-09
"2001" 47321 1.02357526120612e-08 6.99766665865729e-09 9.63203556231546e-08 5.2253305825547e-07 4.13072134835761e-07 3.32221000136685e-08 2.75300153847896e-08 3.32699763124794e-09
"2002" 47322 1.09410500514148e-08 7.04740968298346e-09 9.45626872228029e-08 5.22365041661982e-07 4.13480522648269e-07 3.32139788117392e-08 2.81645700612329e-08 3.32381128733184e-09
"2003" 47323 1.16463474907684e-08 7.09715270730964e-09 9.28050188224511e-08 5.22197025068494e-07 4.13888910460778e-07 3.320585760981e-08 2.87991247376761e-08 3.32062494341573e-09
"2004" 47324 1.2351644930122e-08 7.14689573163582e-09 9.10473504220994e-08 5.22029008475006e-07 4.14297298273287e-07 3.31977364078807e-08 2.94336794141194e-08 3.31743859949963e-09
"2005" 47325 1.30569423694757e-08 7.196638755962e-09 8.92896820217477e-08 5.21860991881518e-07 4.14705686085796e-07 3.31896152059514e-08 3.00682340905626e-08 3.31425225558352e-09
"2006" 47326 1.37622398088293e-08 7.24638178028818e-09 8.75320136213959e-08 5.2169297528803e-07 4.15114073898305e-07 3.31814940040222e-08 3.07027887670058e-08 3.31106591166742e-09
"2007" 47327 1.44675372481829e-08 7.29612480461435e-09 8.57743452210442e-08 5.21524958694542e-07 4.15522461710814e-07 3.31733728020929e-08 3.13373434434491e-08 3.30787956775132e-09
"2008" 47328 1.51728346875365e-08 7.34586782894053e-09 8.40166768206925e-08 5.21356942101054e-07 4.15930849523323e-07 3.31652516001637e-08 3.19718981198923e-08 3.30469322383521e-09
"2009" 47329 1.58781321268901e-08 7.39561085326671e-09 8.22590084203407e-08 5.21188925507566e-07 4.16339237335832e-07 3.31571303982344e-08 3.26064527963356e-08 3.30150687991911e-09
"2010" 47330 1.65834295662438e-08 7.44535387759289e-09 8.0501340019989e-08 5.21020908914078e-07 4.16747625148341e-07 3.31490091963051e-08 3.32410074727788e-08 3.298320536003e-09
"2011" 47331 1.72887270055974e-08 7.49509690191906e-09 7.87436716196373e-08 5.2085289232059e-07 4.1715601296085e-07 3.31408879943759e-08 3.38755621492221e-08 3.2951341920869e-09
"2012" 47332 1.79864659363463e-08 7.5259382532582e-09 7.67684114411031e-08 5.19486617911528e-07 4.15532940631352e-07 3.30632863679585e-08 3.44856253316629e-08 3.28585170807283e-09
"2013" 47333 1.86842048670952e-08 7.55677960459733e-09 7.4793151262569e-08 5.18120343502466e-07 4.13909868301854e-07 3.29856847415412e-08 3.50956885141037e-08 3.27656922405876e-09
"2014" 47334 1.93819437978441e-08 7.58762095593647e-09 7.28178910840348e-08 5.16754069093404e-07 4.12286795972357e-07 3.29080831151238e-08 3.57057516965445e-08 3.26728674004469e-09
"2015" 47335 2.0079682728593e-08 7.6184623072756e-09 7.08426309055006e-08 5.15387794684342e-07 4.10663723642859e-07 3.28304814887065e-08 3.63158148789853e-08 3.25800425603062e-09
"2016" 47336 2.00721242199883e-08 7.59441632773405e-09 6.89469537627149e-08 5.14102306467221e-07 4.08906539448691e-07 3.27853772591485e-08 3.63361408098535e-08 3.24850005023137e-09
"2017" 47337 2.01426800450543e-08 7.62565454125675e-09 6.84887294199077e-08 5.12766107285305e-07 4.07330071406685e-07 3.27041432088568e-08 3.63035463190385e-08 3.24076913511577e-09
"2018" 47338 2.02119712463085e-08 7.67791975813885e-09 6.84495664270567e-08 5.12473677486056e-07 4.04691417396604e-07 3.2679779603069e-08 3.63032091733816e-08 3.23303822000016e-09
"2019" 47339 2.02812624475627e-08 7.73018497502095e-09 6.84104034342058e-08 5.12181247686807e-07 4.02052763386524e-07 3.26554159972812e-08 3.63028720277248e-08 3.22530730488456e-09
"2020" 47340 2.03505536488168e-08 7.78245019190306e-09 6.83712404413548e-08 5.11888817887558e-07 3.99414109376443e-07 3.26310523914934e-08 3.63025348820679e-08 3.21757638976896e-09
"2021" 47341 2.0419844850071e-08 7.83471540878516e-09 6.83320774485038e-08 5.1159638808831e-07 3.96775455366362e-07 3.26066887857057e-08 3.6302197736411e-08 3.20984547465336e-09
"2022" 47342 2.04891360513252e-08 7.88698062566726e-09 6.82929144556528e-08 5.11303958289061e-07 3.94136801356282e-07 3.25823251799179e-08 3.63018605907541e-08 3.20211455953776e-09
"2023" 47343 2.05584272525794e-08 7.93924584254936e-09 6.82537514628018e-08 5.11011528489812e-07 3.91498147346201e-07 3.25579615741301e-08 3.63015234450972e-08 3.19438364442216e-09
"2024" 47344 2.06277184538335e-08 7.99151105943147e-09 6.82145884699509e-08 5.10719098690563e-07 3.88859493336121e-07 3.25335979683423e-08 3.63011862994403e-08 3.18665272930655e-09
"2025" 47345 2.06970096550877e-08 8.04377627631357e-09 6.81754254770999e-08 5.10426668891314e-07 3.8622083932604e-07 3.25092343625546e-08 3.63008491537835e-08 3.17892181419095e-09
"2026" 47346 2.07412651237304e-08 8.03603237425741e-09 6.96873005171478e-08 5.08254665034076e-07 3.85976018726584e-07 3.2352685444279e-08 3.62959459090256e-08 3.16163186732704e-09
"2027" 47347 2.07855205923731e-08 8.02828847220125e-09 7.11991755571958e-08 5.06082661176838e-07 3.85731198127128e-07 3.21961365260034e-08 3.62910426642678e-08 3.14434192046313e-09
"2028" 47348 2.08297760610159e-08 8.02054457014509e-09 7.27110505972437e-08 5.03910657319599e-07 3.85486377527672e-07 3.20395876077278e-08 3.62861394195099e-08 3.12705197359921e-09
"2029" 47349 2.08740315296586e-08 8.01280066808893e-09 7.42229256372916e-08 5.01738653462361e-07 3.85241556928216e-07 3.18830386894521e-08 3.62812361747521e-08 3.1097620267353e-09
"2030" 47350 2.09182869983013e-08 8.00505676603277e-09 7.57348006773396e-08 4.99566649605123e-07 3.84996736328759e-07 3.17264897711766e-08 3.62763329299942e-08 3.09247207987139e-09
"2031" 47351 2.0900444579966e-08 7.94202867091236e-09 7.62118920651923e-08 4.99167142067569e-07 3.8545748343742e-07 3.15706529077419e-08 3.62686900257758e-08 3.07448955467741e-09
"2032" 47352 2.08826021616308e-08 7.87900057579195e-09 7.6688983453045e-08 4.98767634530015e-07 3.8591823054608e-07 3.14148160443072e-08 3.62610471215574e-08 3.05650702948342e-09
"2033" 47353 2.08647597432955e-08 7.81597248067154e-09 7.71660748408977e-08 4.98368126992461e-07 3.86378977654741e-07 3.12589791808725e-08 3.62534042173389e-08 3.03852450428944e-09
"2034" 47354 2.08469173249603e-08 7.75294438555113e-09 7.76431662287505e-08 4.97968619454907e-07 3.86839724763401e-07 3.11031423174378e-08 3.62457613131205e-08 3.02054197909546e-09
"2035" 47355 2.0829074906625e-08 7.68991629043072e-09 7.81202576166032e-08 4.97569111917353e-07 3.87300471872062e-07 3.09473054540032e-08 3.62381184089021e-08 3.00255945390148e-09
"2036" 47356 2.08112324882898e-08 7.62688819531031e-09 7.85973490044559e-08 4.97169604379799e-07 3.87761218980722e-07 3.07914685905685e-08 3.62304755046836e-08 2.98457692870749e-09
"2037" 47357 2.07933900699545e-08 7.5638601001899e-09 7.90744403923086e-08 4.96770096842245e-07 3.88221966089383e-07 3.06356317271338e-08 3.62228326004652e-08 2.96659440351351e-09
"2038" 47358 2.08132734152485e-08 7.5008320050695e-09 7.98778650134341e-08 4.94711121702174e-07 3.88164523595497e-07 3.04810056716573e-08 3.62201316015277e-08 2.95570504105412e-09
"2039" 47359 2.08331567605424e-08 7.43780390994909e-09 8.06812896345596e-08 4.92652146562103e-07 3.88107081101611e-07 3.03263796161807e-08 3.62174306025902e-08 2.94481567859474e-09
"2040" 47360 2.08530401058363e-08 7.37477581482868e-09 8.14847142556851e-08 4.90593171422032e-07 3.88049638607726e-07 3.01717535607042e-08 3.62147296036526e-08 2.93392631613535e-09
"2041" 47361 2.08729234511303e-08 7.31174771970827e-09 8.22881388768106e-08 4.88534196281962e-07 3.8799219611384e-07 3.00171275052276e-08 3.62120286047151e-08 2.92303695367596e-09
"2042" 47362 2.08928067964242e-08 7.24871962458786e-09 8.30915634979362e-08 4.86475221141891e-07 3.87934753619954e-07 2.98625014497511e-08 3.62093276057776e-08 2.91214759121657e-09
"2043" 47363 2.09126901417181e-08 7.18569152946745e-09 8.38949881190617e-08 4.8441624600182e-07 3.87877311126069e-07 2.97078753942746e-08 3.62066266068401e-08 2.90125822875718e-09
"2044" 47364 2.0932573487012e-08 7.12266343434705e-09 8.46984127401872e-08 4.82357270861749e-07 3.87819868632183e-07 2.9553249338798e-08 3.62039256079025e-08 2.8903688662978e-09
"2045" 47365 2.0952456832306e-08 7.05963533922664e-09 8.55018373613127e-08 4.80298295721678e-07 3.87762426138297e-07 2.93986232833215e-08 3.6201224608965e-08 2.87947950383841e-09
"2046" 47366 2.09723401775999e-08 6.99660724410623e-09 8.63052619824382e-08 4.78239320581608e-07 3.87704983644412e-07 2.92439972278449e-08 3.61985236100275e-08 2.86859014137902e-09
"2047" 47367 2.09922235228938e-08 6.93357914898582e-09 8.71086866035637e-08 4.76180345441537e-07 3.87647541150526e-07 2.90893711723684e-08 3.61958226110899e-08 2.85770077891963e-09
"2048" 47368 2.10275014354268e-08 6.90428303297414e-09 8.75197237051469e-08 4.75542341558481e-07 3.88125308370185e-07 2.90795404093638e-08 3.61773300852302e-08 2.85093995706391e-09
"2049" 47369 2.10608824122421e-08 6.83346205982174e-09 8.79883341723168e-08 4.73240304894202e-07 3.84843713973243e-07 2.86190280991286e-08 3.56987064645905e-08 2.82201179266812e-09
"2050" 47370 2.10942633890574e-08 6.76264108666933e-09 8.84569446394867e-08 4.70938268229924e-07 3.815621195763e-07 2.81585157888935e-08 3.52200828439509e-08 2.79308362827233e-09
"2051" 47371 2.11276443658726e-08 6.69182011351692e-09 8.89255551066566e-08 4.68636231565646e-07 3.78280525179358e-07 2.76980034786583e-08 3.47414592233112e-08 2.76415546387654e-09
"2052" 47372 2.11610253426879e-08 6.62099914036452e-09 8.93941655738265e-08 4.66334194901368e-07 3.74998930782415e-07 2.72374911684232e-08 3.42628356026715e-08 2.73522729948075e-09
"2053" 47373 2.11434458572492e-08 6.56923464609061e-09 8.94320490644337e-08 4.6389102429856e-07 3.72718535434985e-07 2.68001410978744e-08 3.38349301578947e-08 2.70762946579603e-09
"2054" 47374 2.11242261212179e-08 6.50951655942029e-09 8.90910548622642e-08 4.61446619316301e-07 3.68990604616924e-07 2.63672703635238e-08 3.33708616294364e-08 2.67116469509529e-09
"2055" 47375 2.11050063851867e-08 6.44979847274997e-09 8.87500606600946e-08 4.59002214334043e-07 3.65262673798864e-07 2.59343996291731e-08 3.2906793100978e-08 2.63469992439454e-09
"2056" 47376 2.10857866491554e-08 6.39008038607966e-09 8.84090664579251e-08 4.56557809351784e-07 3.61534742980803e-07 2.55015288948225e-08 3.24427245725197e-08 2.5982351536938e-09
"2057" 47377 2.10665669131241e-08 6.33036229940934e-09 8.80680722557556e-08 4.54113404369526e-07 3.57806812162742e-07 2.50686581604718e-08 3.19786560440613e-08 2.56177038299305e-09
"2058" 47378 2.10473471770929e-08 6.27064421273902e-09 8.7727078053586e-08 4.51668999387268e-07 3.54078881344682e-07 2.46357874261212e-08 3.1514587515603e-08 2.52530561229231e-09
"2059" 47379 2.10281274410616e-08 6.2109261260687e-09 8.73860838514165e-08 4.49224594405009e-07 3.50350950526621e-07 2.42029166917705e-08 3.10505189871446e-08 2.48884084159157e-09
"2060" 47380 2.10089077050303e-08 6.15120803939839e-09 8.7045089649247e-08 4.46780189422751e-07 3.4662301970856e-07 2.37700459574199e-08 3.05864504586863e-08 2.45237607089082e-09
"2061" 47381 2.09896879689991e-08 6.09148995272807e-09 8.67040954470774e-08 4.44335784440492e-07 3.428950888905e-07 2.33371752230692e-08 3.01223819302279e-08 2.41591130019008e-09
"2062" 47382 2.09704682329678e-08 6.03177186605775e-09 8.63631012449079e-08 4.41891379458234e-07 3.39167158072439e-07 2.29043044887186e-08 2.96583134017696e-08 2.37944652948933e-09
"2063" 47383 2.09512484969365e-08 5.97205377938744e-09 8.60221070427383e-08 4.39446974475976e-07 3.35439227254378e-07 2.24714337543679e-08 2.91942448733112e-08 2.34298175878859e-09
"2064" 47384 2.09320287609052e-08 5.91233569271712e-09 8.56811128405688e-08 4.37002569493717e-07 3.31711296436318e-07 2.20385630200173e-08 2.87301763448529e-08 2.30651698808784e-09
"2065" 47385 2.0912809024874e-08 5.8526176060468e-09 8.53401186383993e-08 4.34558164511459e-07 3.27983365618257e-07 2.16056922856666e-08 2.82661078163946e-08 2.2700522173871e-09
"2066" 47386 2.08935892888427e-08 5.79289951937648e-09 8.49991244362297e-08 4.32113759529201e-07 3.24255434800197e-07 2.1172821551316e-08 2.78020392879362e-08 2.23358744668635e-09
"2067" 47387 2.08743695528114e-08 5.73318143270617e-09 8.46581302340602e-08 4.29669354546942e-07 3.20527503982136e-07 2.07399508169653e-08 2.73379707594779e-08 2.19712267598561e-09
"2068" 47388 2.08551498167802e-08 5.67346334603585e-09 8.43171360318907e-08 4.27224949564684e-07 3.16799573164075e-07 2.03070800826147e-08 2.68739022310195e-08 2.16065790528486e-09
"2069" 47389 2.08513705624778e-08 5.65527011650626e-09 8.41350469456124e-08 4.26919998162946e-07 3.15046154071174e-07 2.02735946213776e-08 2.66076345884265e-08 2.14636047712419e-09
"2070" 47390 2.08531548043113e-08 5.66519226389259e-09 8.4045228597811e-08 4.23847014212894e-07 3.15200551536997e-07 2.03033723617849e-08 2.66243919264282e-08 2.14677602412223e-09
"2071" 47391 2.08549390461449e-08 5.67511441127892e-09 8.39554102500096e-08 4.20774030262841e-07 3.1535494900282e-07 2.03331501021922e-08 2.66411492644299e-08 2.14719157112028e-09
"2072" 47392 2.08567232879784e-08 5.68503655866525e-09 8.38655919022081e-08 4.17701046312789e-07 3.15509346468643e-07 2.03629278425995e-08 2.66579066024315e-08 2.14760711811832e-09
"2073" 47393 2.08585075298119e-08 5.69495870605159e-09 8.37757735544067e-08 4.14628062362736e-07 3.15663743934466e-07 2.03927055830068e-08 2.66746639404332e-08 2.14802266511636e-09
"2074" 47394 2.08602917716454e-08 5.70488085343792e-09 8.36859552066053e-08 4.11555078412684e-07 3.15818141400288e-07 2.04224833234141e-08 2.66914212784348e-08 2.1484382121144e-09
"2075" 47395 2.08658552677813e-08 5.70496022587463e-09 8.36084324222271e-08 4.08517182227635e-07 3.15972538866111e-07 2.04288981115536e-08 2.66917584240917e-08 2.16492496155455e-09
"2076" 47396 2.08740565207442e-08 5.70377948677887e-09 8.35389114340246e-08 4.05444248290953e-07 3.16109676840031e-07 2.04288981115536e-08 2.68325893067088e-08 2.16470323976937e-09
"2077" 47397 2.08822577737071e-08 5.70259874768312e-09 8.34693904458222e-08 4.02371314354272e-07 3.1624681481395e-07 2.04288981115536e-08 2.69734201893258e-08 2.16448151798419e-09
"2078" 47398 2.08904590266699e-08 5.70141800858736e-09 8.33998694576198e-08 3.99298380417591e-07 3.1638395278787e-07 2.04288981115536e-08 2.71142510719429e-08 2.16425979619901e-09
"2079" 47399 2.08986602796328e-08 5.7002372694916e-09 8.33303484694173e-08 3.96225446480909e-07 3.16521090761789e-07 2.04288981115536e-08 2.72550819545599e-08 2.16403807441383e-09
"2080" 47400 2.09068615325957e-08 5.69905653039584e-09 8.32608274812149e-08 3.93152512544228e-07 3.16658228735709e-07 2.04288981115536e-08 2.7395912837177e-08 2.16381635262865e-09
"2081" 47401 2.09150627855585e-08 5.69787579130009e-09 8.31913064930125e-08 3.90079578607547e-07 3.16795366709628e-07 2.04288981115536e-08 2.7536743719794e-08 2.16359463084347e-09
"2082" 47402 2.09232640385214e-08 5.69669505220433e-09 8.312178550481e-08 3.87006644670865e-07 3.16932504683548e-07 2.04288981115536e-08 2.76775746024111e-08 2.16337290905829e-09
"2083" 47403 2.09314652914842e-08 5.69551431310857e-09 8.30522645166076e-08 3.83933710734184e-07 3.17069642657467e-07 2.04288981115536e-08 2.78184054850281e-08 2.16315118727311e-09
"2084" 47404 2.0939023800089e-08 5.6942542015761e-09 8.30305585887556e-08 3.83611091106814e-07 3.16935123459162e-07 2.04250523859555e-08 2.79376987318229e-08 2.16292946548793e-09
"2085" 47405 2.09344118956976e-08 5.68315131509401e-09 8.25226749854389e-08 3.83611876746518e-07 3.15737617653746e-07 2.03895750595352e-08 2.80799802479004e-08 2.15342525968868e-09
"2086" 47406 2.09297999913063e-08 5.67204842861193e-09 8.20147913821221e-08 3.83612662386222e-07 3.1454011184833e-07 2.03540977331149e-08 2.82222617639779e-08 2.14392105388943e-09
"2087" 47407 2.0925188086915e-08 5.66094554212984e-09 8.15069077788054e-08 3.83613448025926e-07 3.13342606042914e-07 2.03186204066946e-08 2.83645432800554e-08 2.13441684809018e-09
"2088" 47408 2.09205761825237e-08 5.64984265564775e-09 8.09990241754886e-08 3.8361423366563e-07 3.12145100237498e-07 2.02831430802744e-08 2.85068247961329e-08 2.12491264229093e-09
"2089" 47409 2.09172289019442e-08 5.6864084085863e-09 8.04710817159813e-08 3.84369048566043e-07 3.1078070389994e-07 2.02722426613656e-08 2.85044539774842e-08 2.11648914884526e-09
"2090" 47410 2.09138816213647e-08 5.72297416152485e-09 7.99431392564739e-08 3.85123863466455e-07 3.09416307562382e-07 2.02613422424568e-08 2.85020831588354e-08 2.10806565539959e-09
"2091" 47411 2.09105343407852e-08 5.75953991446339e-09 7.94151967969665e-08 3.85878678366867e-07 3.08051911224824e-07 2.0250441823548e-08 2.84997123401867e-08 2.09964216195392e-09
"2092" 47412 2.09071870602057e-08 5.79610566740194e-09 7.88872543374592e-08 3.86633493267279e-07 3.06687514887266e-07 2.02395414046392e-08 2.84973415215379e-08 2.09121866850825e-09
"2093" 47413 2.09038397796262e-08 5.83267142034049e-09 7.83593118779518e-08 3.87388308167691e-07 3.05323118549708e-07 2.02286409857304e-08 2.84949707028891e-08 2.08279517506258e-09
"2094" 47414 2.09004924990467e-08 5.86923717327904e-09 7.78313694184445e-08 3.88143123068104e-07 3.0395872221215e-07 2.02177405668217e-08 2.84925998842404e-08 2.07437168161691e-09
"2095" 47415 2.08971452184672e-08 5.90580292621759e-09 7.73034269589371e-08 3.88897937968516e-07 3.02594325874592e-07 2.02068401479129e-08 2.84902290655916e-08 2.06594818817124e-09
"2096" 47416 2.08937979378877e-08 5.94236867915614e-09 7.67754844994297e-08 3.89652752868928e-07 3.01229929537034e-07 2.01959397290041e-08 2.84878582469428e-08 2.05752469472557e-09
"2097" 47417 2.09597418585624e-08 5.96631079827306e-09 7.65708869898725e-08 3.90705319238532e-07 2.99824860796534e-07 2.01606757043075e-08 2.85963474979875e-08 2.04865775770954e-09
"2098" 47418 2.10256857792371e-08 5.99025291738998e-09 7.63662894803153e-08 3.91757885608135e-07 2.98419792056033e-07 2.0125411679611e-08 2.87048367490322e-08 2.03979082069351e-09
"2099" 47419 2.10916296999118e-08 6.0141950365069e-09 7.61616919707581e-08 3.92810451977739e-07 2.97014723315533e-07 2.00901476549144e-08 2.88133260000769e-08 2.03092388367748e-09
"2100" 47420 2.11575736205864e-08 6.03813715562382e-09 7.59570944612009e-08 3.93863018347343e-07 2.95609654575033e-07 2.00548836302179e-08 2.89218152511216e-08 2.02205694666145e-09
"2101" 47421 2.12235175412611e-08 6.06207927474074e-09 7.57524969516437e-08 3.94915584716947e-07 2.94204585834532e-07 2.00196196055213e-08 2.90303045021663e-08 2.01319000964542e-09
"2102" 47422 2.12894614619358e-08 6.08602139385766e-09 7.55478994420865e-08 3.9596815108655e-07 2.92799517094032e-07 1.99843555808247e-08 2.9138793753211e-08 2.00432307262939e-09
"2103" 47423 2.13554053826104e-08 6.10996351297458e-09 7.53433019325293e-08 3.97020717456154e-07 2.91394448353532e-07 1.99490915561282e-08 2.92472830042557e-08 1.99545613561336e-09
"2104" 47424 2.14213493032851e-08 6.13390563209151e-09 7.51387044229721e-08 3.98073283825758e-07 2.89989379613031e-07 1.99138275314316e-08 2.93557722553004e-08 1.98658919859734e-09
"2105" 47425 2.14919051283511e-08 6.16091767285739e-09 7.54132578467411e-08 3.98005797973041e-07 2.87782742756008e-07 1.94328351084339e-08 2.91626210529535e-08 1.96353593611212e-09
"2106" 47426 2.15624609534171e-08 6.18792971362328e-09 7.56878112705101e-08 3.97938312120323e-07 2.85576105898985e-07 1.89518426854363e-08 2.89694698506065e-08 1.9404826736269e-09
"2107" 47427 2.16330167784831e-08 6.21494175438917e-09 7.59623646942791e-08 3.97870826267606e-07 2.83369469041962e-07 1.84708502624386e-08 2.87763186482596e-08 1.91742941114168e-09
"2108" 47428 2.17035726035491e-08 6.24195379515506e-09 7.62369181180481e-08 3.97803340414889e-07 2.81162832184939e-07 1.79898578394409e-08 2.85831674459126e-08 1.89437614865646e-09
"2109" 47429 2.17741284286151e-08 6.26896583592095e-09 7.6511471541817e-08 3.97735854562172e-07 2.78956195327916e-07 1.75088654164432e-08 2.83900162435657e-08 1.87132288617125e-09
"2110" 47430 2.18446842536811e-08 6.29597787668684e-09 7.6786024965586e-08 3.97668368709454e-07 2.76749558470893e-07 1.70278729934455e-08 2.81968650412187e-08 1.84826962368603e-09
"2111" 47431 2.1915240078747e-08 6.32298991745273e-09 7.7060578389355e-08 3.97600882856737e-07 2.74542921613869e-07 1.65468805704479e-08 2.80037138388718e-08 1.82521636120081e-09
"2112" 47432 2.19160935937405e-08 6.32894849738031e-09 7.7060578389355e-08 3.96804687402424e-07 2.73392715287264e-07 1.65910594434412e-08 2.79545375482517e-08 1.82765481724e-09
"2113" 47433 2.19472834045847e-08 6.34251869196953e-09 7.76466553828806e-08 3.9430226305652e-07 2.73617931019651e-07 1.66891632136202e-08 2.81276365750774e-08 1.82446847332389e-09
"2114" 47434 2.1978473215429e-08 6.35608888655875e-09 7.82327323764062e-08 3.91799838710616e-07 2.73843146752039e-07 1.67872669837992e-08 2.83007356019032e-08 1.82128212940779e-09
"2115" 47435 2.20096630262732e-08 6.36965908114797e-09 7.88188093699318e-08 3.89297414364712e-07 2.74068362484427e-07 1.68853707539783e-08 2.84738346287289e-08 1.81809578549169e-09
"2116" 47436 2.20408528371175e-08 6.38322927573719e-09 7.94048863634574e-08 3.86794990018809e-07 2.74293578216814e-07 1.69834745241573e-08 2.86469336555547e-08 1.81490944157558e-09
"2117" 47437 2.20720426479617e-08 6.39679947032641e-09 7.9990963356983e-08 3.84292565672905e-07 2.74518793949202e-07 1.70815782943364e-08 2.88200326823804e-08 1.81172309765948e-09
"2118" 47438 2.21032324588059e-08 6.41036966491563e-09 8.05770403505086e-08 3.81790141327001e-07 2.74744009681589e-07 1.71796820645154e-08 2.89931317092062e-08 1.80853675374338e-09
"2119" 47439 2.21344222696502e-08 6.42393985950485e-09 8.11631173440342e-08 3.79287716981097e-07 2.74969225413977e-07 1.72777858346945e-08 2.9166230736032e-08 1.80535040982727e-09
"2120" 47440 2.21656120804944e-08 6.43751005409407e-09 8.17491943375598e-08 3.76785292635193e-07 2.75194441146365e-07 1.73758896048735e-08 2.93393297628577e-08 1.80216406591117e-09
"2121" 47441 2.21968018913386e-08 6.45108024868329e-09 8.23352713310854e-08 3.7428286828929e-07 2.75419656878752e-07 1.74739933750526e-08 2.95124287896835e-08 1.79897772199506e-09
"2122" 47442 2.22279917021829e-08 6.4646504432725e-09 8.2921348324611e-08 3.71780443943386e-07 2.7564487261114e-07 1.75720971452316e-08 2.96855278165092e-08 1.79579137807896e-09
"2123" 47443 2.22591815130271e-08 6.47822063786172e-09 8.35074253181366e-08 3.69278019597482e-07 2.75870088343527e-07 1.76702009154106e-08 2.9858626843335e-08 1.79260503416286e-09
"2124" 47444 2.22903713238713e-08 6.49179083245094e-09 8.40935023116622e-08 3.66775595251578e-07 2.76095304075915e-07 1.77683046855897e-08 3.00317258701607e-08 1.78941869024675e-09
"2125" 47445 2.23215611347156e-08 6.50536102704016e-09 8.46795793051878e-08 3.64273170905675e-07 2.76320519808302e-07 1.78664084557687e-08 3.02048248969865e-08 1.78623234633065e-09
"2126" 47446 2.23527509455598e-08 6.51893122162938e-09 8.52656562987134e-08 3.61770746559771e-07 2.7654573554069e-07 1.79645122259478e-08 3.03779239238122e-08 1.78304600241454e-09
"2127" 47447 2.23672815653532e-08 6.48609288833043e-09 8.57541299053697e-08 3.61691918560567e-07 2.74038061838313e-07 1.78227721599921e-08 3.0485833969008e-08 1.74616568471576e-09
"2128" 47448 2.23856582188432e-08 6.50194715816544e-09 8.63513744782813e-08 3.61730584430493e-07 2.73432642306118e-07 1.77390317549719e-08 3.06787145476935e-08 1.74394895046175e-09
"2129" 47449 2.24040348723333e-08 6.51780142800045e-09 8.69486190511929e-08 3.61769250300419e-07 2.72827222773923e-07 1.76552913499517e-08 3.08715951263791e-08 1.74173221620774e-09
"2130" 47450 2.24224115258233e-08 6.53365569783545e-09 8.75458636241045e-08 3.61807916170346e-07 2.72221803241728e-07 1.75715509449316e-08 3.10644757050647e-08 1.73951548195374e-09
"2131" 47451 2.24407881793134e-08 6.54950996767046e-09 8.81431081970161e-08 3.61846582040272e-07 2.71616383709533e-07 1.74878105399114e-08 3.12573562837503e-08 1.73729874769973e-09
"2132" 47452 2.24591648328034e-08 6.56536423750547e-09 8.87403527699276e-08 3.61885247910198e-07 2.71010964177339e-07 1.74040701348912e-08 3.14502368624359e-08 1.73508201344572e-09
"2133" 47453 2.24775414862935e-08 6.58121850734048e-09 8.93375973428392e-08 3.61923913780124e-07 2.70405544645144e-07 1.73203297298711e-08 3.16431174411215e-08 1.73286527919171e-09
"2134" 47454 2.24959181397836e-08 6.59707277717548e-09 8.99348419157508e-08 3.61962579650051e-07 2.69800125112949e-07 1.72365893248509e-08 3.18359980198071e-08 1.73064854493771e-09
"2135" 47455 2.24837477267875e-08 6.59730892499463e-09 8.99360779253936e-08 3.61568522345351e-07 2.68925546850194e-07 1.70694912941586e-08 3.18457341536448e-08 1.7292908012521e-09
"2136" 47456 2.24715773137915e-08 6.59754507281379e-09 8.99373139350364e-08 3.61174465040651e-07 2.68050968587438e-07 1.69023932634663e-08 3.18554702874825e-08 1.72793305756649e-09
"2137" 47457 2.24594069007955e-08 6.59778122063294e-09 8.99385499446792e-08 3.60780407735952e-07 2.67176390324683e-07 1.6735295232774e-08 3.18652064213202e-08 1.72657531388089e-09
"2138" 47458 2.24472364877995e-08 6.59801736845209e-09 8.9939785954322e-08 3.60386350431252e-07 2.66301812061928e-07 1.65681972020816e-08 3.1874942555158e-08 1.72521757019528e-09
"2139" 47459 2.24350660748035e-08 6.59825351627124e-09 8.99410219639648e-08 3.59992293126552e-07 2.65427233799173e-07 1.64010991713893e-08 3.18846786889957e-08 1.72385982650967e-09
"2140" 47460 2.24228956618074e-08 6.59848966409039e-09 8.99422579736075e-08 3.59598235821852e-07 2.64552655536417e-07 1.6234001140697e-08 3.18944148228334e-08 1.72250208282406e-09
"2141" 47461 2.24107252488114e-08 6.59872581190954e-09 8.99434939832503e-08 3.59204178517153e-07 2.63678077273662e-07 1.60669031100047e-08 3.19041509566711e-08 1.72114433913846e-09
"2142" 47462 2.24103037075408e-08 6.59675725691962e-09 8.96899962160096e-08 3.56202251621772e-07 2.63487687945074e-07 1.6052796870669e-08 3.19295100446026e-08 1.72114433913846e-09
"2143" 47463 2.24098821662702e-08 6.59478870192970e-09 8.94364984487689e-08 3.53200324726392e-07 2.63297298616486e-07 1.60386906313332e-08 3.1954869132534e-08 1.72114433913846e-09
"2144" 47464 2.24094606249996e-08 6.59282014693977e-09 8.91830006815282e-08 3.50198397831011e-07 2.63106909287898e-07 1.60245843919975e-08 3.19802282204655e-08 1.72114433913846e-09
"2145" 47465 2.2409039083729e-08 6.59085159194985e-09 8.89295029142874e-08 3.4719647093563e-07 2.6291651995931e-07 1.60104781526617e-08 3.20055873083969e-08 1.72114433913846e-09
"2146" 47466 2.24086175424584e-08 6.58888303695992e-09 8.86760051470467e-08 3.4419454404025e-07 2.62726130630722e-07 1.5996371913326e-08 3.20309463963284e-08 1.72114433913846e-09
"2147" 47467 2.24266602989767e-08 6.5929788918132e-09 8.85101139580307e-08 3.40888502776801e-07 2.62578303269828e-07 1.59668796243122e-08 3.20309463963284e-08 1.7207008955681e-09
"2148" 47468 2.2444703055495e-08 6.59707474666647e-09 8.83442227690147e-08 3.37582461513351e-07 2.62430475908933e-07 1.59373873352984e-08 3.20309463963284e-08 1.72025745199774e-09
"2149" 47469 2.24627458120133e-08 6.60117060151974e-09 8.81783315799986e-08 3.34276420249902e-07 2.62282648548039e-07 1.59078950462846e-08 3.20309463963284e-08 1.71981400842738e-09
"2150" 47470 2.24807885685316e-08 6.60526645637301e-09 8.80124403909826e-08 3.30970378986453e-07 2.62134821187145e-07 1.58784027572708e-08 3.20309463963284e-08 1.71937056485702e-09
"2151" 47471 2.24988313250499e-08 6.60936231122629e-09 8.78465492019666e-08 3.27664337723004e-07 2.61986993826251e-07 1.5848910468257e-08 3.20309463963284e-08 1.71892712128666e-09
"2152" 47472 2.25168740815682e-08 6.61345816607956e-09 8.76806580129506e-08 3.24358296459555e-07 2.61839166465357e-07 1.58194181792432e-08 3.20309463963284e-08 1.7184836777163e-09
"2153" 47473 2.25349168380865e-08 6.61755402093283e-09 8.75147668239345e-08 3.21052255196106e-07 2.61691339104463e-07 1.57899258902294e-08 3.20309463963284e-08 1.71804023414595e-09
"2154" 47474 2.25529595946048e-08 6.6216498757861e-09 8.73488756349185e-08 3.17746213932657e-07 2.61543511743568e-07 1.57604336012156e-08 3.20309463963284e-08 1.71759679057559e-09
"2155" 47475 2.25536795508096e-08 6.61970777827508e-09 8.721362514316e-08 3.14141070838997e-07 2.61586515064442e-07 1.57732694720659e-08 3.20736388964248e-08 1.71895453426119e-09
"2156" 47476 2.25543995070143e-08 6.61776568076406e-09 8.70783746514015e-08 3.10535927745337e-07 2.61629518385316e-07 1.57861053429161e-08 3.21163313965212e-08 1.7203122779468e-09
"2157" 47477 2.25551194632191e-08 6.61582358325304e-09 8.6943124159643e-08 3.06930784651676e-07 2.6167252170619e-07 1.57989412137663e-08 3.21590238966177e-08 1.72167002163241e-09
"2158" 47478 2.25558394194239e-08 6.61388148574202e-09 8.68078736678845e-08 3.03325641558016e-07 2.61715525027064e-07 1.58117770846165e-08 3.22017163967141e-08 1.72302776531802e-09
"2159" 47479 2.25565593756286e-08 6.611939388231e-09 8.6672623176126e-08 2.99720498464356e-07 2.61758528347937e-07 1.58246129554667e-08 3.22444088968105e-08 1.72438550900362e-09
"2160" 47480 2.25572793318334e-08 6.60999729071998e-09 8.65373726843675e-08 2.96115355370696e-07 2.61801531668811e-07 1.5837448826317e-08 3.22871013969069e-08 1.72574325268923e-09
"2161" 47481 2.25579992880381e-08 6.60805519320896e-09 8.6402122192609e-08 2.92510212277036e-07 2.61844534989685e-07 1.58502846971672e-08 3.23297938970034e-08 1.72710099637484e-09
"2162" 47482 2.25587192442429e-08 6.60611309569794e-09 8.62668717008505e-08 2.88905069183376e-07 2.61887538310559e-07 1.58631205680174e-08 3.23724863970998e-08 1.72845874006044e-09
"2163" 47483 2.25549399899406e-08 6.60613955317685e-09 8.59050161470634e-08 2.87909721195184e-07 2.61117310431092e-07 1.58501655761124e-08 3.24151788971962e-08 1.73089719609963e-09
"2164" 47484 2.25549399899406e-08 6.60543110971939e-09 8.58302684183837e-08 2.88292463508972e-07 2.5916374294777e-07 1.58573018609496e-08 3.24333551735034e-08 1.72992758643753e-09
"2165" 47485 2.25549399899406e-08 6.60472266626194e-09 8.57555206897041e-08 2.88675205822761e-07 2.57210175464449e-07 1.58644381457868e-08 3.24515314498106e-08 1.72895797677544e-09
"2166" 47486 2.25549399899406e-08 6.60401422280449e-09 8.56807729610244e-08 2.89057948136549e-07 2.55256607981127e-07 1.58715744306241e-08 3.24697077261178e-08 1.72798836711334e-09
"2167" 47487 2.25549399899406e-08 6.60330577934703e-09 8.56060252323448e-08 2.89440690450338e-07 2.53303040497805e-07 1.58787107154613e-08 3.2487884002425e-08 1.72701875745124e-09
"2168" 47488 2.25549399899406e-08 6.60259733588958e-09 8.55312775036652e-08 2.89823432764126e-07 2.51349473014484e-07 1.58858470002985e-08 3.25060602787321e-08 1.72604914778915e-09
"2169" 47489 2.25549399899406e-08 6.60188889243212e-09 8.54565297749855e-08 2.90206175077915e-07 2.49395905531162e-07 1.58929832851357e-08 3.25242365550393e-08 1.72507953812705e-09
"2170" 47490 2.25530117568661e-08 6.60721840133896e-09 8.5371526399746e-08 2.90216387013474e-07 2.47188563701666e-07 1.58635599985061e-08 3.24999275646016e-08 1.72167147242577e-09
"2171" 47491 2.25546520074586e-08 6.61029029247891e-09 8.51785966344855e-08 2.90272434222446e-07 2.46199939785797e-07 1.5832216996363e-08 3.25060494796816e-08 1.71848512850966e-09
"2172" 47492 2.25562922580512e-08 6.61336218361887e-09 8.4985666869225e-08 2.90328481431418e-07 2.45211315869929e-07 1.580087399422e-08 3.25121713947616e-08 1.71529878459356e-09
"2173" 47493 2.25579325086438e-08 6.61643407475882e-09 8.47927371039646e-08 2.9038452864039e-07 2.44222691954061e-07 1.57695309920769e-08 3.25182933098416e-08 1.71211244067746e-09
"2174" 47494 2.25595727592364e-08 6.61950596589878e-09 8.45998073387041e-08 2.90440575849362e-07 2.43234068038192e-07 1.57381879899338e-08 3.25244152249215e-08 1.70892609676135e-09
"2175" 47495 2.25612130098289e-08 6.62257785703873e-09 8.44068775734436e-08 2.90496623058334e-07 2.42245444122324e-07 1.57068449877907e-08 3.25305371400015e-08 1.70573975284525e-09
"2176" 47496 2.25628532604215e-08 6.62564974817869e-09 8.42139478081832e-08 2.90552670267306e-07 2.41256820206456e-07 1.56755019856476e-08 3.25366590550815e-08 1.70255340892914e-09
"2177" 47497 2.25644935110141e-08 6.62872163931864e-09 8.40210180429227e-08 2.90608717476278e-07 2.40268196290587e-07 1.56441589835046e-08 3.25427809701615e-08 1.69936706501304e-09
"2178" 47498 2.25661337616067e-08 6.63179353045859e-09 8.38280882776622e-08 2.9066476468525e-07 2.39279572374719e-07 1.56128159813615e-08 3.25489028852415e-08 1.69618072109694e-09
"2179" 47499 2.25677740121992e-08 6.63486542159855e-09 8.36351585124018e-08 2.90720811894222e-07 2.38290948458851e-07 1.55814729792184e-08 3.25550248003215e-08 1.69299437718083e-09
"2180" 47500 2.25694142627918e-08 6.6379373127385e-09 8.34422287471413e-08 2.90776859103194e-07 2.37302324542982e-07 1.55501299770753e-08 3.25611467154015e-08 1.68980803326473e-09
"2181" 47501 2.25710545133844e-08 6.64100920387846e-09 8.32492989818808e-08 2.90832906312166e-07 2.36313700627114e-07 1.55187869749322e-08 3.25672686304815e-08 1.68662168934863e-09
"2182" 47502 2.2572694763977e-08 6.64408109501841e-09 8.30563692166204e-08 2.90888953521138e-07 2.35325076711246e-07 1.54874439727892e-08 3.25733905455615e-08 1.68343534543252e-09
"2183" 47503 2.25743350145695e-08 6.64715298615837e-09 8.28634394513599e-08 2.90945000730109e-07 2.34336452795377e-07 1.54561009706461e-08 3.25795124606415e-08 1.68024900151642e-09
"2184" 47504 2.25627864810272e-08 6.62612598279896e-09 8.2446068665666e-08 2.9101952543051e-07 2.34878818539369e-07 1.54580991304005e-08 3.23534404208732e-08 1.67229684821342e-09
"2185" 47505 2.25471039313062e-08 6.59984884296943e-09 8.23996200927611e-08 2.90714513582949e-07 2.36024939174475e-07 1.54619480032842e-08 3.23476626168182e-08 1.66434469491043e-09
"2186" 47506 2.25314213815852e-08 6.5735717031399e-09 8.23531715198562e-08 2.90409501735388e-07 2.37171059809581e-07 1.54657968761679e-08 3.23418848127632e-08 1.65639254160743e-09
"2187" 47507 2.25157388318643e-08 6.54729456331037e-09 8.23067229469514e-08 2.90104489887828e-07 2.38317180444687e-07 1.54696457490516e-08 3.23361070087083e-08 1.64844038830444e-09
"2188" 47508 2.25000562821433e-08 6.52101742348084e-09 8.22602743740465e-08 2.89799478040267e-07 2.39463301079793e-07 1.54734946219353e-08 3.23303292046533e-08 1.64048823500145e-09
"2189" 47509 2.24843737324223e-08 6.49474028365131e-09 8.22138258011416e-08 2.89494466192706e-07 2.40609421714898e-07 1.54773434948191e-08 3.23245514005983e-08 1.63253608169845e-09
"2190" 47510 2.24686911827013e-08 6.46846314382177e-09 8.21673772282367e-08 2.89189454345145e-07 2.41755542350004e-07 1.54811923677028e-08 3.23187735965433e-08 1.62458392839546e-09
"2191" 47511 2.24530086329804e-08 6.44218600399224e-09 8.21209286553318e-08 2.88884442497585e-07 2.4290166298511e-07 1.54850412405865e-08 3.23129957924883e-08 1.61663177509246e-09
"2192" 47512 2.24576414022762e-08 6.47591798310098e-09 8.20925004335478e-08 2.88439943010959e-07 2.44310736207782e-07 1.54935168962934e-08 3.22885042984859e-08 1.61663177509246e-09
"2193" 47513 2.2462274171572e-08 6.4466218670893e-09 8.21999070300478e-08 2.88219421874284e-07 2.44309268862898e-07 1.54973657691771e-08 3.22530015753818e-08 1.60953861235787e-09
"2194" 47514 2.24669069408678e-08 6.41732575107762e-09 8.23073136265478e-08 2.87998900737609e-07 2.44307801518014e-07 1.55012146420608e-08 3.22174988522778e-08 1.60244544962327e-09
"2195" 47515 2.24715397101636e-08 6.38802963506594e-09 8.24147202230478e-08 2.87778379600934e-07 2.4430633417313e-07 1.55050635149445e-08 3.21819961291738e-08 1.59535228688868e-09
"2196" 47516 2.24761724794594e-08 6.35873351905427e-09 8.25221268195478e-08 2.8755785846426e-07 2.44304866828246e-07 1.55089123878282e-08 3.21464934060697e-08 1.58825912415409e-09
"2197" 47517 2.24808052487553e-08 6.32943740304259e-09 8.26295334160478e-08 2.87337337327585e-07 2.44303399483362e-07 1.55127612607119e-08 3.21109906829657e-08 1.58116596141949e-09
"2198" 47518 2.24854380180511e-08 6.30014128703091e-09 8.27369400125478e-08 2.8711681619091e-07 2.44301932138478e-07 1.55166101335957e-08 3.20754879598616e-08 1.5740727986849e-09
"2199" 47519 2.24304207514651e-08 6.22887053673714e-09 8.26218599320694e-08 2.84763616292606e-07 2.4308360753025e-07 1.54640936096638e-08 3.20722425819157e-08 1.55609027349092e-09
"2200" 47520 2.23754034848791e-08 6.15759978644336e-09 8.25067798515909e-08 2.82410416394302e-07 2.41865282922022e-07 1.54115770857319e-08 3.20689972039698e-08 1.53810774829693e-09
"2201" 47521 2.23203862182932e-08 6.08632903614959e-09 8.23916997711124e-08 2.80057216495998e-07 2.40646958313793e-07 1.53590605618e-08 3.20657518260239e-08 1.52012522310295e-09
"2202" 47522 2.22653689517072e-08 6.01505828585581e-09 8.2276619690634e-08 2.77704016597694e-07 2.39428633705565e-07 1.53065440378682e-08 3.2062506448078e-08 1.50214269790897e-09
"2203" 47523 2.22103516851212e-08 5.94378753556203e-09 8.21615396101555e-08 2.7535081669939e-07 2.38210309097337e-07 1.52540275139363e-08 3.20592610701321e-08 1.48416017271499e-09
"2204" 47524 2.21553344185353e-08 5.87251678526826e-09 8.2046459529677e-08 2.72997616801086e-07 2.36991984489109e-07 1.52015109900044e-08 3.20560156921862e-08 1.466177647521e-09
"2205" 47525 2.21003171519493e-08 5.80124603497448e-09 8.19313794491985e-08 2.70644416902782e-07 2.3577365988088e-07 1.51489944660726e-08 3.20527703142403e-08 1.44819512232702e-09
"2206" 47526 2.20321736959419e-08 5.80124603497448e-09 8.20714645421291e-08 2.69696310853063e-07 2.35824408117806e-07 1.50540996636061e-08 3.20495249362944e-08 1.43641887272692e-09
"2207" 47527 2.19437149209177e-08 5.80250614650695e-09 8.20802463815346e-08 2.72344130706492e-07 2.36184805078269e-07 1.50106391400249e-08 3.20540910353954e-08 1.42910350460936e-09
"2208" 47528 2.18552561458935e-08 5.80376625803942e-09 8.20890282209401e-08 2.7499195055992e-07 2.36545202038732e-07 1.49671786164437e-08 3.20586571344963e-08 1.4217881364918e-09
"2209" 47529 2.17667973708693e-08 5.80502636957189e-09 8.20978100603456e-08 2.77639770413349e-07 2.36905598999195e-07 1.49237180928625e-08 3.20632232335973e-08 1.41447276837424e-09
"2210" 47530 2.16783385958451e-08 5.80628648110436e-09 8.21065918997512e-08 2.80287590266777e-07 2.37265995959658e-07 1.48802575692813e-08 3.20677893326983e-08 1.40715740025668e-09
"2211" 47531 2.15898798208209e-08 5.80754659263683e-09 8.21153737391567e-08 2.82935410120206e-07 2.37626392920121e-07 1.48367970457002e-08 3.20723554317992e-08 1.39984203213912e-09
"2212" 47532 2.15014210457968e-08 5.8088067041693e-09 8.21241555785622e-08 2.85583229973634e-07 2.37986789880584e-07 1.4793336522119e-08 3.20769215309002e-08 1.39252666402156e-09
"2213" 47533 2.14129622707726e-08 5.81006681570177e-09 8.21329374179677e-08 2.88231049827063e-07 2.38347186841047e-07 1.47498759985378e-08 3.20814876300012e-08 1.385211295904e-09
"2214" 47534 2.13401860454694e-08 5.80904285198845e-09 8.2119102102592e-08 2.8822932436576e-07 2.38952198181611e-07 1.46519165276983e-08 3.20782422520552e-08 1.37299160273353e-09
"2215" 47535 2.12674098201661e-08 5.80801888827513e-09 8.21052667872162e-08 2.88227598904458e-07 2.39557209522174e-07 1.45539570568588e-08 3.20749968741093e-08 1.36077190956307e-09
"2216" 47536 2.11946335948629e-08 5.80699492456181e-09 8.20914314718404e-08 2.88225873443155e-07 2.40162220862737e-07 1.44559975860193e-08 3.20717514961634e-08 1.3485522163926e-09
"2217" 47537 2.11218573695597e-08 5.8059709608485e-09 8.20775961564647e-08 2.88224147981853e-07 2.407672322033e-07 1.43580381151798e-08 3.20685061182175e-08 1.33633252322214e-09
"2218" 47538 2.10490811442565e-08 5.80494699713518e-09 8.20637608410889e-08 2.8822242252055e-07 2.41372243543863e-07 1.42600786443403e-08 3.20652607402716e-08 1.32411283005167e-09
"2219" 47539 2.09763049189533e-08 5.80392303342186e-09 8.20499255257131e-08 2.88220697059247e-07 2.41977254884426e-07 1.41621191735008e-08 3.20620153623257e-08 1.31189313688121e-09
"2220" 47540 2.09035286936501e-08 5.80289906970854e-09 8.20360902103374e-08 2.88218971597945e-07 2.42582266224989e-07 1.40641597026613e-08 3.20587699843798e-08 1.29967344371075e-09
"2221" 47541 2.09131698590224e-08 5.79077221951313e-09 8.20022612776724e-08 2.87009152866385e-07 2.41000317432769e-07 1.40354516181582e-08 3.20029413304076e-08 1.29366050973194e-09
"2222" 47542 2.09240756482066e-08 5.78187403584012e-09 8.18947263210599e-08 2.88183264956474e-07 2.38389938854872e-07 1.38257494180651e-08 3.18341802732269e-08 1.29252448783152e-09
"2223" 47543 2.09349814373908e-08 5.77297585216711e-09 8.17871913644474e-08 2.89357377046563e-07 2.35779560276974e-07 1.36160472179721e-08 3.16654192160463e-08 1.29138846593109e-09
"2224" 47544 2.09458872265751e-08 5.76407766849410e-09 8.16796564078349e-08 2.90531489136652e-07 2.33169181699077e-07 1.34063450178791e-08 3.14966581588656e-08 1.29025244403066e-09
"2225" 47545 2.09567930157593e-08 5.75517948482108e-09 8.15721214512224e-08 2.91705601226741e-07 2.3055880312118e-07 1.31966428177861e-08 3.1327897101685e-08 1.28911642213023e-09
"2226" 47546 2.09676988049435e-08 5.74628130114807e-09 8.14645864946099e-08 2.9287971331683e-07 2.27948424543283e-07 1.2986940617693e-08 3.11591360445044e-08 1.28798040022981e-09
"2227" 47547 2.09786045941277e-08 5.73738311747505e-09 8.13570515379974e-08 2.94053825406919e-07 2.25338045965385e-07 1.27772384176e-08 3.09903749873237e-08 1.28684437832938e-09
"2228" 47548 2.09895103833119e-08 5.72848493380204e-09 8.12495165813849e-08 2.95227937497008e-07 2.22727667387488e-07 1.2567536217507e-08 3.08216139301431e-08 1.28570835642895e-09
"2229" 47549 2.10004161724961e-08 5.71958675012903e-09 8.11419816247724e-08 2.96402049587097e-07 2.20117288809591e-07 1.23578340174139e-08 3.06528528729624e-08 1.28457233452852e-09
"2230" 47550 2.10113219616803e-08 5.71068856645602e-09 8.10344466681599e-08 2.97576161677186e-07 2.17506910231694e-07 1.21481318173209e-08 3.04840918157818e-08 1.28343631262809e-09
"2231" 47551 2.10222277508645e-08 5.701790382783e-09 8.09269117115474e-08 2.98750273767275e-07 2.14896531653796e-07 1.19384296172279e-08 3.03153307586011e-08 1.28230029072767e-09
"2232" 47552 2.10331335400487e-08 5.69289219910999e-09 8.08193767549349e-08 2.99924385857364e-07 2.12286153075899e-07 1.17287274171348e-08 3.01465697014205e-08 1.28116426882724e-09
"2233" 47553 2.10440393292329e-08 5.68399401543697e-09 8.07118417983224e-08 3.01098497947453e-07 2.09675774498002e-07 1.15190252170418e-08 2.99778086442399e-08 1.28002824692681e-09
"2234" 47554 2.10549451184171e-08 5.67509583176396e-09 8.06043068417099e-08 3.02272610037542e-07 2.07065395920105e-07 1.13093230169488e-08 2.98090475870592e-08 1.27889222502638e-09
"2235" 47555 2.10658509076013e-08 5.66619764809095e-09 8.04967718850974e-08 3.03446722127631e-07 2.04455017342207e-07 1.10996208168558e-08 2.96402865298786e-08 1.27775620312596e-09
"2236" 47556 2.10576496546384e-08 5.6823694076728e-09 8.09152061218239e-08 3.050294248605e-07 2.01227758120573e-07 1.08980429659776e-08 2.94706122528778e-08 1.27620463422749e-09
"2237" 47557 2.10493044104346e-08 5.67373382929785e-09 8.08773443775171e-08 3.05017354758945e-07 2.01352397494098e-07 1.06894072745031e-08 2.93012294956426e-08 1.27465306532902e-09
"2238" 47558 2.10409591662308e-08 5.66509825092289e-09 8.08394826332103e-08 3.0500528465739e-07 2.01477036867624e-07 1.04807715830287e-08 2.91318467384075e-08 1.27310149643055e-09
"2239" 47559 2.1032613922027e-08 5.65646267254793e-09 8.08016208889035e-08 3.04993214555835e-07 2.01601676241149e-07 1.02721358915543e-08 2.89624639811724e-08 1.27154992753208e-09
"2240" 47560 2.10242686778231e-08 5.64782709417297e-09 8.07637591445967e-08 3.0498114445428e-07 2.01726315614675e-07 1.00635002000798e-08 2.87930812239373e-08 1.26999835863361e-09
"2241" 47561 2.10159234336193e-08 5.63919151579802e-09 8.07258974002899e-08 3.04969074352725e-07 2.01850954988201e-07 9.85486450860538e-09 2.86236984667022e-08 1.26844678973514e-09
"2242" 47562 2.10075781894155e-08 5.63055593742306e-09 8.06880356559831e-08 3.04957004251169e-07 2.01975594361726e-07 9.64622881713094e-09 2.8454315709467e-08 1.26689522083667e-09
"2243" 47563 2.10031666232073e-08 5.62861383991204e-09 8.06160187845043e-08 3.04230734260007e-07 2.04252775655867e-07 9.61779359487895e-09 2.84535254365841e-08 1.26046673985983e-09
"2244" 47564 2.10030226319663e-08 5.61674959501469e-09 8.0478493401958e-08 3.03362153635501e-07 2.06138162352553e-07 9.61757714586964e-09 2.84538169563498e-08 1.25825000560582e-09
"2245" 47565 2.10028786407253e-08 5.60488535011734e-09 8.03409680194117e-08 3.02493573010994e-07 2.08023549049238e-07 9.61736069686032e-09 2.84541084761155e-08 1.25603327135181e-09
"2246" 47566 2.10027346494844e-08 5.59302110521999e-09 8.02034426368653e-08 3.01624992386488e-07 2.09908935745923e-07 9.61714424785101e-09 2.84543999958813e-08 1.25381653709781e-09
"2247" 47567 2.10025906582434e-08 5.58115686032263e-09 8.0065917254319e-08 3.00756411761981e-07 2.11794322442608e-07 9.6169277988417e-09 2.8454691515647e-08 1.2515998028438e-09
"2248" 47568 2.10024466670025e-08 5.56929261542528e-09 7.99283918717727e-08 2.99887831137475e-07 2.13679709139293e-07 9.61671134983239e-09 2.84549830354127e-08 1.24938306858979e-09
"2249" 47569 2.10023026757615e-08 5.55742837052793e-09 7.97908664892264e-08 2.99019250512968e-07 2.15565095835978e-07 9.61649490082307e-09 2.84552745551784e-08 1.24716633433578e-09
"2250" 47570 2.10117685525362e-08 5.54556412563058e-09 7.95854896423362e-08 2.98186193199572e-07 2.16289299819396e-07 9.64392002769827e-09 2.86227573854095e-08 1.2447278782966e-09
"2251" 47571 2.10183859018486e-08 5.53564197824425e-09 7.95322114557905e-08 3.00732554303677e-07 2.14877219191789e-07 9.6417807158899e-09 2.86433361755204e-08 1.24251114404259e-09
"2252" 47572 2.1025003251161e-08 5.52571983085792e-09 7.94789332692447e-08 3.03278915407782e-07 2.13465138564182e-07 9.63964140408153e-09 2.86639149656312e-08 1.24029440978858e-09
"2253" 47573 2.10316206004734e-08 5.51579768347159e-09 7.9425655082699e-08 3.05825276511887e-07 2.12053057936575e-07 9.63750209227316e-09 2.86844937557421e-08 1.23807767553458e-09
"2254" 47574 2.10382379497858e-08 5.50587553608526e-09 7.93723768961532e-08 3.08371637615992e-07 2.10640977308968e-07 9.63536278046479e-09 2.8705072545853e-08 1.23586094128057e-09
"2255" 47575 2.10448552990982e-08 5.49595338869892e-09 7.93190987096075e-08 3.10917998720098e-07 2.09228896681362e-07 9.63322346865642e-09 2.87256513359639e-08 1.23364420702656e-09
"2256" 47576 2.10514726484106e-08 5.48603124131259e-09 7.92658205230617e-08 3.13464359824203e-07 2.07816816053755e-07 9.63108415684805e-09 2.87462301260747e-08 1.23142747277255e-09
"2257" 47577 2.1058089997723e-08 5.47610909392626e-09 7.9212542336516e-08 3.16010720928308e-07 2.06404735426148e-07 9.62894484503968e-09 2.87668089161856e-08 1.22921073851855e-09
"2258" 47578 2.10497343210669e-08 5.47602972148955e-09 7.91592641499703e-08 3.1932639897355e-07 2.06197738425273e-07 9.57250729855433e-09 2.86981634895757e-08 1.22125858521555e-09
"2259" 47579 2.10413786444108e-08 5.47595034905284e-09 7.91059859634245e-08 3.22642077018791e-07 2.05990741424398e-07 9.51606975206898e-09 2.86295180629659e-08 1.21330643191256e-09
"2260" 47580 2.10330229677548e-08 5.47587097661612e-09 7.90527077768788e-08 3.25957755064033e-07 2.05783744423523e-07 9.45963220558363e-09 2.8560872636356e-08 1.20535427860956e-09
"2261" 47581 2.10246672910987e-08 5.47579160417941e-09 7.8999429590333e-08 3.29273433109274e-07 2.05576747422649e-07 9.40319465909828e-09 2.84922272097461e-08 1.19740212530657e-09
"2262" 47582 2.10163116144426e-08 5.4757122317427e-09 7.89461514037873e-08 3.32589111154516e-07 2.05369750421774e-07 9.34675711261293e-09 2.84235817831362e-08 1.18944997200358e-09
"2263" 47583 2.10079559377866e-08 5.47563285930599e-09 7.88928732172416e-08 3.35904789199758e-07 2.05162753420899e-07 9.29031956612758e-09 2.83549363565263e-08 1.18149781870058e-09
"2264" 47584 2.09996002611305e-08 5.47555348686927e-09 7.88395950306958e-08 3.39220467244999e-07 2.04955756420025e-07 9.23388201964223e-09 2.82862909299164e-08 1.17354566539759e-09
"2265" 47585 2.09912445844744e-08 5.47547411443256e-09 7.87863168441501e-08 3.42536145290241e-07 2.0474875941915e-07 9.17744447315688e-09 2.82176455033066e-08 1.16559351209459e-09
"2266" 47586 2.09828889078184e-08 5.47539474199585e-09 7.87330386576044e-08 3.45851823335482e-07 2.04541762418275e-07 9.12100692667153e-09 2.81490000766967e-08 1.1576413587916e-09
"2267" 47587 2.09745332311623e-08 5.47531536955914e-09 7.86797604710586e-08 3.49167501380724e-07 2.043347654174e-07 9.06456938018618e-09 2.80803546500868e-08 1.1496892054886e-09
"2268" 47588 2.09661775545062e-08 5.47523599712242e-09 7.86264822845129e-08 3.52483179425966e-07 2.04127768416526e-07 9.00813183370083e-09 2.80117092234769e-08 1.14173705218561e-09
"2269" 47589 2.09578218778502e-08 5.47515662468571e-09 7.85732040979671e-08 3.55798857471207e-07 2.03920771415651e-07 8.95169428721548e-09 2.7943063796867e-08 1.13378489888262e-09
"2270" 47590 2.09494662011941e-08 5.475077252249e-09 7.85199259114214e-08 3.59114535516449e-07 2.03713774414776e-07 8.89525674073013e-09 2.78744183702572e-08 1.12583274557962e-09
"2271" 47591 2.0941110524538e-08 5.47499787981229e-09 7.84666477248756e-08 3.6243021356169e-07 2.03506777413901e-07 8.83881919424478e-09 2.78057729436473e-08 1.11788059227663e-09
"2272" 47592 2.09327548478819e-08 5.47491850737558e-09 7.84133695383299e-08 3.65745891606932e-07 2.03299780413027e-07 8.78238164775943e-09 2.77371275170374e-08 1.10992843897363e-09
"2273" 47593 2.09243991712259e-08 5.47483913493886e-09 7.83600913517842e-08 3.69061569652174e-07 2.03092783412152e-07 8.72594410127408e-09 2.76684820904275e-08 1.10197628567064e-09
"2274" 47594 2.09136937202247e-08 5.47281766499113e-09 7.83195422428774e-08 3.69082492276411e-07 2.02931705288607e-07 8.67142941758779e-09 2.75816286923555e-08 1.09488312293604e-09
"2275" 47595 2.09029882692236e-08 5.4707961950434e-09 7.82789931339707e-08 3.69103414900648e-07 2.02770627165061e-07 8.6169147339015e-09 2.74947752942835e-08 1.08778996020145e-09
"2276" 47596 2.08922828182224e-08 5.46877472509567e-09 7.8238444025064e-08 3.69124337524885e-07 2.02609549041516e-07 8.5624000502152e-09 2.74079218962115e-08 1.08069679746686e-09
"2277" 47597 2.08815773672213e-08 5.46675325514793e-09 7.81978949161573e-08 3.69145260149122e-07 2.0244847091797e-07 8.50788536652891e-09 2.73210684981395e-08 1.07360363473226e-09
"2278" 47598 2.08708719162201e-08 5.4647317852002e-09 7.81573458072505e-08 3.69166182773359e-07 2.02287392794425e-07 8.45337068284262e-09 2.72342151000675e-08 1.06651047199767e-09
"2279" 47599 2.0860166465219e-08 5.46271031525247e-09 7.81167966983438e-08 3.69187105397596e-07 2.02126314670879e-07 8.39885599915633e-09 2.71473617019955e-08 1.05941730926307e-09
"2280" 47600 2.08494610142178e-08 5.46068884530474e-09 7.80762475894371e-08 3.69208028021834e-07 2.01965236547334e-07 8.34434131547003e-09 2.70605083039235e-08 1.05232414652848e-09
"2281" 47601 2.08387555632167e-08 5.45866737535701e-09 7.80356984805303e-08 3.69228950646071e-07 2.01804158423789e-07 8.28982663178374e-09 2.69736549058515e-08 1.04523098379388e-09
"2282" 47602 2.08280501122155e-08 5.45664590540927e-09 7.79951493716236e-08 3.69249873270308e-07 2.01643080300243e-07 8.23531194809745e-09 2.68868015077795e-08 1.03813782105929e-09
"2283" 47603 2.08173446612144e-08 5.45462443546154e-09 7.79546002627169e-08 3.69270795894545e-07 2.01482002176698e-07 8.18079726441116e-09 2.67999481097075e-08 1.0310446583247e-09
"2284" 47604 2.08066392102132e-08 5.45260296551381e-09 7.79140511538102e-08 3.69291718518782e-07 2.01320924053152e-07 8.12628258072486e-09 2.67130947116355e-08 1.0239514955901e-09
"2285" 47605 2.07959337592121e-08 5.45058149556608e-09 7.78735020449034e-08 3.69312641143019e-07 2.01159845929607e-07 8.07176789703857e-09 2.66262413135635e-08 1.01685833285551e-09
"2286" 47606 2.07891619862065e-08 5.45058149556608e-09 7.78882043887108e-08 3.7160692772767e-07 2.00962502542847e-07 8.0192513731067e-09 2.65380988894914e-08 1.00868445776733e-09
"2287" 47607 2.07711192296882e-08 5.43052554096218e-09 7.7808838815967e-08 3.72148281816292e-07 1.98825047796778e-07 7.98583176696824e-09 2.65395495229519e-08 1.00336458571639e-09
"2288" 47608 2.07679159403496e-08 5.41493387642523e-09 7.78241276039902e-08 3.73573332692534e-07 1.98513145117556e-07 7.88580828127573e-09 2.65277480209673e-08 1.00336458571639e-09
"2289" 47609 2.07647126510111e-08 5.39934221188828e-09 7.78394163920135e-08 3.74998383568776e-07 1.98201242438335e-07 7.78578479558322e-09 2.65159465189828e-08 1.00336458571639e-09
"2290" 47610 2.07615093616725e-08 5.38375054735133e-09 7.78547051800367e-08 3.76423434445018e-07 1.97889339759114e-07 7.68576130989072e-09 2.65041450169983e-08 1.00336458571639e-09
"2291" 47611 2.0758306072334e-08 5.36815888281438e-09 7.78699939680599e-08 3.77848485321261e-07 1.97577437079892e-07 7.58573782419821e-09 2.64923435150138e-08 1.00336458571639e-09
"2292" 47612 2.07551027829954e-08 5.35256721827743e-09 7.78852827560831e-08 3.79273536197503e-07 1.97265534400671e-07 7.48571433850571e-09 2.64805420130292e-08 1.00336458571639e-09
"2293" 47613 2.07518994936569e-08 5.33697555374047e-09 7.79005715441063e-08 3.80698587073745e-07 1.96953631721449e-07 7.3856908528132e-09 2.64687405110447e-08 1.00336458571639e-09
"2294" 47614 2.07486962043184e-08 5.32138388920352e-09 7.79158603321295e-08 3.82123637949987e-07 1.96641729042228e-07 7.28566736712069e-09 2.64569390090602e-08 1.00336458571639e-09
"2295" 47615 2.07454929149798e-08 5.30579222466657e-09 7.79311491201528e-08 3.83548688826229e-07 1.96329826363006e-07 7.18564388142819e-09 2.64451375070757e-08 1.00336458571639e-09
"2296" 47616 2.07422896256413e-08 5.29020056012962e-09 7.7946437908176e-08 3.84973739702471e-07 1.96017923683785e-07 7.08562039573568e-09 2.64333360050911e-08 1.00336458571639e-09
"2297" 47617 2.07390863363027e-08 5.27460889559267e-09 7.79617266961992e-08 3.86398790578713e-07 1.95706021004564e-07 6.98559691004318e-09 2.64215345031066e-08 1.00336458571639e-09
"2298" 47618 2.07358830469642e-08 5.25901723105572e-09 7.79770154842224e-08 3.87823841454955e-07 1.95394118325342e-07 6.88557342435067e-09 2.64097330011221e-08 1.00336458571639e-09
"2299" 47619 2.07326797576256e-08 5.24342556651877e-09 7.79923042722456e-08 3.89248892331198e-07 1.95082215646121e-07 6.78554993865816e-09 2.63979314991376e-08 1.00336458571639e-09
"2300" 47620 2.07326797576256e-08 5.2426642081035e-09 7.80402715566994e-08 3.92422462557767e-07 1.95023827940861e-07 6.70403358425852e-09 2.63450110774543e-08 1.00336458571639e-09
"2301" 47621 2.07335332726191e-08 5.23386988485512e-09 7.80140543985953e-08 3.94826820011723e-07 1.94876154075464e-07 6.67155192382708e-09 2.63191215412507e-08 1.00017824180028e-09
"2302" 47622 2.07343867876126e-08 5.22507556160674e-09 7.79878372404912e-08 3.97231177465679e-07 1.94728480210068e-07 6.63907026339564e-09 2.62932320050471e-08 9.96991897884181e-10
"2303" 47623 2.0735240302606e-08 5.21628123835836e-09 7.79616200823872e-08 3.99635534919634e-07 1.94580806344671e-07 6.6065886029642e-09 2.62673424688436e-08 9.93805553968077e-10
"2304" 47624 2.07360938175995e-08 5.20748691510997e-09 7.79354029242831e-08 4.0203989237359e-07 1.94433132479274e-07 6.57410694253276e-09 2.624145293264e-08 9.90619210051973e-10
"2305" 47625 2.07369473325929e-08 5.19869259186159e-09 7.7909185766179e-08 4.04444249827546e-07 1.94285458613878e-07 6.54162528210132e-09 2.62155633964364e-08 9.87432866135869e-10
"2306" 47626 2.07378008475864e-08 5.18989826861321e-09 7.7882968608075e-08 4.06848607281502e-07 1.94137784748481e-07 6.50914362166988e-09 2.61896738602328e-08 9.84246522219765e-10
"2307" 47627 2.07386543625799e-08 5.18110394536483e-09 7.78567514499709e-08 4.09252964735458e-07 1.93990110883084e-07 6.47666196123844e-09 2.61637843240292e-08 9.81060178303661e-10
"2308" 47628 2.07395078775733e-08 5.17230962211644e-09 7.78305342918668e-08 4.11657322189414e-07 1.93842437017687e-07 6.444180300807e-09 2.61378947878256e-08 9.77873834387557e-10
"2309" 47629 2.07459144562504e-08 5.18805806203583e-09 7.78209050526399e-08 4.10975478045415e-07 1.9375315085755e-07 6.40279008665001e-09 2.61103017589189e-08 9.76904224725461e-10
"2310" 47630 2.07467679712439e-08 5.1790011334894e-09 7.77726768125805e-08 4.11003645093194e-07 1.93616157026971e-07 6.42437762274385e-09 2.60807980039576e-08 9.73496159024177e-10
"2311" 47631 2.07476214862373e-08 5.16994420494296e-09 7.77244485725212e-08 4.11031812140974e-07 1.93479163196392e-07 6.4459651588377e-09 2.60512942489963e-08 9.70088093322894e-10
"2312" 47632 2.07484750012308e-08 5.16088727639652e-09 7.76762203324618e-08 4.11059979188753e-07 1.93342169365812e-07 6.46755269493155e-09 2.60217904940349e-08 9.66680027621611e-10
"2313" 47633 2.07493285162243e-08 5.15183034785008e-09 7.76279920924025e-08 4.11088146236532e-07 1.93205175535233e-07 6.4891402310254e-09 2.59922867390736e-08 9.63271961920327e-10
"2314" 47634 2.07501820312177e-08 5.14277341930364e-09 7.75797638523431e-08 4.11116313284312e-07 1.93068181704654e-07 6.51072776711924e-09 2.59627829841123e-08 9.59863896219044e-10
"2315" 47635 2.0749462075013e-08 5.14048934405786e-09 7.72981836864356e-08 4.09177761325064e-07 1.93171625143193e-07 6.52561821096568e-09 2.59323520785946e-08 9.57425440179858e-10
"2316" 47636 2.07487421188082e-08 5.13820526881207e-09 7.7016603520528e-08 4.07239209365817e-07 1.93275068581733e-07 6.54050865481212e-09 2.59019211730768e-08 9.54986984140671e-10
"2317" 47637 2.07480221626034e-08 5.13592119356628e-09 7.67350233546204e-08 4.05300657406569e-07 1.93378512020272e-07 6.55539909865856e-09 2.58714902675591e-08 9.52548528101484e-10
"2318" 47638 2.07473022063987e-08 5.13363711832049e-09 7.64534431887128e-08 4.03362105447321e-07 1.93481955458811e-07 6.570289542505e-09 2.58410593620413e-08 9.50110072062297e-10
"2319" 47639 2.07465822501939e-08 5.13135304307471e-09 7.61718630228052e-08 4.01423553488073e-07 1.93585398897351e-07 6.58517998635144e-09 2.58106284565236e-08 9.47671616023111e-10
"2320" 47640 2.07458622939892e-08 5.12906896782892e-09 7.58902828568976e-08 3.99485001528826e-07 1.9368884233589e-07 6.60007043019787e-09 2.57801975510058e-08 9.45233159983924e-10
"2321" 47641 2.07451423377844e-08 5.12678489258313e-09 7.56087026909901e-08 3.97546449569578e-07 1.9379228577443e-07 6.61496087404431e-09 2.57497666454881e-08 9.42794703944737e-10
"2322" 47642 2.07444223815796e-08 5.12450081733734e-09 7.53271225250825e-08 3.9560789761033e-07 1.93895729212969e-07 6.62985131789075e-09 2.57193357399704e-08 9.40356247905551e-10
"2323" 47643 2.07399231710725e-08 5.08218420532048e-09 7.53128529895942e-08 3.93924894106937e-07 1.93965996002558e-07 6.69290121781136e-09 2.57195429733218e-08 9.36948182204267e-10
"2324" 47644 2.07354239605654e-08 5.03986759330361e-09 7.52985834541058e-08 3.92241890603544e-07 1.94036262792147e-07 6.75595111773197e-09 2.57197502066733e-08 9.33540116502984e-10
"2325" 47645 2.07309247500583e-08 4.99755098128674e-09 7.52843139186175e-08 3.90558887100152e-07 1.94106529581736e-07 6.81900101765258e-09 2.57199574400248e-08 9.30132050801701e-10
"2326" 47646 2.07264255395512e-08 4.95523436926988e-09 7.52700443831291e-08 3.88875883596759e-07 1.94176796371325e-07 6.88205091757318e-09 2.57201646733763e-08 9.26723985100418e-10
"2327" 47647 2.07219263290441e-08 4.91291775725301e-09 7.52557748476408e-08 3.87192880093366e-07 1.94247063160914e-07 6.94510081749379e-09 2.57203719067278e-08 9.23315919399134e-10
"2328" 47648 2.0717427118537e-08 4.87060114523614e-09 7.52415053121525e-08 3.85509876589973e-07 1.94317329950502e-07 7.0081507174144e-09 2.57205791400793e-08 9.19907853697851e-10
"2329" 47649 2.07129279080299e-08 4.82828453321927e-09 7.52272357766641e-08 3.8382687308658e-07 1.94387596740091e-07 7.07120061733501e-09 2.57207863734308e-08 9.16499787996568e-10
"2330" 47650 2.07084286975227e-08 4.78596792120241e-09 7.52129662411758e-08 3.82143869583187e-07 1.9445786352968e-07 7.13425051725562e-09 2.57209936067823e-08 9.13091722295284e-10
"2331" 47651 2.07028652013869e-08 4.74365130918554e-09 7.51815223425945e-08 3.8185602091747e-07 1.9442399636549e-07 7.1381715398091e-09 2.57219068266025e-08 9.17857531682175e-10
"2332" 47652 2.0697301705251e-08 4.70133469716868e-09 7.51500784440132e-08 3.81568172251753e-07 1.943901292013e-07 7.14209256236258e-09 2.57228200464227e-08 9.22623341069065e-10
"2333" 47653 2.06917382091151e-08 4.65901808515181e-09 7.5118634545432e-08 3.81280323586037e-07 1.9435626203711e-07 7.14601358491606e-09 2.57237332662429e-08 9.27389150455956e-10
"2334" 47654 2.06861747129792e-08 4.61670147313494e-09 7.50871906468507e-08 3.8099247492032e-07 1.9432239487292e-07 7.14993460746954e-09 2.57246464860631e-08 9.32154959842846e-10
"2335" 47655 2.06806112168433e-08 4.57438486111807e-09 7.50557467482694e-08 3.80704626254603e-07 1.9428852770873e-07 7.15385563002302e-09 2.57255597058833e-08 9.36920769229736e-10
"2336" 47656 2.06750477207075e-08 4.53206824910121e-09 7.50243028496881e-08 3.80416777588887e-07 1.9425466054454e-07 7.15777665257649e-09 2.57264729257035e-08 9.41686578616627e-10
"2337" 47657 2.06694842245716e-08 4.48975163708434e-09 7.49928589511069e-08 3.8012892892317e-07 1.9422079338035e-07 7.16169767512997e-09 2.57273861455236e-08 9.46452388003517e-10
"2338" 47658 2.06652166496043e-08 4.47389736724933e-09 7.47297782608272e-08 3.81311348911234e-07 1.94215820306412e-07 7.15663799428813e-09 2.57241407675777e-08 9.54764778757705e-10
"2339" 47659 2.0665005878969e-08 4.46177051705393e-09 7.47523301767071e-08 3.82677837948013e-07 1.93423670670181e-07 7.14024814380448e-09 2.57239721947493e-08 9.50081691892193e-10
"2340" 47660 2.06647951083337e-08 4.44964366685852e-09 7.47748820925869e-08 3.84044326984793e-07 1.9263152103395e-07 7.12385829332083e-09 2.57238036219209e-08 9.45398605026682e-10
"2341" 47661 2.06645843376984e-08 4.43751681666311e-09 7.47974340084668e-08 3.85410816021573e-07 1.91839371397719e-07 7.10746844283717e-09 2.57236350490924e-08 9.40715518161171e-10
"2342" 47662 2.06643735670631e-08 4.42538996646771e-09 7.48199859243467e-08 3.86777305058353e-07 1.91047221761488e-07 7.09107859235352e-09 2.5723466476264e-08 9.36032431295659e-10
"2343" 47663 2.06641627964278e-08 4.4132631162723e-09 7.48425378402266e-08 3.88143794095132e-07 1.90255072125257e-07 7.07468874186986e-09 2.57232979034355e-08 9.31349344430148e-10
"2344" 47664 2.07759961885663e-08 4.40139887137495e-09 7.49402289181945e-08 3.88670277333418e-07 1.89518643799889e-07 7.05416456710901e-09 2.57282398087164e-08 9.22787335318463e-10
"2345" 47665 2.0775785417931e-08 4.39155609642533e-09 7.49799551971673e-08 3.88789928068177e-07 1.89901138964009e-07 7.04240149944857e-09 2.57271580160678e-08 9.10567642147999e-10
"2346" 47666 2.07755746472957e-08 4.38171332147571e-09 7.50196814761402e-08 3.88909578802936e-07 1.90283634128128e-07 7.03063843178813e-09 2.57260762234192e-08 8.98347948977535e-10
"2347" 47667 2.07753638766604e-08 4.37187054652609e-09 7.5059407755113e-08 3.89029229537694e-07 1.90666129292248e-07 7.01887536412769e-09 2.57249944307705e-08 8.8612825580707e-10
"2348" 47668 2.07751531060251e-08 4.36202777157647e-09 7.50991340340858e-08 3.89148880272453e-07 1.91048624456367e-07 7.00711229646725e-09 2.57239126381219e-08 8.73908562636606e-10
"2349" 47669 2.07749423353898e-08 4.35218499662685e-09 7.51388603130586e-08 3.89268531007211e-07 1.91431119620487e-07 6.99534922880681e-09 2.57228308454733e-08 8.61688869466142e-10
"2350" 47670 2.07747315647545e-08 4.34234222167723e-09 7.51785865920314e-08 3.8938818174197e-07 1.91813614784607e-07 6.98358616114637e-09 2.57217490528246e-08 8.49469176295677e-10
"2351" 47671 2.07745207941192e-08 4.33249944672762e-09 7.52183128710043e-08 3.89507832476729e-07 1.92196109948726e-07 6.97182309348593e-09 2.5720667260176e-08 8.37249483125213e-10
"2352" 47672 2.07743100234839e-08 4.322656671778e-09 7.52580391499771e-08 3.89627483211487e-07 1.92578605112846e-07 6.96006002582550e-09 2.57195854675273e-08 8.25029789954749e-10
"2353" 47673 2.07740992528486e-08 4.31281389682838e-09 7.52977654289499e-08 3.89747133946246e-07 1.92961100276966e-07 6.94829695816506e-09 2.57185036748787e-08 8.12810096784284e-10
"2354" 47674 2.07738884822133e-08 4.30297112187876e-09 7.53374917079227e-08 3.89866784681004e-07 1.93343595441085e-07 6.93653389050462e-09 2.57174218822301e-08 8.0059040361382e-10
"2355" 47675 2.0773677711578e-08 4.29312834692914e-09 7.53772179868956e-08 3.89986435415763e-07 1.93726090605205e-07 6.92477082284418e-09 2.57163400895814e-08 7.88370710443356e-10
"2356" 47676 2.07734669409427e-08 4.28328557197952e-09 7.54169442658684e-08 3.90106086150521e-07 1.94108585769325e-07 6.91300775518374e-09 2.57152582969328e-08 7.76151017272891e-10
"2357" 47677 2.07732561703074e-08 4.2734427970299e-09 7.54566705448412e-08 3.9022573688528e-07 1.94491080933444e-07 6.9012446875233e-09 2.57141765042842e-08 7.63931324102427e-10
"2358" 47678 2.07730453996721e-08 4.26360002208028e-09 7.5496396823814e-08 3.90345387620039e-07 1.94873576097564e-07 6.88948161986286e-09 2.57130947116355e-08 7.51711630931962e-10
"2359" 47679 2.07728346290368e-08 4.25375724713066e-09 7.55361231027868e-08 3.90465038354797e-07 1.95256071261683e-07 6.87771855220242e-09 2.57120129189869e-08 7.39491937761498e-10
"2360" 47680 2.07726238584015e-08 4.24391447218104e-09 7.55758493817597e-08 3.90584689089556e-07 1.95638566425803e-07 6.86595548454198e-09 2.57109311263383e-08 7.27272244591034e-10
"2361" 47681 2.07724130877662e-08 4.23407169723143e-09 7.56155756607325e-08 3.90704339824314e-07 1.96021061589923e-07 6.85419241688154e-09 2.57098493336896e-08 7.15052551420569e-10
"2362" 47682 2.07722023171309e-08 4.22422892228181e-09 7.56553019397053e-08 3.90823990559073e-07 1.96403556754042e-07 6.8424293492211e-09 2.5708767541041e-08 7.02832858250105e-10
"2363" 47683 2.07719915464956e-08 4.21438614733219e-09 7.56950282186781e-08 3.90943641293832e-07 1.96786051918162e-07 6.83066628156066e-09 2.57076857483924e-08 6.90613165079641e-10
"2364" 47684 2.07717807758603e-08 4.20454337238257e-09 7.57347544976509e-08 3.9106329202859e-07 1.97168547082282e-07 6.81890321390022e-09 2.57066039557437e-08 6.78393471909176e-10
"2365" 47685 2.0771570005225e-08 4.19470059743295e-09 7.57744807766238e-08 3.91182942763349e-07 1.97551042246401e-07 6.80714014623978e-09 2.57055221630951e-08 6.66173778738712e-10
"2366" 47686 2.07713592345897e-08 4.18485782248333e-09 7.58142070555966e-08 3.91302593498107e-07 1.97933537410521e-07 6.79537707857934e-09 2.57044403704465e-08 6.53954085568248e-10
"2367" 47687 2.0781632711868e-08 4.20349492068133e-09 7.59835656524423e-08 3.90206881532381e-07 1.98417466543477e-07 6.78326270442684e-09 2.57408037221114e-08 6.53815569902234e-10
"2368" 47688 2.0801572404104e-08 4.1973266504135e-09 7.61153241664836e-08 3.88921518348688e-07 1.97857496049962e-07 6.80335712845466e-09 2.59118126510035e-08 6.5625402594142e-10
"2369" 47689 2.082151209634e-08 4.19115838014568e-09 7.62470826805249e-08 3.87636155164996e-07 1.97297525556447e-07 6.82345155248248e-09 2.60828215798957e-08 6.58692481980607e-10
"2370" 47690 2.0841451788576e-08 4.18499010987785e-09 7.63788411945661e-08 3.86350791981303e-07 1.96737555062932e-07 6.8435459765103e-09 2.62538305087878e-08 6.61130938019794e-10
"2371" 47691 2.08613914808121e-08 4.17882183961002e-09 7.65105997086074e-08 3.8506542879761e-07 1.96177584569417e-07 6.86364040053812e-09 2.64248394376799e-08 6.63569394058981e-10
"2372" 47692 2.08813311730481e-08 4.1726535693422e-09 7.66423582226487e-08 3.83780065613917e-07 1.95617614075902e-07 6.88373482456594e-09 2.65958483665721e-08 6.66007850098167e-10
"2373" 47693 2.0876487633117e-08 4.15679929950719e-09 7.66960285484996e-08 3.83728407156258e-07 1.94267743225761e-07 6.91986464529975e-09 2.67723366143854e-08 6.58942100338104e-10
"2374" 47694 2.08716440931859e-08 4.14094502967218e-09 7.67496988743505e-08 3.83676748698599e-07 1.9291787237562e-07 6.95599446603356e-09 2.69488248621986e-08 6.51876350578041e-10
"2375" 47695 2.08668005532548e-08 4.12509075983718e-09 7.68033692002015e-08 3.8362509024094e-07 1.91568001525479e-07 6.99212428676737e-09 2.71253131100119e-08 6.44810600817977e-10
"2376" 47696 2.08619570133236e-08 4.10923649000217e-09 7.68570395260524e-08 3.83573431783281e-07 1.90218130675338e-07 7.02825410750118e-09 2.73018013578252e-08 6.37744851057914e-10
"2377" 47697 2.08571134733925e-08 4.09338222016716e-09 7.69107098519033e-08 3.83521773325621e-07 1.88868259825196e-07 7.06438392823499e-09 2.74782896056385e-08 6.30679101297851e-10
"2378" 47698 2.08522699334614e-08 4.07752795033215e-09 7.69643801777542e-08 3.83470114867962e-07 1.87518388975055e-07 7.1005137489688e-09 2.76547778534518e-08 6.23613351537787e-10
"2379" 47699 2.08474263935303e-08 4.06167368049715e-09 7.70180505036051e-08 3.83418456410303e-07 1.86168518124914e-07 7.13664356970262e-09 2.78312661012651e-08 6.16547601777724e-10
"2380" 47700 2.08425828535992e-08 4.04581941066214e-09 7.70717208294561e-08 3.83366797952644e-07 1.84818647274773e-07 7.17277339043643e-09 2.80077543490784e-08 6.09481852017661e-10
"2381" 47701 2.08569694821516e-08 4.04479544694882e-09 7.70198070126656e-08 3.83637809135725e-07 1.84774411742839e-07 7.20035540579354e-09 2.81423999263056e-08 6.11698586271668e-10
"2382" 47702 2.0871356110704e-08 4.0437714832355e-09 7.69678931958751e-08 3.83908820318807e-07 1.84730176210905e-07 7.22793742115066e-09 2.82770455035328e-08 6.13915320525675e-10
"2383" 47703 2.08857427392564e-08 4.04274751952219e-09 7.69159793790847e-08 3.84179831501889e-07 1.84685940678971e-07 7.25551943650777e-09 2.841169108076e-08 6.16132054779682e-10
"2384" 47704 2.09001293678088e-08 4.04172355580887e-09 7.68640655622942e-08 3.84450842684971e-07 1.84641705147037e-07 7.28310145186489e-09 2.85463366579871e-08 6.1834878903369e-10
"2385" 47705 2.09145159963612e-08 4.04069959209555e-09 7.68121517455037e-08 3.84721853868053e-07 1.84597469615103e-07 7.310683467222e-09 2.86809822352143e-08 6.20565523287697e-10
"2386" 47706 2.09289026249136e-08 4.03967562838223e-09 7.67602379287133e-08 3.84992865051134e-07 1.84553234083169e-07 7.33826548257912e-09 2.88156278124415e-08 6.22782257541704e-10
"2387" 47707 2.0943289253466e-08 4.03865166466891e-09 7.67083241119228e-08 3.85263876234216e-07 1.84508998551235e-07 7.36584749793624e-09 2.89502733896687e-08 6.24998991795712e-10
"2388" 47708 2.09576758820184e-08 4.0376277009556e-09 7.66564102951324e-08 3.85534887417298e-07 1.84464763019301e-07 7.39342951329335e-09 2.90849189668959e-08 6.27215726049719e-10
"2389" 47709 2.09544830251321e-08 4.03683988506143e-09 7.64806962678755e-08 3.85729076046097e-07 1.8539506259292e-07 7.39714038140871e-09 2.90366311663092e-08 6.27631273047761e-10
"2390" 47710 2.09512901682458e-08 4.03605206916726e-09 7.63049822406186e-08 3.85923264674895e-07 1.86325362166539e-07 7.40085124952406e-09 2.89883433657224e-08 6.28046820045802e-10
"2391" 47711 2.09480973113595e-08 4.0352642532731e-09 7.61292682133617e-08 3.86117453303694e-07 1.87255661740158e-07 7.40456211763942e-09 2.89400555651357e-08 6.28462367043843e-10
"2392" 47712 2.09449044544732e-08 4.03447643737893e-09 7.59535541861048e-08 3.86311641932493e-07 1.88185961313777e-07 7.40827298575478e-09 2.8891767764549e-08 6.28877914041885e-10
"2393" 47713 2.09417115975869e-08 4.03368862148476e-09 7.57778401588479e-08 3.86505830561291e-07 1.89116260887396e-07 7.41198385387013e-09 2.88434799639622e-08 6.29293461039926e-10
"2394" 47714 2.09385187407006e-08 4.0329008055906e-09 7.5602126131591e-08 3.8670001919009e-07 1.90046560461014e-07 7.41569472198549e-09 2.87951921633755e-08 6.29709008037967e-10
"2395" 47715 2.09395266793873e-08 4.0031079059527e-09 7.53171220504547e-08 3.86685817229592e-07 1.89634110766397e-07 7.38649103165078e-09 2.87753719509926e-08 6.29265564467609e-10
"2396" 47716 2.02370109881016e-08 3.94743275917784e-09 7.53362044408146e-08 3.86880741484724e-07 1.90183079776866e-07 7.39511728126844e-09 2.81288928256276e-08 6.2968111146565e-10
"2397" 47717 1.95344952968159e-08 3.89175761240299e-09 7.53552868311745e-08 3.87075665739856e-07 1.90732048787334e-07 7.40374353088609e-09 2.74824137002625e-08 6.30096658463691e-10
"2398" 47718 1.88319796055302e-08 3.83608246562814e-09 7.53743692215344e-08 3.87270589994987e-07 1.91281017797803e-07 7.41236978050375e-09 2.68359345748975e-08 6.30512205461733e-10
"2399" 47719 1.81294639142446e-08 3.78040731885328e-09 7.53934516118943e-08 3.87465514250119e-07 1.91829986808272e-07 7.4209960301214e-09 2.61894554495324e-08 6.30927752459774e-10
"2400" 47720 1.74269482229589e-08 3.72473217207843e-09 7.54125340022542e-08 3.87660438505251e-07 1.92378955818741e-07 7.42962227973906e-09 2.55429763241674e-08 6.31343299457816e-10
"2401" 47721 1.67244325316732e-08 3.66905702530358e-09 7.54316163926141e-08 3.87855362760382e-07 1.9292792482921e-07 7.43824852935671e-09 2.48964971988024e-08 6.31758846455857e-10
"2402" 47722 1.60219168403875e-08 3.61338187852873e-09 7.5450698782974e-08 3.88050287015514e-07 1.93476893839679e-07 7.44687477897437e-09 2.42500180734373e-08 6.32174393453898e-10
"2403" 47723 1.5316187427311e-08 3.55747058393472e-09 7.54657266153916e-08 3.89204017576589e-07 1.93591707399277e-07 7.44516521789903e-09 2.3605909766721e-08 6.32174393453898e-10
"2404" 47724 1.46102472435993e-08 3.50179543715987e-09 7.55134329442397e-08 3.89564355581022e-07 1.93155734669824e-07 7.49797034050999e-09 2.29632520934652e-08 6.31952671668719e-10
"2405" 47725 1.39043070598875e-08 3.44612029038501e-09 7.55611392730878e-08 3.89924693585455e-07 1.92719761940371e-07 7.55077546312094e-09 2.23205944202094e-08 6.3173094988354e-10
"2406" 47726 1.31983668761757e-08 3.39044514361016e-09 7.5608845601936e-08 3.90285031589888e-07 1.92283789210918e-07 7.60358058573189e-09 2.16779367469535e-08 6.3150922809836e-10
"2407" 47727 1.24924266924639e-08 3.33476999683531e-09 7.56565519307841e-08 3.90645369594321e-07 1.91847816481466e-07 7.65638570834285e-09 2.10352790736977e-08 6.31287506313181e-10
"2408" 47728 1.17864865087521e-08 3.27909485006045e-09 7.57042582596322e-08 3.91005707598754e-07 1.91411843752013e-07 7.7091908309538e-09 2.03926214004419e-08 6.31065784528001e-10
"2409" 47729 1.10805463250404e-08 3.2234197032856e-09 7.57519645884804e-08 3.91366045603187e-07 1.9097587102256e-07 7.76199595356475e-09 1.97499637271861e-08 6.30844062742822e-10
"2410" 47730 1.03746061413286e-08 3.16774455651075e-09 7.57996709173285e-08 3.9172638360762e-07 1.90539898293107e-07 7.81480107617571e-09 1.91073060539302e-08 6.30622340957643e-10
"2411" 47731 9.6686659576168e-09 3.11206940973589e-09 7.58473772461766e-08 3.92086721612053e-07 1.90103925563654e-07 7.86760619878666e-09 1.84646483806744e-08 6.30400619172463e-10
"2412" 47732 8.96272577390502e-09 3.05639426296104e-09 7.58950835750248e-08 3.92447059616486e-07 1.89667952834202e-07 7.92041132139762e-09 1.78219907074186e-08 6.30178897387284e-10
"2413" 47733 8.25678559019324e-09 3.00071911618619e-09 7.59427899038729e-08 3.92807397620919e-07 1.89231980104749e-07 7.97321644400857e-09 1.71793330341627e-08 6.29957175602104e-10
"2414" 47734 7.55084540648146e-09 2.94504396941134e-09 7.5990496232721e-08 3.93167735625352e-07 1.88796007375296e-07 8.02602156661952e-09 1.65366753609069e-08 6.29735453816925e-10
"2415" 47735 6.84490522276968e-09 2.88936882263648e-09 7.60382025615692e-08 3.93528073629785e-07 1.88360034645843e-07 8.07882668923048e-09 1.58940176876511e-08 6.29513732031746e-10
"2416" 47736 6.1389650390579e-09 2.83369367586163e-09 7.60859088904173e-08 3.93888411634218e-07 1.8792406191639e-07 8.13163181184143e-09 1.52513600143952e-08 6.29292010246566e-10
"2417" 47737 6.13832229469974e-09 2.83290585996746e-09 7.6054032183517e-08 3.94167963446709e-07 1.87622201051607e-07 8.15193953759297e-09 1.5198439592712e-08 6.29292010246566e-10
"2418" 47738 6.05956521667089e-09 2.77683385100905e-09 7.45847026766381e-08 3.94498226223996e-07 1.87139624034662e-07 8.20837708407832e-09 1.5198439592712e-08 6.27518719562918e-10
"2419" 47739 5.98080813864204e-09 2.72076184205063e-09 7.31153731697593e-08 3.94828489001284e-07 1.86657047017717e-07 8.26481463056367e-09 1.5198439592712e-08 6.25745428879269e-10
"2420" 47740 5.90205106061318e-09 2.66468983309222e-09 7.16460436628804e-08 3.95158751778571e-07 1.86174470000772e-07 8.32125217704902e-09 1.5198439592712e-08 6.23972138195621e-10
"2421" 47741 5.82329398258433e-09 2.6086178241338e-09 7.01767141560016e-08 3.95489014555858e-07 1.85691892983827e-07 8.37768972353437e-09 1.5198439592712e-08 6.22198847511972e-10
"2422" 47742 5.74453690455548e-09 2.55254581517539e-09 6.87073846491227e-08 3.95819277333145e-07 1.85209315966882e-07 8.43412727001972e-09 1.5198439592712e-08 6.20425556828324e-10
"2423" 47743 5.66577982652662e-09 2.49647380621697e-09 6.72380551422439e-08 3.96149540110433e-07 1.84726738949937e-07 8.49056481650507e-09 1.5198439592712e-08 6.18652266144675e-10
"2424" 47744 5.58702274849777e-09 2.44040179725856e-09 6.57687256353651e-08 3.9647980288772e-07 1.84244161932992e-07 8.54700236299042e-09 1.5198439592712e-08 6.16878975461027e-10
"2425" 47745 5.50826567046891e-09 2.38432978830014e-09 6.42993961284862e-08 3.96810065665007e-07 1.83761584916047e-07 8.60343990947577e-09 1.5198439592712e-08 6.15105684777378e-10
"2426" 47746 5.43192514617949e-09 2.33022633433165e-09 6.27973881251768e-08 3.96788806140812e-07 1.85978638188595e-07 8.71244409856359e-09 1.52010632706034e-08 6.15770850132916e-10
"2427" 47747 5.35558462189007e-09 2.27612288036316e-09 6.12953801218675e-08 3.96767546616617e-07 1.88195691461142e-07 8.82144828765142e-09 1.52036869484949e-08 6.16436015488454e-10
"2428" 47748 5.27924409760065e-09 2.22201942639467e-09 5.97933721185581e-08 3.96746287092422e-07 1.90412744733689e-07 8.93045247673925e-09 1.52063106263863e-08 6.17101180843992e-10
"2429" 47749 5.20290357331123e-09 2.16791597242618e-09 5.82913641152487e-08 3.96725027568227e-07 1.92629798006236e-07 9.03945666582707e-09 1.52089343042777e-08 6.17766346199531e-10
"2430" 47750 5.12656304902181e-09 2.11381251845769e-09 5.67893561119394e-08 3.96703768044031e-07 1.94846851278783e-07 9.1484608549149e-09 1.52115579821691e-08 6.18431511555069e-10
"2431" 47751 5.05022252473239e-09 2.0597090644892e-09 5.528734810863e-08 3.96682508519836e-07 1.97063904551331e-07 9.25746504400273e-09 1.52141816600606e-08 6.19096676910607e-10
"2432" 47752 5.03597988742094e-09 2.06088980358495e-09 5.48201237575159e-08 3.94888752675957e-07 1.98575390115761e-07 9.36575717824963e-09 1.52195449974126e-08 6.20454420596214e-10
"2433" 47753 5.02173725010949e-09 2.06207054268071e-09 5.43528994064017e-08 3.93094996832077e-07 2.00086875680192e-07 9.47404931249653e-09 1.52249083347646e-08 6.21812164281821e-10
"2434" 47754 5.00749461279804e-09 2.06325128177647e-09 5.38856750552876e-08 3.91301240988198e-07 2.01598361244622e-07 9.58234144674343e-09 1.52302716721166e-08 6.23169907967428e-10
"2435" 47755 4.9932519754866e-09 2.06443202087222e-09 5.34184507041734e-08 3.89507485144318e-07 2.03109846809053e-07 9.69063358099033e-09 1.52356350094686e-08 6.24527651653036e-10
"2436" 47756 4.97900933817515e-09 2.06561275996798e-09 5.29512263530593e-08 3.87713729300439e-07 2.04621332373483e-07 9.79892571523723e-09 1.52409983468206e-08 6.25885395338643e-10
"2437" 47757 4.9647667008637e-09 2.06679349906374e-09 5.24840020019451e-08 3.85919973456559e-07 2.06132817937914e-07 9.90721784948414e-09 1.52463616841726e-08 6.2724313902425e-10
"2438" 47758 4.95052406355225e-09 2.06797423815950e-09 5.2016777650831e-08 3.8412621761268e-07 2.07644303502345e-07 1.0015509983731e-08 1.52517250215246e-08 6.28600882709857e-10
"2439" 47759 4.89855566261162e-09 2.06915497725525e-09 5.1223220066444e-08 3.83991929371317e-07 2.09673978669321e-07 1.01225913100198e-08 1.52521464535957e-08 6.2286546366087e-10
"2440" 47760 4.84658726167099e-09 2.07033571635101e-09 5.04296624820571e-08 3.83857641129954e-07 2.11703653836298e-07 1.02296726363086e-08 1.52525678856668e-08 6.17130044611883e-10
"2441" 47761 4.79461886073036e-09 2.07151645544677e-09 4.96361048976702e-08 3.83723352888592e-07 2.13733329003275e-07 1.03367539625973e-08 1.52529893177379e-08 6.11394625562896e-10
"2442" 47762 4.74265045978973e-09 2.07269719454252e-09 4.88425473132832e-08 3.83589064647229e-07 2.15763004170252e-07 1.04438352888861e-08 1.5253410749809e-08 6.05659206513909e-10
"2443" 47763 4.6906820588491e-09 2.07387793363828e-09 4.80489897288963e-08 3.83454776405866e-07 2.17792679337228e-07 1.05509166151749e-08 1.52538321818801e-08 5.99923787464922e-10
"2444" 47764 4.63871365790848e-09 2.07505867273404e-09 4.72554321445094e-08 3.83320488164503e-07 2.19822354504205e-07 1.06579979414637e-08 1.52542536139512e-08 5.94188368415935e-10
"2445" 47765 4.58674525696785e-09 2.0762394118298e-09 4.64618745601224e-08 3.83186199923141e-07 2.21852029671182e-07 1.07650792677524e-08 1.52546750460223e-08 5.88452949366948e-10
"2446" 47766 4.53477685602722e-09 2.07742015092555e-09 4.56683169757355e-08 3.83051911681778e-07 2.23881704838159e-07 1.08721605940412e-08 1.52550964780935e-08 5.82717530317961e-10
"2447" 47767 4.48039190134715e-09 2.07736723596774e-09 4.48597315589309e-08 3.82912510875816e-07 2.24260445540162e-07 1.09005958162932e-08 1.5257797477031e-08 5.74765377014967e-10
"2448" 47768 4.42600694666709e-09 2.07731432100994e-09 4.40511461421264e-08 3.82773110069853e-07 2.24639186242166e-07 1.09290310385452e-08 1.52604984759685e-08 5.66813223711972e-10
"2449" 47769 4.37162199198703e-09 2.07726140605213e-09 4.32425607253218e-08 3.82633709263891e-07 2.2501792694417e-07 1.09574662607972e-08 1.5263199474906e-08 5.58861070408978e-10
"2450" 47770 4.31723703730697e-09 2.07720849109432e-09 4.24339753085173e-08 3.82494308457928e-07 2.25396667646174e-07 1.09859014830491e-08 1.52659004738436e-08 5.50908917105984e-10
"2451" 47771 4.2628520826269e-09 2.07715557613651e-09 4.16253898917128e-08 3.82354907651965e-07 2.25775408348178e-07 1.10143367053011e-08 1.52686014727811e-08 5.42956763802989e-10
"2452" 47772 4.20846712794684e-09 2.0771026611787e-09 4.08168044749082e-08 3.82215506846003e-07 2.26154149050181e-07 1.10427719275531e-08 1.52713024717186e-08 5.35004610499995e-10
"2453" 47773 4.15408217326678e-09 2.07704974622089e-09 4.00082190581037e-08 3.8207610604004e-07 2.26532889752185e-07 1.10712071498051e-08 1.52740034706561e-08 5.27052457197001e-10
"2454" 47774 4.15065768084068e-09 2.05794035238459e-09 3.96303606178617e-08 3.82077839172608e-07 2.25910431404677e-07 1.10764801323707e-08 1.52259862937308e-08 5.1776997318293e-10
"2455" 47775 4.14887343900716e-09 2.04678455094469e-09 3.96313798703966e-08 3.82080806684626e-07 2.26735508527799e-07 1.10772737787381e-08 1.5214132200487e-08 5.17354426184889e-10
"2456" 47776 4.14708919717363e-09 2.0356287495048e-09 3.96323991229315e-08 3.82083774196643e-07 2.27560585650921e-07 1.10780674251056e-08 1.52022781072431e-08 5.16938879186847e-10
"2457" 47777 4.14530495534011e-09 2.0244729480649e-09 3.96334183754664e-08 3.82086741708661e-07 2.28385662774043e-07 1.10788610714731e-08 1.51904240139993e-08 5.16523332188806e-10
"2458" 47778 4.14352071350658e-09 2.013317146625e-09 3.96344376280013e-08 3.82089709220679e-07 2.29210739897165e-07 1.10796547178406e-08 1.51785699207555e-08 5.16107785190764e-10
"2459" 47779 4.14173647167306e-09 2.00216134518511e-09 3.96354568805361e-08 3.82092676732696e-07 2.30035817020287e-07 1.10804483642081e-08 1.51667158275117e-08 5.15692238192723e-10
"2460" 47780 4.13995222983953e-09 1.99100554374521e-09 3.9636476133071e-08 3.82095644244714e-07 2.30860894143409e-07 1.10812420105756e-08 1.51548617342679e-08 5.15276691194682e-10
"2461" 47781 4.13837875864131e-09 1.98108339635888e-09 3.96924227615033e-08 3.84687910119913e-07 2.30921972481454e-07 1.10538168837004e-08 1.51649210830262e-08 5.17077878450647e-10
"2462" 47782 4.13837875864131e-09 1.96998050987679e-09 3.96946997699814e-08 3.84926976096808e-07 2.30795126342028e-07 1.10595164697134e-08 1.51641625052982e-08 5.16440609667427e-10
"2463" 47783 4.13837875864131e-09 1.9588776233947e-09 3.96969767784596e-08 3.85166042073703e-07 2.30668280202603e-07 1.10652160557263e-08 1.51634039275703e-08 5.15803340884206e-10
"2464" 47784 4.13837875864131e-09 1.94777473691261e-09 3.96992537869377e-08 3.85405108050598e-07 2.30541434063178e-07 1.10709156417393e-08 1.51626453498423e-08 5.15166072100985e-10
"2465" 47785 4.13837875864131e-09 1.93667185043052e-09 3.97015307954158e-08 3.85644174027493e-07 2.30414587923753e-07 1.10766152277523e-08 1.51618867721143e-08 5.14528803317764e-10
"2466" 47786 4.13837875864131e-09 1.92556896394844e-09 3.9703807803894e-08 3.85883240004388e-07 2.30287741784327e-07 1.10823148137653e-08 1.51611281943863e-08 5.13891534534544e-10
"2467" 47787 4.13837875864131e-09 1.91446607746635e-09 3.97060848123721e-08 3.86122305981283e-07 2.30160895644902e-07 1.10880143997783e-08 1.51603696166583e-08 5.13254265751323e-10
"2468" 47788 4.13837875864131e-09 1.90336319098426e-09 3.97083618208502e-08 3.86361371958178e-07 2.30034049505477e-07 1.10937139857913e-08 1.51596110389303e-08 5.12616996968102e-10
"2469" 47789 4.13837875864131e-09 1.89226030450217e-09 3.97106388293284e-08 3.86600437935073e-07 2.29907203366052e-07 1.10994135718043e-08 1.51588524612023e-08 5.11979728184881e-10
"2470" 47790 4.13837875864131e-09 1.88115741802008e-09 3.97129158378065e-08 3.86839503911968e-07 2.29780357226627e-07 1.11051131578173e-08 1.51580938834743e-08 5.11342459401661e-10
"2471" 47791 4.13837875864131e-09 1.87005453153799e-09 3.97151928462846e-08 3.87078569888863e-07 2.29653511087201e-07 1.11108127438303e-08 1.51573353057463e-08 5.1070519061844e-10
"2472" 47792 4.13837875864131e-09 1.8589516450559e-09 3.97174698547628e-08 3.87317635865758e-07 2.29526664947776e-07 1.11165123298433e-08 1.51565767280183e-08 5.10067921835219e-10
"2473" 47793 4.13837875864131e-09 1.84784875857382e-09 3.97197468632409e-08 3.87556701842653e-07 2.29399818808351e-07 1.11222119158563e-08 1.51558181502904e-08 5.09430653051998e-10
"2474" 47794 4.13837875864131e-09 1.83674587209173e-09 3.9722023871719e-08 3.87795767819548e-07 2.29272972668926e-07 1.11279115018693e-08 1.51550595725624e-08 5.08793384268777e-10
"2475" 47795 4.13837875864131e-09 1.82564298560964e-09 3.97243008801972e-08 3.88034833796444e-07 2.29146126529501e-07 1.11336110878823e-08 1.51543009948344e-08 5.08156115485557e-10
"2476" 47796 4.13459950433896e-09 1.82438287407717e-09 3.97142823252521e-08 3.88238812008335e-07 2.29019280390075e-07 1.1162673626163e-08 1.51699626094512e-08 4.91447644260229e-10
"2477" 47797 4.12818249320962e-09 1.82438287407717e-09 3.96962619741312e-08 3.88477827971859e-07 2.28909693742553e-07 1.11981509525833e-08 1.50451304871078e-08 4.91447644260229e-10
"2478" 47798 4.12176548208028e-09 1.82438287407717e-09 3.96782416230104e-08 3.88716843935383e-07 2.28800107095031e-07 1.12336282790036e-08 1.49202983647644e-08 4.91447644260229e-10
"2479" 47799 4.11534847095094e-09 1.82438287407717e-09 3.96602212718895e-08 3.88955859898907e-07 2.2869052044751e-07 1.12691056054239e-08 1.4795466242421e-08 4.91447644260229e-10
"2480" 47800 4.1089314598216e-09 1.82438287407717e-09 3.96422009207687e-08 3.89194875862431e-07 2.28580933799988e-07 1.13045829318442e-08 1.46706341200777e-08 4.91447644260229e-10
"2481" 47801 4.10251444869226e-09 1.82438287407717e-09 3.96241805696478e-08 3.89433891825955e-07 2.28471347152466e-07 1.13400602582644e-08 1.45458019977343e-08 4.91447644260229e-10
"2482" 47802 4.09609743756292e-09 1.82438287407717e-09 3.9606160218527e-08 3.89672907789479e-07 2.28361760504944e-07 1.13755375846847e-08 1.44209698753909e-08 4.91447644260229e-10
"2483" 47803 4.08968042643358e-09 1.82438287407717e-09 3.95881398674061e-08 3.89911923753003e-07 2.28252173857422e-07 1.1411014911105e-08 1.42961377530475e-08 4.91447644260229e-10
"2484" 47804 4.08212191782887e-09 1.82362151566191e-09 3.95700542773839e-08 3.89941213340444e-07 2.28938865909332e-07 1.14315390858658e-08 1.41768445062527e-08 4.9208491304345e-10
"2485" 47805 4.07456340922416e-09 1.82362151566191e-09 3.95537034501216e-08 3.90195152316566e-07 2.28987134408907e-07 1.14338916993979e-08 1.40331053913467e-08 4.9316562539703e-10
"2486" 47806 4.0665729268966e-09 1.82259755194859e-09 3.95634610494611e-08 3.90404218086372e-07 2.28900307994812e-07 1.14380260236751e-08 1.38884530566204e-08 4.94246337750609e-10
"2487" 47807 4.05858244456904e-09 1.82157358823527e-09 3.95732186488005e-08 3.90613283856178e-07 2.28813481580716e-07 1.14421603479523e-08 1.37438007218941e-08 4.95327050104189e-10
"2488" 47808 4.05059196224148e-09 1.82054962452195e-09 3.958297624814e-08 3.90822349625984e-07 2.28726655166621e-07 1.14462946722295e-08 1.35991483871679e-08 4.96407762457768e-10
"2489" 47809 4.04260147991391e-09 1.81952566080863e-09 3.95927338474795e-08 3.9103141539579e-07 2.28639828752525e-07 1.14504289965067e-08 1.34544960524416e-08 4.97488474811348e-10
"2490" 47810 4.03334637377453e-09 1.77083305767468e-09 3.96225503030096e-08 3.90486451904887e-07 2.28719892870572e-07 1.14299864132724e-08 1.34544960524416e-08 4.97488474811348e-10
"2491" 47811 4.02409126763516e-09 1.72214045454072e-09 3.96523667585396e-08 3.89941488413985e-07 2.28799956988619e-07 1.14095438300381e-08 1.34544960524416e-08 4.97488474811348e-10
"2492" 47812 4.01483616149578e-09 1.67344785140677e-09 3.96821832140697e-08 3.89396524923083e-07 2.28880021106665e-07 1.13891012468038e-08 1.34544960524416e-08 4.97488474811348e-10
"2493" 47813 4.0055810553564e-09 1.62475524827281e-09 3.97119996695998e-08 3.88851561432181e-07 2.28960085224712e-07 1.13686586635695e-08 1.34544960524416e-08 4.97488474811348e-10
"2494" 47814 3.99632594921702e-09 1.57606264513886e-09 3.97418161251299e-08 3.88306597941279e-07 2.29040149342758e-07 1.13482160803352e-08 1.34544960524416e-08 4.97488474811348e-10
"2495" 47815 3.98707084307764e-09 1.5273700420049e-09 3.977163258066e-08 3.87761634450377e-07 2.29120213460805e-07 1.13277734971009e-08 1.34544960524416e-08 4.97488474811348e-10
"2496" 47816 3.97781573693826e-09 1.47867743887095e-09 3.980144903619e-08 3.87216670959475e-07 2.29200277578851e-07 1.13073309138666e-08 1.34544960524416e-08 4.97488474811348e-10
"2497" 47817 3.96856063079888e-09 1.42998483573699e-09 3.98312654917201e-08 3.86671707468573e-07 2.29280341696898e-07 1.12868883306323e-08 1.34544960524416e-08 4.97488474811348e-10
"2498" 47818 3.89001432340533e-09 1.39391586642466e-09 3.95377369973e-08 3.85828992508479e-07 2.29401078217887e-07 1.12908093531858e-08 1.33436359827481e-08 4.97931918381707e-10
"2499" 47819 3.81146801601178e-09 1.35784689711234e-09 3.924420850288e-08 3.84986277548385e-07 2.29521814738876e-07 1.12947303757393e-08 1.32327759130547e-08 4.98375361952066e-10
"2500" 47820 3.73292170861823e-09 1.32177792780001e-09 3.89506800084599e-08 3.84143562588292e-07 2.29642551259865e-07 1.12986513982928e-08 1.31219158433612e-08 4.98818805522424e-10
"2501" 47821 3.65437540122468e-09 1.28570895848768e-09 3.86571515140398e-08 3.83300847628198e-07 2.29763287780853e-07 1.13025724208463e-08 1.30110557736678e-08 4.99262249092783e-10
"2502" 47822 3.57582909383112e-09 1.24963998917535e-09 3.83636230196197e-08 3.82458132668105e-07 2.29884024301842e-07 1.13064934433997e-08 1.29001957039743e-08 4.99705692663142e-10
"2503" 47823 3.49728278643757e-09 1.21357101986303e-09 3.80700945251996e-08 3.81615417708011e-07 2.30004760822831e-07 1.13104144659532e-08 1.27893356342808e-08 5.00149136233501e-10
"2504" 47824 3.41873647904402e-09 1.1775020505507e-09 3.77765660307796e-08 3.80772702747917e-07 2.3012549734382e-07 1.13143354885067e-08 1.26784755645874e-08 5.00592579803859e-10
"2505" 47825 3.34019017165047e-09 1.14143308123837e-09 3.74830375363595e-08 3.79929987787824e-07 2.30246233864809e-07 1.13182565110602e-08 1.25676154948939e-08 5.01036023374218e-10
"2506" 47826 3.26249737925038e-09 1.11153238219387e-09 3.71715974223209e-08 3.79501251108651e-07 2.30246233864809e-07 1.1354386331794e-08 1.24723783792942e-08 5.00398754590997e-10
"2507" 47827 3.18480458685029e-09 1.08163168314937e-09 3.68601573082823e-08 3.79072514429479e-07 2.30246233864809e-07 1.13905161525278e-08 1.23771412636945e-08 4.99761485807777e-10
"2508" 47828 3.1071117944502e-09 1.05173098410487e-09 3.65487171942437e-08 3.78643777750307e-07 2.30246233864809e-07 1.14266459732616e-08 1.22819041480947e-08 4.99124217024556e-10
"2509" 47829 3.02941900205011e-09 1.02183028506037e-09 3.62372770802051e-08 3.78215041071135e-07 2.30246233864809e-07 1.14627757939954e-08 1.2186667032495e-08 4.98486948241335e-10
"2510" 47830 2.95172620965003e-09 9.91929586015868e-10 3.59258369661665e-08 3.77786304391963e-07 2.30246233864809e-07 1.14989056147292e-08 1.20914299168953e-08 4.97849679458114e-10
"2511" 47831 2.87403341724994e-09 9.62028886971368e-10 3.56143968521279e-08 3.7735756771279e-07 2.30246233864809e-07 1.1535035435463e-08 1.19961928012956e-08 4.97212410674894e-10
"2512" 47832 2.79634062484985e-09 9.32128187926867e-10 3.53029567380893e-08 3.76928831033618e-07 2.30246233864809e-07 1.15711652561969e-08 1.19009556856959e-08 4.96575141891673e-10
"2513" 47833 2.79634062484985e-09 9.26169607999288e-10 3.50600864222067e-08 3.77510915502318e-07 2.28957484295416e-07 1.15508575304453e-08 1.19162871200239e-08 4.94136685852486e-10
"2514" 47834 2.76621509963438e-09 9.16483608432108e-10 3.44740094286811e-08 3.76616799822685e-07 2.28668648840616e-07 1.14881715261592e-08 1.17234065413383e-08 4.93914964067307e-10
"2515" 47835 2.7360895744189e-09 9.06797608864927e-10 3.38879324351555e-08 3.75722684143052e-07 2.28379813385816e-07 1.1425485521873e-08 1.15305259626527e-08 4.93693242282127e-10
"2516" 47836 2.70596404920343e-09 8.97111609297747e-10 3.33018554416299e-08 3.7482856846342e-07 2.28090977931016e-07 1.13627995175868e-08 1.13376453839671e-08 4.93471520496948e-10
"2517" 47837 2.67583852398796e-09 8.87425609730568e-10 3.27157784481043e-08 3.73934452783787e-07 2.27802142476216e-07 1.13001135133007e-08 1.11447648052815e-08 4.93249798711769e-10
"2518" 47838 2.64571299877249e-09 8.77739610163388e-10 3.21297014545787e-08 3.73040337104155e-07 2.27513307021415e-07 1.12374275090145e-08 1.09518842265959e-08 4.93028076926589e-10
"2519" 47839 2.61558747355702e-09 8.68053610596208e-10 3.15436244610531e-08 3.72146221424522e-07 2.27224471566615e-07 1.11747415047284e-08 1.07590036479103e-08 4.9280635514141e-10
"2520" 47840 2.58460843334809e-09 8.52461946059256e-10 3.09464233807425e-08 3.70969898313653e-07 2.27067637735144e-07 1.11312809811472e-08 1.05528709337798e-08 4.9366534570981e-10
"2521" 47841 2.55341862250385e-09 8.38891751470037e-10 3.05729681451471e-08 3.70100982169782e-07 2.26934830367703e-07 1.10346044679356e-08 1.0444960888584e-08 5.02947829723881e-10
"2522" 47842 2.52222881165962e-09 8.25321556880817e-10 3.01995129095517e-08 3.69232066025912e-07 2.26802023000262e-07 1.0937927954724e-08 1.03370508433883e-08 5.12230313737951e-10
"2523" 47843 2.49103900081538e-09 8.11751362291598e-10 2.98260576739563e-08 3.68363149882041e-07 2.26669215632822e-07 1.08412514415124e-08 1.02291407981926e-08 5.21512797752022e-10
"2524" 47844 2.45984918997114e-09 7.98181167702379e-10 2.94526024383609e-08 3.6749423373817e-07 2.26536408265381e-07 1.07445749283008e-08 1.01212307529969e-08 5.30795281766093e-10
"2525" 47845 2.42865937912691e-09 7.84610973113159e-10 2.90791472027655e-08 3.66625317594299e-07 2.2640360089794e-07 1.06478984150892e-08 1.00133207078012e-08 5.40077765780163e-10
"2526" 47846 2.39746956828267e-09 7.7104077852394e-10 2.87056919671702e-08 3.65756401450428e-07 2.262707935305e-07 1.05512219018776e-08 9.90541066260543e-09 5.49360249794234e-10
"2527" 47847 2.36627975743844e-09 7.57470583934721e-10 2.83322367315748e-08 3.64887485306558e-07 2.26137986163059e-07 1.0454545388666e-08 9.7975006174097e-09 5.58642733808304e-10
"2528" 47848 2.3350899465942e-09 7.43900389345501e-10 2.79587814959794e-08 3.64018569162687e-07 2.26005178795618e-07 1.03578688754544e-08 9.68959057221398e-09 5.67925217822375e-10
"2529" 47849 2.30390013574997e-09 7.30330194756282e-10 2.7585326260384e-08 3.63149653018816e-07 2.25872371428178e-07 1.02611923622428e-08 9.58168052701826e-09 5.77207701836446e-10
"2530" 47850 2.27271032490573e-09 7.16760000167062e-10 2.72118710247886e-08 3.62280736874945e-07 2.25739564060737e-07 1.01645158490312e-08 9.47377048182253e-09 5.86490185850517e-10
"2531" 47851 2.24152051406149e-09 7.03189805577843e-10 2.68384157891932e-08 3.61411820731074e-07 2.25606756693296e-07 1.00678393358196e-08 9.36586043662681e-09 5.95772669864587e-10
"2532" 47852 2.21033070321726e-09 6.89619610988624e-10 2.64649605535978e-08 3.60542904587203e-07 2.25473949325856e-07 9.97116282260799e-09 9.25795039143109e-09 6.05055153878658e-10
"2533" 47853 2.17914089237302e-09 6.76049416399404e-10 2.60915053180024e-08 3.59673988443333e-07 2.25341141958415e-07 9.87448630939640e-09 9.15004034623537e-09 6.14337637892729e-10
"2534" 47854 2.14795108152879e-09 6.62479221810185e-10 2.57180500824071e-08 3.58805072299462e-07 2.25208334590974e-07 9.7778097961848e-09 9.04213030103964e-09 6.23620121906799e-10
"2535" 47855 2.11676127068455e-09 6.48909027220966e-10 2.53445948468117e-08 3.57936156155591e-07 2.25075527223534e-07 9.6811332829732e-09 8.93422025584392e-09 6.3290260592087e-10
"2536" 47856 2.11611852632639e-09 6.50956954647602e-10 2.55671481744851e-08 3.57499963186346e-07 2.25211878586653e-07 9.66781439543375e-09 9.00945465549607e-09 6.4132609936654e-10
"2537" 47857 2.11547578196823e-09 6.53004882074238e-10 2.57897015021585e-08 3.57063770217101e-07 2.25348229949773e-07 9.65449550789429e-09 9.08468905514823e-09 6.49749592812211e-10
"2538" 47858 2.11483303761007e-09 6.55052809500874e-10 2.60122548298319e-08 3.56627577247857e-07 2.25484581312893e-07 9.64117662035484e-09 9.15992345480038e-09 6.58173086257881e-10
"2539" 47859 2.11419029325191e-09 6.5710073692751e-10 2.62348081575054e-08 3.56191384278612e-07 2.25620932676013e-07 9.62785773281539e-09 9.23515785445253e-09 6.66596579703552e-10
"2540" 47860 2.11354754889376e-09 6.59148664354146e-10 2.64573614851788e-08 3.55755191309367e-07 2.25757284039133e-07 9.61453884527594e-09 9.31039225410468e-09 6.75020073149222e-10
"2541" 47861 2.1129048045356e-09 6.61196591780783e-10 2.66799148128522e-08 3.55318998340122e-07 2.25893635402252e-07 9.60121995773649e-09 9.38562665375684e-09 6.83443566594893e-10
"2542" 47862 2.1129048045356e-09 6.61931492717141e-10 2.70565807360523e-08 3.54365171894086e-07 2.26040503952535e-07 9.64219930487401e-09 9.36118078564558e-09 6.82362854241313e-10
"2543" 47863 2.1204633131403e-09 6.67995902560337e-10 2.70846631347191e-08 3.55389285709917e-07 2.26110760960969e-07 9.68317865201154e-09 9.33582169771412e-09 6.92587051345163e-10
"2544" 47864 2.12802182174501e-09 6.74060312403533e-10 2.7112745533386e-08 3.56413399525748e-07 2.26181017969402e-07 9.72415799914907e-09 9.31046260978267e-09 7.02811248449013e-10
"2545" 47865 2.13558033034971e-09 6.8012472224673e-10 2.71408279320528e-08 3.57437513341579e-07 2.26251274977836e-07 9.7651373462866e-09 9.28510352185121e-09 7.13035445552863e-10
"2546" 47866 2.14313883895442e-09 6.86189132089926e-10 2.71689103307197e-08 3.5846162715741e-07 2.2632153198627e-07 9.80611669342413e-09 9.25974443391976e-09 7.23259642656713e-10
"2547" 47867 2.15069734755913e-09 6.92253541933122e-10 2.71969927293866e-08 3.59485740973241e-07 2.26391788994703e-07 9.84709604056166e-09 9.2343853459883e-09 7.33483839760563e-10
"2548" 47868 2.13979155837492e-09 6.92253541933122e-10 2.71374685498287e-08 3.60813969157141e-07 2.26419484035443e-07 9.90346143737723e-09 9.2343853459883e-09 7.44151480434771e-10
"2549" 47869 2.12888576919072e-09 6.92253541933122e-10 2.70779443702709e-08 3.62142197341041e-07 2.26447179076183e-07 9.95982683419281e-09 9.2343853459883e-09 7.5481912110898e-10
"2550" 47870 2.11797998000652e-09 6.92253541933122e-10 2.70184201907131e-08 3.6347042552494e-07 2.26474874116923e-07 1.00161922310084e-08 9.2343853459883e-09 7.65486761783188e-10
"2551" 47871 2.10707419082232e-09 6.92253541933122e-10 2.69588960111552e-08 3.6479865370884e-07 2.26502569157663e-07 1.0072557627824e-08 9.2343853459883e-09 7.76154402457397e-10
"2552" 47872 2.09616840163811e-09 6.92253541933122e-10 2.68993718315974e-08 3.66126881892739e-07 2.26530264198402e-07 1.01289230246395e-08 9.2343853459883e-09 7.86822043131606e-10
"2553" 47873 2.08526261245391e-09 6.92253541933122e-10 2.68398476520396e-08 3.67455110076639e-07 2.26557959239142e-07 1.01852884214551e-08 9.2343853459883e-09 7.97489683805814e-10
"2554" 47874 2.07435682326971e-09 6.92253541933122e-10 2.67803234724818e-08 3.68783338260539e-07 2.26585654279882e-07 1.02416538182707e-08 9.2343853459883e-09 8.08157324480023e-10
"2555" 47875 2.0634510340855e-09 6.92253541933122e-10 2.67207992929239e-08 3.70111566444438e-07 2.26613349320622e-07 1.02980192150863e-08 9.2343853459883e-09 8.18824965154232e-10
"2556" 47876 2.06986804521484e-09 6.98291494297414e-10 2.66306344161086e-08 3.71738896458549e-07 2.26450213679594e-07 1.03120564520379e-08 9.19169284589187e-09 8.27691418572474e-10
"2557" 47877 2.07628505634418e-09 7.04329446661706e-10 2.65404695392932e-08 3.73366226472659e-07 2.26287078038565e-07 1.03260936889894e-08 9.14900034579545e-09 8.36557871990717e-10
"2558" 47878 2.08270206747352e-09 7.10367399025998e-10 2.64503046624778e-08 3.7499355648677e-07 2.26123942397537e-07 1.0340130925941e-08 9.10630784569902e-09 8.4542432540896e-10
"2559" 47879 2.08911907860286e-09 7.1640535139029e-10 2.63601397856625e-08 3.7662088650088e-07 2.25960806756509e-07 1.03541681628926e-08 9.06361534560259e-09 8.54290778827203e-10
"2560" 47880 2.0955360897322e-09 7.22443303754582e-10 2.62699749088471e-08 3.78248216514991e-07 2.25797671115481e-07 1.03682053998441e-08 9.02092284550617e-09 8.63157232245445e-10
"2561" 47881 2.10195310086154e-09 7.28481256118874e-10 2.61798100320318e-08 3.79875546529101e-07 2.25634535474453e-07 1.03822426367957e-08 8.97823034540974e-09 8.72023685663688e-10
"2562" 47882 2.10837011199088e-09 7.34519208483166e-10 2.60896451552164e-08 3.81502876543212e-07 2.25471399833425e-07 1.03962798737473e-08 8.93553784531331e-09 8.80890139081931e-10
"2563" 47883 2.11478712312022e-09 7.40557160847458e-10 2.59994802784011e-08 3.83130206557322e-07 2.25308264192396e-07 1.04103171106988e-08 8.89284534521689e-09 8.89756592500173e-10
"2564" 47884 2.12120413424956e-09 7.4659511321175e-10 2.59093154015857e-08 3.84757536571433e-07 2.25145128551368e-07 1.04243543476504e-08 8.85015284512046e-09 8.98623045918416e-10
"2565" 47885 2.1204841780448e-09 7.47303556669204e-10 2.58694586448101e-08 3.85496363604222e-07 2.25099622112751e-07 1.04234164019434e-08 8.80983116367279e-09 8.96184589879229e-10
"2566" 47886 2.11976422184004e-09 7.48012000126659e-10 2.58296018880344e-08 3.8623519063701e-07 2.25054115674134e-07 1.04224784562363e-08 8.76950948222513e-09 8.93746133840043e-10
"2567" 47887 2.11904426563528e-09 7.48720443584113e-10 2.57897451312588e-08 3.86974017669799e-07 2.25008609235517e-07 1.04215405105293e-08 8.72918780077747e-09 8.91307677800856e-10
"2568" 47888 2.11832430943052e-09 7.49428887041567e-10 2.57498883744832e-08 3.87712844702588e-07 2.249631027969e-07 1.04206025648223e-08 8.6888661193298e-09 8.88869221761669e-10
"2569" 47889 2.11760435322576e-09 7.50137330499022e-10 2.57100316177076e-08 3.88451671735376e-07 2.24917596358283e-07 1.04196646191153e-08 8.64854443788214e-09 8.86430765722483e-10
"2570" 47890 2.116884397021e-09 7.50845773956476e-10 2.56701748609319e-08 3.89190498768165e-07 2.24872089919666e-07 1.04187266734083e-08 8.60822275643447e-09 8.83992309683296e-10
"2571" 47891 2.11809267389072e-09 7.45516265049638e-10 2.56405737507162e-08 3.90301856179182e-07 2.25080357827224e-07 1.04543482991681e-08 8.61038634173174e-09 8.83992309683296e-10
"2572" 47892 2.11573246709339e-09 7.42444373909684e-10 2.57188990305214e-08 3.91367378316787e-07 2.24069907821154e-07 1.04918896404413e-08 8.58211902151127e-09 8.83770587898116e-10
"2573" 47893 2.11337226029605e-09 7.3937248276973e-10 2.57972243103266e-08 3.92432900454392e-07 2.23059457815083e-07 1.05294309817146e-08 8.55385170129079e-09 8.83548866112937e-10
"2574" 47894 2.11101205349872e-09 7.36300591629775e-10 2.58755495901318e-08 3.93498422591998e-07 2.22049007809013e-07 1.05669723229879e-08 8.52558438107032e-09 8.83327144327758e-10
"2575" 47895 2.10865184670138e-09 7.33228700489821e-10 2.5953874869937e-08 3.94563944729603e-07 2.21038557802943e-07 1.06045136642612e-08 8.49731706084984e-09 8.83105422542578e-10
"2576" 47896 2.10629163990405e-09 7.30156809349867e-10 2.60322001497422e-08 3.95629466867208e-07 2.20028107796872e-07 1.06420550055345e-08 8.46904974062937e-09 8.82883700757399e-10
"2577" 47897 2.10393143310672e-09 7.27084918209913e-10 2.61105254295474e-08 3.96694989004813e-07 2.19017657790802e-07 1.06795963468078e-08 8.44078242040889e-09 8.82661978972219e-10
"2578" 47898 2.10229118251414e-09 7.39107907980688e-10 2.61105254295474e-08 3.96540463752175e-07 2.18445161069419e-07 1.07109393489508e-08 8.41226224094575e-09 8.85848322888323e-10
"2579" 47899 2.09993097571681e-09 7.372696708943e-10 2.6144289123311e-08 3.9682534137639e-07 2.17261629274444e-07 1.07078746805778e-08 8.40614032586576e-09 8.88065057142331e-10
"2580" 47900 2.09757076891948e-09 7.35431433807911e-10 2.61780528170745e-08 3.97110219000605e-07 2.16078097479469e-07 1.07048100122048e-08 8.40001841078577e-09 8.90281791396338e-10
"2581" 47901 2.09521056212214e-09 7.33593196721522e-10 2.62118165108381e-08 3.97395096624821e-07 2.14894565684495e-07 1.07017453438318e-08 8.39389649570577e-09 8.92498525650345e-10
"2582" 47902 2.09285035532481e-09 7.31754959635133e-10 2.62455802046017e-08 3.97679974249036e-07 2.1371103388952e-07 1.06986806754588e-08 8.38777458062578e-09 8.94715259904353e-10
"2583" 47903 2.09049014852748e-09 7.29916722548744e-10 2.62793438983653e-08 3.97964851873251e-07 2.12527502094545e-07 1.06956160070858e-08 8.38165266554578e-09 8.9693199415836e-10
"2584" 47904 2.08812994173014e-09 7.28078485462355e-10 2.63131075921288e-08 3.98249729497466e-07 2.1134397029957e-07 1.06925513387128e-08 8.37553075046579e-09 8.99148728412367e-10
"2585" 47905 2.08576973493281e-09 7.26240248375966e-10 2.63468712858924e-08 3.98534607121681e-07 2.10160438504595e-07 1.06894866703397e-08 8.36940883538579e-09 9.01365462666375e-10
"2586" 47906 2.08340952813548e-09 7.24402011289578e-10 2.6380634979656e-08 3.98819484745896e-07 2.0897690670962e-07 1.06864220019667e-08 8.3632869203058e-09 9.03582196920382e-10
"2587" 47907 2.08104932133814e-09 7.22563774203189e-10 2.64143986734196e-08 3.99104362370111e-07 2.07793374914645e-07 1.06833573335937e-08 8.3571650052258e-09 9.05798931174389e-10
"2588" 47908 2.07868911454081e-09 7.207255371168e-10 2.64481623671831e-08 3.99389239994326e-07 2.0660984311967e-07 1.06802926652207e-08 8.35104309014581e-09 9.08015665428397e-10
"2589" 47909 2.07632890774348e-09 7.18887300030411e-10 2.64819260609467e-08 3.99674117618541e-07 2.05426311324695e-07 1.06772279968477e-08 8.34492117506581e-09 9.10232399682404e-10
"2590" 47910 2.07396870094614e-09 7.17049062944022e-10 2.65156897547103e-08 3.99958995242757e-07 2.0424277952972e-07 1.06741633284747e-08 8.33879925998582e-09 9.12449133936411e-10
"2591" 47911 2.07160849414881e-09 7.15210825857633e-10 2.65494534484739e-08 4.00243872866972e-07 2.03059247734745e-07 1.06710986601017e-08 8.33267734490582e-09 9.14665868190419e-10
"2592" 47912 2.06924828735148e-09 7.13372588771244e-10 2.65832171422374e-08 4.00528750491187e-07 2.0187571593977e-07 1.06680339917287e-08 8.32655542982583e-09 9.16882602444426e-10
"2593" 47913 2.04657276153736e-09 6.51525232746593e-10 2.65989604848801e-08 4.00953115754467e-07 2.00429231557229e-07 1.06603425405324e-08 8.33914720469328e-09 9.11147183395439e-10
"2594" 47914 2.02389723572324e-09 6.5270597184235e-10 2.64788690092388e-08 4.01153502667796e-07 2.00393287742244e-07 1.06572778721594e-08 8.36275020866233e-09 9.12504927081046e-10
"2595" 47915 2.00122170990912e-09 6.53886710938107e-10 2.63587775335975e-08 4.01353889581125e-07 2.00357343927258e-07 1.06542132037864e-08 8.38635321263138e-09 9.13862670766653e-10
"2596" 47916 1.978546184095e-09 6.55067450033864e-10 2.62386860579562e-08 4.01554276494454e-07 2.00321400112273e-07 1.06511485354134e-08 8.40995621660043e-09 9.1522041445226e-10
"2597" 47917 1.95587065828088e-09 6.56248189129622e-10 2.61185945823149e-08 4.01754663407783e-07 2.00285456297288e-07 1.06480838670404e-08 8.43355922056948e-09 9.16578158137867e-10
"2598" 47918 1.93319513246677e-09 6.57428928225379e-10 2.59985031066736e-08 4.01955050321112e-07 2.00249512482303e-07 1.06450191986674e-08 8.45716222453853e-09 9.17935901823475e-10
"2599" 47919 1.91051960665265e-09 6.58609667321136e-10 2.58784116310323e-08 4.02155437234442e-07 2.00213568667318e-07 1.06419545302943e-08 8.48076522850758e-09 9.19293645509082e-10
"2600" 47920 1.88784408083853e-09 6.59790406416893e-10 2.57583201553909e-08 4.02355824147771e-07 2.00177624852333e-07 1.06388898619213e-08 8.50436823247663e-09 9.20651389194689e-10
"2601" 47921 1.8647470137538e-09 6.59029048001631e-10 2.57119347036971e-08 4.02598028541701e-07 2.00107199891168e-07 1.06510042360738e-08 8.5058258313052e-09 9.19570676841109e-10
"2602" 47922 1.84121797294622e-09 6.58241232107464e-10 2.56117491542464e-08 4.02407042917542e-07 2.00038237598808e-07 1.06625414128682e-08 8.50491261148501e-09 9.18711686272709e-10
"2603" 47923 1.81768893213864e-09 6.57453416213297e-10 2.55115636047957e-08 4.02216057293384e-07 1.99969275306449e-07 1.06740785896625e-08 8.50399939166481e-09 9.17852695704309e-10
"2604" 47924 1.79415989133106e-09 6.56665600319131e-10 2.54113780553449e-08 4.02025071669225e-07 1.99900313014089e-07 1.06856157664569e-08 8.50308617184462e-09 9.16993705135909e-10
"2605" 47925 1.77063085052348e-09 6.55877784424964e-10 2.53111925058942e-08 4.01834086045066e-07 1.99831350721729e-07 1.06971529432512e-08 8.50217295202443e-09 9.16134714567509e-10
"2606" 47926 1.7471018097159e-09 6.55089968530797e-10 2.52110069564434e-08 4.01643100420907e-07 1.9976238842937e-07 1.07086901200456e-08 8.50125973220424e-09 9.15275723999109e-10
"2607" 47927 1.72357276890832e-09 6.54302152636631e-10 2.51108214069927e-08 4.01452114796748e-07 1.9969342613701e-07 1.07202272968399e-08 8.50034651238404e-09 9.14416733430708e-10
"2608" 47928 1.72035904711753e-09 6.52254225209994e-10 2.5141939111067e-08 3.97665203269442e-07 1.99314815121113e-07 1.06803301947489e-08 8.49162181551698e-09 9.09096861379763e-10
"2609" 47929 1.71714532532673e-09 6.50206297783358e-10 2.51730568151412e-08 3.93878291742137e-07 1.98936204105215e-07 1.0640433092658e-08 8.48289711864992e-09 9.03776989328817e-10
"2610" 47930 1.71393160353594e-09 6.48158370356722e-10 2.52041745192155e-08 3.90091380214831e-07 1.98557593089318e-07 1.0600535990567e-08 8.47417242178286e-09 8.98457117277871e-10
"2611" 47931 1.71071788174514e-09 6.46110442930086e-10 2.52352922232898e-08 3.86304468687525e-07 1.98178982073421e-07 1.0560638888476e-08 8.46544772491579e-09 8.93137245226926e-10
"2612" 47932 1.70750415995435e-09 6.4406251550345e-10 2.5266409927364e-08 3.82517557160219e-07 1.97800371057523e-07 1.05207417863851e-08 8.45672302804873e-09 8.8781737317598e-10
"2613" 47933 1.70429043816355e-09 6.42014588076814e-10 2.52975276314383e-08 3.78730645632913e-07 1.97421760041626e-07 1.04808446842941e-08 8.44799833118167e-09 8.82497501125035e-10
"2614" 47934 1.70107671637276e-09 6.39966660650178e-10 2.53286453355126e-08 3.74943734105607e-07 1.97043149025729e-07 1.04409475822032e-08 8.43927363431461e-09 8.77177629074089e-10
"2615" 47935 1.68218044486099e-09 6.40202808469329e-10 2.53823801943681e-08 3.73806367893032e-07 1.96419923629731e-07 1.04555494273705e-08 8.43836041449441e-09 8.76762082076048e-10
"2616" 47936 1.66328417334923e-09 6.4043895628848e-10 2.54361150532237e-08 3.72669001680457e-07 1.95796698233734e-07 1.04701512725379e-08 8.43744719467422e-09 8.76346535078006e-10
"2617" 47937 1.64438790183746e-09 6.40675104107632e-10 2.54898499120792e-08 3.71531635467882e-07 1.95173472837736e-07 1.04847531177052e-08 8.43653397485403e-09 8.75930988079965e-10
"2618" 47938 1.62549163032569e-09 6.40911251926783e-10 2.55435847709348e-08 3.70394269255307e-07 1.94550247441739e-07 1.04993549628726e-08 8.43562075503384e-09 8.75515441081923e-10
"2619" 47939 1.60659535881393e-09 6.41147399745935e-10 2.55973196297903e-08 3.69256903042733e-07 1.93927022045742e-07 1.05139568080399e-08 8.43470753521364e-09 8.75099894083882e-10
"2620" 47940 1.58769908730216e-09 6.41383547565086e-10 2.56510544886459e-08 3.68119536830158e-07 1.93303796649744e-07 1.05285586532073e-08 8.43379431539345e-09 8.74684347085841e-10
"2621" 47941 1.5688028157904e-09 6.41619695384237e-10 2.57047893475014e-08 3.66982170617583e-07 1.92680571253747e-07 1.05431604983746e-08 8.43288109557326e-09 8.74268800087799e-10
"2622" 47942 1.54990654427863e-09 6.41855843203389e-10 2.5758524206357e-08 3.65844804405008e-07 1.9205734585775e-07 1.0557762343542e-08 8.43196787575306e-09 8.73853253089758e-10
"2623" 47943 1.53079950213157e-09 6.44060546012464e-10 2.57573316893151e-08 3.64883199343174e-07 1.91452334517187e-07 1.05588288521606e-08 8.53164814351648e-09 8.73215984306537e-10
"2624" 47944 1.5116924599845e-09 6.46265248821539e-10 2.57561391722733e-08 3.63921594281341e-07 1.90847323176623e-07 1.05598953607792e-08 8.63132841127989e-09 8.72578715523316e-10
"2625" 47945 1.49258541783743e-09 6.48469951630615e-10 2.57549466552314e-08 3.62959989219507e-07 1.9024231183606e-07 1.05609618693978e-08 8.73100867904331e-09 8.71941446740096e-10
"2626" 47946 1.47347837569036e-09 6.5067465443969e-10 2.57537541381896e-08 3.61998384157674e-07 1.89637300495497e-07 1.05620283780163e-08 8.83068894680672e-09 8.71304177956875e-10
"2627" 47947 1.45437133354329e-09 6.52879357248765e-10 2.57525616211477e-08 3.6103677909584e-07 1.89032289154934e-07 1.05630948866349e-08 8.93036921457014e-09 8.70666909173654e-10
"2628" 47948 1.43526429139623e-09 6.5508406005784e-10 2.57513691041059e-08 3.60075174034006e-07 1.88427277814371e-07 1.05641613952535e-08 9.03004948233355e-09 8.70029640390433e-10
"2629" 47949 1.41615724924916e-09 6.57288762866916e-10 2.5750176587064e-08 3.59113568972173e-07 1.87822266473808e-07 1.05652279038721e-08 9.12972975009696e-09 8.69392371607212e-10
"2630" 47950 1.39705020710209e-09 6.59493465675991e-10 2.57489840700222e-08 3.58151963910339e-07 1.87217255133245e-07 1.05662944124907e-08 9.22941001786038e-09 8.68755102823992e-10
"2631" 47951 1.37794316495502e-09 6.61698168485066e-10 2.57477915529803e-08 3.57190358848505e-07 1.86612243792682e-07 1.05673609211093e-08 9.32909028562379e-09 8.68117834040771e-10
"2632" 47952 1.35883612280795e-09 6.63902871294141e-10 2.57465990359385e-08 3.56228753786672e-07 1.86007232452119e-07 1.05684274297279e-08 9.42877055338721e-09 8.6748056525755e-10
"2633" 47953 1.33972908066088e-09 6.66107574103217e-10 2.57454065188966e-08 3.55267148724838e-07 1.85402221111556e-07 1.05694939383465e-08 9.52845082115062e-09 8.66843296474329e-10
"2634" 47954 1.32062203851382e-09 6.68312276912292e-10 2.57442140018548e-08 3.54305543663004e-07 1.84797209770992e-07 1.05705604469651e-08 9.62813108891404e-09 8.66206027691108e-10
"2635" 47955 1.30151499636675e-09 6.70516979721367e-10 2.5743021484813e-08 3.53343938601171e-07 1.84192198430429e-07 1.05716269555837e-08 9.72781135667745e-09 8.65568758907888e-10
"2636" 47956 1.28347223984844e-09 6.71540943434685e-10 2.66095310315988e-08 3.53380339907462e-07 1.83667212941288e-07 1.05707706014032e-08 9.73105673462336e-09 8.67369946163854e-10
"2637" 47957 1.28368301048375e-09 6.5051394007528e-10 2.6101647428282e-08 3.51995418482547e-07 1.83689143621211e-07 1.06509161120772e-08 9.79557142493962e-09 8.69586680417861e-10
"2638" 47958 1.28403777236e-09 6.54294274672688e-10 2.60500598059986e-08 3.52205269892058e-07 1.80359175705974e-07 1.07381194633475e-08 9.85979459549017e-09 8.71803414671868e-10
"2639" 47959 1.28439253423626e-09 6.58074609270097e-10 2.59984721837151e-08 3.52415121301568e-07 1.77029207790738e-07 1.08253228146177e-08 9.92401776604072e-09 8.74020148925876e-10
"2640" 47960 1.28474729611251e-09 6.61854943867505e-10 2.59468845614316e-08 3.52624972711078e-07 1.73699239875501e-07 1.0912526165888e-08 9.98824093659126e-09 8.76236883179883e-10
"2641" 47961 1.28510205798877e-09 6.65635278464914e-10 2.58952969391482e-08 3.52834824120588e-07 1.70369271960264e-07 1.09997295171582e-08 1.00524641071418e-08 8.7845361743389e-10
"2642" 47962 1.28545681986502e-09 6.69415613062322e-10 2.58437093168647e-08 3.53044675530098e-07 1.67039304045027e-07 1.10869328684285e-08 1.01166872776924e-08 8.80670351687898e-10
