"time" "channel1" "channel2" "channel3" "channel4" "channel5" "channel6" "channel7" "channel8"
"1" 4508 3.90631375925201e-08 6.60509024737952e-09 4.29306484092445e-08 1.89697849606721e-08 3.38157176900818e-08 3.22248993038561e-08 2.28927677004723e-08 3.76059169929495e-07
"2" 4509 3.88688388321256e-08 6.63226103301884e-09 4.28971456710865e-08 1.89697849606721e-08 3.38244363029767e-08 3.22624406451294e-08 2.28691646965032e-08 3.75533513491325e-07
"3" 4510 3.8674540071731e-08 6.65943181865815e-09 4.28636429329286e-08 1.89697849606721e-08 3.38331549158716e-08 3.22999819864027e-08 2.28455616925342e-08 3.75007857053154e-07
"4" 4511 3.84802413113364e-08 6.68660260429746e-09 4.28301401947706e-08 1.89697849606721e-08 3.38418735287665e-08 3.2337523327676e-08 2.28219586885651e-08 3.74482200614984e-07
"5" 4512 3.82859425509418e-08 6.71377338993678e-09 4.27966374566126e-08 1.89697849606721e-08 3.38505921416614e-08 3.23750646689492e-08 2.27983556845961e-08 3.73956544176813e-07
"6" 4513 3.80916437905473e-08 6.74094417557609e-09 4.27631347184547e-08 1.89697849606721e-08 3.38593107545563e-08 3.24126060102225e-08 2.2774752680627e-08 3.73430887738643e-07
"7" 4514 3.78973450301527e-08 6.76811496121541e-09 4.27296319802967e-08 1.89697849606721e-08 3.38680293674512e-08 3.24501473514958e-08 2.2751149676658e-08 3.72905231300472e-07
"8" 4515 3.77030462697581e-08 6.79528574685472e-09 4.26961292421387e-08 1.89697849606721e-08 3.38767479803461e-08 3.24876886927691e-08 2.27275466726889e-08 3.72379574862302e-07
"9" 4516 3.75087475093635e-08 6.82245653249403e-09 4.26626265039808e-08 1.89697849606721e-08 3.3885466593241e-08 3.25252300340424e-08 2.27039436687199e-08 3.71853918424131e-07
"10" 4517 3.73544011606068e-08 6.82587040136876e-09 4.2836887764487e-08 1.89960070093538e-08 3.38979881450299e-08 3.25232318742879e-08 2.27594668721902e-08 3.71927650679359e-07
"11" 4518 3.74085294301617e-08 6.83188189625414e-09 4.30046427822723e-08 1.90862695105223e-08 3.38751173588095e-08 3.24890249163532e-08 2.28385930796295e-08 3.71121800772434e-07
"12" 4519 3.74668731124226e-08 6.82951844857164e-09 4.2964568562492e-08 1.90902095220889e-08 3.38703743136184e-08 3.24537514497999e-08 2.28730843657629e-08 3.7110494991676e-07
"13" 4520 3.73474540990035e-08 6.76161062168577e-09 4.27715735583301e-08 1.90740625624935e-08 3.39008173870804e-08 3.22582997883821e-08 2.24238415531472e-08 3.68500649644343e-07
"14" 4521 3.72280350855843e-08 6.69370279479989e-09 4.25785785541682e-08 1.90579156028981e-08 3.39312604605425e-08 3.20628481269644e-08 2.19745987405316e-08 3.65896349371925e-07
"15" 4522 3.71086160721651e-08 6.62579496791402e-09 4.23855835500064e-08 1.90417686433028e-08 3.39617035340045e-08 3.18673964655466e-08 2.15253559279159e-08 3.63292049099507e-07
"16" 4523 3.6989197058746e-08 6.55788714102814e-09 4.21925885458445e-08 1.90256216837074e-08 3.39921466074666e-08 3.16719448041289e-08 2.10761131153003e-08 3.6068774882709e-07
"17" 4524 3.68697780453268e-08 6.48997931414226e-09 4.19995935416827e-08 1.9009474724112e-08 3.40225896809287e-08 3.14764931427111e-08 2.06268703026847e-08 3.58083448554672e-07
"18" 4525 3.67503590319076e-08 6.42207148725639e-09 4.18065985375208e-08 1.89933277645167e-08 3.40530327543907e-08 3.12810414812934e-08 2.0177627490069e-08 3.55479148282254e-07
"19" 4526 3.66309400184884e-08 6.35416366037051e-09 4.16136035333589e-08 1.89771808049213e-08 3.40834758278528e-08 3.10855898198756e-08 1.97283846774534e-08 3.52874848009837e-07
"20" 4527 3.65115210050692e-08 6.28625583348463e-09 4.1420608529197e-08 1.89610338453259e-08 3.41139189013148e-08 3.08901381584579e-08 1.92791418648377e-08 3.50270547737419e-07
"21" 4528 3.63921019916501e-08 6.21834800659876e-09 4.12276135250352e-08 1.89448868857306e-08 3.41443619747769e-08 3.06946864970401e-08 1.88298990522221e-08 3.47666247465001e-07
"22" 4529 3.62726829782309e-08 6.15044017971288e-09 4.10346185208733e-08 1.89287399261352e-08 3.41748050482389e-08 3.04992348356224e-08 1.83806562396064e-08 3.45061947192584e-07
"23" 4530 3.61532639648117e-08 6.082532352827e-09 4.08416235167115e-08 1.89125929665398e-08 3.4205248121701e-08 3.03037831742046e-08 1.79314134269908e-08 3.42457646920166e-07
"24" 4531 3.59331948984678e-08 6.01974434450772e-09 4.08152779984949e-08 1.89348131772379e-08 3.42248529887695e-08 3.01566447100574e-08 1.75665372122292e-08 3.39929932906013e-07
"25" 4532 3.48078909874838e-08 6.02880127305416e-09 4.08020501677387e-08 1.88873329849548e-08 3.41630892405622e-08 3.00732776425285e-08 1.75754482463434e-08 3.40326469047167e-07
"26" 4533 3.47469450304335e-08 5.98155004482303e-09 4.0934870721019e-08 1.8929403293599e-08 3.41787376732393e-08 3.01106935681758e-08 1.76707031263618e-08 3.41694048643755e-07
"27" 4534 3.46859990733831e-08 5.9342988165919e-09 4.10676912742993e-08 1.89714736022432e-08 3.41943861059164e-08 3.01481094938231e-08 1.77659580063802e-08 3.43061628240344e-07
"28" 4535 3.46250531163328e-08 5.88704758836077e-09 4.12005118275797e-08 1.90135439108874e-08 3.42100345385935e-08 3.01855254194704e-08 1.78612128863986e-08 3.44429207836932e-07
"29" 4536 3.45641071592824e-08 5.83979636012964e-09 4.133333238086e-08 1.90556142195316e-08 3.42256829712707e-08 3.02229413451177e-08 1.79564677664171e-08 3.4579678743352e-07
"30" 4537 3.45027396609615e-08 5.78445925210759e-09 4.13275858468619e-08 1.90914376108679e-08 3.42569126555324e-08 3.02473175400478e-08 1.79319515426278e-08 3.46377002753875e-07
"31" 4538 3.44413721626405e-08 5.72912214408553e-09 4.13218393128638e-08 1.91272610022042e-08 3.42881423397941e-08 3.0271693734978e-08 1.79074353188386e-08 3.46957218074229e-07
"32" 4539 3.43800046643195e-08 5.67378503606347e-09 4.13160927788656e-08 1.91630843935406e-08 3.43193720240559e-08 3.02960699299082e-08 1.78829190950493e-08 3.47537433394583e-07
"33" 4540 3.43547998908818e-08 5.67071314492352e-09 4.11648850109436e-08 1.91902421220396e-08 3.38478347567819e-08 3.00758970616394e-08 1.74447888603714e-08 3.44187033609363e-07
"34" 4541 3.4329595117444e-08 5.66764125378357e-09 4.10136772430215e-08 1.92173998505387e-08 3.3376297489508e-08 2.98557241933706e-08 1.70066586256935e-08 3.40836633824143e-07
"35" 4542 3.43043903440063e-08 5.66456936264361e-09 4.08624694750995e-08 1.92445575790378e-08 3.29047602222341e-08 2.96355513251018e-08 1.65685283910156e-08 3.37486234038923e-07
"36" 4543 3.42791855705685e-08 5.66149747150366e-09 4.07112617071775e-08 1.92717153075369e-08 3.24332229549602e-08 2.9415378456833e-08 1.61303981563377e-08 3.34135834253703e-07
"37" 4544 3.42539807971308e-08 5.6584255803637e-09 4.05600539392554e-08 1.9298873036036e-08 3.19616856876862e-08 2.91952055885643e-08 1.56922679216598e-08 3.30785434468483e-07
"38" 4545 3.4228776023693e-08 5.65535368922375e-09 4.04088461713334e-08 1.9326030764535e-08 3.14901484204123e-08 2.89750327202955e-08 1.52541376869818e-08 3.27435034683262e-07
"39" 4546 3.42035712502553e-08 5.65228179808379e-09 4.02576384034113e-08 1.93531884930341e-08 3.10186111531384e-08 2.87548598520267e-08 1.48160074523039e-08 3.24084634898042e-07
"40" 4547 3.41783664768175e-08 5.64920990694384e-09 4.01064306354893e-08 1.93803462215332e-08 3.05470738858644e-08 2.85346869837579e-08 1.4377877217626e-08 3.20734235112822e-07
"41" 4548 3.41531617033798e-08 5.64613801580389e-09 3.99552228675672e-08 1.94075039500323e-08 3.00755366185905e-08 2.83145141154891e-08 1.39397469829481e-08 3.17383835327602e-07
"42" 4549 3.4127956929942e-08 5.64306612466393e-09 3.98040150996452e-08 1.94346616785313e-08 2.96039993513166e-08 2.80943412472203e-08 1.35016167482702e-08 3.14033435542382e-07
"43" 4550 3.41027521565043e-08 5.63999423352398e-09 3.96528073317231e-08 1.94618194070304e-08 2.91324620840427e-08 2.78741683789516e-08 1.30634865135923e-08 3.10683035757161e-07
"44" 4551 3.40775473830665e-08 5.63692234238402e-09 3.95015995638011e-08 1.94889771355295e-08 2.86609248167687e-08 2.76539955106828e-08 1.26253562789143e-08 3.07332635971941e-07
"45" 4552 3.40523426096288e-08 5.63385045124407e-09 3.9350391795879e-08 1.95161348640286e-08 2.81893875494948e-08 2.7433822642414e-08 1.21872260442364e-08 3.03982236186721e-07
"46" 4553 3.4027137836191e-08 5.63077856010411e-09 3.9199184027957e-08 1.95432925925276e-08 2.77178502822209e-08 2.72136497741452e-08 1.17490958095585e-08 3.00631836401501e-07
"47" 4554 3.40128075545807e-08 5.62269268031319e-09 3.91484844745088e-08 1.95703002809134e-08 2.77413252692759e-08 2.72407988914837e-08 1.17467249909097e-08 2.97834802958023e-07
"48" 4555 3.4007886802803e-08 5.57460072123008e-09 3.88369798274656e-08 1.96063605454656e-08 2.77743437466503e-08 2.71556501132097e-08 1.17160868520405e-08 2.98371209759389e-07
"49" 4556 3.40029660510253e-08 5.52650876214698e-09 3.85254751804224e-08 1.96424208100178e-08 2.78073622240247e-08 2.70705013349356e-08 1.16854487131713e-08 2.98907616560755e-07
"50" 4557 3.39980452992476e-08 5.47841680306388e-09 3.82139705333792e-08 1.967848107457e-08 2.78403807013992e-08 2.69853525566616e-08 1.1654810574302e-08 2.99444023362121e-07
"51" 4558 3.39931245474698e-08 5.43032484398077e-09 3.79024658863359e-08 1.97145413391221e-08 2.78733991787736e-08 2.69002037783875e-08 1.16241724354328e-08 2.99980430163487e-07
"52" 4559 3.39882037956921e-08 5.38223288489767e-09 3.75909612392927e-08 1.97506016036743e-08 2.7906417656148e-08 2.68150550001135e-08 1.15935342965636e-08 3.00516836964853e-07
"53" 4560 3.39832830439144e-08 5.33414092581457e-09 3.72794565922495e-08 1.97866618682265e-08 2.79394361335224e-08 2.67299062218395e-08 1.15628961576943e-08 3.01053243766219e-07
"54" 4561 3.40431021206225e-08 5.28912085787142e-09 3.69439465566789e-08 1.97876843811464e-08 2.79412249266351e-08 2.69484760609453e-08 1.15954241265138e-08 3.0112736415547e-07
"55" 4562 3.41029211973306e-08 5.24410078992827e-09 3.66084365211083e-08 1.97887068940664e-08 2.79430137197478e-08 2.71670459000512e-08 1.16279520953333e-08 3.01201484544721e-07
"56" 4563 3.41086954641017e-08 5.19503778208966e-09 3.62787810451414e-08 1.98087938652283e-08 2.79703396934768e-08 2.7057520926847e-08 1.17302034497288e-08 3.03571783013865e-07
"57" 4564 3.41144697308729e-08 5.14597477425104e-09 3.59491255691746e-08 1.98288808363902e-08 2.79976656672059e-08 2.69479959536428e-08 1.18324548041244e-08 3.05942081483009e-07
"58" 4565 3.41202439976441e-08 5.09691176641243e-09 3.56194700932077e-08 1.98489678075522e-08 2.80249916409349e-08 2.68384709804386e-08 1.19347061585199e-08 3.08312379952153e-07
"59" 4566 3.41260182644153e-08 5.04784875857382e-09 3.52898146172408e-08 1.98690547787141e-08 2.80523176146639e-08 2.67289460072344e-08 1.20369575129155e-08 3.10682678421297e-07
"60" 4567 3.41317925311865e-08 4.9987857507352e-09 3.49601591412739e-08 1.9889141749876e-08 2.80796435883929e-08 2.66194210340302e-08 1.2139208867311e-08 3.13052976890441e-07
"61" 4568 3.41375667979576e-08 4.94972274289659e-09 3.4630503665307e-08 1.9909228721038e-08 2.81069695621219e-08 2.6509896060826e-08 1.22414602217066e-08 3.15423275359585e-07
"62" 4569 3.41433410647288e-08 4.90065973505798e-09 3.43008481893401e-08 1.99293156921999e-08 2.8134295535851e-08 2.64003710876218e-08 1.23437115761021e-08 3.17793573828729e-07
"63" 4570 3.41491153315e-08 4.85159672721936e-09 3.39711927133732e-08 1.99494026633618e-08 2.816162150958e-08 2.62908461144176e-08 1.24459629304977e-08 3.20163872297873e-07
"64" 4571 3.41548895982712e-08 4.80253371938075e-09 3.36415372374064e-08 1.99694896345238e-08 2.8188947483309e-08 2.61813211412134e-08 1.25482142848932e-08 3.22534170767017e-07
"65" 4572 3.41606638650424e-08 4.75347071154214e-09 3.33118817614395e-08 1.99895766056857e-08 2.8216273457038e-08 2.60717961680092e-08 1.26504656392888e-08 3.2490446923616e-07
"66" 4573 3.41664381318136e-08 4.70440770370352e-09 3.29822262854726e-08 2.00096635768476e-08 2.8243599430767e-08 2.5962271194805e-08 1.27527169936844e-08 3.27274767705304e-07
"67" 4574 3.41722123985847e-08 4.65534469586491e-09 3.26525708095057e-08 2.00297505480096e-08 2.8270925404496e-08 2.58527462216008e-08 1.28549683480799e-08 3.29645066174448e-07
"68" 4575 3.41779866653559e-08 4.6062816880263e-09 3.23229153335388e-08 2.00498375191715e-08 2.82982513782251e-08 2.57432212483966e-08 1.29572197024755e-08 3.32015364643592e-07
"69" 4576 3.40896823140249e-08 4.62208501239448e-09 3.23540344494066e-08 2.02125692624483e-08 2.81717887630445e-08 2.57730021360895e-08 1.27351268885943e-08 3.32011236102988e-07
"70" 4577 3.4001377962694e-08 4.63788833676267e-09 3.23851535652744e-08 2.03753010057251e-08 2.80453261478638e-08 2.58027830237823e-08 1.25130340747131e-08 3.32007107562385e-07
"71" 4578 3.33944433966335e-08 4.63862323769902e-09 3.23794287775768e-08 2.032624815344e-08 2.81133292006139e-08 2.55847746456067e-08 1.25402196022849e-08 3.32208631718309e-07
"72" 4579 3.2787508830573e-08 4.63935813863538e-09 3.23737039898791e-08 2.02771953011549e-08 2.81813322533639e-08 2.5366766267431e-08 1.25674051298568e-08 3.32410155874233e-07
"73" 4580 3.21805742645125e-08 4.64009303957174e-09 3.23679792021815e-08 2.02281424488698e-08 2.82493353061139e-08 2.51487578892554e-08 1.25945906574286e-08 3.32611680030157e-07
"74" 4581 3.1573639698452e-08 4.6408279405081e-09 3.23622544144838e-08 2.01790895965848e-08 2.8317338358864e-08 2.49307495110797e-08 1.26217761850004e-08 3.32813204186081e-07
"75" 4582 3.09667051323915e-08 4.64156284144446e-09 3.23565296267862e-08 2.01300367442997e-08 2.8385341411614e-08 2.47127411329041e-08 1.26489617125723e-08 3.33014728342004e-07
"76" 4583 3.0359770566331e-08 4.64229774238082e-09 3.23508048390885e-08 2.00809838920146e-08 2.8453344464364e-08 2.44947327547284e-08 1.26761472401441e-08 3.33216252497928e-07
"77" 4584 2.97528360002705e-08 4.64303264331718e-09 3.23450800513909e-08 2.00319310397295e-08 2.8521347517114e-08 2.42767243765528e-08 1.2703332767716e-08 3.33417776653852e-07
"78" 4585 2.914590143421e-08 4.64376754425353e-09 3.23393552636932e-08 1.99828781874444e-08 2.85893505698641e-08 2.40587159983771e-08 1.27305182952878e-08 3.33619300809776e-07
"79" 4586 2.85389668681495e-08 4.64450244518989e-09 3.23336304759956e-08 1.99338253351593e-08 2.86573536226141e-08 2.38407076202015e-08 1.27577038228596e-08 3.338208249657e-07
"80" 4587 2.7932032302089e-08 4.64523734612625e-09 3.2327905688298e-08 1.98847724828742e-08 2.87253566753641e-08 2.36226992420258e-08 1.27848893504315e-08 3.34022349121624e-07
"81" 4588 2.73250977360286e-08 4.64597224706261e-09 3.23221809006003e-08 1.98357196305891e-08 2.87933597281141e-08 2.34046908638501e-08 1.28120748780033e-08 3.34223873277548e-07
"82" 4589 2.67495783685807e-08 4.65190436951128e-09 3.22874204064991e-08 1.97955693143571e-08 2.8552231943756e-08 2.31685109244457e-08 1.28147689115727e-08 3.33968619882643e-07
"83" 4590 2.67623810934826e-08 4.6090096319405e-09 3.18510970023513e-08 1.97436607898424e-08 2.85369096353862e-08 2.31363868650776e-08 1.27874287419087e-08 3.33528832186751e-07
"84" 4591 2.6713250787552e-08 4.61297319939925e-09 3.18250755609514e-08 1.97535858388154e-08 2.85372021691473e-08 2.31438744564068e-08 1.27403317501716e-08 3.33546011514521e-07
"85" 4592 2.66641204816214e-08 4.616936766858e-09 3.17990541195516e-08 1.97635108877885e-08 2.85374947029084e-08 2.31513620477361e-08 1.26932347584345e-08 3.33563190842292e-07
"86" 4593 2.66149901756909e-08 4.62090033431675e-09 3.17730326781517e-08 1.97734359367616e-08 2.85377872366694e-08 2.31588496390654e-08 1.26461377666975e-08 3.33580370170062e-07
"87" 4594 2.65658598697603e-08 4.62486390177551e-09 3.17470112367519e-08 1.97833609857346e-08 2.85380797704305e-08 2.31663372303947e-08 1.25990407749604e-08 3.33597549497832e-07
"88" 4595 2.65167295638297e-08 4.62882746923426e-09 3.1720989795352e-08 1.97932860347077e-08 2.85383723041916e-08 2.3173824821724e-08 1.25519437832233e-08 3.33614728825602e-07
"89" 4596 2.6721500076595e-08 4.62688537172324e-09 3.16931466059903e-08 1.97910791557085e-08 2.85690215970098e-08 2.31659890711883e-08 1.26334268785752e-08 3.34440218609736e-07
"90" 4597 2.69491464533576e-08 4.62486390177551e-09 3.16390855526277e-08 1.97423763970211e-08 2.85513972851762e-08 2.31645618142208e-08 1.27524533353911e-08 3.34762080298975e-07
"91" 4598 2.71767928301201e-08 4.62284243182777e-09 3.15850244992652e-08 1.96936736383336e-08 2.85337729733427e-08 2.31631345572534e-08 1.2871479792207e-08 3.35083941988214e-07
"92" 4599 2.74044392068826e-08 4.62082096188004e-09 3.15309634459026e-08 1.96449708796461e-08 2.85161486615092e-08 2.31617073002859e-08 1.29905062490229e-08 3.35405803677453e-07
"93" 4600 2.76320855836452e-08 4.61879949193231e-09 3.147690239254e-08 1.95962681209586e-08 2.84985243496757e-08 2.31602800433185e-08 1.31095327058388e-08 3.35727665366692e-07
"94" 4601 2.78597319604077e-08 4.61677802198458e-09 3.14228413391775e-08 1.95475653622712e-08 2.84809000378421e-08 2.3158852786351e-08 1.32285591626547e-08 3.36049527055931e-07
"95" 4602 2.80873783371702e-08 4.61475655203685e-09 3.13687802858149e-08 1.94988626035837e-08 2.84632757260086e-08 2.31574255293836e-08 1.33475856194707e-08 3.3637138874517e-07
"96" 4603 2.83150247139328e-08 4.61273508208911e-09 3.13147192324524e-08 1.94501598448962e-08 2.84456514141751e-08 2.31559982724161e-08 1.34666120762866e-08 3.36693250434409e-07
"97" 4604 2.85426710906953e-08 4.61071361214138e-09 3.12606581790898e-08 1.94014570862088e-08 2.84280271023416e-08 2.31545710154487e-08 1.35856385331025e-08 3.37015112123648e-07
"98" 4605 2.87703174674578e-08 4.60869214219365e-09 3.12065971257272e-08 1.93527543275213e-08 2.8410402790508e-08 2.31531437584813e-08 1.37046649899184e-08 3.37336973812887e-07
"99" 4606 2.89979638442204e-08 4.60667067224592e-09 3.11525360723647e-08 1.93040515688338e-08 2.83927784786745e-08 2.31517165015138e-08 1.38236914467343e-08 3.37658835502126e-07
"100" 4607 2.92256102209829e-08 4.60464920229818e-09 3.10984750190021e-08 1.92553488101463e-08 2.8375154166841e-08 2.31502892445464e-08 1.39427179035502e-08 3.37980697191365e-07
"101" 4608 2.94532565977454e-08 4.60262773235045e-09 3.10444139656396e-08 1.92066460514589e-08 2.83575298550075e-08 2.31488619875789e-08 1.40617443603661e-08 3.38302558880604e-07
"102" 4609 2.9680902974508e-08 4.60060626240272e-09 3.0990352912277e-08 1.91579432927714e-08 2.83399055431739e-08 2.31474347306115e-08 1.4180770817182e-08 3.38624420569843e-07
"103" 4610 2.99085493512705e-08 4.59858479245499e-09 3.09362918589144e-08 1.91092405340839e-08 2.83222812313404e-08 2.3146007473644e-08 1.42997972739979e-08 3.38946282259082e-07
"104" 4611 3.0136195728033e-08 4.59656332250726e-09 3.08822308055519e-08 1.90605377753964e-08 2.83046569195069e-08 2.31445802166766e-08 1.44188237308138e-08 3.39268143948321e-07
"105" 4612 3.03093861860403e-08 4.59065765753749e-09 3.08643409322338e-08 1.90114849231113e-08 2.83108001284894e-08 2.31455055732412e-08 1.45486928439029e-08 3.4015481443723e-07
"106" 4613 3.03038226899044e-08 4.60816890108852e-09 3.04478617448591e-08 1.89557246007263e-08 2.82764916111195e-08 2.29195609692897e-08 1.4512024041736e-08 3.39935278408747e-07
"107" 4614 3.02982591937686e-08 4.62533619741381e-09 3.01500430126754e-08 1.88814485865877e-08 2.8247117901063e-08 2.2795794899267e-08 1.45909569465601e-08 3.41462018460858e-07
"108" 4615 3.03136996754975e-08 4.60150187770349e-09 2.98118891051059e-08 1.88727329103793e-08 2.82533091578256e-08 2.28096595113087e-08 1.45898612231752e-08 3.41829458574584e-07
"109" 4616 3.03291401572264e-08 4.57766755799317e-09 2.94737351975363e-08 1.8864017234171e-08 2.82595004145882e-08 2.28235241233503e-08 1.45887654997903e-08 3.42196898688311e-07
"110" 4617 3.03445806389553e-08 4.55383323828285e-09 2.91355812899667e-08 1.88553015579626e-08 2.82656916713508e-08 2.2837388735392e-08 1.45876697764055e-08 3.42564338802037e-07
"111" 4618 3.03600211206842e-08 4.52999891857253e-09 2.87974273823972e-08 1.88465858817543e-08 2.82718829281135e-08 2.28512533474337e-08 1.45865740530206e-08 3.42931778915764e-07
"112" 4619 3.03754616024131e-08 4.50616459886222e-09 2.84592734748276e-08 1.88378702055459e-08 2.82780741848761e-08 2.28651179594753e-08 1.45854783296357e-08 3.43299219029491e-07
"113" 4620 3.0390902084142e-08 4.4823302791519e-09 2.8121119567258e-08 1.88291545293376e-08 2.82842654416387e-08 2.2878982571517e-08 1.45843826062508e-08 3.43666659143217e-07
"114" 4621 3.0406342565871e-08 4.45849595944158e-09 2.77829656596885e-08 1.88204388531292e-08 2.82904566984013e-08 2.28928471835587e-08 1.4583286882866e-08 3.44034099256944e-07
"115" 4622 3.04217830475999e-08 4.43466163973126e-09 2.74448117521189e-08 1.88117231769209e-08 2.82966479551639e-08 2.29067117956003e-08 1.45821911594811e-08 3.4440153937067e-07
"116" 4623 3.04372235293288e-08 4.41082732002094e-09 2.71066578445493e-08 1.88030075007125e-08 2.83028392119265e-08 2.2920576407642e-08 1.45810954360962e-08 3.44768979484397e-07
"117" 4624 3.04526640110577e-08 4.38699300031062e-09 2.67685039369798e-08 1.87942918245042e-08 2.83090304686892e-08 2.29344410196837e-08 1.45799997127113e-08 3.45136419598124e-07
"118" 4625 3.04681044927866e-08 4.3631586806003e-09 2.64303500294102e-08 1.87855761482958e-08 2.83152217254518e-08 2.29483056317254e-08 1.45789039893265e-08 3.4550385971185e-07
"119" 4626 3.04835449745155e-08 4.33932436088998e-09 2.60921961218406e-08 1.87768604720875e-08 2.83214129822144e-08 2.2962170243767e-08 1.45778082659416e-08 3.45871299825577e-07
"120" 4627 3.04989854562445e-08 4.31549004117967e-09 2.57540422142711e-08 1.87681447958791e-08 2.8327604238977e-08 2.29760348558087e-08 1.45767125425567e-08 3.46238739939303e-07
"121" 4628 3.05144259379734e-08 4.29165572146935e-09 2.54158883067015e-08 1.87594291196708e-08 2.83337954957396e-08 2.29898994678504e-08 1.45756168191719e-08 3.4660618005303e-07
"122" 4629 3.05298664197023e-08 4.26782140175903e-09 2.50777343991319e-08 1.87507134434624e-08 2.83399867525023e-08 2.3003764079892e-08 1.4574521095787e-08 3.46973620166757e-07
"123" 4630 3.05453069014312e-08 4.24398708204871e-09 2.47395804915624e-08 1.87419977672541e-08 2.83461780092649e-08 2.30176286919337e-08 1.45734253724021e-08 3.47341060280483e-07
"124" 4631 3.05607473831601e-08 4.22015276233839e-09 2.44014265839928e-08 1.87332820910457e-08 2.83523692660275e-08 2.30314933039754e-08 1.45723296490172e-08 3.4770850039421e-07
"125" 4632 3.0576187864889e-08 4.19631844262807e-09 2.40632726764232e-08 1.87245664148374e-08 2.83585605227901e-08 2.30453579160171e-08 1.45712339256324e-08 3.48075940507936e-07
"126" 4633 3.05916283466179e-08 4.17248412291775e-09 2.37251187688537e-08 1.8715850738629e-08 2.83647517795527e-08 2.30592225280587e-08 1.45701382022475e-08 3.48443380621663e-07
"127" 4634 3.05424980406874e-08 4.15738924200702e-09 2.34821376037785e-08 1.87673959759065e-08 2.84063353743246e-08 2.33208420237263e-08 1.44569282100096e-08 3.48416808190785e-07
"128" 4635 3.04933677347568e-08 4.14229436109629e-09 2.32391564387033e-08 1.88189412131839e-08 2.84479189690965e-08 2.35824615193939e-08 1.43437182177717e-08 3.48390235759907e-07
"129" 4636 3.04442374288262e-08 4.12719948018556e-09 2.29961752736281e-08 1.88704864504614e-08 2.84895025638684e-08 2.38440810150614e-08 1.42305082255339e-08 3.48363663329029e-07
"130" 4637 3.04218707503985e-08 4.11604367874567e-09 2.30347742744604e-08 1.89172810297826e-08 2.85287122980054e-08 2.39929697170978e-08 1.41151910729405e-08 3.47204363390645e-07
"131" 4638 3.03995040719708e-08 4.10488787730577e-09 2.30733732752928e-08 1.89640756091038e-08 2.85679220321425e-08 2.41418584191343e-08 1.39998739203471e-08 3.46045063452261e-07
"132" 4639 3.0377137393543e-08 4.09373207586587e-09 2.31119722761252e-08 1.9010870188425e-08 2.86071317662795e-08 2.42907471211707e-08 1.38845567677537e-08 3.44885763513877e-07
"133" 4640 3.03547707151153e-08 4.08257627442598e-09 2.31505712769576e-08 1.90576647677462e-08 2.86463415004166e-08 2.44396358232071e-08 1.37692396151603e-08 3.43726463575492e-07
"134" 4641 3.04574262129611e-08 4.11242208902168e-09 2.32641565098779e-08 1.90348089574572e-08 2.87428551191737e-08 2.43479216628828e-08 1.36690675596478e-08 3.42717873186211e-07
"135" 4642 3.04253933195757e-08 4.12061379872823e-09 2.32311960174381e-08 1.90220532429401e-08 2.87428551191737e-08 2.42274994180554e-08 1.35130668501631e-08 3.409295642953e-07
"136" 4643 3.03933604261902e-08 4.12880550843477e-09 2.31982355249983e-08 1.9009297528423e-08 2.87428551191737e-08 2.4107077173228e-08 1.33570661406783e-08 3.3914125540439e-07
"137" 4644 3.03613275328048e-08 4.13699721814132e-09 2.31652750325585e-08 1.8996541813906e-08 2.87428551191737e-08 2.39866549284006e-08 1.32010654311936e-08 3.3735294651348e-07
"138" 4645 3.03292946394193e-08 4.14518892784786e-09 2.31323145401186e-08 1.89837860993889e-08 2.87428551191737e-08 2.38662326835732e-08 1.30450647217088e-08 3.3556463762257e-07
"139" 4646 3.02972617460339e-08 4.15338063755441e-09 2.30993540476788e-08 1.89710303848718e-08 2.87428551191737e-08 2.37458104387459e-08 1.2889064012224e-08 3.33776328731659e-07
"140" 4647 3.02605084390538e-08 4.15338063755441e-09 2.30613842777664e-08 1.89459676955837e-08 2.87560961006698e-08 2.36243185380143e-08 1.27408747797862e-08 3.32617028793275e-07
"141" 4648 3.02382544545102e-08 4.12943851843748e-09 2.30651792918967e-08 1.89102075112581e-08 2.87715047234445e-08 2.36155574309139e-08 1.27013116760665e-08 3.31071560262485e-07
"142" 4649 3.02160004699667e-08 4.10549639932056e-09 2.30689743060269e-08 1.88744473269324e-08 2.87869133462192e-08 2.36067963238135e-08 1.26617485723468e-08 3.29526091731694e-07
"143" 4650 3.01937464854232e-08 4.08155428020364e-09 2.30727693201571e-08 1.88386871426068e-08 2.8802321968994e-08 2.3598035216713e-08 1.26221854686271e-08 3.27980623200904e-07
"144" 4651 3.01714925008797e-08 4.05761216108672e-09 2.30765643342873e-08 1.88029269582811e-08 2.88177305917687e-08 2.35892741096126e-08 1.25826223649075e-08 3.26435154670113e-07
"145" 4652 3.0116099607513e-08 4.05761216108672e-09 2.28564851435898e-08 1.86926893257388e-08 2.88312305164795e-08 2.35854283840145e-08 1.25826223649075e-08 3.2459708447176e-07
"146" 4653 3.00607067141463e-08 4.05761216108672e-09 2.26364059528922e-08 1.85824516931964e-08 2.88447304411904e-08 2.35815826584164e-08 1.25826223649075e-08 3.22759014273408e-07
"147" 4654 3.00053138207795e-08 4.05761216108672e-09 2.24163267621947e-08 1.84722140606541e-08 2.88582303659012e-08 2.35777369328183e-08 1.25826223649075e-08 3.20920944075055e-07
"148" 4655 2.99499209274128e-08 4.05761216108672e-09 2.21962475714972e-08 1.83619764281117e-08 2.88717302906121e-08 2.35738912072202e-08 1.25826223649075e-08 3.19082873876702e-07
"149" 4656 2.98945280340461e-08 4.05761216108672e-09 2.19761683807996e-08 1.82517387955694e-08 2.88852302153229e-08 2.35700454816221e-08 1.25826223649075e-08 3.1724480367835e-07
"150" 4657 2.98391351406793e-08 4.05761216108672e-09 2.17560891901021e-08 1.8141501163027e-08 2.88987301400338e-08 2.3566199756024e-08 1.25826223649075e-08 3.15406733479997e-07
"151" 4658 2.97837422473126e-08 4.05761216108672e-09 2.15360099994045e-08 1.80312635304847e-08 2.89122300647446e-08 2.35623540304258e-08 1.25826223649075e-08 3.13568663281644e-07
"152" 4659 2.97283493539459e-08 4.05761216108672e-09 2.1315930808707e-08 1.79210258979423e-08 2.89257299894555e-08 2.35585083048277e-08 1.25826223649075e-08 3.11730593083292e-07
"153" 4660 2.96729564605792e-08 4.05761216108672e-09 2.10958516180094e-08 1.78107882653999e-08 2.89392299141663e-08 2.35546625792296e-08 1.25826223649075e-08 3.09892522884939e-07
"154" 4661 2.96175635672124e-08 4.05761216108672e-09 2.08757724273119e-08 1.77005506328576e-08 2.89527298388771e-08 2.35508168536315e-08 1.25826223649075e-08 3.08054452686586e-07
"155" 4662 2.95621706738457e-08 4.05761216108672e-09 2.06556932366143e-08 1.75903130003152e-08 2.8966229763588e-08 2.35469711280334e-08 1.25826223649075e-08 3.06216382488233e-07
"156" 4663 2.9506777780479e-08 4.05761216108672e-09 2.04356140459168e-08 1.74800753677729e-08 2.89797296882988e-08 2.35431254024353e-08 1.25826223649075e-08 3.04378312289881e-07
"157" 4664 2.94513848871123e-08 4.05761216108672e-09 2.02155348552193e-08 1.73698377352305e-08 2.89932296130097e-08 2.35392796768372e-08 1.25826223649075e-08 3.02540242091528e-07
"158" 4665 2.93959919937455e-08 4.05761216108672e-09 1.99954556645217e-08 1.72596001026882e-08 2.90067295377205e-08 2.3535433951239e-08 1.25826223649075e-08 3.00702171893175e-07
"159" 4666 2.93405991003788e-08 4.05761216108672e-09 1.97753764738242e-08 1.71493624701458e-08 2.90202294624314e-08 2.35315882256409e-08 1.25826223649075e-08 2.98864101694823e-07
"160" 4667 2.92852062070121e-08 4.05761216108672e-09 1.95552972831266e-08 1.70391248376035e-08 2.90337293871422e-08 2.35277425000428e-08 1.25826223649075e-08 2.9702603149647e-07
"161" 4668 2.9276850530356e-08 4.04466906802726e-09 1.93904695451432e-08 1.68439637092559e-08 2.89848133150311e-08 2.35031655925313e-08 1.25892291023684e-08 2.97709211197156e-07
"162" 4669 2.92792003047011e-08 4.02072694891034e-09 1.93822074992586e-08 1.67949108569708e-08 2.89944095292092e-08 2.33203960607675e-08 1.25915086692349e-08 2.98066539667264e-07
"163" 4670 2.91675818678787e-08 4.01277335651393e-09 1.93375154354141e-08 1.67698481676828e-08 2.84571231648689e-08 2.33112020556484e-08 1.2579654575991e-08 2.97972909695308e-07
"164" 4671 2.90588119585186e-08 3.99366396267763e-09 1.93048369389836e-08 1.67750975787562e-08 2.79044281777539e-08 2.34715245498524e-08 1.26699358555736e-08 2.98595714306632e-07
"165" 4672 2.89407869430191e-08 3.97358352008581e-09 1.92983973469576e-08 1.67920169844161e-08 2.73575455992354e-08 2.34929019315081e-08 1.2653178517572e-08 2.97925720523593e-07
"166" 4673 2.88227619275195e-08 3.953503077494e-09 1.92919577549316e-08 1.6808936390076e-08 2.6810663020717e-08 2.35142793131638e-08 1.26364211795703e-08 2.97255726740555e-07
"167" 4674 2.87055904270135e-08 4.07674604291095e-09 1.99969982400613e-08 1.6904296881611e-08 2.62733766563767e-08 2.3506154963949e-08 1.26222875194601e-08 2.96491302689724e-07
"168" 4675 2.85884189265075e-08 4.19998900832789e-09 2.0702038725191e-08 1.6999657373146e-08 2.57360902920364e-08 2.34980306147341e-08 1.26081538593498e-08 2.95726878638893e-07
"169" 4676 2.84712474260014e-08 4.32323197374484e-09 2.14070792103207e-08 1.70950178646811e-08 2.5198803927696e-08 2.34899062655193e-08 1.25940201992396e-08 2.94962454588061e-07
"170" 4677 2.83540759254954e-08 4.44647493916179e-09 2.21121196954504e-08 1.71903783562161e-08 2.46615175633557e-08 2.34817819163044e-08 1.25798865391293e-08 2.9419803053723e-07
"171" 4678 2.82369044249893e-08 4.56971790457873e-09 2.28171601805801e-08 1.72857388477511e-08 2.41242311990154e-08 2.34736575670895e-08 1.25657528790191e-08 2.93433606486399e-07
"172" 4679 2.81197329244833e-08 4.69296086999568e-09 2.35222006657098e-08 1.73810993392862e-08 2.35869448346751e-08 2.34655332178747e-08 1.25516192189089e-08 2.92669182435568e-07
"173" 4680 2.80025614239773e-08 4.81620383541263e-09 2.42272411508395e-08 1.74764598308212e-08 2.30496584703348e-08 2.34574088686598e-08 1.25374855587986e-08 2.91904758384737e-07
"174" 4681 2.78853899234712e-08 4.93944680082958e-09 2.49322816359692e-08 1.75718203223562e-08 2.25123721059945e-08 2.3449284519445e-08 1.25233518986884e-08 2.91140334333906e-07
"175" 4682 2.77682184229652e-08 5.06268976624652e-09 2.56373221210989e-08 1.76671808138913e-08 2.19750857416542e-08 2.34411601702301e-08 1.25092182385782e-08 2.90375910283075e-07
"176" 4683 2.76510469224591e-08 5.18593273166347e-09 2.63423626062286e-08 1.77625413054263e-08 2.14377993773139e-08 2.34330358210153e-08 1.24950845784679e-08 2.89611486232244e-07
"177" 4684 2.75338754219531e-08 5.30917569708042e-09 2.70474030913583e-08 1.78579017969613e-08 2.09005130129736e-08 2.34249114718004e-08 1.24809509183577e-08 2.88847062181413e-07
"178" 4685 2.7416703921447e-08 5.43241866249737e-09 2.7752443576488e-08 1.79532622884963e-08 2.03632266486333e-08 2.34167871225856e-08 1.24668172582474e-08 2.88082638130581e-07
"179" 4686 2.7299532420941e-08 5.55566162791431e-09 2.84574840616177e-08 1.80486227800314e-08 1.98259402842929e-08 2.34086627733707e-08 1.24526835981372e-08 2.8731821407975e-07
"180" 4687 2.7182360920435e-08 5.67890459333126e-09 2.91625245467474e-08 1.81439832715664e-08 1.92886539199526e-08 2.34005384241559e-08 1.2438549938027e-08 2.86553790028919e-07
"181" 4688 2.70651894199289e-08 5.80214755874821e-09 2.98675650318771e-08 1.82393437631014e-08 1.87513675556123e-08 2.3392414074941e-08 1.24244162779167e-08 2.85789365978088e-07
"182" 4689 2.69480179194229e-08 5.92539052416515e-09 3.05726055170068e-08 1.83347042546365e-08 1.8214081191272e-08 2.33842897257262e-08 1.24102826178065e-08 2.85024941927257e-07
"183" 4690 2.68308464189168e-08 6.0486334895821e-09 3.12776460021365e-08 1.84300647461715e-08 1.76767948269317e-08 2.33761653765113e-08 1.23961489576963e-08 2.84260517876426e-07
"184" 4691 2.68390372394274e-08 5.99460940805032e-09 3.12147378704671e-08 1.83798039017154e-08 1.76745264140142e-08 2.33732450074778e-08 1.24932581388275e-08 2.86749190631771e-07
"185" 4692 2.68428832731241e-08 5.98699385440671e-09 3.12660427908444e-08 1.84674844236016e-08 1.76750443004439e-08 2.33892741096126e-08 1.2469033434804e-08 2.85393996656993e-07
"186" 4693 2.69483059019048e-08 5.96675466694147e-09 3.12123724649935e-08 1.83958140148371e-08 1.77860744834587e-08 2.346687573603e-08 1.24505409089443e-08 2.84052906285164e-07
"187" 4694 2.70537285306854e-08 5.94651547947623e-09 3.11587021391426e-08 1.83241436060725e-08 1.78971046664736e-08 2.35444773624473e-08 1.24320483830846e-08 2.82711815913335e-07
"188" 4695 2.7159151159466e-08 5.92627629201100e-09 3.11050318132917e-08 1.8252473197308e-08 1.80081348494884e-08 2.36220789888647e-08 1.24135558572249e-08 2.81370725541505e-07
"189" 4696 2.72645737882467e-08 5.90603710454576e-09 3.10513614874408e-08 1.81808027885435e-08 1.81191650325033e-08 2.36996806152821e-08 1.23950633313652e-08 2.80029635169676e-07
"190" 4697 2.73699964170273e-08 5.88579791708052e-09 3.09976911615898e-08 1.81091323797789e-08 1.82301952155181e-08 2.37772822416994e-08 1.23765708055055e-08 2.78688544797847e-07
"191" 4698 2.74732591771936e-08 5.92160428109479e-09 3.10628763017375e-08 1.81157530167763e-08 1.83254379275922e-08 2.38523148055754e-08 1.23815127107864e-08 2.78812262016693e-07
"192" 4699 2.757652193736e-08 5.95741064510906e-09 3.11280614418851e-08 1.81223736537736e-08 1.84206806396663e-08 2.39273473694513e-08 1.23864546160673e-08 2.78935979235539e-07
"193" 4700 2.76797846975263e-08 5.99321700912333e-09 3.11932465820327e-08 1.8128994290771e-08 1.85159233517404e-08 2.40023799333273e-08 1.23913965213482e-08 2.79059696454385e-07
"194" 4701 2.77830474576927e-08 6.0290233731376e-09 3.12584317221803e-08 1.81356149277683e-08 1.86111660638145e-08 2.40774124972032e-08 1.23963384266291e-08 2.79183413673232e-07
"195" 4702 2.7886310217859e-08 6.06482973715188e-09 3.13236168623279e-08 1.81422355647657e-08 1.87064087758887e-08 2.41524450610792e-08 1.240128033191e-08 2.79307130892078e-07
"196" 4703 2.7925788925965e-08 6.09459814880186e-09 3.14115713813601e-08 1.81350779743259e-08 1.88252463799689e-08 2.4217643714665e-08 1.23867252397286e-08 2.7900366534064e-07
"197" 4704 2.80345588353251e-08 6.11481284827918e-09 3.1346214388499e-08 1.80235573295559e-08 1.88003185052638e-08 2.41314504587715e-08 1.23295828299694e-08 2.78541626612491e-07
"198" 4705 2.80753021672429e-08 6.105126848712e-09 3.12804442159291e-08 1.79451162436808e-08 1.86920699455175e-08 2.39762818260783e-08 1.22970548611499e-08 2.78038773334851e-07
"199" 4706 2.81160454991606e-08 6.09544084914482e-09 3.12146740433592e-08 1.78666751578056e-08 1.85838213857711e-08 2.38211131933852e-08 1.22645268923304e-08 2.7753592005721e-07
"200" 4707 2.81567888310784e-08 6.08575484957764e-09 3.11489038707893e-08 1.77882340719305e-08 1.84755728260248e-08 2.3665944560692e-08 1.2231998923511e-08 2.77033066779569e-07
"201" 4708 2.81975321629962e-08 6.07606885001046e-09 3.10831336982194e-08 1.77097929860553e-08 1.83673242662785e-08 2.35107759279988e-08 1.21994709546915e-08 2.76530213501929e-07
"202" 4709 2.81933564170086e-08 6.07830001029844e-09 3.11719327934859e-08 1.77097929860553e-08 1.83945158778225e-08 2.33921574249157e-08 1.22181846446389e-08 2.74595385682436e-07
"203" 4710 2.8189180671021e-08 6.08053117058642e-09 3.12607318887524e-08 1.77097929860553e-08 1.84217074893664e-08 2.32735389218326e-08 1.22368983345864e-08 2.72660557862943e-07
"204" 4711 2.81850049250333e-08 6.0827623308744e-09 3.1349530984019e-08 1.77097929860553e-08 1.84488991009104e-08 2.31549204187495e-08 1.22556120245338e-08 2.7072573004345e-07
"205" 4712 2.81808291790457e-08 6.08499349116238e-09 3.14383300792855e-08 1.77097929860553e-08 1.84760907124544e-08 2.30363019156664e-08 1.22743257144812e-08 2.68790902223957e-07
"206" 4713 2.81766534330581e-08 6.08722465145035e-09 3.15271291745521e-08 1.77097929860553e-08 1.85032823239984e-08 2.29176834125833e-08 1.22930394044287e-08 2.66856074404464e-07
"207" 4714 2.81724776870705e-08 6.08945581173833e-09 3.16159282698186e-08 1.77097929860553e-08 1.85304739355424e-08 2.27990649095001e-08 1.23117530943761e-08 2.6492124658497e-07
"208" 4715 2.81683019410829e-08 6.09168697202631e-09 3.17047273650851e-08 1.77097929860553e-08 1.85576655470864e-08 2.2680446406417e-08 1.23304667843236e-08 2.62986418765477e-07
"209" 4716 2.81641261950953e-08 6.09391813231429e-09 3.17935264603517e-08 1.77097929860553e-08 1.85848571586304e-08 2.25618279033339e-08 1.2349180474271e-08 2.61051590945984e-07
"210" 4717 2.81599504491077e-08 6.09614929260227e-09 3.18823255556182e-08 1.77097929860553e-08 1.86120487701744e-08 2.24432094002508e-08 1.23678941642184e-08 2.59116763126491e-07
"211" 4718 2.81557747031201e-08 6.09838045289025e-09 3.19711246508848e-08 1.77097929860553e-08 1.86392403817184e-08 2.23245908971677e-08 1.23866078541659e-08 2.57181935306998e-07
"212" 4719 2.81515989571325e-08 6.10061161317823e-09 3.20599237461513e-08 1.77097929860553e-08 1.86664319932624e-08 2.22059723940846e-08 1.24053215441133e-08 2.55247107487505e-07
"213" 4720 2.81444724222506e-08 6.12174444645325e-09 3.20792018532154e-08 1.76680727710088e-08 1.86571954939378e-08 2.20790162400629e-08 1.23994207931211e-08 2.53254230481203e-07
"214" 4721 2.81373458873688e-08 6.14287727972827e-09 3.20984799602795e-08 1.76263525559622e-08 1.86479589946133e-08 2.19520600860412e-08 1.23935200421288e-08 2.51261353474901e-07
"215" 4722 2.81302193524869e-08 6.1640101130033e-09 3.21177580673436e-08 1.75846323409156e-08 1.86387224952888e-08 2.18251039320195e-08 1.23876192911365e-08 2.49268476468599e-07
"216" 4723 2.81230928176051e-08 6.18514294627832e-09 3.21370361744077e-08 1.7542912125869e-08 1.86294859959642e-08 2.16981477779979e-08 1.23817185401443e-08 2.47275599462297e-07
"217" 4724 2.81159662827232e-08 6.20627577955334e-09 3.21563142814718e-08 1.75011919108225e-08 1.86202494966397e-08 2.15711916239762e-08 1.2375817789152e-08 2.45282722455995e-07
"218" 4725 2.79269847657916e-08 6.21903367026047e-09 3.21405709388291e-08 1.73912161581815e-08 1.86164321005119e-08 2.15753259482534e-08 1.23794706684328e-08 2.45162604710074e-07
"219" 4726 2.79269847657916e-08 6.237803055853e-09 3.21608682984281e-08 1.73427752793954e-08 1.85175446211199e-08 2.15067771749011e-08 1.23845811465421e-08 2.45263462975246e-07
"220" 4727 2.78821428997328e-08 6.28056550602926e-09 3.25026671137149e-08 1.73003694513869e-08 1.84831880559699e-08 2.16036105765946e-08 1.23860387453707e-08 2.45602172618572e-07
"221" 4728 2.78443503567093e-08 6.29434539095873e-09 3.25513926950979e-08 1.72516666926994e-08 1.83903192045306e-08 2.15555043864767e-08 1.24057043156614e-08 2.45636087346944e-07
"222" 4729 2.78065578136858e-08 6.3081252758882e-09 3.26001182764809e-08 1.72029639340119e-08 1.82974503530914e-08 2.15073981963587e-08 1.24253698859521e-08 2.45670002075317e-07
"223" 4730 2.77687652706622e-08 6.32190516081766e-09 3.26488438578639e-08 1.71542611753244e-08 1.82045815016521e-08 2.14592920062407e-08 1.24450354562427e-08 2.45703916803689e-07
"224" 4731 2.77309727276387e-08 6.33568504574713e-09 3.2697569439247e-08 1.7105558416637e-08 1.81117126502128e-08 2.14111858161228e-08 1.24647010265334e-08 2.45737831532061e-07
"225" 4732 2.76931801846152e-08 6.3494649306766e-09 3.274629502063e-08 1.70568556579495e-08 1.80188437987736e-08 2.13630796260048e-08 1.24843665968241e-08 2.45771746260433e-07
"226" 4733 2.76553876415917e-08 6.36324481560606e-09 3.2795020602013e-08 1.7008152899262e-08 1.79259749473343e-08 2.13149734358868e-08 1.25040321671148e-08 2.45805660988806e-07
"227" 4734 2.76175950985681e-08 6.37702470053553e-09 3.2843746183396e-08 1.69594501405745e-08 1.7833106095895e-08 2.12668672457689e-08 1.25236977374055e-08 2.45839575717178e-07
"228" 4735 2.75798025555446e-08 6.390804585465e-09 3.2892471764779e-08 1.69107473818871e-08 1.77402372444558e-08 2.12187610556509e-08 1.25433633076962e-08 2.4587349044555e-07
"229" 4736 2.75420100125211e-08 6.40458447039446e-09 3.2941197346162e-08 1.68620446231996e-08 1.76473683930165e-08 2.11706548655329e-08 1.25630288779869e-08 2.45907405173923e-07
"230" 4737 2.75042174694975e-08 6.41836435532393e-09 3.2989922927545e-08 1.68133418645121e-08 1.75544995415772e-08 2.11225486754149e-08 1.25826944482775e-08 2.45941319902295e-07
"231" 4738 2.7466424926474e-08 6.4321442402534e-09 3.30386485089281e-08 1.67646391058246e-08 1.7461630690138e-08 2.1074442485297e-08 1.26023600185682e-08 2.45975234630667e-07
"232" 4739 2.74286323834505e-08 6.44592412518286e-09 3.30873740903111e-08 1.67159363471372e-08 1.73687618386987e-08 2.1026336295179e-08 1.26220255888589e-08 2.46009149359039e-07
"233" 4740 2.73908398404269e-08 6.45970401011233e-09 3.31360996716941e-08 1.66672335884497e-08 1.72758929872594e-08 2.0978230105061e-08 1.26416911591496e-08 2.46043064087412e-07
"234" 4741 2.73530472974034e-08 6.4734838950418e-09 3.31848252530771e-08 1.66185308297622e-08 1.71830241358202e-08 2.09301239149431e-08 1.26613567294403e-08 2.46076978815784e-07
"235" 4742 2.73152547543799e-08 6.48726377997126e-09 3.32335508344601e-08 1.65698280710748e-08 1.70901552843809e-08 2.08820177248251e-08 1.2681022299731e-08 2.46110893544156e-07
"236" 4743 2.72774622113563e-08 6.50104366490073e-09 3.32822764158431e-08 1.65211253123873e-08 1.69972864329416e-08 2.08339115347071e-08 1.27006878700217e-08 2.46144808272529e-07
"237" 4744 2.72396696683328e-08 6.5148235498302e-09 3.33310019972261e-08 1.64724225536998e-08 1.69044175815024e-08 2.07858053445892e-08 1.27203534403123e-08 2.46178723000901e-07
"238" 4745 2.72018771253093e-08 6.52860343475966e-09 3.33797275786092e-08 1.64237197950123e-08 1.68115487300631e-08 2.07376991544712e-08 1.2740019010603e-08 2.46212637729273e-07
"239" 4746 2.71640845822858e-08 6.54238331968913e-09 3.34284531599922e-08 1.63750170363249e-08 1.67186798786238e-08 2.06895929643532e-08 1.27596845808937e-08 2.46246552457646e-07
"240" 4747 2.71262920392622e-08 6.5561632046186e-09 3.34771787413752e-08 1.63263142776374e-08 1.66258110271846e-08 2.06414867742353e-08 1.27793501511844e-08 2.46280467186018e-07
"241" 4748 2.70845971155999e-08 6.57493259021112e-09 3.35022251287379e-08 1.63416519714368e-08 1.65475114638617e-08 2.05850523750355e-08 1.2808147919677e-08 2.46472293794527e-07
"242" 4749 2.70455399487645e-08 6.56960308130428e-09 3.35032008886718e-08 1.62931860859651e-08 1.64902075792415e-08 2.05134389333102e-08 1.28159593967239e-08 2.46618593902912e-07
"243" 4750 2.70241290467622e-08 6.56356512893999e-09 3.35454868780288e-08 1.62507802579566e-08 1.63936939604844e-08 2.04446015612789e-08 1.28150461769037e-08 2.46976117649026e-07
"244" 4751 2.70027181447599e-08 6.5575271765757e-09 3.35877728673859e-08 1.62083744299481e-08 1.62971803417272e-08 2.03757641892475e-08 1.28141329570835e-08 2.47333641395139e-07
"245" 4752 2.69813072427576e-08 6.5514892242114e-09 3.36300588567429e-08 1.61659686019395e-08 1.620066672297e-08 2.03069268172162e-08 1.28132197372633e-08 2.47691165141253e-07
"246" 4753 2.69598963407553e-08 6.54545127184711e-09 3.36723448460999e-08 1.6123562773931e-08 1.61041531042129e-08 2.02380894451848e-08 1.28123065174431e-08 2.48048688887367e-07
"247" 4754 2.6938485438753e-08 6.53941331948282e-09 3.3714630835457e-08 1.60811569459225e-08 1.60076394854557e-08 2.01692520731535e-08 1.28113932976229e-08 2.48406212633481e-07
"248" 4755 2.69170745367507e-08 6.53337536711853e-09 3.3756916824814e-08 1.6038751117914e-08 1.59111258666985e-08 2.01004147011221e-08 1.28104800778027e-08 2.48763736379595e-07
"249" 4756 2.68956636347484e-08 6.52733741475424e-09 3.3799202814171e-08 1.59963452899054e-08 1.58146122479414e-08 2.00315773290908e-08 1.28095668579825e-08 2.49121260125708e-07
"250" 4757 2.68742527327461e-08 6.52129946238994e-09 3.3841488803528e-08 1.59539394618969e-08 1.57180986291842e-08 1.99627399570595e-08 1.28086536381623e-08 2.49478783871822e-07
"251" 4758 2.68528418307438e-08 6.51526151002565e-09 3.38837747928851e-08 1.59115336338884e-08 1.5621585010427e-08 1.98939025850281e-08 1.28077404183421e-08 2.49836307617936e-07
"252" 4759 2.68314309287415e-08 6.50922355766136e-09 3.39260607822421e-08 1.58691278058799e-08 1.55250713916699e-08 1.98250652129968e-08 1.28068271985219e-08 2.5019383136405e-07
"253" 4760 2.68100200267392e-08 6.50318560529707e-09 3.39683467715991e-08 1.58267219778713e-08 1.54285577729127e-08 1.97562278409654e-08 1.28059139787018e-08 2.50551355110164e-07
"254" 4761 2.64005374697409e-08 6.49439128204869e-09 3.38285436746779e-08 1.57689784560634e-08 1.54002823407293e-08 1.97245962401432e-08 1.2805622458936e-08 2.49614917510639e-07
"255" 4762 2.64114119615683e-08 6.49061094745128e-09 3.3869853904101e-08 1.57265726280549e-08 1.53828451149395e-08 1.96469946137259e-08 1.28032516402873e-08 2.49947835941771e-07
"256" 4763 2.64002286223545e-08 6.48470528248151e-09 3.39098628849799e-08 1.57318470458139e-08 1.53297566079256e-08 1.94100711466246e-08 1.25775484413308e-08 2.46275874559238e-07
"257" 4764 2.63890452831406e-08 6.47879961751173e-09 3.39498718658588e-08 1.57371214635729e-08 1.52766681009117e-08 1.91731476795233e-08 1.23518452423744e-08 2.42603913176705e-07
"258" 4765 2.63778619439268e-08 6.47289395254196e-09 3.39898808467376e-08 1.57423958813319e-08 1.52235795938978e-08 1.8936224212422e-08 1.21261420434179e-08 2.38931951794173e-07
"259" 4766 2.63666786047129e-08 6.46698828757219e-09 3.40298898276165e-08 1.57476702990909e-08 1.51704910868839e-08 1.86993007453207e-08 1.19004388444614e-08 2.3525999041164e-07
"260" 4767 2.63554952654991e-08 6.46108262260242e-09 3.40698988084954e-08 1.57529447168499e-08 1.511740257987e-08 1.84623772782194e-08 1.1674735645505e-08 2.31588029029107e-07
"261" 4768 2.63443119262852e-08 6.45517695763265e-09 3.41099077893743e-08 1.57582191346089e-08 1.50643140728561e-08 1.82254538111181e-08 1.14490324465485e-08 2.27916067646574e-07
"262" 4769 2.63331285870713e-08 6.44927129266288e-09 3.41499167702532e-08 1.57634935523678e-08 1.50112255658422e-08 1.79885303440169e-08 1.12233292475921e-08 2.24244106264042e-07
"263" 4770 2.64370653889526e-08 6.4433391702142e-09 3.41498515313518e-08 1.57686429366991e-08 1.49864124910117e-08 1.77498973158402e-08 1.1010140502457e-08 2.21053165091879e-07
"264" 4771 2.64082357849057e-08 6.44347145760872e-09 3.41895778103246e-08 1.5787932455111e-08 1.4973655805399e-08 1.7513262447418e-08 1.1022781736898e-08 2.19256982901405e-07
"265" 4772 2.66557571376005e-08 6.50959790134799e-09 3.43831164719982e-08 1.58971475747334e-08 1.49435626656353e-08 1.72887419531483e-08 1.08863027546623e-08 2.19292304396239e-07
"266" 4773 2.65763489458518e-08 6.58163001005703e-09 3.45588304992551e-08 1.6003345168967e-08 1.49444258096847e-08 1.72893191505065e-08 1.09401224654295e-08 2.2330945292585e-07
"267" 4774 2.64969407541031e-08 6.65366211876607e-09 3.4734544526512e-08 1.61095427632006e-08 1.49452889537341e-08 1.72898963478647e-08 1.09939421761967e-08 2.27326601455461e-07
"268" 4775 2.64175325623544e-08 6.7256942274751e-09 3.49102585537689e-08 1.62157403574342e-08 1.49461520977835e-08 1.72904735452228e-08 1.10477618869639e-08 2.31343749985072e-07
"269" 4776 2.63381243706056e-08 6.79772633618414e-09 3.50859725810258e-08 1.63219379516678e-08 1.49470152418329e-08 1.7291050742581e-08 1.11015815977311e-08 2.35360898514684e-07
"270" 4777 2.62587161788569e-08 6.86975844489318e-09 3.52616866082827e-08 1.64281355459014e-08 1.49478783858823e-08 1.72916279399392e-08 1.11554013084982e-08 2.39378047044295e-07
"271" 4778 2.61793079871082e-08 6.94179055360222e-09 3.54374006355396e-08 1.65343331401351e-08 1.49487415299316e-08 1.72922051372973e-08 1.12092210192654e-08 2.43395195573906e-07
"272" 4779 2.60998997953595e-08 7.01382266231126e-09 3.56131146627965e-08 1.66405307343687e-08 1.4949604673981e-08 1.72927823346555e-08 1.12630407300326e-08 2.47412344103517e-07
"273" 4780 2.60204916036108e-08 7.0858547710203e-09 3.57888286900534e-08 1.67467283286023e-08 1.49504678180304e-08 1.72933595320137e-08 1.13168604407998e-08 2.51429492633128e-07
"274" 4781 2.60985182929827e-08 7.15198121475956e-09 3.59844058567967e-08 1.68146587792846e-08 1.48061364050353e-08 1.73035541906527e-08 1.14060846575206e-08 2.54846805640587e-07
"275" 4782 2.63093531180917e-08 7.22199185352087e-09 3.61641744419959e-08 1.69246595386111e-08 1.48312994135642e-08 1.72483463358391e-08 1.14942270815927e-08 2.57889859501329e-07
"276" 4783 2.65201879432007e-08 7.29200249228218e-09 3.6343943027195e-08 1.70346602979377e-08 1.48564624220931e-08 1.71931384810254e-08 1.15823695056648e-08 2.60932913362072e-07
"277" 4784 2.67310227683097e-08 7.36201313104348e-09 3.65237116123942e-08 1.71446610572642e-08 1.4881625430622e-08 1.71379306262118e-08 1.16705119297369e-08 2.63975967222814e-07
"278" 4785 2.68784387356868e-08 7.35996520361685e-09 3.65079030308501e-08 1.71565561120205e-08 1.60037621154024e-08 1.71558135887614e-08 1.17110269137998e-08 2.6334199379971e-07
"279" 4786 2.680578563672e-08 7.35768112837106e-09 3.65219109048361e-08 1.71866313391662e-08 1.65564571025175e-08 1.78925252088324e-08 1.18647518901006e-08 2.62906773252015e-07
"280" 4787 2.67331325377533e-08 7.35539705312527e-09 3.6535918778822e-08 1.72167065663119e-08 1.71091520896325e-08 1.86292368289033e-08 1.20184768664014e-08 2.62471552704319e-07
"281" 4788 2.66604794387865e-08 7.35311297787948e-09 3.6549926652808e-08 1.72467817934576e-08 1.76618470767476e-08 1.93659484489742e-08 1.21722018427022e-08 2.62036332156624e-07
"282" 4789 2.65878263398197e-08 7.3508289026337e-09 3.6563934526794e-08 1.72768570206033e-08 1.82145420638626e-08 2.01026600690451e-08 1.2325926819003e-08 2.61601111608928e-07
"283" 4790 2.6515173240853e-08 7.34854482738791e-09 3.65779424007799e-08 1.73069322477489e-08 1.87672370509776e-08 2.0839371689116e-08 1.24796517953038e-08 2.61165891061233e-07
"284" 4791 2.64425201418862e-08 7.34626075214212e-09 3.65919502747659e-08 1.73370074748946e-08 1.93199320380927e-08 2.15760833091869e-08 1.26333767716045e-08 2.60730670513537e-07
"285" 4792 2.63698670429194e-08 7.34397667689633e-09 3.66059581487518e-08 1.73670827020403e-08 1.98726270252077e-08 2.23127949292578e-08 1.27871017479053e-08 2.60295449965842e-07
"286" 4793 2.62972139439527e-08 7.34169260165055e-09 3.66199660227378e-08 1.7397157929186e-08 2.04253220123228e-08 2.30495065493288e-08 1.29408267242061e-08 2.59860229418146e-07
"287" 4794 2.62245608449859e-08 7.33940852640476e-09 3.66339738967238e-08 1.74272331563317e-08 2.09780169994378e-08 2.37862181693997e-08 1.30945517005069e-08 2.5942500887045e-07
"288" 4795 2.61519077460191e-08 7.33712445115897e-09 3.66479817707097e-08 1.74573083834774e-08 2.15307119865529e-08 2.45229297894706e-08 1.32482766768077e-08 2.58989788322755e-07
"289" 4796 2.60792546470524e-08 7.33484037591318e-09 3.66619896446957e-08 1.74873836106231e-08 2.20834069736679e-08 2.52596414095415e-08 1.34020016531085e-08 2.58554567775059e-07
"290" 4797 2.60066015480856e-08 7.3325563006674e-09 3.66759975186816e-08 1.75174588377687e-08 2.26361019607829e-08 2.59963530296124e-08 1.35557266294092e-08 2.58119347227364e-07
"291" 4798 2.59339484491188e-08 7.33027222542161e-09 3.66900053926676e-08 1.75475340649144e-08 2.3188796947898e-08 2.67330646496833e-08 1.370945160571e-08 2.57684126679668e-07
"292" 4799 2.58612953501521e-08 7.32798815017582e-09 3.67040132666536e-08 1.75776092920601e-08 2.3741491935013e-08 2.74697762697542e-08 1.38631765820108e-08 2.57248906131973e-07
"293" 4800 2.57886422511853e-08 7.32570407493003e-09 3.67180211406395e-08 1.76076845192058e-08 2.42941869221281e-08 2.82064878898252e-08 1.40169015583116e-08 2.56813685584277e-07
"294" 4801 2.5778368773907e-08 7.31664714638359e-09 3.6705790110221e-08 1.76076845192058e-08 2.48345665768104e-08 2.89791787367192e-08 1.40626182722662e-08 2.55936989190517e-07
"295" 4802 2.57218865453262e-08 7.31444244357452e-09 3.65802565487881e-08 1.76379966195673e-08 2.53787491703867e-08 2.97567755232587e-08 1.42171335214499e-08 2.5614668480354e-07
"296" 4803 2.57101376736008e-08 7.31420629575537e-09 3.66062779901879e-08 1.75688081633429e-08 2.59274877231103e-08 3.05625910830408e-08 1.43681188382901e-08 2.56735572268502e-07
"297" 4804 2.56983888018753e-08 7.31397014793622e-09 3.66322994315878e-08 1.74996197071184e-08 2.6476226275834e-08 3.1368406642823e-08 1.45191041551303e-08 2.57324459733464e-07
"298" 4805 2.56866399301499e-08 7.31373400011707e-09 3.66583208729877e-08 1.7430431250894e-08 2.70249648285576e-08 3.21742222026052e-08 1.46700894719705e-08 2.57913347198426e-07
"299" 4806 2.56748910584245e-08 7.31349785229791e-09 3.66843423143875e-08 1.73612427946696e-08 2.75737033812812e-08 3.29800377623874e-08 1.48210747888107e-08 2.58502234663388e-07
"300" 4807 2.56655023934964e-08 7.32538855467417e-09 3.66825205664257e-08 1.72619791112994e-08 2.75782593404286e-08 3.31104350695589e-08 1.49869276137023e-08 2.60062918307639e-07
"301" 4808 2.56561137285684e-08 7.33727925705042e-09 3.66806988184638e-08 1.71627154279293e-08 2.7582815299576e-08 3.32408323767304e-08 1.5152780438594e-08 2.6162360195189e-07
"302" 4809 2.56744903820584e-08 7.33704310923127e-09 3.67017116882879e-08 1.70642373842633e-08 2.76418025295914e-08 3.32690511499731e-08 1.5173475210274e-08 2.61726815466982e-07
"303" 4810 2.56928670355485e-08 7.33680696141212e-09 3.6722724558112e-08 1.69657593405973e-08 2.77007897596069e-08 3.32972699232158e-08 1.5194169981954e-08 2.61830028982073e-07
"304" 4811 2.57112436890385e-08 7.33657081359297e-09 3.67437374279361e-08 1.68672812969313e-08 2.77597769896223e-08 3.33254886964585e-08 1.52148647536341e-08 2.61933242497165e-07
"305" 4812 2.57296203425286e-08 7.33633466577382e-09 3.67647502977602e-08 1.67688032532653e-08 2.78187642196378e-08 3.33537074697011e-08 1.52355595253141e-08 2.62036456012257e-07
"306" 4813 2.57479969960186e-08 7.33609851795467e-09 3.67857631675843e-08 1.66703252095994e-08 2.78777514496532e-08 3.33819262429438e-08 1.52562542969941e-08 2.62139669527349e-07
"307" 4814 2.57663736495087e-08 7.33586237013552e-09 3.68067760374084e-08 1.65718471659334e-08 2.79367386796687e-08 3.34101450161865e-08 1.52769490686741e-08 2.6224288304244e-07
"308" 4815 2.57847503029988e-08 7.33562622231636e-09 3.68277889072325e-08 1.64733691222674e-08 2.79957259096841e-08 3.34383637894292e-08 1.52976438403542e-08 2.62346096557532e-07
"309" 4816 2.58031269564888e-08 7.33539007449721e-09 3.68488017770566e-08 1.63748910786014e-08 2.80547131396996e-08 3.34665825626718e-08 1.53183386120342e-08 2.62449310072624e-07
"310" 4817 2.58215036099789e-08 7.33515392667806e-09 3.68698146468806e-08 1.62764130349354e-08 2.8113700369715e-08 3.34948013359145e-08 1.53390333837142e-08 2.62552523587716e-07
"311" 4818 2.58398802634689e-08 7.33491777885891e-09 3.68908275167047e-08 1.61779349912694e-08 2.81726875997305e-08 3.35230201091572e-08 1.53597281553943e-08 2.62655737102807e-07
"312" 4819 2.5858256916959e-08 7.33468163103976e-09 3.69118403865288e-08 1.60794569476034e-08 2.82316748297459e-08 3.35512388823999e-08 1.53804229270743e-08 2.62758950617899e-07
"313" 4820 2.5876633570449e-08 7.33444548322061e-09 3.69328532563529e-08 1.59809789039374e-08 2.82906620597614e-08 3.35794576556425e-08 1.54011176987543e-08 2.62862164132991e-07
"314" 4821 2.58829274552419e-08 7.33649341064724e-09 3.69310315083911e-08 1.5911790447713e-08 2.83028047633842e-08 3.35781746980146e-08 1.54092206955669e-08 2.63904140666564e-07
"315" 4822 2.58892213400348e-08 7.33854133807388e-09 3.69292097604292e-08 1.58426019914885e-08 2.83149474670071e-08 3.35768917403867e-08 1.54173236923795e-08 2.64946117200138e-07
"316" 4823 2.58955152248277e-08 7.34058926550052e-09 3.69273880124674e-08 1.57734135352641e-08 2.83270901706299e-08 3.35756087827588e-08 1.54254266891921e-08 2.65988093733711e-07
"317" 4824 2.58908824555319e-08 7.30680437143398e-09 3.66738902452266e-08 1.58034637557242e-08 2.83373769000475e-08 3.35469006982557e-08 1.54309060081132e-08 2.67030957154425e-07
"318" 4825 2.5909989497679e-08 7.23724350981404e-09 3.62154723034055e-08 1.58037388292652e-08 2.83330943413488e-08 3.35458341896371e-08 1.54426232236835e-08 2.67632810749641e-07
"319" 4826 2.5929096539826e-08 7.1676826481941e-09 3.57570543615845e-08 1.58040139028062e-08 2.83288117826501e-08 3.35447676810186e-08 1.54543404392538e-08 2.68234664344857e-07
"320" 4827 2.59482035819731e-08 7.09812178657417e-09 3.52986364197634e-08 1.58042889763472e-08 2.83245292239514e-08 3.35437011724e-08 1.54660576548241e-08 2.68836517940074e-07
"321" 4828 2.59673106241202e-08 7.02856092495423e-09 3.48402184779423e-08 1.58045640498882e-08 2.83202466652526e-08 3.35426346637814e-08 1.54777748703945e-08 2.6943837153529e-07
"322" 4829 2.60326931969641e-08 6.95768703684402e-09 3.43857688147584e-08 1.58304491986119e-08 2.83412423439554e-08 3.36037617009029e-08 1.55082057759122e-08 2.71448930007663e-07
"323" 4830 2.60980757698081e-08 6.8868131487338e-09 3.39313191515745e-08 1.58563343473355e-08 2.83622380226582e-08 3.36648887380245e-08 1.55386366814299e-08 2.73459488480037e-07
"324" 4831 2.61634583426521e-08 6.81593926062359e-09 3.34768694883906e-08 1.58822194960592e-08 2.8383233701361e-08 3.3726015775146e-08 1.55690675869477e-08 2.75470046952411e-07
"325" 4832 2.6228840915496e-08 6.74506537251337e-09 3.30224198252067e-08 1.59081046447829e-08 2.84042293800637e-08 3.37871428122676e-08 1.55994984924654e-08 2.77480605424785e-07
"326" 4833 2.629422348834e-08 6.67419148440316e-09 3.25679701620229e-08 1.59339897935066e-08 2.84252250587665e-08 3.38482698493891e-08 1.56299293979832e-08 2.79491163897159e-07
"327" 4834 2.63596060611839e-08 6.60331759629295e-09 3.2113520498839e-08 1.59598749422302e-08 2.84462207374693e-08 3.39093968865107e-08 1.56603603035009e-08 2.81501722369533e-07
"328" 4835 2.64249886340279e-08 6.53244370818273e-09 3.16590708356551e-08 1.59857600909539e-08 2.84672164161721e-08 3.39705239236322e-08 1.56907912090187e-08 2.83512280841907e-07
"329" 4836 2.64903712068719e-08 6.46156982007252e-09 3.12046211724712e-08 1.60116452396776e-08 2.84882120948749e-08 3.40316509607538e-08 1.57212221145364e-08 2.85522839314281e-07
"330" 4837 2.64937435370367e-08 6.46025679358224e-09 3.11545283977458e-08 1.57625187479295e-08 2.81325194839799e-08 3.40147655044385e-08 1.57431355565386e-08 2.87583386135458e-07
"331" 4838 2.64971158672016e-08 6.45894376709196e-09 3.11044356230204e-08 1.55133922561815e-08 2.7776826873085e-08 3.39978800481232e-08 1.57650489985408e-08 2.89643932956635e-07
"332" 4839 2.6560714198212e-08 6.42416333628199e-09 3.09012053068056e-08 1.54131414990292e-08 2.67619892895966e-08 3.40547284616281e-08 1.57540903606985e-08 2.91576466638928e-07
"333" 4840 2.64851291121649e-08 6.41883382737516e-09 3.07864478913503e-08 1.54680411616534e-08 2.67404230006055e-08 3.41177783615487e-08 1.57550175112549e-08 2.94025901408665e-07
"334" 4841 2.64095440261179e-08 6.41350431846832e-09 3.0671690475895e-08 1.55229408242777e-08 2.67188567116145e-08 3.41808282614693e-08 1.57559446618113e-08 2.96475336178402e-07
"335" 4842 2.63339589400708e-08 6.40817480956148e-09 3.05569330604397e-08 1.55778404869019e-08 2.66972904226234e-08 3.42438781613899e-08 1.57568718123677e-08 2.98924770948139e-07
"336" 4843 2.62583738540238e-08 6.40284530065464e-09 3.04421756449844e-08 1.56327401495262e-08 2.66757241336323e-08 3.43069280613105e-08 1.57577989629242e-08 3.01374205717877e-07
"337" 4844 2.61256074480956e-08 6.4086715931877e-09 3.0327418229529e-08 1.5633999535662e-08 2.67955350055579e-08 3.43186816871142e-08 1.58096445573269e-08 3.02048604589253e-07
"338" 4845 2.63993769949524e-08 6.40457573833443e-09 3.02186241051798e-08 1.56352589217977e-08 2.6752973037864e-08 3.43208209989225e-08 1.57859572669436e-08 3.04097923420321e-07
"339" 4846 2.66731465418092e-08 6.40047988348116e-09 3.01098299808305e-08 1.56365183079335e-08 2.67104110701702e-08 3.43229603107309e-08 1.57622699765604e-08 3.06147242251388e-07
"340" 4847 2.6946916088666e-08 6.39638402862788e-09 3.00010358564812e-08 1.56377776940693e-08 2.66678491024763e-08 3.43250996225393e-08 1.57385826861771e-08 3.08196561082456e-07
"341" 4848 2.72206856355227e-08 6.39228817377461e-09 2.98922417321319e-08 1.56390370802051e-08 2.66252871347824e-08 3.43272389343476e-08 1.57148953957938e-08 3.10245879913524e-07
"342" 4849 2.74944551823795e-08 6.38819231892134e-09 2.97834476077826e-08 1.56402964663409e-08 2.65827251670885e-08 3.4329378246156e-08 1.56912081054105e-08 3.12295198744591e-07
"343" 4850 2.77682247292363e-08 6.38409646406807e-09 2.96746534834333e-08 1.56415558524767e-08 2.65401631993947e-08 3.43315175579644e-08 1.56675208150273e-08 3.14344517575659e-07
"344" 4851 2.80419942760931e-08 6.38000060921480e-09 2.9565859359084e-08 1.56428152386125e-08 2.64976012317008e-08 3.43336568697727e-08 1.5643833524644e-08 3.16393836406727e-07
"345" 4852 2.83157638229499e-08 6.37590475436152e-09 2.94570652347347e-08 1.56440746247483e-08 2.64550392640069e-08 3.43357961815811e-08 1.56201462342607e-08 3.18443155237795e-07
"346" 4853 2.85895333698067e-08 6.37180889950825e-09 2.93482711103854e-08 1.56453340108841e-08 2.6412477296313e-08 3.43379354933895e-08 1.55964589438774e-08 3.20492474068862e-07
"347" 4854 2.88633029166634e-08 6.36771304465498e-09 2.92394769860361e-08 1.56465933970199e-08 2.63699153286192e-08 3.43400748051978e-08 1.55727716534942e-08 3.2254179289993e-07
"348" 4855 2.91370724635202e-08 6.36361718980171e-09 2.91306828616868e-08 1.56478527831556e-08 2.63273533609253e-08 3.43422141170062e-08 1.55490843631109e-08 3.24591111730998e-07
"349" 4856 2.9410842010377e-08 6.35952133494843e-09 2.90218887373375e-08 1.56491121692914e-08 2.62847913932314e-08 3.43443534288146e-08 1.55253970727276e-08 3.26640430562065e-07
"350" 4857 2.96846115572338e-08 6.35542548009516e-09 2.89130946129882e-08 1.56503715554272e-08 2.62422294255375e-08 3.4346492740623e-08 1.55017097823444e-08 3.28689749393133e-07
"351" 4858 2.99583811040906e-08 6.35132962524189e-09 2.88043004886389e-08 1.5651630941563e-08 2.61996674578437e-08 3.43486320524313e-08 1.54780224919611e-08 3.30739068224201e-07
"352" 4859 3.02437659638841e-08 6.35125025280518e-09 2.88154680680249e-08 1.5651630941563e-08 2.62178815132779e-08 3.43509846659634e-08 1.54642259775077e-08 3.3258755644487e-07
"353" 4860 3.05291508236776e-08 6.35117088036846e-09 2.88266356474109e-08 1.5651630941563e-08 2.62360955687122e-08 3.43533372794955e-08 1.54504294630544e-08 3.3443604466554e-07
"354" 4861 3.09356867764625e-08 6.34933264328208e-09 2.88137325993682e-08 1.55733398958011e-08 2.6244766133827e-08 3.42449572591509e-08 1.54137606608875e-08 3.35154023080152e-07
"355" 4862 3.13422227292475e-08 6.34749440619569e-09 2.88008295513254e-08 1.54950488500392e-08 2.62534366989418e-08 3.41365772388062e-08 1.53770918587206e-08 3.35872001494765e-07
"356" 4863 3.17487586820324e-08 6.3456561691093e-09 2.87879265032827e-08 1.54167578042774e-08 2.62621072640567e-08 3.40281972184616e-08 1.53404230565537e-08 3.36589979909378e-07
"357" 4864 3.21552946348173e-08 6.34381793202291e-09 2.87750234552399e-08 1.53384667585155e-08 2.62707778291715e-08 3.39198171981169e-08 1.53037542543868e-08 3.37307958323991e-07
"358" 4865 3.25618305876023e-08 6.34197969493652e-09 2.87621204071972e-08 1.52601757127536e-08 2.62794483942863e-08 3.38114371777723e-08 1.52670854522199e-08 3.38025936738604e-07
"359" 4866 3.28552831415699e-08 6.33819936033911e-09 2.87571756627293e-08 1.53112353905535e-08 2.6461833863608e-08 3.3773387641525e-08 1.52738607625093e-08 3.36771709713701e-07
"360" 4867 3.31487356955376e-08 6.3344190257417e-09 2.87522309182614e-08 1.53622950683533e-08 2.66442193329297e-08 3.37353381052777e-08 1.52806360727987e-08 3.35517482688798e-07
"361" 4868 3.32525786053486e-08 6.33258078865531e-09 2.87334733106149e-08 1.52977822500285e-08 2.66387521819529e-08 3.36890230677617e-08 1.52421021704684e-08 3.34197309149732e-07
"362" 4869 3.33564215151596e-08 6.33074255156893e-09 2.87147157029685e-08 1.52332694317036e-08 2.6633285030976e-08 3.36427080302456e-08 1.52035682681381e-08 3.32877135610666e-07
"363" 4870 3.34602644249706e-08 6.32890431448254e-09 2.86959580953221e-08 1.51687566133788e-08 2.66278178799992e-08 3.35963929927295e-08 1.51650343658077e-08 3.31556962071601e-07
"364" 4871 3.35641073347816e-08 6.32706607739615e-09 2.86772004876757e-08 1.5104243795054e-08 2.66223507290223e-08 3.35500779552134e-08 1.51265004634774e-08 3.30236788532535e-07
"365" 4872 3.36679502445926e-08 6.32522784030976e-09 2.86584428800292e-08 1.50397309767292e-08 2.66168835780455e-08 3.35037629176974e-08 1.50879665611471e-08 3.28916614993469e-07
"366" 4873 3.3706277022771e-08 6.32113198545649e-09 2.85325613777889e-08 1.5043484128451e-08 2.66027458619538e-08 3.33139733127644e-08 1.50765022048194e-08 3.28923819258895e-07
"367" 4874 3.37945813741019e-08 6.32333668826556e-09 2.85299378402968e-08 1.5055504216635e-08 2.65524389782084e-08 3.33719761209855e-08 1.50553017146541e-08 3.28712901516266e-07
"368" 4875 3.38828857254329e-08 6.32554139107464e-09 2.85273143028047e-08 1.50675243048191e-08 2.6502132094463e-08 3.34299789292067e-08 1.50341012244887e-08 3.28501983773636e-07
"369" 4876 3.39711900767639e-08 6.32774609388371e-09 2.85246907653127e-08 1.50795443930031e-08 2.64518252107176e-08 3.34879817374278e-08 1.50129007343234e-08 3.28291066031007e-07
"370" 4877 3.40594944280949e-08 6.32995079669279e-09 2.85220672278206e-08 1.50915644811872e-08 2.64015183269722e-08 3.3545984545649e-08 1.4991700244158e-08 3.28080148288377e-07
"371" 4878 3.41477987794259e-08 6.33215549950186e-09 2.85194436903285e-08 1.51035845693713e-08 2.63512114432268e-08 3.36039873538701e-08 1.49704997539927e-08 3.27869230545748e-07
"372" 4879 3.41242697386183e-08 6.33609260948171e-09 2.85195741681313e-08 1.51018264301183e-08 2.76202315645217e-08 3.36531411688931e-08 1.49934284666479e-08 3.31713061158135e-07
"373" 4880 3.38726352346494e-08 6.3397671141635e-09 2.84925762609007e-08 1.4935204688646e-08 2.89254208534704e-08 3.36660961607981e-08 1.50417162672347e-08 3.35760827453109e-07
"374" 4881 3.36210007306805e-08 6.34344161884529e-09 2.84655783536702e-08 1.47685829471737e-08 3.0230610142419e-08 3.36790511527031e-08 1.50900040678214e-08 3.39808593748083e-07
"375" 4882 3.33693662267117e-08 6.34711612352709e-09 2.84385804464396e-08 1.46019612057014e-08 3.15357994313676e-08 3.36920061446081e-08 1.51382918684082e-08 3.43856360043056e-07
"376" 4883 3.31177317227428e-08 6.35079062820888e-09 2.8411582539209e-08 1.44353394642291e-08 3.28409887203162e-08 3.37049611365131e-08 1.51865796689949e-08 3.4790412633803e-07
"377" 4884 3.28660972187739e-08 6.35446513289067e-09 2.83845846319784e-08 1.42687177227568e-08 3.41461780092649e-08 3.37179161284181e-08 1.52348674695816e-08 3.51951892633004e-07
"378" 4885 3.2614462714805e-08 6.35813963757246e-09 2.83575867247478e-08 1.41020959812845e-08 3.54513672982135e-08 3.37308711203231e-08 1.52831552701684e-08 3.55999658927977e-07
"379" 4886 3.23628282108362e-08 6.36181414225425e-09 2.83305888175173e-08 1.39354742398122e-08 3.67565565871621e-08 3.37438261122281e-08 1.53314430707551e-08 3.60047425222951e-07
"380" 4887 3.21111937068673e-08 6.36548864693605e-09 2.83035909102867e-08 1.376885249834e-08 3.80617458761107e-08 3.37567811041331e-08 1.53797308713418e-08 3.64095191517925e-07
"381" 4888 3.19247310051071e-08 6.381080311473e-09 2.8267550208045e-08 1.36486516164994e-08 3.81211791353847e-08 3.38469174135792e-08 1.54364727451343e-08 3.64074909052357e-07
"382" 4889 3.17382683033469e-08 6.39667197600995e-09 2.82315095058033e-08 1.35284507346588e-08 3.81806123946587e-08 3.39370537230253e-08 1.54932146189267e-08 3.6405462658679e-07
"383" 4890 3.15518056015867e-08 6.4122636405469e-09 2.81954688035616e-08 1.34082498528183e-08 3.82400456539327e-08 3.40271900324714e-08 1.55499564927192e-08 3.64034344121223e-07
"384" 4891 3.13653428998264e-08 6.42785530508385e-09 2.81594281013199e-08 1.32880489709777e-08 3.82994789132066e-08 3.41173263419176e-08 1.56066983665116e-08 3.64014061655656e-07
"385" 4892 3.11788801980662e-08 6.4434469696208e-09 2.81233873990782e-08 1.31678480891371e-08 3.83589121724806e-08 3.42074626513637e-08 1.56634402403041e-08 3.63993779190089e-07
"386" 4893 3.0992417496306e-08 6.45903863415776e-09 2.80873466968365e-08 1.30476472072966e-08 3.84183454317546e-08 3.42975989608098e-08 1.57201821140965e-08 3.63973496724522e-07
"387" 4894 3.08059547945458e-08 6.47463029869471e-09 2.80513059945947e-08 1.2927446325456e-08 3.84777786910286e-08 3.43877352702559e-08 1.57769239878889e-08 3.63953214258954e-07
"388" 4895 3.06194920927856e-08 6.49022196323166e-09 2.8015265292353e-08 1.28072454436154e-08 3.85372119503025e-08 3.4477871579702e-08 1.58336658616814e-08 3.63932931793387e-07
"389" 4896 3.06503730562434e-08 6.48599579047485e-09 2.75965090965001e-08 1.27840909336936e-08 3.86009277682752e-08 3.43063978353373e-08 1.5878483286552e-08 3.63933901403049e-07
"390" 4897 3.06582091148778e-08 6.46578109099753e-09 2.7594232088022e-08 1.27687532398943e-08 3.86722303307234e-08 3.43974720904905e-08 1.59343119405243e-08 3.63893862154409e-07
"391" 4898 3.06660451735121e-08 6.44556639152021e-09 2.75919550795439e-08 1.27534155460949e-08 3.87435328931716e-08 3.44885463456436e-08 1.59901405944965e-08 3.63853822905769e-07
"392" 4899 3.06738812321465e-08 6.42535169204289e-09 2.75896780710658e-08 1.27380778522955e-08 3.88148354556197e-08 3.45796206007967e-08 1.60459692484688e-08 3.63813783657128e-07
"393" 4900 3.06817172907808e-08 6.40513699256557e-09 2.75874010625876e-08 1.27227401584961e-08 3.88861380180679e-08 3.46706948559499e-08 1.6101797902441e-08 3.63773744408488e-07
"394" 4901 3.06895533494152e-08 6.38492229308825e-09 2.75851240541095e-08 1.27074024646968e-08 3.89574405805161e-08 3.4761769111103e-08 1.61576265564133e-08 3.63733705159848e-07
"395" 4902 3.06973894080496e-08 6.36470759361093e-09 2.75828470456314e-08 1.26920647708974e-08 3.90287431429643e-08 3.48528433662561e-08 1.62134552103855e-08 3.63693665911207e-07
"396" 4903 3.07415572323934e-08 6.32966258801192e-09 2.78856757611843e-08 1.26580613452311e-08 3.91509521139138e-08 3.48199288078061e-08 1.63114497498645e-08 3.65527966355614e-07
"397" 4904 3.08423617090113e-08 6.29579832150867e-09 2.79474131221124e-08 1.26750439579016e-08 3.92411209804109e-08 3.49458937501645e-08 1.6316981660045e-08 3.65840267562311e-07
"398" 4905 3.09431661856293e-08 6.26193405500541e-09 2.80091504830405e-08 1.26920265705722e-08 3.9331289846908e-08 3.5071858692523e-08 1.63225135702254e-08 3.66152568769009e-07
"399" 4906 3.10439706622472e-08 6.22806978850216e-09 2.80708878439686e-08 1.27090091832428e-08 3.94214587134051e-08 3.51978236348815e-08 1.63280454804059e-08 3.66464869975706e-07
"400" 4907 3.11447751388651e-08 6.19420552199891e-09 2.81326252048967e-08 1.27259917959134e-08 3.95116275799022e-08 3.53237885772399e-08 1.63335773905863e-08 3.66777171182404e-07
"401" 4908 3.1245579615483e-08 6.16034125549566e-09 2.81943625658248e-08 1.2742974408584e-08 3.96017964463993e-08 3.54497535195984e-08 1.63391093007668e-08 3.67089472389101e-07
"402" 4909 3.13463840921009e-08 6.1264769889924e-09 2.82560999267529e-08 1.27599570212545e-08 3.96919653128964e-08 3.55757184619568e-08 1.63446412109472e-08 3.67401773595798e-07
"403" 4910 3.14471885687188e-08 6.09261272248915e-09 2.8317837287681e-08 1.27769396339251e-08 3.97821341793935e-08 3.57016834043153e-08 1.63501731211277e-08 3.67714074802496e-07
"404" 4911 3.15479930453367e-08 6.0587484559859e-09 2.83795746486091e-08 1.27939222465957e-08 3.98723030458906e-08 3.58276483466737e-08 1.63557050313081e-08 3.68026376009193e-07
"405" 4912 3.16487975219546e-08 6.02488418948265e-09 2.84413120095372e-08 1.28109048592663e-08 3.99624719123877e-08 3.59536132890322e-08 1.63612369414886e-08 3.6833867721589e-07
"406" 4913 3.17496019985725e-08 5.9910199229794e-09 2.85030493704653e-08 1.28278874719369e-08 4.00526407788848e-08 3.60795782313907e-08 1.6366768851669e-08 3.68650978422588e-07
"407" 4914 3.18504064751905e-08 5.95715565647614e-09 2.85647867313934e-08 1.28448700846075e-08 4.01428096453819e-08 3.62055431737491e-08 1.63723007618494e-08 3.68963279629285e-07
"408" 4915 3.19512109518084e-08 5.92329138997289e-09 2.86265240923215e-08 1.2861852697278e-08 4.0232978511879e-08 3.63315081161076e-08 1.63778326720299e-08 3.69275580835983e-07
"409" 4916 3.20520154284263e-08 5.88942712346964e-09 2.86882614532496e-08 1.28788353099486e-08 4.03231473783761e-08 3.6457473058466e-08 1.63833645822103e-08 3.6958788204268e-07
"410" 4917 3.21528199050442e-08 5.85556285696639e-09 2.87499988141777e-08 1.28958179226192e-08 4.04133162448732e-08 3.65834380008245e-08 1.63888964923908e-08 3.69900183249377e-07
"411" 4918 3.22136719700243e-08 5.84545550722773e-09 2.86039721764416e-08 1.28865784866081e-08 4.04996821724763e-08 3.67489424442107e-08 1.63153021951319e-08 3.69613095762677e-07
"412" 4919 3.22745240350044e-08 5.83534815748907e-09 2.84579455387056e-08 1.2877339050597e-08 4.05860481000795e-08 3.69144468875968e-08 1.6241707897873e-08 3.69326008275976e-07
"413" 4920 3.23311606872784e-08 5.83361575031829e-09 2.85197481385351e-08 1.29544221041879e-08 4.06542862866533e-08 3.70810178396016e-08 1.621274852192e-08 3.68249921738024e-07
"414" 4921 3.23877973395525e-08 5.83188334314752e-09 2.85815507383646e-08 1.30315051577787e-08 4.07225244732271e-08 3.72475887916063e-08 1.61837891459671e-08 3.67173835200072e-07
"415" 4922 3.24444339918265e-08 5.83015093597675e-09 2.86433533381941e-08 1.31085882113696e-08 4.07907626598009e-08 3.74141597436111e-08 1.61548297700142e-08 3.6609774866212e-07
"416" 4923 3.25010706441006e-08 5.82841852880598e-09 2.87051559380236e-08 1.31856712649605e-08 4.08590008463747e-08 3.75807306956158e-08 1.61258703940612e-08 3.65021662124169e-07
"417" 4924 3.2404919801683e-08 5.84928678729196e-09 2.87039199283808e-08 1.3206793942682e-08 4.0901155051435e-08 3.75884221468121e-08 1.61067631335152e-08 3.65803600745236e-07
"418" 4925 3.26591565804412e-08 5.85766172985985e-09 2.8707888207018e-08 1.32050608101145e-08 4.08707982923778e-08 3.76078766656687e-08 1.66438993446427e-08 3.66337072271836e-07
"419" 4926 3.29133933591995e-08 5.86603667242773e-09 2.87118564856552e-08 1.32033276775471e-08 4.08404415333207e-08 3.76273311845254e-08 1.71810355557703e-08 3.66870543798437e-07
"420" 4927 3.31676301379577e-08 5.87441161499562e-09 2.87158247642923e-08 1.32015945449796e-08 4.08100847742636e-08 3.76467857033821e-08 1.77181717668979e-08 3.67404015325038e-07
"421" 4928 3.3421866916716e-08 5.88278655756351e-09 2.87197930429295e-08 1.31998614124122e-08 4.07797280152065e-08 3.76662402222387e-08 1.82553079780254e-08 3.67937486851639e-07
"422" 4929 3.36761036954743e-08 5.8911615001314e-09 2.87237613215667e-08 1.31981282798447e-08 4.07493712561494e-08 3.76856947410954e-08 1.8792444189153e-08 3.6847095837824e-07
"423" 4930 3.39303404742325e-08 5.89953644269929e-09 2.87277296002039e-08 1.31963951472772e-08 4.07190144970923e-08 3.77051492599521e-08 1.93295804002805e-08 3.6900442990484e-07
"424" 4931 3.41845772529908e-08 5.90791138526717e-09 2.87316978788411e-08 1.31946620147098e-08 4.06886577380352e-08 3.77246037788087e-08 1.98667166114081e-08 3.69537901431441e-07
"425" 4932 3.45394640846738e-08 5.91116650926847e-09 2.8569016671533e-08 1.31545617118489e-08 4.06691391853716e-08 3.76957451003949e-08 2.03194862246816e-08 3.69994786699777e-07
"426" 4933 3.48943509163567e-08 5.91442163326977e-09 2.84063354642249e-08 1.3114461408988e-08 4.0649620632708e-08 3.76668864219811e-08 2.07722558379551e-08 3.70451671968114e-07
"427" 4934 3.52492377480397e-08 5.91767675727107e-09 2.82436542569167e-08 1.30743611061271e-08 4.06301020800444e-08 3.76380277435672e-08 2.12250254512285e-08 3.7090855723645e-07
"428" 4935 3.56041245797227e-08 5.92093188127236e-09 2.80809730496086e-08 1.30342608032661e-08 4.06105835273808e-08 3.76091690651534e-08 2.1677795064502e-08 3.71365442504786e-07
"429" 4936 3.59590114114057e-08 5.92418700527366e-09 2.79182918423005e-08 1.29941605004052e-08 4.05910649747172e-08 3.75803103867396e-08 2.21305646777755e-08 3.71822327773122e-07
"430" 4937 3.60013177820694e-08 5.93544863662917e-09 2.77533771191152e-08 1.29639852465174e-08 4.05723377089319e-08 3.75803103867396e-08 2.21216536436613e-08 3.71234935600316e-07
"431" 4938 3.60440456940037e-08 5.95479614777562e-09 2.77270294832083e-08 1.29400569099374e-08 4.0538029191562e-08 3.75933501174567e-08 2.22325137133548e-08 3.71434907703744e-07
"432" 4939 3.60867736059381e-08 5.97414365892206e-09 2.77006818473015e-08 1.29161285733574e-08 4.05037206741921e-08 3.76063898481739e-08 2.23433737830482e-08 3.71634879807171e-07
"433" 4940 3.61295015178724e-08 5.9934911700685e-09 2.76743342113946e-08 1.28922002367774e-08 4.04694121568222e-08 3.76194295788911e-08 2.24542338527417e-08 3.71834851910599e-07
"434" 4941 3.61722294298068e-08 6.01283868121494e-09 2.76479865754877e-08 1.28682719001973e-08 4.04351036394523e-08 3.76324693096082e-08 2.25650939224351e-08 3.72034824014027e-07
"435" 4942 3.62149573417411e-08 6.03218619236138e-09 2.76216389395809e-08 1.28443435636173e-08 4.04007951220823e-08 3.76455090403254e-08 2.26759539921286e-08 3.72234796117454e-07
"436" 4943 3.62576852536755e-08 6.05153370350782e-09 2.7595291303674e-08 1.28204152270373e-08 4.03664866047124e-08 3.76585487710425e-08 2.27868140618221e-08 3.72434768220882e-07
"437" 4944 3.63004131656098e-08 6.07088121465426e-09 2.75689436677671e-08 1.27964868904573e-08 4.03321780873425e-08 3.76715885017597e-08 2.28976741315155e-08 3.7263474032431e-07
"438" 4945 3.63431410775442e-08 6.09022872580071e-09 2.75425960318602e-08 1.27725585538773e-08 4.02978695699726e-08 3.76846282324768e-08 2.3008534201209e-08 3.72834712427737e-07
"439" 4946 3.67175460601926e-08 6.0892576770452e-09 2.75145136331934e-08 1.27405383276339e-08 4.03119592382842e-08 3.76681599377522e-08 2.30248314466165e-08 3.72819891251474e-07
"440" 4947 3.7091951042841e-08 6.08828662828969e-09 2.74864312345265e-08 1.27085181013905e-08 4.03260489065958e-08 3.76516916430276e-08 2.3041128692024e-08 3.7280507007521e-07
"441" 4948 3.74663560254894e-08 6.08731557953418e-09 2.74583488358597e-08 1.26764978751471e-08 4.03401385749074e-08 3.7635223348303e-08 2.30574259374315e-08 3.72790248898947e-07
"442" 4949 3.78407610081378e-08 6.08634453077867e-09 2.74302664371928e-08 1.26444776489036e-08 4.0354228243219e-08 3.76187550535784e-08 2.3073723182839e-08 3.72775427722683e-07
"443" 4950 3.82151659907861e-08 6.08537348202316e-09 2.74021840385259e-08 1.26124574226602e-08 4.03683179115305e-08 3.76022867588537e-08 2.30900204282465e-08 3.7276060654642e-07
"444" 4951 3.85895709734345e-08 6.08440243326765e-09 2.73741016398591e-08 1.25804371964168e-08 4.03824075798421e-08 3.75858184641291e-08 2.3106317673654e-08 3.72745785370156e-07
"445" 4952 3.89639759560829e-08 6.08343138451214e-09 2.73460192411922e-08 1.25484169701734e-08 4.03964972481537e-08 3.75693501694045e-08 2.31226149190615e-08 3.72730964193893e-07
"446" 4953 3.93383809387313e-08 6.08246033575663e-09 2.73179368425254e-08 1.25163967439299e-08 4.04105869164653e-08 3.75528818746799e-08 2.31389121644691e-08 3.7271614301763e-07
"447" 4954 3.97127859213797e-08 6.08148928700112e-09 2.72898544438585e-08 1.24843765176865e-08 4.04246765847769e-08 3.75364135799553e-08 2.31552094098766e-08 3.72701321841366e-07
"448" 4955 4.00871909040281e-08 6.08051823824561e-09 2.72617720451916e-08 1.24523562914431e-08 4.04387662530885e-08 3.75199452852307e-08 2.31715066552841e-08 3.72686500665103e-07
"449" 4956 4.04615958866765e-08 6.0795471894901e-09 2.72336896465248e-08 1.24203360651997e-08 4.04528559214001e-08 3.7503476990506e-08 2.31878039006916e-08 3.72671679488839e-07
"450" 4957 4.08360008693249e-08 6.07857614073459e-09 2.72056072478579e-08 1.23883158389562e-08 4.04669455897117e-08 3.74870086957814e-08 2.32041011460991e-08 3.72656858312576e-07
"451" 4958 4.12104058519733e-08 6.07760509197908e-09 2.7177524849191e-08 1.23562956127128e-08 4.04810352580232e-08 3.74705404010568e-08 2.32203983915066e-08 3.72642037136312e-07
"452" 4959 4.15848108346217e-08 6.07663404322357e-09 2.71494424505242e-08 1.23242753864694e-08 4.04951249263348e-08 3.74540721063322e-08 2.32366956369141e-08 3.72627215960049e-07
"453" 4960 4.19592158172701e-08 6.07566299446806e-09 2.71213600518573e-08 1.2292255160226e-08 4.05092145946464e-08 3.74376038116076e-08 2.32529928823216e-08 3.72612394783785e-07
"454" 4961 4.19844205907078e-08 6.07873488560801e-09 2.71720596053055e-08 1.22564317688896e-08 4.04991914845222e-08 3.74014739908738e-08 2.32532844020873e-08 3.72025669227128e-07
"455" 4962 4.19356972089148e-08 6.07469194571255e-09 2.71746831427975e-08 1.22615811532209e-08 4.09797207651397e-08 3.70637648645684e-08 2.31912000870472e-08 3.71896130481527e-07
"456" 4963 4.18869738271217e-08 6.07064900581708e-09 2.71773066802896e-08 1.22667305375522e-08 4.14602500457572e-08 3.67260557382631e-08 2.31291157720071e-08 3.71766591735926e-07
"457" 4964 4.18922952552655e-08 6.07064900581708e-09 2.7174075658178e-08 1.22528154636415e-08 4.19152421457583e-08 3.67164414242678e-08 2.2997308071391e-08 3.69340874910432e-07
"458" 4965 4.18976166834093e-08 6.07064900581708e-09 2.71708446360664e-08 1.22389003897308e-08 4.23702342457595e-08 3.67068271102725e-08 2.28655003707748e-08 3.66915158084938e-07
"459" 4966 4.19029381115532e-08 6.07064900581708e-09 2.71676136139548e-08 1.222498531582e-08 4.28252263457606e-08 3.66972127962773e-08 2.27336926701587e-08 3.64489441259443e-07
"460" 4967 4.1908259539697e-08 6.07064900581708e-09 2.71643825918432e-08 1.22110702419093e-08 4.32802184457618e-08 3.6687598482282e-08 2.26018849695425e-08 3.62063724433949e-07
"461" 4968 4.19135809678408e-08 6.07064900581708e-09 2.71611515697315e-08 1.21971551679986e-08 4.3735210545763e-08 3.66779841682867e-08 2.24700772689264e-08 3.59638007608455e-07
"462" 4969 4.19189023959846e-08 6.07064900581708e-09 2.71579205476199e-08 1.21832400940879e-08 4.41902026457641e-08 3.66683698542914e-08 2.23382695683102e-08 3.57212290782961e-07
"463" 4970 4.19242238241284e-08 6.07064900581708e-09 2.71546895255083e-08 1.21693250201772e-08 4.46451947457653e-08 3.66587555402961e-08 2.22064618676941e-08 3.54786573957467e-07
"464" 4971 4.19295452522723e-08 6.07064900581708e-09 2.71514585033967e-08 1.21554099462665e-08 4.51001868457664e-08 3.66491412263008e-08 2.20746541670779e-08 3.52360857131973e-07
"465" 4972 4.19348666804161e-08 6.07064900581708e-09 2.71482274812851e-08 1.21414948723558e-08 4.55551789457676e-08 3.66395269123056e-08 2.19428464664618e-08 3.49935140306479e-07
"466" 4973 4.19401881085599e-08 6.07064900581708e-09 2.71449964591735e-08 1.21275797984451e-08 4.60101710457687e-08 3.66299125983103e-08 2.18110387658456e-08 3.47509423480985e-07
"467" 4974 4.19455095367037e-08 6.07064900581708e-09 2.71417654370619e-08 1.21136647245344e-08 4.64651631457699e-08 3.6620298284315e-08 2.16792310652294e-08 3.45083706655491e-07
"468" 4975 4.19508309648476e-08 6.07064900581708e-09 2.71385344149503e-08 1.20997496506237e-08 4.69201552457711e-08 3.66106839703197e-08 2.15474233646133e-08 3.42657989829997e-07
"469" 4976 4.19561523929914e-08 6.07064900581708e-09 2.71353033928387e-08 1.2085834576713e-08 4.73751473457722e-08 3.66010696563244e-08 2.14156156639971e-08 3.40232273004503e-07
"470" 4977 4.19490717725994e-08 6.05458307615084e-09 2.70232782463777e-08 1.19231028334362e-08 4.78533890801598e-08 3.65319657166131e-08 2.14156156639971e-08 3.40346570190864e-07
"471" 4978 4.19419911522074e-08 6.0385171464846e-09 2.69112530999168e-08 1.17603710901594e-08 4.83316308145474e-08 3.64628617769019e-08 2.14156156639971e-08 3.40460867377226e-07
"472" 4979 4.18055686183133e-08 6.03754609772909e-09 2.68901104581867e-08 1.17665429874106e-08 4.84915770696734e-08 3.64446902156731e-08 2.13802815137215e-08 3.39655545087186e-07
"473" 4980 4.16691460844193e-08 6.03657504897358e-09 2.68689678164566e-08 1.17727148846618e-08 4.86515233247994e-08 3.64265186544443e-08 2.13449473634459e-08 3.38850222797146e-07
"474" 4981 4.15242656124372e-08 6.03662796393139e-09 2.69199065792099e-08 1.17930269159936e-08 4.83423924876912e-08 3.65258990876801e-08 2.13382424088345e-08 3.37917441914484e-07
"475" 4982 4.14499409655211e-08 6.03786161798496e-09 2.68908708728063e-08 1.18290871805458e-08 4.80197617258722e-08 3.68298656269253e-08 2.13018264659103e-08 3.37001950978686e-07
"476" 4983 4.1375616318605e-08 6.03909527203852e-09 2.68618351664027e-08 1.1865147445098e-08 4.76971309640532e-08 3.71338321661704e-08 2.12654105229861e-08 3.36086460042889e-07
"477" 4984 4.13012916716889e-08 6.04032892609209e-09 2.68327994599992e-08 1.19012077096501e-08 4.73745002022342e-08 3.74377987054156e-08 2.12289945800618e-08 3.35170969107091e-07
"478" 4985 4.12269670247728e-08 6.04156258014565e-09 2.68037637535956e-08 1.19372679742023e-08 4.70518694404152e-08 3.77417652446607e-08 2.11925786371376e-08 3.34255478171293e-07
"479" 4986 4.11027566336838e-08 6.0408276792093e-09 2.67777423121957e-08 1.19395498732581e-08 4.67577730539944e-08 3.7722310725804e-08 2.12890521874782e-08 3.37357059329356e-07
"480" 4987 4.09785462425947e-08 6.04009277827294e-09 2.67517208707959e-08 1.19418317723138e-08 4.64636766675735e-08 3.77028562069474e-08 2.13855257378187e-08 3.40458640487419e-07
"481" 4988 4.08543358515057e-08 6.03935787733658e-09 2.6725699429396e-08 1.19441136713696e-08 4.61695802811527e-08 3.76834016880907e-08 2.14819992881593e-08 3.43560221645482e-07
"482" 4989 4.07301254604167e-08 6.03862297640022e-09 2.66996779879961e-08 1.19463955704253e-08 4.58754838947318e-08 3.7663947169234e-08 2.15784728384998e-08 3.46661802803545e-07
"483" 4990 4.0574499870715e-08 6.03269085395155e-09 2.67026922529998e-08 1.1939774933428e-08 4.58905183454192e-08 3.76626642116061e-08 2.16994378828428e-08 3.50220161512437e-07
"484" 4991 4.05823672267061e-08 6.02675873150287e-09 2.67026922529998e-08 1.19299249045115e-08 4.59208751044763e-08 3.76474851690806e-08 2.18299565574589e-08 3.54173641858457e-07
"485" 4992 4.05902345826972e-08 6.02082660905419e-09 2.67026922529998e-08 1.19200748755951e-08 4.59512318635334e-08 3.76323061265551e-08 2.19604752320749e-08 3.58127122204478e-07
"486" 4993 4.05981019386883e-08 6.01489448660552e-09 2.67026922529998e-08 1.19102248466787e-08 4.59815886225905e-08 3.76171270840296e-08 2.20909939066909e-08 3.62080602550498e-07
"487" 4994 4.06689812282738e-08 6.02880665892951e-09 2.67234876598193e-08 1.18983547986079e-08 4.61259727594443e-08 3.78095579011737e-08 2.2100547536964e-08 3.62324992061527e-07
"488" 4995 4.07398605178593e-08 6.04271883125349e-09 2.67442830666387e-08 1.18864847505371e-08 4.62703568962981e-08 3.80019887183179e-08 2.2110101167237e-08 3.62569381572557e-07
"489" 4996 4.08107398074448e-08 6.05663100357748e-09 2.67650784734581e-08 1.18746147024663e-08 4.64147410331519e-08 3.8194419535462e-08 2.211965479751e-08 3.62813771083586e-07
"490" 4997 4.06277182783343e-08 6.07644884087124e-09 2.67876956282394e-08 1.18748765823677e-08 4.65287684109486e-08 3.84021736944712e-08 2.20006283406941e-08 3.62249850138252e-07
"491" 4998 4.04446967492239e-08 6.096266678165e-09 2.68103127830207e-08 1.18751384622691e-08 4.66427957887453e-08 3.86099278534804e-08 2.18816018838782e-08 3.61685929192918e-07
"492" 4999 4.02616752201134e-08 6.11608451545876e-09 2.6832929937802e-08 1.18754003421705e-08 4.6756823166542e-08 3.88176820124897e-08 2.17625754270623e-08 3.61122008247584e-07
"493" 5000 4.00786536910029e-08 6.13590235275252e-09 2.68555470925832e-08 1.18756622220718e-08 4.68708505443387e-08 3.90254361714989e-08 2.16435489702464e-08 3.60558087302251e-07
"494" 5001 3.98956321618925e-08 6.15572019004627e-09 2.68781642473645e-08 1.18759241019732e-08 4.69848779221354e-08 3.92331903305081e-08 2.15245225134305e-08 3.59994166356917e-07
"495" 5002 3.9712610632782e-08 6.17553802734003e-09 2.69007814021458e-08 1.18761859818746e-08 4.70989052999321e-08 3.94409444895173e-08 2.14054960566146e-08 3.59430245411583e-07
"496" 5003 3.9474736693231e-08 6.20008079050781e-09 2.76523356990818e-08 1.20078186044921e-08 4.70691671989434e-08 3.94653175371619e-08 2.12754583706971e-08 3.59473834143177e-07
"497" 5004 3.92368627536801e-08 6.22462355367558e-09 2.84038899960178e-08 1.21394512271096e-08 4.70394290979546e-08 3.94896905848064e-08 2.11454206847796e-08 3.59517422874772e-07
"498" 5005 3.89989888141291e-08 6.24916631684335e-09 2.91554442929538e-08 1.22710838497271e-08 4.70096909969659e-08 3.9514063632451e-08 2.1015382998862e-08 3.59561011606366e-07
"499" 5006 3.87611148745781e-08 6.27370908001112e-09 2.99069985898897e-08 1.24027164723445e-08 4.69799528959772e-08 3.95384366800955e-08 2.08853453129445e-08 3.5960460033796e-07
"500" 5007 3.85232409350271e-08 6.2982518431789e-09 3.06585528868257e-08 1.2534349094962e-08 4.69502147949885e-08 3.95628097277401e-08 2.0755307627027e-08 3.59648189069555e-07
"501" 5008 3.82853669954762e-08 6.32279460634667e-09 3.14101071837617e-08 1.26659817175795e-08 4.69204766939998e-08 3.95871827753847e-08 2.06252699411095e-08 3.59691777801149e-07
"502" 5009 3.80474930559252e-08 6.34733736951444e-09 3.21616614806977e-08 1.2797614340197e-08 4.68907385930111e-08 3.96115558230292e-08 2.0495232255192e-08 3.59735366532743e-07
"503" 5010 3.78096191163742e-08 6.37188013268222e-09 3.29132157776337e-08 1.29292469628145e-08 4.68610004920224e-08 3.96359288706738e-08 2.03651945692745e-08 3.59778955264338e-07
"504" 5011 3.75717451768232e-08 6.39642289584999e-09 3.36647700745697e-08 1.3060879585432e-08 4.68312623910337e-08 3.96603019183184e-08 2.0235156883357e-08 3.59822543995932e-07
"505" 5012 3.73338712372722e-08 6.42096565901776e-09 3.44163243715056e-08 1.31925122080495e-08 4.68015242900449e-08 3.96846749659629e-08 2.01051191974395e-08 3.59866132727527e-07
"506" 5013 3.70959972977213e-08 6.44550842218554e-09 3.51678786684416e-08 1.33241448306669e-08 4.67717861890562e-08 3.97090480136075e-08 1.9975081511522e-08 3.59909721459121e-07
"507" 5014 3.7133028154731e-08 6.4279971786345e-09 3.59193677264762e-08 1.34309648308518e-08 4.67716135602464e-08 3.97037750310419e-08 1.99699710334126e-08 3.60736767164533e-07
"508" 5015 3.71700590117408e-08 6.41082988230921e-09 3.65521963293197e-08 1.35563005227903e-08 4.67665061241231e-08 3.95963235145475e-08 1.98492588483123e-08 3.5981753678935e-07
"509" 5016 3.71572562868389e-08 6.4098588335537e-09 3.64806368360475e-08 1.3496750228952e-08 4.68064973639832e-08 3.9368556523037e-08 1.99082555591843e-08 3.5977719599799e-07
"510" 5017 3.72379666475275e-08 6.40912393261734e-09 3.64090773427753e-08 1.34251548402441e-08 4.68076194512474e-08 3.91003120847918e-08 1.99161265928586e-08 3.5939193928771e-07
"511" 5018 3.73186770082162e-08 6.40838903168099e-09 3.63375178495031e-08 1.33535594515362e-08 4.68087415385116e-08 3.88320676465466e-08 1.99239976265329e-08 3.5900668257743e-07
"512" 5019 3.73993873689049e-08 6.40765413074463e-09 3.62659583562309e-08 1.32819640628283e-08 4.68098636257758e-08 3.85638232083014e-08 1.99318686602072e-08 3.5862142586715e-07
"513" 5020 3.74800977295936e-08 6.40691922980827e-09 3.61943988629587e-08 1.32103686741204e-08 4.681098571304e-08 3.82955787700562e-08 1.99397396938815e-08 3.5823616915687e-07
"514" 5021 3.75608080902823e-08 6.40618432887191e-09 3.61228393696865e-08 1.31387732854125e-08 4.68121078003042e-08 3.8027334331811e-08 1.99476107275557e-08 3.5785091244659e-07
"515" 5022 3.76415184509709e-08 6.40544942793555e-09 3.60512798764143e-08 1.30671778967046e-08 4.68132298875684e-08 3.77590898935658e-08 1.995548176123e-08 3.5746565573631e-07
"516" 5023 3.77222288116596e-08 6.40471452699919e-09 3.59797203831421e-08 1.29955825079967e-08 4.68143519748326e-08 3.74908454553206e-08 1.99633527949043e-08 3.5708039902603e-07
"517" 5024 3.78029391723483e-08 6.40397962606284e-09 3.59081608898699e-08 1.29239871192888e-08 4.68154740620968e-08 3.72226010170754e-08 1.99712238285786e-08 3.5669514231575e-07
"518" 5025 3.7883649533037e-08 6.40324472512648e-09 3.58366013965977e-08 1.28523917305809e-08 4.68165961493611e-08 3.69543565788302e-08 1.99790948622528e-08 3.5630988560547e-07
"519" 5026 3.79643598937257e-08 6.40250982419012e-09 3.57650419033255e-08 1.2780796341873e-08 4.68177182366253e-08 3.6686112140585e-08 1.99869658959271e-08 3.5592462889519e-07
"520" 5027 3.80450702544143e-08 6.40177492325376e-09 3.56934824100533e-08 1.27092009531651e-08 4.68188403238895e-08 3.64178677023398e-08 1.99948369296014e-08 3.5553937218491e-07
"521" 5028 3.8125780615103e-08 6.4010400223174e-09 3.56219229167811e-08 1.26376055644572e-08 4.68199624111537e-08 3.61496232640945e-08 2.00027079632757e-08 3.5515411547463e-07
"522" 5029 3.82064909757917e-08 6.40030512138104e-09 3.55503634235089e-08 1.25660101757493e-08 4.68210844984179e-08 3.58813788258493e-08 2.001057899695e-08 3.5476885876435e-07
"523" 5030 3.82872013364804e-08 6.39957022044469e-09 3.54788039302367e-08 1.24944147870414e-08 4.68222065856821e-08 3.56131343876041e-08 2.00184500306242e-08 3.5438360205407e-07
"524" 5031 3.83679116971691e-08 6.39883531950833e-09 3.54072444369645e-08 1.24228193983334e-08 4.68233286729463e-08 3.53448899493589e-08 2.00263210642985e-08 3.53998345343789e-07
"525" 5032 3.84486220578577e-08 6.39810041857197e-09 3.53356849436923e-08 1.23512240096255e-08 4.68244507602105e-08 3.50766455111137e-08 2.00341920979728e-08 3.53613088633509e-07
"526" 5033 3.85293324185464e-08 6.39736551763561e-09 3.52641254504201e-08 1.22796286209176e-08 4.68255728474747e-08 3.48084010728685e-08 2.00420631316471e-08 3.53227831923229e-07
"527" 5034 3.86100427792351e-08 6.39663061669925e-09 3.51925659571479e-08 1.22080332322097e-08 4.68266949347389e-08 3.45401566346233e-08 2.00499341653214e-08 3.52842575212949e-07
"528" 5035 3.86907531399238e-08 6.39589571576289e-09 3.51210064638757e-08 1.21364378435018e-08 4.68278170220031e-08 3.42719121963781e-08 2.00578051989956e-08 3.52457318502669e-07
"529" 5036 3.87714635006124e-08 6.39516081482653e-09 3.50494469706035e-08 1.20648424547939e-08 4.68289391092673e-08 3.40036677581329e-08 2.00656762326699e-08 3.52072061792389e-07
"530" 5037 3.88521738613011e-08 6.39442591389018e-09 3.49778874773313e-08 1.1993247066086e-08 4.68300611965315e-08 3.37354233198877e-08 2.00735472663442e-08 3.51686805082109e-07
"531" 5038 3.88478290744872e-08 6.39369101295382e-09 3.49061975062563e-08 1.19235966764758e-08 4.67922949978874e-08 3.35067183826702e-08 2.01119899168922e-08 3.510328854031e-07
"532" 5039 3.88434842876733e-08 6.39295611201746e-09 3.48345075351813e-08 1.18539462868657e-08 4.67545287992433e-08 3.32780134454527e-08 2.01504325674402e-08 3.5037896572409e-07
"533" 5040 3.89566803803748e-08 6.39224766856e-09 3.48261599158883e-08 1.17820890182564e-08 4.68326940003812e-08 3.30720504390454e-08 2.01097490105488e-08 3.50432609338963e-07
"534" 5041 3.90698764730763e-08 6.39153922510255e-09 3.48178122965954e-08 1.17102317496471e-08 4.69108592015191e-08 3.2866087432638e-08 2.00690654536574e-08 3.50486252953836e-07
"535" 5042 3.90580503895043e-08 6.34982916560949e-09 3.47344784452144e-08 1.1708024870648e-08 4.69317205180368e-08 3.29007272885914e-08 2.00132367996852e-08 3.50389187019607e-07
"536" 5043 3.91809126971635e-08 6.3297732110056e-09 3.47976903191937e-08 1.1695717895877e-08 4.70490954533117e-08 3.29640752290479e-08 2.00132367996852e-08 3.51071839587006e-07
"537" 5044 3.93037750048227e-08 6.3097172564017e-09 3.48609021931729e-08 1.1683410921106e-08 4.71664703885867e-08 3.30274231695044e-08 2.00132367996852e-08 3.51754492154406e-07
"538" 5045 3.94266373124819e-08 6.28966130179781e-09 3.49241140671522e-08 1.16711039463351e-08 4.72838453238616e-08 3.30907711099609e-08 2.00132367996852e-08 3.52437144721805e-07
"539" 5046 3.95494996201411e-08 6.26960534719391e-09 3.49873259411314e-08 1.16587969715641e-08 4.74012202591365e-08 3.31541190504173e-08 2.00132367996852e-08 3.53119797289204e-07
"540" 5047 3.96723619278003e-08 6.24954939259001e-09 3.50505378151107e-08 1.16464899967931e-08 4.75185951944114e-08 3.32174669908738e-08 2.00132367996852e-08 3.53802449856603e-07
"541" 5048 3.97999446490542e-08 6.23768514769266e-09 3.51187589665625e-08 1.16464899967931e-08 4.76227291481903e-08 3.32818845872345e-08 2.00054253226383e-08 3.53856093471476e-07
"542" 5049 3.99275273703081e-08 6.22582090279531e-09 3.51869801180143e-08 1.16464899967931e-08 4.77268631019692e-08 3.33463021835951e-08 1.99976138455915e-08 3.53909737086349e-07
"543" 5050 4.0055110091562e-08 6.21395665789796e-09 3.52552012694661e-08 1.16464899967931e-08 4.78309970557481e-08 3.34107197799558e-08 1.99898023685446e-08 3.53963380701223e-07
"544" 5051 4.01826928128159e-08 6.20209241300061e-09 3.53234224209179e-08 1.16464899967931e-08 4.7935131009527e-08 3.34751373763165e-08 1.99819908914977e-08 3.54017024316096e-07
"545" 5052 4.03102755340698e-08 6.19022816810326e-09 3.53916435723697e-08 1.16464899967931e-08 4.80392649633059e-08 3.35395549726771e-08 1.99741794144509e-08 3.54070667930969e-07
"546" 5053 4.04378582553237e-08 6.17836392320591e-09 3.54598647238214e-08 1.16464899967931e-08 4.81433989170848e-08 3.36039725690378e-08 1.9966367937404e-08 3.54124311545842e-07
"547" 5054 4.05654409765775e-08 6.16649967830856e-09 3.55280858752732e-08 1.16464899967931e-08 4.82475328708637e-08 3.36683901653984e-08 1.99585564603571e-08 3.54177955160715e-07
"548" 5055 4.06930236978314e-08 6.1546354334112e-09 3.5596307026725e-08 1.16464899967931e-08 4.83516668246426e-08 3.37328077617591e-08 1.99507449833102e-08 3.54231598775589e-07
"549" 5056 4.08206064190853e-08 6.14277118851385e-09 3.56645281781768e-08 1.16464899967931e-08 4.84558007784215e-08 3.37972253581198e-08 1.99429335062634e-08 3.54285242390462e-07
"550" 5057 4.09481891403392e-08 6.1309069436165e-09 3.57327493296286e-08 1.16464899967931e-08 4.85599347322004e-08 3.38616429544804e-08 1.99351220292165e-08 3.54338886005335e-07
"551" 5058 4.10757718615931e-08 6.11904269871915e-09 3.58009704810804e-08 1.16464899967931e-08 4.86640686859792e-08 3.39260605508411e-08 1.99273105521696e-08 3.54392529620208e-07
"552" 5059 4.1203354582847e-08 6.1071784538218e-09 3.58691916325322e-08 1.16464899967931e-08 4.87682026397581e-08 3.39904781472017e-08 1.99194990751228e-08 3.54446173235081e-07
"553" 5060 4.12062031103093e-08 6.10394978729941e-09 3.59646912754303e-08 1.16464899967931e-08 4.88020698039481e-08 3.39926143117245e-08 1.99116875980759e-08 3.53853517950564e-07
"554" 5061 4.13072037404294e-08 6.14773423169801e-09 3.63203443288063e-08 1.16586219247653e-08 4.87989765136061e-08 3.4048182914887e-08 1.99393788441331e-08 3.55564771661056e-07
"555" 5062 4.15280428621487e-08 6.14450556517561e-09 3.63523515135094e-08 1.16596444376852e-08 4.87835678908314e-08 3.40545977030265e-08 1.99861317248451e-08 3.55821878651178e-07
"556" 5063 4.1748881983868e-08 6.14127689865322e-09 3.63843586982125e-08 1.16606669506052e-08 4.87681592680567e-08 3.40610124911661e-08 2.00328846055572e-08 3.56078985641299e-07
"557" 5064 4.19697211055874e-08 6.13804823213083e-09 3.64163658829156e-08 1.16616894635252e-08 4.87527506452819e-08 3.40674272793056e-08 2.00796374862693e-08 3.5633609263142e-07
"558" 5065 4.21905602273067e-08 6.13481956560843e-09 3.64483730676188e-08 1.16627119764451e-08 4.87373420225072e-08 3.40738420674451e-08 2.01263903669813e-08 3.56593199621541e-07
"559" 5066 4.24113993490261e-08 6.13159089908604e-09 3.64803802523219e-08 1.16637344893651e-08 4.87219333997324e-08 3.40802568555846e-08 2.01731432476934e-08 3.56850306611663e-07
"560" 5067 4.26322384707454e-08 6.12836223256365e-09 3.6512387437025e-08 1.1664757002285e-08 4.87065247769577e-08 3.40866716437241e-08 2.02198961284055e-08 3.57107413601784e-07
"561" 5068 4.28530775924647e-08 6.12513356604125e-09 3.65443946217281e-08 1.1665779515205e-08 4.8691116154183e-08 3.40930864318636e-08 2.02666490091175e-08 3.57364520591905e-07
"562" 5069 4.30739167141841e-08 6.12190489951886e-09 3.65764018064312e-08 1.1666802028125e-08 4.86757075314082e-08 3.40995012200031e-08 2.03134018898296e-08 3.57621627582027e-07
"563" 5070 4.32947558359034e-08 6.11867623299647e-09 3.66084089911343e-08 1.16678245410449e-08 4.86602989086335e-08 3.41059160081427e-08 2.03601547705416e-08 3.57878734572148e-07
"564" 5071 4.35155949576228e-08 6.11544756647407e-09 3.66404161758374e-08 1.16688470539649e-08 4.86448902858588e-08 3.41123307962822e-08 2.04069076512537e-08 3.58135841562269e-07
"565" 5072 4.37335855518798e-08 6.12337470139158e-09 3.66604097931267e-08 1.16395574665233e-08 4.86448902858588e-08 3.39492290850987e-08 2.03515251591394e-08 3.57676513969112e-07
"566" 5073 4.39608312522762e-08 6.13227288506459e-09 3.66541645060113e-08 1.15985978844953e-08 4.86390778772622e-08 3.39250724864635e-08 2.04031812846093e-08 3.58509984770316e-07
"567" 5074 4.39918102924852e-08 6.18818417965859e-09 3.6615825048991e-08 1.16053185482348e-08 4.87336730168002e-08 3.38947865510822e-08 2.04149827865938e-08 3.58392501240038e-07
"568" 5075 4.39906020156155e-08 6.05375895532285e-09 3.58821606253731e-08 1.15097079898444e-08 4.8742564258505e-08 3.38975626207761e-08 2.04126962543593e-08 3.59201145004475e-07
"569" 5076 4.39893937387457e-08 5.9193337309871e-09 3.51484962017552e-08 1.14140974314539e-08 4.87514555002098e-08 3.390033869047e-08 2.04104097221247e-08 3.60009788768913e-07
"570" 5077 4.3988185461876e-08 5.78490850665135e-09 3.44148317781372e-08 1.13184868730634e-08 4.87603467419146e-08 3.3903114760164e-08 2.04081231898902e-08 3.6081843253335e-07
"571" 5078 4.39869771850063e-08 5.6504832823156e-09 3.36811673545193e-08 1.12228763146729e-08 4.87692379836194e-08 3.39058908298579e-08 2.04058366576556e-08 3.61627076297788e-07
"572" 5079 4.39857689081366e-08 5.51605805797985e-09 3.29475029309014e-08 1.11272657562825e-08 4.87781292253242e-08 3.39086668995518e-08 2.04035501254211e-08 3.62435720062225e-07
"573" 5080 4.39845606312669e-08 5.3816328336441e-09 3.22138385072834e-08 1.1031655197892e-08 4.87870204670289e-08 3.39114429692458e-08 2.04012635931866e-08 3.63244363826663e-07
"574" 5081 4.39833523543972e-08 5.24720760930836e-09 3.14801740836655e-08 1.09360446395015e-08 4.87959117087337e-08 3.39142190389397e-08 2.0398977060952e-08 3.640530075911e-07
"575" 5082 4.39821440775274e-08 5.11278238497261e-09 3.07465096600476e-08 1.0840434081111e-08 4.88048029504385e-08 3.39169951086336e-08 2.03966905287175e-08 3.64861651355538e-07
"576" 5083 4.39809358006577e-08 4.97835716063686e-09 3.00128452364296e-08 1.07448235227206e-08 4.88136941921433e-08 3.39197711783275e-08 2.03944039964829e-08 3.65670295119975e-07
"577" 5084 4.3979727523788e-08 4.84393193630111e-09 2.92791808128117e-08 1.06492129643301e-08 4.88225854338481e-08 3.39225472480215e-08 2.03921174642484e-08 3.66478938884413e-07
"578" 5085 4.39785192469183e-08 4.70950671196536e-09 2.85455163891938e-08 1.05536024059396e-08 4.88314766755529e-08 3.39253233177154e-08 2.03898309320139e-08 3.6728758264885e-07
"579" 5086 4.39773109700486e-08 4.57508148762961e-09 2.78118519655758e-08 1.04579918475491e-08 4.88403679172577e-08 3.39280993874093e-08 2.03875443997793e-08 3.68096226413288e-07
"580" 5087 4.39761026931789e-08 4.44065626329387e-09 2.70781875419579e-08 1.03623812891587e-08 4.88492591589625e-08 3.39308754571033e-08 2.03852578675448e-08 3.68904870177725e-07
"581" 5088 4.39748944163091e-08 4.30623103895812e-09 2.634452311834e-08 1.02667707307682e-08 4.88581504006672e-08 3.39336515267972e-08 2.03829713353102e-08 3.69713513942163e-07
"582" 5089 4.39736861394394e-08 4.17180581462237e-09 2.5610858694722e-08 1.01711601723777e-08 4.8867041642372e-08 3.39364275964911e-08 2.03806848030757e-08 3.705221577066e-07
"583" 5090 4.39724778625697e-08 4.03738059028662e-09 2.48771942711041e-08 1.00755496139873e-08 4.88759328840768e-08 3.39392036661851e-08 2.03783982708411e-08 3.71330801471038e-07
"584" 5091 4.39712695857e-08 3.90295536595087e-09 2.41435298474862e-08 9.97993905559678e-09 4.88848241257816e-08 3.3941979735879e-08 2.03761117386066e-08 3.72139445235475e-07
"585" 5092 4.39501216165942e-08 3.9095694743781e-09 2.40826377686892e-08 9.97443957766789e-09 4.89028800096398e-08 3.39449001049124e-08 2.02586449314522e-08 3.68935644199773e-07
"586" 5093 4.39333184343024e-08 3.86977505491716e-09 2.39075326378454e-08 9.83099873339663e-09 4.89181495941509e-08 3.39288710027776e-08 2.02625120094526e-08 3.69575709894192e-07
"587" 5094 4.38149386569267e-08 3.84260426927784e-09 2.38374027532299e-08 9.84690881977617e-09 4.88229068820768e-08 3.38512693763603e-08 2.02606469092891e-08 3.70201671985663e-07
"588" 5095 4.36965588795509e-08 3.81543348363853e-09 2.37672728686144e-08 9.8628189061557e-09 4.87276641700027e-08 3.37736677499429e-08 2.02587818091257e-08 3.70827634077135e-07
"589" 5096 4.36570801714449e-08 3.77962711962426e-09 2.39482535994656e-08 9.86008826735384e-09 4.89696550984102e-08 3.38121250059241e-08 2.02529653445476e-08 3.71250107798373e-07
"590" 5097 4.3617601463339e-08 3.74382075560999e-09 2.41292343303168e-08 9.85735762855197e-09 4.92116460268178e-08 3.38505822619052e-08 2.02471488799696e-08 3.7167258151961e-07
"591" 5098 4.36705402578381e-08 3.70801439159571e-09 2.40390028028065e-08 9.84869196571471e-09 4.9094012148328e-08 3.37712710744125e-08 2.02498498789071e-08 3.7301367189144e-07
"592" 5099 4.37234790523373e-08 3.67220802758144e-09 2.39487712752962e-08 9.84002630287745e-09 4.89763782698383e-08 3.36919598869198e-08 2.02525508778447e-08 3.74354762263269e-07
"593" 5100 4.37764178468364e-08 3.63640166356717e-09 2.38585397477859e-08 9.83136064004019e-09 4.88587443913485e-08 3.36126486994271e-08 2.02552518767822e-08 3.75695852635099e-07
"594" 5101 4.38293566413355e-08 3.6005952995529e-09 2.37683082202756e-08 9.82269497720293e-09 4.87411105128588e-08 3.35333375119344e-08 2.02579528757197e-08 3.77036943006928e-07
"595" 5102 4.38822954358347e-08 3.56478893553863e-09 2.36780766927653e-08 9.81402931436566e-09 4.86234766343691e-08 3.34540263244417e-08 2.02606538746572e-08 3.78378033378757e-07
"596" 5103 4.39352342303338e-08 3.52898257152435e-09 2.3587845165255e-08 9.8053636515284e-09 4.85058427558793e-08 3.3374715136949e-08 2.02633548735948e-08 3.79719123750587e-07
"597" 5104 4.3988173024833e-08 3.49317620751008e-09 2.34976136377447e-08 9.79669798869114e-09 4.83882088773896e-08 3.32954039494564e-08 2.02660558725323e-08 3.81060214122416e-07
"598" 5105 4.40411118193321e-08 3.45736984349581e-09 2.34073821102344e-08 9.78803232585388e-09 4.82705749988999e-08 3.32160927619637e-08 2.02687568714698e-08 3.82401304494245e-07
"599" 5106 4.41620771912736e-08 3.45146417852604e-09 2.33175637624329e-08 9.74628710412176e-09 4.82362618054513e-08 3.32057569512707e-08 2.02468434294677e-08 3.83783209415567e-07
"600" 5107 4.42830425632151e-08 3.44555851355627e-09 2.32277454146315e-08 9.70454188238964e-09 4.82019486120028e-08 3.31954211405777e-08 2.02249299874655e-08 3.85165114336888e-07
"601" 5108 4.44040079351566e-08 3.4396528485865e-09 2.31379270668301e-08 9.66279666065752e-09 4.81676354185543e-08 3.31850853298847e-08 2.02030165454633e-08 3.86547019258209e-07
"602" 5109 4.45249733070981e-08 3.43374718361672e-09 2.30481087190287e-08 9.6210514389254e-09 4.81333222251058e-08 3.31747495191917e-08 2.01811031034611e-08 3.8792892417953e-07
"603" 5110 4.46459386790396e-08 3.42784151864695e-09 2.29582903712273e-08 9.57930621719328e-09 4.80990090316573e-08 3.31644137084987e-08 2.0159189661459e-08 3.89310829100851e-07
"604" 5111 4.4766904050981e-08 3.42193585367718e-09 2.28684720234258e-08 9.53756099546116e-09 4.80646958382088e-08 3.31540778978057e-08 2.01372762194568e-08 3.90692734022172e-07
"605" 5112 4.48878694229225e-08 3.41603018870741e-09 2.27786536756244e-08 9.49581577372904e-09 4.80303826447603e-08 3.31437420871127e-08 2.01153627774546e-08 3.92074638943494e-07
"606" 5113 4.5008834794864e-08 3.41012452373764e-09 2.2688835327823e-08 9.45407055199692e-09 4.79960694513117e-08 3.31334062764197e-08 2.00934493354524e-08 3.93456543864815e-07
"607" 5114 4.51298001668055e-08 3.40421885876787e-09 2.25990169800216e-08 9.4123253302648e-09 4.79617562578632e-08 3.31230704657267e-08 2.00715358934502e-08 3.94838448786136e-07
"608" 5115 4.5250765538747e-08 3.3983131937981e-09 2.25091986322201e-08 9.37058010853268e-09 4.79274430644147e-08 3.31127346550337e-08 2.00496224514481e-08 3.96220353707457e-07
"609" 5116 4.53717309106885e-08 3.39240752882832e-09 2.24193802844187e-08 9.32883488680056e-09 4.78931298709662e-08 3.31023988443407e-08 2.00277090094459e-08 3.97602258628778e-07
"610" 5117 4.549269628263e-08 3.38650186385855e-09 2.23295619366173e-08 9.28708966506844e-09 4.78588166775177e-08 3.30920630336477e-08 2.00057955674437e-08 3.989841635501e-07
"611" 5118 4.54538248368446e-08 3.38261766883651e-09 2.2242020597294e-08 9.2473144491196e-09 4.78706621713009e-08 3.3136241906641e-08 2.00383235362632e-08 4.00918991369593e-07
"612" 5119 4.54954988956024e-08 3.37644939856869e-09 2.2224087231375e-08 9.21746428214382e-09 4.78342340604323e-08 3.31436447591582e-08 2.00169158127464e-08 4.02650471268909e-07
"613" 5120 4.55371729543603e-08 3.37028112830086e-09 2.2206153865456e-08 9.18761411516803e-09 4.77978059495638e-08 3.31510476116753e-08 1.99955080892295e-08 4.04381951168226e-07
"614" 5121 4.55817978020123e-08 3.34521118504599e-09 2.22577414877395e-08 9.19948416323882e-09 4.77978059495638e-08 3.3166788115131e-08 1.99987148066524e-08 4.06171480254351e-07
"615" 5122 4.56264226496644e-08 3.32014124179112e-09 2.23093291100229e-08 9.21135421130961e-09 4.77978059495638e-08 3.31825286185867e-08 2.00019215240752e-08 4.07961009340476e-07
"616" 5123 4.56710474973165e-08 3.29507129853625e-09 2.23609167323064e-08 9.2232242593804e-09 4.77978059495638e-08 3.31982691220425e-08 2.00051282414981e-08 4.09750538426602e-07
"617" 5124 4.57156723449686e-08 3.27000135528138e-09 2.24125043545899e-08 9.23509430745119e-09 4.77978059495638e-08 3.32140096254982e-08 2.00083349589209e-08 4.11540067512727e-07
"618" 5125 4.57602971926206e-08 3.24493141202651e-09 2.24640919768733e-08 9.24696435552198e-09 4.77978059495638e-08 3.32297501289539e-08 2.00115416763438e-08 4.13329596598852e-07
"619" 5126 4.58049220402727e-08 3.21986146877164e-09 2.25156795991568e-08 9.25883440359277e-09 4.77978059495638e-08 3.32454906324096e-08 2.00147483937666e-08 4.15119125684978e-07
"620" 5127 4.58495468879248e-08 3.19479152551677e-09 2.25672672214402e-08 9.27070445166356e-09 4.77978059495638e-08 3.32612311358653e-08 2.00179551111895e-08 4.16908654771103e-07
"621" 5128 4.59390136016356e-08 3.14572851767816e-09 2.22973533880358e-08 9.27653944895678e-09 4.77332750353218e-08 3.31115894642753e-08 2.00248147078931e-08 4.18460332479074e-07
"622" 5129 4.60214309923112e-08 3.12564807508634e-09 2.23205127885353e-08 9.28867137692894e-09 4.7727256407369e-08 3.31068873844967e-08 2.00134663331346e-08 4.20316805101999e-07
"623" 5130 4.61038483829868e-08 3.10556763249453e-09 2.23436721890347e-08 9.30080330490111e-09 4.77212377794163e-08 3.31021853047181e-08 2.00021179583761e-08 4.22173277724924e-07
"624" 5131 4.61862657736624e-08 3.08548718990272e-09 2.23668315895341e-08 9.31293523287328e-09 4.77152191514636e-08 3.30974832249395e-08 1.99907695836176e-08 4.24029750347849e-07
"625" 5132 4.6268683164338e-08 3.0654067473109e-09 2.23899909900335e-08 9.32506716084544e-09 4.77092005235108e-08 3.30927811451609e-08 1.99794212088592e-08 4.25886222970774e-07
"626" 5133 4.62634848625307e-08 3.06139223438533e-09 2.23773061108922e-08 9.35012985013351e-09 4.77832030709012e-08 3.30773982427685e-08 1.9959133938514e-08 4.25856962949097e-07
"627" 5134 4.62634848625307e-08 3.06163035169546e-09 2.23536269168719e-08 9.35416988844226e-09 4.81019301221875e-08 3.33423271813887e-08 2.00832074831294e-08 4.29852533349371e-07
"628" 5135 4.62634848625307e-08 3.0618684690056e-09 2.23299477228516e-08 9.358209926751e-09 4.84206571734737e-08 3.3607256120009e-08 2.02072810277448e-08 4.33848103749645e-07
"629" 5136 4.62634848625307e-08 3.06210658631574e-09 2.23062685288312e-08 9.36224996505975e-09 4.873938422476e-08 3.38721850586292e-08 2.03313545723602e-08 4.3784367414992e-07
"630" 5137 4.62634848625307e-08 3.06234470362587e-09 2.22825893348109e-08 9.36629000336849e-09 4.90581112760463e-08 3.41371139972495e-08 2.04554281169755e-08 4.41839244550194e-07
"631" 5138 4.62634848625307e-08 3.06258282093601e-09 2.22589101407906e-08 9.37033004167724e-09 4.93768383273326e-08 3.44020429358697e-08 2.05795016615909e-08 4.45834814950468e-07
"632" 5139 4.62634848625307e-08 3.06282093824615e-09 2.22352309467702e-08 9.37437007998598e-09 4.96955653786189e-08 3.466697187449e-08 2.07035752062063e-08 4.49830385350742e-07
"633" 5140 4.62634848625307e-08 3.06305905555629e-09 2.22115517527499e-08 9.37841011829472e-09 5.00142924299052e-08 3.49319008131102e-08 2.08276487508217e-08 4.53825955751017e-07
"634" 5141 4.62634848625307e-08 3.06329717286642e-09 2.21878725587296e-08 9.38245015660347e-09 5.03330194811915e-08 3.51968297517305e-08 2.09517222954371e-08 4.57821526151291e-07
"635" 5142 4.62634848625307e-08 3.06353529017656e-09 2.21641933647093e-08 9.38649019491221e-09 5.06517465324777e-08 3.54617586903507e-08 2.10757958400525e-08 4.61817096551565e-07
"636" 5143 4.62634848625307e-08 3.0637734074867e-09 2.21405141706889e-08 9.39053023322096e-09 5.0970473583764e-08 3.57266876289709e-08 2.11998693846679e-08 4.6581266695184e-07
"637" 5144 4.62634848625307e-08 3.06401152479683e-09 2.21168349766686e-08 9.3945702715297e-09 5.12892006350503e-08 3.59916165675912e-08 2.13239429292832e-08 4.69808237352114e-07
"638" 5145 4.62634848625307e-08 3.06424964210697e-09 2.20931557826483e-08 9.39861030983845e-09 5.16079276863366e-08 3.62565455062114e-08 2.14480164738986e-08 4.73803807752388e-07
"639" 5146 4.62634848625307e-08 3.06448775941711e-09 2.20694765886279e-08 9.40265034814719e-09 5.19266547376229e-08 3.65214744448317e-08 2.1572090018514e-08 4.77799378152662e-07
"640" 5147 4.62634848625307e-08 3.06472587672725e-09 2.20457973946076e-08 9.40669038645594e-09 5.22453817889092e-08 3.67864033834519e-08 2.16961635631294e-08 4.81794948552937e-07
"641" 5148 4.62634848625307e-08 3.06496399403738e-09 2.20221182005873e-08 9.41073042476468e-09 5.25641088401955e-08 3.70513323220722e-08 2.18202371077448e-08 4.85790518953211e-07
"642" 5149 4.62673872431695e-08 3.06021261068446e-09 2.20221182005873e-08 9.35073001058658e-09 5.28682666033654e-08 3.73245894697742e-08 2.19351784541582e-08 4.89628177473348e-07
"643" 5150 4.62686518669813e-08 3.07956012183091e-09 2.2046188828016e-08 9.35453317567949e-09 5.31514286878325e-08 3.76130256600018e-08 2.20711060920174e-08 4.9351136249361e-07
"644" 5151 4.62522702259601e-08 3.0996160764348e-09 2.20289492260217e-08 9.35227628330929e-09 5.34738005064367e-08 3.78986857805354e-08 2.22157584267437e-08 4.97183323876143e-07
"645" 5152 4.62358885849388e-08 3.1196720310387e-09 2.20117096240273e-08 9.35001939093908e-09 5.37961723250409e-08 3.8184345901069e-08 2.236041076147e-08 5.00855285258676e-07
"646" 5153 4.62195069439176e-08 3.13972798564259e-09 2.1994470022033e-08 9.34776249856888e-09 5.41185441436451e-08 3.84700060216027e-08 2.25050630961962e-08 5.04527246641208e-07
"647" 5154 4.62031253028964e-08 3.15978394024649e-09 2.19772304200387e-08 9.34550560619868e-09 5.44409159622493e-08 3.87556661421363e-08 2.26497154309225e-08 5.08199208023741e-07
"648" 5155 4.62274869937929e-08 3.17960177754025e-09 2.19508175452304e-08 9.35506874852817e-09 5.45016919853774e-08 3.87716952442711e-08 2.27142301212388e-08 5.1075559671515e-07
"649" 5156 4.62518486846895e-08 3.19941961483401e-09 2.19244046704221e-08 9.36463189085767e-09 5.45624680085055e-08 3.87877243464059e-08 2.2778744811555e-08 5.13311985406559e-07
"650" 5157 4.63553535128479e-08 3.20136171234503e-09 2.19540036629475e-08 9.36054183917784e-09 5.4669162908963e-08 3.87930726259268e-08 2.28084557998678e-08 5.13565571293896e-07
"651" 5158 4.64588583410063e-08 3.20330380985605e-09 2.19836026554729e-08 9.356451787498e-09 5.47758578094204e-08 3.87984209054477e-08 2.28381667881806e-08 5.13819157181234e-07
"652" 5159 4.65623631691647e-08 3.20524590736707e-09 2.20132016479983e-08 9.35236173581817e-09 5.48825527098779e-08 3.88037691849687e-08 2.28678777764935e-08 5.14072743068571e-07
"653" 5160 4.66658679973231e-08 3.20718800487809e-09 2.20428006405238e-08 9.34827168413834e-09 5.49892476103353e-08 3.88091174644896e-08 2.28975887648063e-08 5.14326328955909e-07
"654" 5161 4.67693728254815e-08 3.2091301023891e-09 2.20723996330492e-08 9.3441816324585e-09 5.50959425107928e-08 3.88144657440105e-08 2.29272997531191e-08 5.14579914843246e-07
"655" 5162 4.68728776536399e-08 3.21107219990012e-09 2.21019986255746e-08 9.34009158077867e-09 5.52026374112502e-08 3.88198140235314e-08 2.29570107414319e-08 5.14833500730583e-07
"656" 5163 4.69763824817983e-08 3.21301429741114e-09 2.21315976181e-08 9.33600152909884e-09 5.53093323117076e-08 3.88251623030524e-08 2.29867217297447e-08 5.15087086617921e-07
"657" 5164 4.70798873099567e-08 3.21495639492216e-09 2.21611966106254e-08 9.331911477419e-09 5.54160272121651e-08 3.88305105825733e-08 2.30164327180575e-08 5.15340672505258e-07
"658" 5165 4.71833921381151e-08 3.21689849243318e-09 2.21907956031508e-08 9.32782142573917e-09 5.55227221126225e-08 3.88358588620942e-08 2.30461437063703e-08 5.15594258392595e-07
"659" 5166 4.72868969662735e-08 3.2188405899442e-09 2.22203945956762e-08 9.32373137405934e-09 5.562941701308e-08 3.88412071416151e-08 2.30758546946831e-08 5.15847844279933e-07
"660" 5167 4.73904017944319e-08 3.22078268745522e-09 2.22499935882016e-08 9.3196413223795e-09 5.57361119135374e-08 3.88465554211361e-08 2.31055656829959e-08 5.1610143016727e-07
"661" 5168 4.74939066225903e-08 3.22272478496624e-09 2.2279592580727e-08 9.31555127069967e-09 5.58428068139948e-08 3.8851903700657e-08 2.31352766713087e-08 5.16355016054608e-07
"662" 5169 4.75974114507487e-08 3.22466688247726e-09 2.23091915732525e-08 9.31146121901984e-09 5.59495017144523e-08 3.88572519801779e-08 2.31649876596215e-08 5.16608601941945e-07
"663" 5170 4.77009162789071e-08 3.22660897998828e-09 2.23387905657779e-08 9.30737116734e-09 5.60561966149097e-08 3.88626002596988e-08 2.31946986479343e-08 5.16862187829282e-07
"664" 5171 4.76893009659704e-08 3.22857753497821e-09 2.24084637780836e-08 9.30340614908789e-09 5.61346160831838e-08 3.88696581002951e-08 2.32118951824258e-08 5.16634753506249e-07
"665" 5172 4.78104520589618e-08 3.22448168012493e-09 2.24383454725151e-08 9.28530099675517e-09 5.620097916224e-08 3.88747177811369e-08 2.30032617373411e-08 5.15012560201528e-07
"666" 5173 4.76552521952116e-08 3.15439166892691e-09 2.23144147842458e-08 9.17727024321193e-09 5.62846786954472e-08 3.88676630878263e-08 2.29437485089331e-08 5.11558863211499e-07
"667" 5174 4.75000523314614e-08 3.0843016577289e-09 2.21904840959766e-08 9.06923948966869e-09 5.63683782286545e-08 3.88606083945156e-08 2.28842352805252e-08 5.0810516622147e-07
"668" 5175 4.73448524677111e-08 3.01421164653088e-09 2.20665534077073e-08 8.96120873612545e-09 5.64520777618617e-08 3.88535537012049e-08 2.28247220521172e-08 5.04651469231441e-07
"669" 5176 4.71896526039609e-08 2.94412163533286e-09 2.19426227194381e-08 8.85317798258221e-09 5.65357772950689e-08 3.88464990078943e-08 2.27652088237092e-08 5.01197772241413e-07
"670" 5177 4.69217595853073e-08 2.87182692132576e-09 2.18030798722257e-08 8.84294104033669e-09 5.65468361780524e-08 3.89870125294639e-08 2.2757541189704e-08 4.97272478458682e-07
"671" 5178 4.66915923302828e-08 2.80050325607418e-09 2.16433049043157e-08 8.78175626007943e-09 5.65420548662365e-08 3.90509124889938e-08 2.26980279612961e-08 4.93468795779638e-07
"672" 5179 4.64614250752583e-08 2.7291795908226e-09 2.14835299364058e-08 8.72057147982217e-09 5.65372735544206e-08 3.91148124485236e-08 2.26385147328881e-08 4.89665113100593e-07
"673" 5180 4.62312578202338e-08 2.65785592557101e-09 2.13237549684958e-08 8.65938669956491e-09 5.65324922426046e-08 3.91787124080535e-08 2.25790015044801e-08 4.85861430421549e-07
"674" 5181 4.60010905652094e-08 2.58653226031943e-09 2.11639800005858e-08 8.59820191930765e-09 5.65277109307887e-08 3.92426123675834e-08 2.25194882760722e-08 4.82057747742505e-07
