time,channel1,channel2,channel3,channel4,channel5,channel6,channel7,channel8,class
44658,5.958676668587069e-8,5.959497042271418e-8,2.7721842507784158e-9,1.0876335079416506e-9,1.5983872924764098e-9,2.3599655872929506e-9,1.0177876804742091e-8,1.7639156442127985e-7,0
44659,5.956271976985155e-8,5.9583736923005524e-8,2.772128530529429e-9,1.08593089993341e-9,1.6009934326126053e-9,2.334808294634374e-9,1.0190955103646248e-8,1.7625211650301118e-7,0
44660,5.9538672853832414e-8,5.9572503423296864e-8,2.772072810280442e-9,1.0842282919251695e-9,1.6035995727488009e-9,2.3096510019757975e-9,1.0204033402550405e-8,1.7611266858474252e-7,0
44661,5.9514625937813277e-8,5.956126992358821e-8,2.7720170900314554e-9,1.0825256839169289e-9,1.6062057128849966e-9,2.2844937093172207e-9,1.0217111701454561e-8,1.7597322066647386e-7,0
44662,5.949057902179414e-8,5.955003642387955e-8,2.7719613697824686e-9,1.0808230759086882e-9,1.6088118530211921e-9,2.259336416658644e-9,1.0230190000358719e-8,1.758337727482052e-7,0
44663,5.9466532105775e-8,5.95388029241709e-8,2.7719056495334818e-9,1.0791204679004478e-9,1.6114179931573876e-9,2.2341791240000676e-9,1.0243268299262875e-8,1.7569432482993654e-7,0
44664,5.9442485189755864e-8,5.952756942446224e-8,2.771849929284495e-9,1.0774178598922072e-9,1.6140241332935832e-9,2.209021831341491e-9,1.0256346598167033e-8,1.7555487691166787e-7,0
44665,5.9418438273736727e-8,5.9516335924753586e-8,2.771794209035508e-9,1.0757152518839665e-9,1.6166302734297789e-9,2.183864538682914e-9,1.0269424897071189e-8,1.754154289933992e-7,0
44666,5.9378324491573766e-8,5.953829646800603e-8,2.7926443295224745e-9,1.0972236331573042e-9,1.6493413998786504e-9,2.1787090741528156e-9,1.0266617082383146e-8,1.754954895814823e-7,0
44667,5.9329073003711276e-8,5.9524277459390565e-8,2.7908499383943865e-9,1.0972236331573042e-9,1.6493413998786504e-9,2.1557302794822023e-9,1.0263338194042089e-8,1.7595957370660424e-7,0
44668,5.927982151584878e-8,5.9510258450775103e-8,2.789055547266299e-9,1.0972236331573042e-9,1.6493413998786504e-9,2.132751484811589e-9,1.0260059305701033e-8,1.7642365783172618e-7,0
44669,5.923057002798629e-8,5.949623944215965e-8,2.787261156138211e-9,1.0972236331573042e-9,1.6493413998786504e-9,2.1097726901409756e-9,1.0256780417359975e-8,1.7688774195684812e-7,0
44670,5.91813185401238e-8,5.9482220433544186e-8,2.785466765010123e-9,1.0972236331573042e-9,1.6493413998786504e-9,2.0867938954703623e-9,1.0253501529018919e-8,1.7735182608197007e-7,0
44671,5.9132067052261305e-8,5.946820142492873e-8,2.7836723738820353e-9,1.0972236331573042e-9,1.6493413998786504e-9,2.0638151007997485e-9,1.0250222640677861e-8,1.77815910207092e-7,0
44672,5.910218609625159e-8,5.938446482257162e-8,2.743660684007503e-9,1.086883990640986e-9,1.6498176780858253e-9,2.0568842605990496e-9,1.0168104028119749e-8,1.783132914591732e-7,0
44673,5.8921111258183756e-8,5.931867562938629e-8,2.743660684007503e-9,1.085776370032074e-9,1.650271481382968e-9,2.055160588368648e-9,1.0164086323717899e-8,1.789112178863809e-7,0
44674,5.874003642011593e-8,5.925288643620097e-8,2.743660684007503e-9,1.0846687494231618e-9,1.6507252846801106e-9,2.0534369161382463e-9,1.016006861931605e-8,1.7950914431358863e-7,0
44675,5.85589615820481e-8,5.9187097243015646e-08,2.743660684007503e-9,1.0835611288142498e-9,1.6511790879772534e-9,2.0517132439078445e-9,1.01560509149142e-8,1.8010707074079636e-7,0
44676,5.8377886743980264e-8,5.912130804983032e-8,2.743660684007503e-9,1.0824535082053378e-9,1.651632891274396e-9,2.049989571677443e-9,1.015203321051235e-8,1.8070499716800408e-7,0
44677,5.8196811905912435e-8,5.9055518856645e-8,2.743660684007503e-9,1.0813458875964256e-9,1.6520866945715387e-9,2.0482658994470413e-9,1.01480155061105e-8,1.8130292359521178e-7,0
44678,5.8124288323304916e-8,5.885189663301422e-8,2.733713481787857e-9,1.0818927578546934e-9,1.6509992886969963e-9,2.049490818560236e-9,1.0148357234676704e-8,1.8187031389222385e-7,0
44679,5.80517647406974e-8,5.864827440938345e-8,2.7237662795682104e-9,1.0824396281129612e-9,1.6499118828224538e-9,2.0507157376734306e-9,1.0148698963242906e-8,1.8243770418923592e-7,0
44680,5.797924115808988e-8,5.844465218575267e-8,2.713819077348564e-9,1.0829864983712288e-9,1.6488244769479114e-9,2.0519406567866253e-9,1.0149040691809109e-8,1.8300509448624799e-7,0
44681,5.7906717575482366e-8,5.82410299621219e-8,2.703871875128918e-9,1.0835333686294966e-9,1.647737071073369e-9,2.05316557589982e-9,1.0149382420375311e-8,1.8357248478326005e-7,0
44682,5.783419399287485e-8,5.803740773849113e-8,2.6939246729092716e-9,1.0840802388877643e-9,1.6466496651988263e-9,2.0543904950130147e-9,1.0149724148941514e-8,1.8413987508027212e-7,0
44683,5.776167041026733e-8,5.783378551486035e-8,2.683977470689625e-9,1.0846271091460321e-9,1.6455622593242838e-9,2.0556154141262093e-9,1.0150065877507716e-8,1.847072653772842e-7,0
44684,5.768914682765981e-8,5.763016329122958e-8,2.674030268469979e-9,1.0851739794042997e-9,1.6444748534497413e-9,2.0568403332394044e-9,1.0150407606073919e-8,1.8527465567429626e-7,0
44685,5.761662324505229e-8,5.74265410675988e-8,2.6640830662503328e-9,1.0857208496625675e-9,1.6433874475751989e-9,2.058065252352599e-9,1.0150749334640121e-8,1.8584204597130833e-7,0
44686,5.754409966244477e-8,5.722291884396803e-8,2.6541358640306868e-9,1.0862677199208353e-9,1.6423000417006564e-9,2.0592901714657938e-9,1.0151091063206323e-8,1.864094362683204e-7,0
44687,5.7105320460196835e-8,5.708558553913033e-8,2.6523414729025988e-9,1.0820954048970902e-9,1.6427763199078313e-9,2.0614686694537568e-9,1.0144736617769444e-8,1.8673858475828665e-7,0
44688,5.712649077607983e-8,5.70738686923998e-8,2.6505888719612508e-9,1.0757457873184279e-9,1.6458587382512017e-9,2.0616960823325376e-9,1.0147572111921681e-8,1.8660954845836643e-7,0
44689,5.6700117866391573e-8,5.695055439617757e-8,2.6468273284888286e-9,1.0693961697397656e-9,1.646402441188473e-9,2.074069279462868e-9,1.0143397382968827e-8,1.8640390207061337e-7,0
44690,5.627374495670331e-8,5.682724009995533e-8,2.643065785016406e-9,1.0630465521611033e-9,1.6469461441257442e-9,2.0864424765931983e-9,1.0139222654015973e-8,1.8619825568286032e-7,0
44691,5.584737204701505e-8,5.6703925803733095e-8,2.6393042415439835e-9,1.056696934582441e-9,1.6474898470630154e-9,2.0988156737235287e-9,1.0135047925063119e-8,1.8599260929510729e-7,0
44692,5.5420999137326785e-8,5.6580611507510855e-8,2.6355426980715614e-9,1.0503473170037788e-9,1.6480335500002867e-9,2.1111888708538586e-9,1.0130873196110265e-8,1.8578696290735423e-7,0
44693,5.4994626227638527e-8,5.645729721128862e-8,2.631781154599139e-9,1.0439976994251165e-9,1.6485772529375579e-9,2.123562067984189e-9,1.0126698467157411e-8,1.855813165196012e-7,0
44694,5.456825331795026e-8,5.633398291506639e-8,2.6280196111267163e-9,1.0376480818464542e-9,1.6491209558748291e-9,2.1359352651145193e-9,1.0122523738204557e-8,1.8537567013184814e-7,0
44695,5.4141880408262e-8,5.621066861884415e-8,2.624258067654294e-9,1.031298464267792e-9,1.6496646588121003e-9,2.1483084622448497e-9,1.0118349009251703e-8,1.8517002374409509e-7,0
44696,5.371550749857374e-8,5.608735432262192e-8,2.6204965241818716e-9,1.0249488466891297e-9,1.6502083617493716e-9,2.16068165937518e-9,1.0114174280298849e-8,1.8496437735634205e-7,0
44697,5.3289134588885473e-8,5.596404002639968e-8,2.6167349807094494e-9,1.0185992291104674e-9,1.6507520646866428e-9,2.1730548565055104e-9,1.0109999551345995e-8,1.84758730968589e-7,0
44698,5.2862761679197215e-8,5.5840725730177445e-8,2.612973437237027e-9,1.0122496115318051e-9,1.651295767623914e-9,2.1854280536358407e-9,1.010582482239314e-8,1.8455308458083597e-7,0
44699,5.243638876950895e-8,5.571741143395521e-8,2.6092118937646043e-9,1.0058999939531428e-9,1.6518394705611855e-9,2.197801250766171e-9,1.0101650093440287e-8,1.843474381930829e-7,0
44700,5.201001585982069e-8,5.559409713773297e-8,2.605450350292182e-9,9.995503763744806e-10,1.6523831734984567e-9,2.2101744478965014e-9,1.0097475364487433e-8,1.8414179180532985e-7,0
44701,5.1571236657572755e-8,5.545280462014829e-8,2.603697749350834e-9,9.932007587958183e-10,1.6524056484084887e-9,2.2111280267712697e-9,1.0102352177802727e-8,1.838661649400363e-7,0
44702,5.14598896416946e-8,5.4734785004514223e-8,2.603697749350834e-9,9.867410268426579e-10,1.6493906547952146e-9,2.200015900033226e-9,9.786844263094222e-9,1.8512723512091223e-7,0
44703,5.095094030702996e-8,5.462295646359253e-8,2.599977996065152e-9,9.829332919910912e-10,1.6493906547952146e-9,2.1851850885959534e-9,9.736479250490475e-9,1.860920030990817e-7,0
44704,5.044199097236533e-8,5.451112792267084e-8,2.5962582427794694e-9,9.791255571395246e-10,1.6493906547952146e-9,2.17035427715868e-9,9.68611423788673e-9,1.8705677107725117e-7,0
44705,4.9933041637700697e-8,5.439929938174915e-8,2.5925384894937873e-9,9.75317822287958e-10,1.6493906547952146e-9,2.1555234657214074e-9,9.635749225282983e-9,1.8802153905542063e-7,0
44706,4.9424092303036065e-8,5.428747084082746e-8,2.5888187362081047e-9,9.715100874363914e-10,1.6493906547952146e-9,2.1406926542841342e-9,9.585384212679236e-9,1.8898630703359012e-7,0
44707,4.8915142968371427e-8,5.4175642299905766e-8,2.5850989829224226e-9,9.677023525848249e-10,1.6493906547952146e-9,2.1258618428468615e-9,9.53501920007549e-9,1.8995107501175958e-7,0
44708,4.8406193633706795e-8,5.4063813758984074e-8,2.5813792296367404e-9,9.638946177332581e-10,1.6493906547952146e-9,2.1110310314095883e-9,9.484654187471743e-9,1.9091584298992907e-7,0
44709,4.7897244299042163e-8,5.395198521806238e-8,2.577659476351058e-9,9.600868828816916e-10,1.6493906547952146e-9,2.0962002199723155e-9,9.434289174867996e-9,1.9188061096809853e-7,0
44710,4.738829496437753e-8,5.384015667714069e-8,2.5739397230653757e-9,9.562791480301249e-10,1.6493906547952146e-9,2.0813694085350423e-9,9.38392416226425e-9,1.92845378946268e-7,0
44711,4.68793456297129e-8,5.3728328136219e-8,2.570219969779693e-9,9.524714131785583e-10,1.6493906547952146e-9,2.0665385970977696e-9,9.333559149660504e-9,1.9381014692443748e-7,0
44712,4.637039629504826e-8,5.361649959529731e-8,2.566500216494011e-9,9.486636783269916e-10,1.6493906547952146e-9,2.0517077856604964e-9,9.283194137056757e-9,1.9477491490260694e-7,0
44713,4.586144696038363e-8,5.350467105437562e-8,2.5627804632083285e-9,9.44855943475425e-10,1.6493906547952146e-9,2.036876974223223e-9,9.23282912445301e-9,1.957396828807764e-7,0
44714,4.5352497625719e-8,5.339284251345393e-8,2.5590607099226463e-9,9.410482086238586e-10,1.6493906547952146e-9,2.0220461627859504e-9,9.182464111849263e-9,1.967044508589459e-7,0
44715,4.484354829105437e-8,5.328101397253224e-8,2.555340956636964e-9,9.372404737722918e-10,1.6493906547952146e-9,2.0072153513486772e-9,9.132099099245517e-9,1.9766921883711535e-7,0
44716,4.433459895638973e-8,5.316918543161055e-8,2.5516212033512816e-9,9.334327389207253e-10,1.6493906547952146e-9,1.9923845399114045e-9,9.08173408664177e-9,1.986339868152848e-7,0
44717,4.38256496217251e-8,5.305735689068886e-8,2.5479014500655995e-9,9.296250040691586e-10,1.6493906547952146e-9,1.9775537284741313e-9,9.031369074038023e-9,1.995987547934543e-7,0
44718,4.3316700287060465e-8,5.2945528349767166e-8,2.544181696779917e-9,9.25817269217592e-10,1.6493906547952146e-9,1.9627229170368585e-9,8.981004061434278e-9,2.0056352277162376e-7,0
44719,4.2807750952395834e-8,5.2833699808845474e-8,2.5404619434942348e-9,9.220095343660254e-10,1.6493906547952146e-9,1.9478921055995853e-9,8.930639048830531e-9,2.0152829074979322e-7,0
44720,4.2298801617731196e-8,5.272187126792378e-8,2.536742190208552e-9,9.182017995144588e-10,1.6493906547952146e-9,1.9330612941623126e-9,8.880274036226784e-9,2.024930587279627e-7,0
44721,4.1789852283066564e-8,5.261004272700209e-8,2.53302243692287e-9,9.143940646628922e-10,1.6493906547952146e-9,1.9182304827250394e-9,8.829909023623037e-9,2.0345782670613216e-07,0
44722,4.180958887496844e-8,5.25701732898162e-8,2.51724902845074e-9,9.096748793808793e-10,1.6540817070403667e-9,1.9100747234111457e-9,8.813237787275815e-9,2.033097041721693e-7,0
44723,4.182932546687032e-8,5.25303038526303e-8,2.5014756199786098e-9,9.049556940988664e-10,1.6587727592855188e-9,1.901918964097252e-9,8.796566550928592e-9,2.031615816382064e-7,0
44724,4.18352037378836e-8,5.2483735912076614e-8,2.48570221150648e-9,8.986060765202042e-10,1.6563913682496445e-9,1.8930370387873705e-9,8.799550017397676e-9,2.0171221430096585e-7,0
44725,4.184108200889688e-8,5.2437167971522927e-8,2.4699288030343495e-9,8.922564589415419e-10,1.6540099772137702e-9,1.8841551134774894e-9,8.802533483866758e-9,2.002628469637253e-7,0
44726,4.184696027991016e-8,5.239060003096923e-8,2.4541553945622196e-9,8.859068413628796e-10,1.6516285861778961e-9,1.875273188167608e-9,8.805516950335842e-9,1.9881347962648477e-7,0
44727,4.185283855092344e-8,5.2344032090415545e-8,2.4383819860900897e-9,8.795572237842173e-10,1.6492471951420218e-9,1.8663912628577262e-9,8.808500416804926e-9,1.9736411228924423e-7,0
44728,4.1858716821936724e-8,5.229746414986185e-8,2.4226085776179594e-9,8.732076062055551e-10,1.6468658041061475e-9,1.8575093375478449e-9,8.811483883274008e-9,1.959147449520037e-7,0
44729,4.1864595092950005e-8,5.2250896209308163e-8,2.4068351691458294e-9,8.668579886268928e-10,1.6444844130702733e-9,1.8486274122379635e-9,8.814467349743092e-9,1.9446537761476315e-7,0
44730,4.187047336396329e-8,5.2204328268754476e-8,2.391061760673699e-9,8.605083710482305e-10,1.642103022034399e-9,1.8397454869280821e-9,8.817450816212174e-9,1.930160102775226e-7,0
44731,4.187635163497657e-8,5.215776032820078e-8,2.375288352201569e-9,8.541587534695682e-10,1.6397216309985247e-9,1.8308635616182008e-9,8.820434282681258e-9,1.9156664294028207e-7,0
44732,4.188222990598985e-8,5.2111192387647094e-8,2.359514943729439e-9,8.47809135890906e-10,1.6373402399626504e-9,1.8219816363083192e-9,8.823417749150342e-9,1.9011727560304153e-7,0
44733,4.188810817700313e-8,5.2064624447093407e-8,2.343741535257309e-9,8.414595183122437e-10,1.6349588489267763e-9,1.8130997109984378e-9,8.826401215619424e-9,1.88667908265801e-7,0
44734,4.189398644801641e-8,5.201805650653971e-8,2.327968126785179e-9,8.351099007335814e-10,1.632577457890902e-9,1.8042177856885565e-9,8.829384682088508e-9,1.8721854092856045e-7,0
44735,4.186961923281767e-8,5.193944511772212e-8,2.3259870443785976e-9,8.346352061869048e-10,1.6326448826209984e-9,1.804173858328911e-9,8.853398817872866e-9,1.8703379932064458e-7,0
44736,4.184525201761893e-8,5.186083372890452e-8,2.3240059619720163e-9,8.341605116402282e-10,1.6327123073510947e-9,1.8041299309692654e-9,8.877412953657224e-9,1.868490577127287e-7,0
44737,4.182088480242018e-8,5.178222234008692e-8,2.3220248795654353e-9,8.336858170935515e-10,1.6327797320811912e-9,1.80408600360962e-9,8.901427089441582e-9,1.8666431610481283e-7,0
44738,4.179651758722144e-8,5.170361095126933e-8,2.320043797158854e-9,8.332111225468749e-10,1.6328471568112876e-9,1.8040420762499745e-9,8.92544122522594e-9,1.8647957449689695e-7,0
44739,4.17721503720227e-8,5.162499956245173e-8,2.3180627147522726e-9,8.327364280001983e-10,1.6329145815413839e-9,1.803998148890329e-9,8.949455361010298e-9,1.8629483288898108e-7,0
44740,4.174778315682395e-8,5.154638817363413e-8,2.3160816323456916e-9,8.322617334535218e-10,1.6329820062714804e-9,1.8039542215306834e-9,8.973469496794656e-9,1.861100912810652e-7,0
44741,4.172341594162521e-8,5.146777678481654e-8,2.3141005499391103e-9,8.317870389068452e-10,1.6330494310015768e-9,1.803910294171038e-9,8.997483632579014e-9,1.8592534967314933e-7,0
44742,4.1699048726426464e-8,5.138916539599894e-8,2.312119467532529e-9,8.313123443601686e-10,1.633116855731673e-9,1.8038663668113925e-9,9.021497768363372e-9,1.8574060806523345e-7,0
44743,4.1685190405537875e-8,5.138744672075555e-8,2.3083997142468468e-9,8.313123443601686e-10,1.628762927137003e-9,1.80191528170221e-9,9.021497768363372e-9,1.8442102456948202e-7,0
44744,4.167133208464928e-8,5.138572804551216e-8,2.304679960961164e-9,8.313123443601686e-10,1.624408998542333e-9,1.7999641965930277e-9,9.021497768363372e-9,1.831014410737306e-7,0
44745,4.1657473763760684e-8,5.1384009370268765e-8,2.300960207675482e-9,8.313123443601686e-10,1.620055069947663e-9,1.7980131114838453e-9,9.021497768363372e-9,1.8178185757797917e-7,0
44746,4.1643615442872095e-8,5.138229069502537e-8,2.2972404543898e-9,8.313123443601686e-10,1.6157011413529929e-9,1.7960620263746626e-9,9.021497768363372e-9,1.8046227408222774e-7,0
44747,4.16297571219835e-8,5.1380572019781976e-8,2.2935207011041173e-9,8.313123443601686e-10,1.6113472127583229e-9,1.7941109412654802e-9,9.021497768363372e-9,1.7914269058647631e-7,0
44748,4.1615898801094904e-8,5.137885334453859e-8,2.289800947818435e-9,8.313123443601686e-10,1.6069932841636529e-9,1.7921598561562978e-9,9.021497768363372e-9,1.7782310709072489e-7,0
44749,4.1602040480206315e-8,5.1377134669295194e-8,2.2860811945327526e-9,8.313123443601686e-10,1.6026393555689829e-9,1.7902087710471154e-9,9.021497768363372e-9,1.7650352359497346e-7,0
44750,4.158818215931772e-8,5.13754159940518e-8,2.2823614412470705e-9,8.313123443601686e-10,1.5982854269743127e-9,1.788257685937933e-9,9.021497768363372e-9,1.7518394009922203e-7,0
44751,4.1574323838429123e-8,5.137369731880841e-8,2.278641687961388e-9,8.313123443601686e-10,1.5939314983796427e-9,1.7863066008287506e-9,9.021497768363372e-9,1.738643566034706e-7,0
44752,4.1560465517540534e-8,5.137197864356502e-8,2.2749219346757058e-9,8.313123443601686e-10,1.5895775697849727e-9,1.7843555157195681e-9,9.021497768363372e-9,1.7254477310771918e-7,0
44753,4.154660719665194e-8,5.137025996832162e-8,2.2712021813900236e-9,8.313123443601686e-10,1.5852236411903027e-9,1.7824044306103857e-9,9.021497768363372e-9,1.7122518961196775e-7,0
44754,4.153274887576334e-8,5.136854129307823e-8,2.267482428104341e-9,8.313123443601686e-10,1.5808697125956325e-9,1.7804533455012033e-9,9.021497768363372e-9,1.6990560611621632e-7,0
44755,4.1518890554874754e-8,5.136682261783484e-8,2.263762674818659e-9,8.313123443601686e-10,1.5765157840009625e-9,1.7785022603920209e-09,9.021497768363372e-9,1.685860226204649e-7,0
44756,4.150503223398616e-8,5.1365103942591446e-8,2.2600429215329764e-9,8.313123443601686e-10,1.5721618554062925e-9,1.7765511752828383e-9,9.021497768363372e-9,1.6726643912471347e-7,0
44757,4.149117391309756e-8,5.136338526734805e-8,2.2563231682472942e-9,8.313123443601686e-10,1.5678079268116225e-9,1.7746000901736559e-9,9.021497768363372e-9,1.6594685562896204e-7,0
44758,4.142475128646363e-8,5.1244858223058564e-8,2.255582003602607e-9,8.308376498134919e-10,1.5678079268116225e-9,1.7738739241776681e-9,9.044699101928515e-9,1.6478575330977197e-7,0
44759,4.094688479465564e-8,5.00937350560543e-8,2.2356875991633145e-9,8.303629552668153e-10,1.5683516297488937e-9,1.7649919988677868e-9,9.03752280203826e-9,1.6473552714421803e-7,0
44760,4.046901830284764e-8,4.894261188905004e-8,2.215793194724022e-9,8.298882607201387e-10,1.568895332686165e-9,1.7561100735579054e-9,9.030346502148006e-9,1.646853009786641e-7,0
44761,3.999115181103964e-8,4.779148872204577e-8,2.1958987902847297e-9,8.294135661734621e-10,1.5694390356234362e-9,1.747228148248024e-9,9.02317020225775e-9,1.6463507481311012e-7,0
44762,3.951328531923164e-8,4.6640365555041506e-8,2.176004385845437e-9,8.289388716267855e-10,1.5699827385607074e-9,1.7383462229381424e-9,9.015993902367496e-9,1.6458484864755618e-7,0
44763,3.9035418827423644e-8,4.5489242388037244e-8,2.1561099814061444e-9,8.284641770801089e-10,1.5705264414979786e-9,1.729464297628261e-9,9.008817602477242e-9,1.6453462248200224e-7,0
44764,3.855755233561565e-8,4.4338119221032974e-8,2.136215576966852e-9,8.279894825334323e-10,1.5710701444352498e-9,1.7205823723183797e-9,9.001641302586987e-9,1.644843963164483e-7,0
44765,3.8079685843807654e-8,4.318699605402871e-8,2.1163211725275596e-9,8.275147879867557e-10,1.571613847372521e-9,1.7117004470084983e-9,8.994465002696732e-9,1.6443417015089435e-7,0
44766,3.7601819351999655e-8,4.203587288702445e-8,2.0964267680882668e-9,8.270400934400791e-10,1.5721575503097923e-9,1.7028185216986168e-9,8.987288702806477e-9,1.643839439853404e-7,0
44767,3.712395286019166e-8,4.0884749720020186e-8,2.0765323636489743e-9,8.265653988934025e-10,1.5727012532470635e-9,1.6939365963887354e-9,8.980112402916223e-9,1.6433371781978644e-7,0
44768,3.664608636838366e-8,3.9733626553015917e-8,2.056637959209682e-9,8.260907043467259e-10,1.573244956184335e-9,1.685054671078854e-9,8.972936103025969e-9,1.642834916542325e-7,0
44769,3.6182078197464256e-8,3.862244215062655e-8,2.0405190283050585e-9,8.252754881984012e-10,1.5763273745277054e-9,1.6768989117649602e-9,8.942558469570572e-9,1.6450852007459611e-7,0
44770,3.5710143359866146e-8,3.7470052843210096e-8,2.021365788510453e-9,8.264312259483739e-10,1.5839435207460027e-9,1.67985527918911e-9,8.911368033895958e-9,1.6463639876481816e-7,0
44771,3.523820852226803e-8,3.631766353579365e-8,2.002212548715848e-9,8.275869636983468e-10,1.5915596669643003e-9,1.6828116466132597e-9,8.880177598221346e-9,1.647642774550402e-7,0
44772,3.478470924565877e-8,3.530801775951806e-8,1.991095079045541e-9,8.396292142229055e-10,1.5989285891722444e-9,1.674743742018657e-9,8.874848338483074e-9,1.6640056502118736e-7,0
44773,3.433120996904952e-8,3.429837198324247e-8,1.979977609375234e-9,8.516714647474643e-10,1.6062975113801885e-9,1.6666758374240543e-9,8.869519078744802e-9,1.680368525873345e-7,0
44774,3.387771069244027e-8,3.328872620696688e-8,1.9688601397049273e-9,8.637137152720229e-10,1.6136664335881326e-9,1.6586079328294515e-9,8.86418981900653e-9,1.6967314015348162e-7,0
44775,3.342421141583101e-8,3.227908043069129e-8,1.9577426700346204e-9,8.757559657965816e-10,1.6210353557960767e-9,1.6505400282348488e-9,8.858860559268257e-9,1.7130942771962877e-7,0
44776,3.297071213922176e-8,3.12694346544157e-8,1.9466252003643136e-9,8.877982163211404e-10,1.6284042780040208e-9,1.642472123640246e-9,8.853531299529983e-9,1.729457152857759e-7,0
44777,3.2517212862612504e-8,3.025978887814011e-8,1.9355077306940067e-9,8.998404668456991e-10,1.6357732002119648e-9,1.6344042190456435e-9,8.848202039791711e-9,1.7458200285192303e-7,0
44778,3.2063713586003254e-8,2.925014310186452e-8,1.9243902610237e-9,9.118827173702578e-10,1.643142122419909e-9,1.6263363144510408e-9,8.842872780053439e-9,1.7621829041807017e-7,0
44779,3.1610214309393996e-8,2.824049732558893e-8,1.9132727913533926e-9,9.239249678948165e-10,1.650511044627853e-9,1.618268409856438e-9,8.837543520315167e-9,1.778545779842173e-7,0
44780,3.1496400984451504e-8,2.8274174715571903e-8,1.920068643715797e-9,9.364419129660519e-10,1.6578799668357971e-9,1.618268409856438e-9,8.863247671700503e-9,1.7950702860466436e-7,0
44781,3.1382587659509006e-8,2.8307852105554874e-8,1.9268644960782018e-9,9.489588580372872e-10,1.6652488890437412e-9,1.618268409856438e-9,8.888951823085839e-9,1.811594792251114e-7,0
44782,3.1268774334566514e-8,2.8341529495537844e-8,1.933660348440606e-9,9.614758031085224e-10,1.6726178112516853e-9,1.618268409856438e-9,8.914655974471175e-9,1.8281192984555844e-7,0
44783,3.1154961009624016e-8,2.8375206885520815e-8,1.9404562008030106e-9,9.739927481797577e-10,1.6799867334596294e-9,1.618268409856438e-9,8.94036012585651e-9,1.844643804660055e-7,0
44784,3.1041147684681524e-8,2.8408884275503785e-8,1.9472520531654148e-9,9.865096932509931e-10,1.6873556556675735e-9,1.618268409856438e-9,8.966064277241846e-9,1.8611683108645254e-7,0
44785,3.091303982110372e-8,2.8398501924123882e-8,1.9450285592313532e-9,9.86327403164904e-10,1.6878319338747482e-9,1.6213048559193254e-9,9.000709253038555e-9,1.8669969195146098e-7,0
44786,3.078871760185108e-8,2.829466113612517e-8,1.9450703494180936e-9,9.879578354615533e-10,1.6893956179564655e-9,1.620263422325266e-9,9.003073673537779e-9,1.8754058762755658e-7,0
44787,3.0664395382598435e-8,2.8190820348126458e-8,1.9451121396048336e-9,9.895882677582029e-10,1.6909593020381829e-9,1.6192219887312066e-9,9.005438094037003e-9,1.8838148330365218e-7,0
44788,3.054007316334579e-8,2.8086979560127743e-8,1.9451539297915736e-9,9.912187000548522e-10,1.6925229861199002e-9,1.618180555137147e-9,9.007802514536229e-9,1.892223789797478e-7,0
44789,3.0528325773493125e-8,2.8057790948199636e-8,1.958834815359149e-9,9.966568672030683e-10,1.6956054044632706e-9,1.632923511855129e-9,9.009612822989857e-9,1.8918807006285895e-7,0
44790,3.04196342026376e-8,2.7972634144477018e-8,1.962810910234558e-9,9.999417903668975e-10,1.700705310185501e-9,1.6439477838738813e-9,9.128122308635762e-9,1.891543863728285e-7,0
44791,3.031094263178207e-8,2.7887477340754403e-8,1.9667870051099672e-9,1.0032267135307269e-9,1.7058052159077317e-9,1.6549720558926338e-9,9.246631794281667e-9,1.891207026827981e-7,0
44792,3.020225106092654e-8,2.7802320537031785e-8,1.9707630999853764e-9,1.006511636694556e-9,1.710905121629962e-9,1.6659963279113861e-9,9.365141279927573e-9,1.8908701899276766e-7,0
44793,3.0093559490071015e-8,2.7717163733309167e-8,1.9747391948607855e-9,1.0097965598583854e-9,1.7160050273521925e-9,1.6770205999301387e-9,9.483650765573478e-9,1.8905333530273721e-7,0
44794,3.01282052922925e-8,2.7733062208678462e-8,1.9787152897361946e-9,1.0097965598583854e-9,1.7029475466646825e-9,1.6770205999301387e-9,9.601504473551171e-9,1.8870814309036464e-7,0
44795,3.0162851094513987e-8,2.7748960684047754e-8,1.982691384611604e-9,1.0097965598583854e-9,1.6898900659771725e-9,1.6770205999301387e-9,9.719358181528864e-9,1.883629508779921e-7,0
44796,3.019749689673547e-8,2.776485915941705e-8,1.9866674794870133e-9,1.0097965598583854e-9,1.6768325852896624e-9,1.6770205999301387e-9,9.83721188950656e-9,1.880177586656195e-7,0
44797,3.023214269895695e-8,2.7780757634786344e-8,1.9906435743624224e-9,1.0097965598583854e-9,1.6637751046021524e-9,1.6770205999301387e-9,9.955065597484252e-9,1.8767256645324696e-7,0
44798,3.026678850117844e-8,2.7796656110155636e-8,1.9946196692378315e-9,1.0097965598583854e-9,1.6507176239146422e-9,1.6770205999301387e-9,1.0072919305461946e-8,1.8732737424087439e-7,0
44799,3.030143430339992e-8,2.781255458552493e-8,1.9985957641132406e-9,1.0097965598583854e-9,1.6376601432271322e-9,1.6770205999301387e-9,1.0190773013439639e-8,1.8698218202850184e-7,0
44800,3.03360801056214e-8,2.7828453060894223e-8,2.0025718589886498e-9,1.0097965598583854e-9,1.6246026625396221e-9,1.6770205999301387e-9,1.0308626721417334e-8,1.8663698981612926e-7,0
44801,3.037072590784289e-8,2.7844351536263518e-8,2.006547953864059e-9,1.0097965598583854e-9,1.6115451818521121e-9,1.6770205999301387e-9,1.0426480429395027e-8,1.862917976037567e-7,0
44802,3.0167492399831546e-8,2.7644927319857386e-8,2.0124912010838026e-9,1.0114510507255652e-9,1.5984877011646019e-9,1.6851841353245855e-9,1.0536723495527805e-8,1.8614595873898297e-7,0
44803,2.9964258891820204e-8,2.7445503103451257e-8,2.0184344483035462e-9,1.013105541592745e-9,1.5854302204770918e-9,1.6933476707190324e-9,1.0646966561660584e-8,1.8600011987420924e-7,0
44804,2.979795904115708e-8,2.7270111473243056e-8,2.0181781067138193e-9,1.0136524118510126e-9,1.5677491122745263e-9,1.6935233801576144e-9,1.0638884846162655e-8,1.8596092341201455e-7,0
44805,2.959536613150495e-8,2.714546170917964e-8,2.0181781067138193e-9,1.01249667410104e-9,1.5495917258647856e-9,1.689892550177676e-9,1.0630461402098524e-8,1.8583342622253144e-7,0
44806,2.939277322185282e-8,2.7020811945116226e-8,2.0181781067138193e-9,1.011340936351067e-9,1.531434339455045e-9,1.6862617201977373e-9,1.0622037958034392e-8,1.8570592903304836e-7,0
44807,2.919018031220069e-8,2.6896162181052813e-8,2.0181781067138193e-9,1.0101851986010942e-9,1.5132769530453045e-9,1.6826308902177986e-9,1.0613614513970261e-8,1.8557843184356527e-7,0
44808,2.898758740254856e-8,2.6771512416989396e-8,2.0181781067138193e-9,1.0090294608511213e-9,1.4951195666355639e-9,1.6790000602378599e-9,1.0605191069906131e-8,1.8545093465408216e-7,0
44809,2.878499449289643e-8,2.6646862652925983e-8,2.0181781067138193e-9,1.0078737231011485e-9,1.4769621802258234e-9,1.6753692302579214e-9,1.0596767625842e-8,1.8532343746459908e-7,0
44810,2.85824015832443e-8,2.6522212888862566e-8,2.0181781067138193e-9,1.0067179853511756e-9,1.4588047938160828e-9,1.6717384002779827e-9,1.0588344181777869e-8,1.85195940275116e-7,0
44811,2.837980867359217e-8,2.6397563124799153e-8,2.0181781067138193e-9,1.0055622476012028e-9,1.4406474074063423e-9,1.668107570298044e-9,1.0579920737713737e-8,1.8506844308563288e-7,0
44812,2.8177215763940038e-8,2.627291336073574e-8,2.0181781067138193e-9,1.00440650985123e-9,1.4224900209966017e-9,1.6644767403181055e-9,1.0571497293649608e-8,1.849409458961498e-7,0
44813,2.797462285428791e-8,2.6148263596672323e-8,2.0181781067138193e-9,1.003250772101257e-9,1.4043326345868612e-9,1.6608459103381668e-9,1.0563073849585476e-8,1.8481344870666668e-7,0
44814,2.7772029944635778e-8,2.602361383260891e-8,2.0181781067138193e-9,1.0020950343512842e-9,1.3861752481771206e-9,1.6572150803582281e-9,1.0554650405521345e-8,1.846859515171836e-7,0
44815,2.758302081756213e-8,2.5817666337950207e-8,2.014472283490384e-9,9.971315617497448e-10,1.3861752481771206e-9,1.6486406465658652e-9,1.0466380156009868e-8,1.8470504489307383e-7,0
44816,2.724099056787845e-8,2.551849149810268e-8,2.0084593859594066e-9,9.935921727882352e-10,1.3861752481771206e-9,1.647958407929523e-9,1.0401062124885788e-8,1.8369482610461025e-7,0
44817,2.6994036087316595e-8,2.5168574792110367e-8,2.004413640772764e-9,9.893957991939597e-10,1.3876265577086773e-9,1.6480462626488139e-9,1.0361605269698048e-8,1.828644664410889e-7,0
44818,2.6680042778589705e-8,2.4785717271239395e-8,1.9991558379487207e-9,9.875590182406907e-10,1.3905516516818228e-9,1.6632284929632508e-9,1.030581890672929e-8,1.8204131578081587e-7,0
44819,2.636604946986282e-8,2.440285975036842e-8,1.993898035124677e-9,9.857222372874217e-10,1.3934767456549683e-9,1.6784107232776878e-9,1.025003254376053e-8,1.8121816512054284e-7,0
44820,2.605205616113593e-8,2.4020002229497446e-8,1.988640232300634e-9,9.838854563341525e-10,1.3964018396281138e-9,1.6935929535921247e-9,1.0194246180791772e-8,1.803950144602698e-7,0
44821,2.573806285240904e-8,2.3637144708626475e-8,1.9833824294765904e-9,9.820486753808835e-10,1.3993269336012594e-9,1.7087751839065617e-9,1.0138459817823011e-8,1.7957186379999675e-7,0
44822,2.5424069543682155e-8,2.32542871877555e-8,1.9781246266525472e-9,9.802118944276145e-10,1.4022520275744049e-9,1.7239574142209986e-9,1.0082673454854253e-8,1.7874871313972372e-7,0
44823,2.5110076234955265e-8,2.287142966688453e-8,1.9728668238285037e-9,9.783751134743453e-10,1.4051771215475504e-9,1.7391396445354355e-9,1.0026887091885494e-8,1.779255624794507e-7,0
44824,2.479608292622838e-8,2.2488572146013554e-8,1.9676090210044605e-9,9.765383325210763e-10,1.4081022155206959e-9,1.7543218748498725e-9,9.971100728916735e-9,1.7710241181917766e-7,0
44825,2.448208961750149e-8,2.210571462514258e-8,1.962351218180417e-9,9.747015515678074e-10,1.4110273094938414e-9,1.7695041051643094e-9,9.915314365947974e-9,1.7627926115890463e-7,0
44826,2.41680963087746e-8,2.1722857104271608e-8,1.9570934153563737e-9,9.728647706145382e-10,1.413952403466987e-9,1.7846863354787464e-9,9.859528002979215e-9,1.754561104986316e-7,0
44827,2.3854103000047715e-8,2.1339999583400634e-8,1.9518356125323306e-9,9.710279896612692e-10,1.4168774974401322e-9,1.7998685657931833e-9,9.803741640010457e-9,1.7463295983835855e-7,0
44828,2.3540109691320825e-8,2.095714206252966e-8,1.946577809708287e-9,9.69191208708e-10,1.4198025914132777e-9,1.8150507961076203e-9,9.747955277041698e-9,1.7380980917808552e-7,0
44829,2.322611638259394e-8,2.0574284541658688e-8,1.941320006884244e-9,9.67354427754731e-10,1.4227276853864232e-9,1.8302330264220572e-9,9.692168914072939e-9,1.7298665851781249e-7,0
44830,2.291212307386705e-8,2.0191427020787713e-8,1.9360622040602002e-9,9.65517646801462e-10,1.4256527793595688e-9,1.8454152567364941e-9,9.636382551104178e-9,1.7216350785753946e-7,0
44831,2.259812976514016e-8,1.980856949991674e-8,1.930804401236157e-9,9.636808658481928e-10,1.4285778733327143e-9,1.860597487050931e-9,9.58059618813542e-9,1.7134035719726643e-7,0
44832,2.2284136456413274e-8,1.9425711979045767e-8,1.9255465984121135e-9,9.618440848949238e-10,1.4315029673058598e-9,1.875779717365368e-9,9.52480982516666e-9,1.705172065369934e-7,0
44833,2.1970143147686385e-8,1.9042854458174792e-8,1.9202887955880703e-9,9.600073039416548e-10,1.4344280612790053e-9,1.890961947679805e-9,9.469023462197902e-9,1.6969405587672034e-7,0
44834,2.16561498389595e-8,1.865999693730382e-8,1.9150309927640267e-9,9.581705229883856e-10,1.4373531552521508e-9,1.906144177994242e-9,9.413237099229143e-9,1.688709052164473e-7,0
44835,2.134215653023261e-8,1.8277139416432846e-8,1.9097731899399836e-9,9.563337420351167e-10,1.4402782492252963e-9,1.921326408308679e-9,9.357450736260382e-9,1.6804775455617428e-7,0
44836,2.102816322150572e-8,1.7894281895561875e-8,1.90451538711594e-9,9.544969610818477e-10,1.4432033431984418e-9,1.936508638623116e-9,9.301664373291624e-9,1.6722460389590125e-7,0
44837,2.0714169912778834e-8,1.75114243746909e-8,1.899257584291897e-9,9.526601801285785e-10,1.4461284371715873e-9,1.951690868937553e-9,9.245878010322865e-9,1.6640145323562822e-7,0
44838,2.077455411880968e-8,1.7526410077350108e-8,1.898003736467756e-9,9.532070503868463e-10,1.4459711128013624e-9,1.9668730992519897e-9,9.252888233427956e-9,1.6659789976669484e-7,0
44839,2.083493832484053e-8,1.7538426370449073e-8,1.892815583954946e-9,9.520994297779343e-10,1.448419928567333e-9,1.983008908441195e-9,9.258060468615224e-9,1.657096653955501e-7,0
44840,2.0895322530871378e-8,1.755044266354804e-8,1.887627431442136e-9,9.50991809169022e-10,1.4508687443333037e-9,1.9991447176304006e-9,9.263232703802493e-9,1.6482143102440534e-7,0
44841,2.0893763736149256e-8,1.75666328822381e-8,1.885390007445828e-9,9.493373183018423e-10,1.4534748844694992e-9,1.9993721305091814e-9,9.268404938989761e-9,1.6373839428082955e-7,0
44842,2.0892204941427138e-8,1.758282310092816e-8,1.88315258344952e-9,9.476828274346625e-10,1.456081024605695e-9,1.9995995433879622e-9,9.273577174177028e-9,1.6265535753725372e-7,0
44843,2.0890646146705016e-8,1.7599013319618223e-8,1.880915159453212e-9,9.460283365674827e-10,1.4586871647418904e-9,1.999826956266743e-9,9.278749409364296e-9,1.6157232079367793e-7,0
44844,2.0889087351982894e-8,1.7615203538308286e-8,1.878677735456904e-9,9.443738457003029e-10,1.461293304878086e-9,2.0000543691455234e-9,9.283921644551564e-9,1.604892840501021e-7,0
44845,2.0887528557260776e-8,1.7631393756998345e-8,1.876440311460596e-9,9.42719354833123e-10,1.4638994450142815e-9,2.0002817820243042e-9,9.289093879738833e-9,1.594062473065263e-7,0
44846,2.0885969762538654e-8,1.7647583975688407e-8,1.8742028874642876e-9,9.410648639659433e-10,1.4665055851504772e-9,2.000509194903085e-9,9.294266114926101e-9,1.583232105629505e-7,0
44847,2.0884410967816532e-8,1.7663774194378467e-8,1.8719654634679797e-9,9.394103730987633e-10,1.4691117252866727e-9,2.000736607781866e-9,9.29943835011337e-9,1.572401738193747e-7,0
44848,2.088285217309441e-8,1.767996441306853e-8,1.8697280394716718e-9,9.377558822315835e-10,1.4717178654228682e-9,2.0009640206606466e-9,9.304610585300636e-9,1.561571370757989e-7,0
44849,2.0881293378372292e-8,1.7696154631758592e-8,1.8674906154753634e-9,9.361013913644037e-10,1.4743240055590638e-9,2.0011914335394274e-9,9.309782820487904e-9,1.5507410033222307e-7,0
44850,2.087973458365017e-8,1.771234485044865e-8,1.8652531914790555e-9,9.34446900497224e-10,1.4769301456952595e-9,2.0014188464182082e-9,9.314955055675173e-9,1.5399106358864728e-7,0
44851,2.087817578892805e-8,1.7728535069138714e-8,1.8630157674827476e-9,9.327924096300441e-10,1.479536285831455e-9,2.001646259296989e-9,9.320127290862441e-9,1.5290802684507148e-7,0
44852,2.087661699420593e-8,1.7744725287828776e-8,1.8607783434864392e-9,9.311379187628643e-10,1.4821424259676505e-9,2.0018736721757694e-9,9.32529952604971e-9,1.5182499010149566e-7,0
44853,2.0769526919248433e-8,1.775867496901524e-8,1.8625170143655404e-9,9.322936565128372e-10,1.4836611602293036e-9,2.0018297448161243e-9,9.333648983955418e-9,1.5170160226884384e-7,0
44854,2.0662436844290936e-8,1.77726246502017e-8,1.8642556852446416e-9,9.3344939426281e-10,1.4851798944909567e-9,2.0017858174564787e-9,9.341998441861126e-9,1.5157821443619202e-7,0
44855,2.055534676933344e-8,1.7786574331388163e-8,1.8659943561237424e-9,9.346051320127829e-10,1.4866986287526097e-9,2.001741890096833e-9,9.350347899766834e-9,1.5145482660354018e-7,0
44856,2.0448256694375946e-8,1.7800524012574626e-8,1.8677330270028436e-9,9.357608697627557e-10,1.4882173630142628e-9,2.0016979627371876e-9,9.358697357672542e-9,1.5133143877088836e-7,0
44857,2.034116661941845e-8,1.781447369376109e-8,1.8694716978819448e-9,9.369166075127284e-10,1.489736097275916e-9,2.001654035377542e-9,9.36704681557825e-9,1.5120805093823654e-7,0
44858,2.0234076544460952e-8,1.7828423374947553e-8,1.871210368761046e-9,9.380723452627012e-10,1.4912548315375691e-9,2.0016101080178965e-9,9.375396273483958e-9,1.510846631055847e-7,0
44859,2.012698646950346e-8,1.7842373056134017e-8,1.8729490396401468e-9,9.39228083012674e-10,1.4927735657992222e-9,2.001566180658251e-9,9.383745731389666e-9,1.5096127527293288e-7,0
44860,2.001989639454596e-8,1.785632273732048e-8,1.874687710519248e-9,9.40383820762647e-10,1.4942923000608752e-9,2.0015222532986054e-9,9.392095189295374e-9,1.5083788744028103e-7,0
44861,1.995297348494803e-8,1.792224288231613e-8,1.878663805394657e-9,9.479992904657802e-10,1.4978285217013883e-9,2.0100966870909686e-9,9.392880312050395e-9,1.507032669497207e-7,0
44862,1.987343990217792e-8,1.7940926866592226e-8,1.8887085180500303e-9,9.483638706379586e-10,1.4968085405569422e-9,2.013727517070907e-9,9.454060868681692e-9,1.5109054725382347e-7,0
44863,1.9793906319407805e-8,1.7959610850868324e-8,1.8987532307054035e-9,9.487284508101372e-10,1.495788559412496e-9,2.017358347050846e-9,9.515241425312988e-9,1.5147782755792627e-07,0
44864,1.9714372736637694e-8,1.7978294835144418e-8,1.9087979433607767e-9,9.490930309823156e-10,1.4947685782680501e-9,2.0209891770307845e-9,9.576421981944283e-9,1.5186510786202906e-7,0
44865,1.963483915386758e-8,1.7996978819420515e-8,1.91884265601615e-9,9.494576111544942e-10,1.493748597123604e-9,2.024620007010723e-9,9.63760253857558e-9,1.5225238816613184e-7,0
44866,1.955530557109747e-8,1.8015662803696613e-8,1.9288873686715227e-9,9.498221913266726e-10,1.4927286159791579e-9,2.028250836990662e-9,9.698783095206876e-9,1.5263966847023464e-7,0
44867,1.947577198832736e-8,1.8034346787972707e-8,1.938932081326896e-9,9.501867714988512e-10,1.4917086348347118e-9,2.0318816669706003e-9,9.759963651838171e-9,1.5302694877433744e-7,0
44868,1.9396238405557245e-8,1.8053030772248805e-8,1.948976793982269e-9,9.505513516710295e-10,1.4906886536902656e-9,2.0355124969505392e-9,9.821144208469466e-9,1.534142290784402e-7,0
44869,1.9316704822787134e-8,1.80717147565249e-8,1.9590215066376424e-9,9.509159318432081e-10,1.4896686725458195e-9,2.0391433269304777e-9,9.882324765100763e-9,1.53801509382543e-7,0
44870,1.923717124001702e-8,1.8090398740800996e-8,1.9690662192930156e-9,9.512805120153865e-10,1.4886486914013734e-9,2.042774156910416e-9,9.943505321732059e-9,1.541887896866458e-7,0
44871,1.915763765724691e-8,1.8109082725077094e-8,1.9791109319483888e-9,9.516450921875651e-10,1.4876287102569273e-9,2.046404986890355e-9,1.0004685878363354e-8,1.5457606999074858e-7,0
44872,1.90781040744768e-8,1.8127766709353188e-8,1.9891556446037616e-9,9.520096723597435e-10,1.4866087291124813e-9,2.0500358168702936e-9,1.006586643499465e-8,1.5496335029485138e-7,0
44873,1.8998570491706685e-8,1.8146450693629285e-8,1.999200357259135e-9,9.52374252531922e-10,1.4855887479680352e-9,2.053666646850232e-9,1.0127046991625946e-8,1.5535063059895418e-7,0
44874,1.8919036908936574e-8,1.8165134677905383e-8,2.009245069914508e-9,9.527388327041005e-10,1.484568766823589e-9,2.057297476830171e-9,1.0188227548257242e-8,1.5573791090305698e-7,0
44875,1.8900154448180316e-8,1.815992473084154e-8,2.009245069914508e-9,9.519236165557758e-10,1.4881049884641022e-9,2.0609283068101094e-9,1.0187202362558635e-8,1.5561814081596679e-7,0
44876,1.929692856249608e-8,1.8234576906912146e-8,2.0072639875079266e-9,9.536262245640164e-10,1.4870175825895597e-9,2.0609283068101094e-9,1.0195551820464343e-8,1.5549475298331497e-7,0
44877,1.969370267681184e-8,1.830922908298275e-8,2.0052829051013457e-9,9.55328832572257e-10,1.4859301767150173e-9,2.0609283068101094e-9,1.020390127837005e-8,1.5537136515066312e-7,0
44878,2.0090476791127607e-08,1.8383881259053357e-8,2.0033018226947643e-9,9.570314405804975e-10,1.4848427708404748e-9,2.0609283068101094e-9,1.0212250736275759e-8,1.552479773180113e-7,0
44879,2.048725090544337e-8,1.8458533435123962e-8,2.001320740288183e-9,9.587340485887382e-10,1.4837553649659323e-9,2.0609283068101094e-9,1.0220600194181467e-8,1.5512458948535949e-7,0
44880,2.0884025019759136e-8,1.8533185611194567e-8,1.999339657881602e-9,9.604366565969786e-10,1.4826679590913897e-9,2.0609283068101094e-9,1.0228949652087175e-8,1.5500120165270764e-7,0
44881,2.12807991340749e-8,1.8607837787265172e-8,1.9973585754750206e-9,9.621392646052192e-10,1.4815805532168472e-9,2.0609283068101094e-9,1.0237299109992883e-8,1.5487781382005582e-7,0
44882,2.1677573248390665e-8,1.8682489963335777e-8,1.9953774930684393e-9,9.638418726134599e-10,1.4804931473423048e-9,2.0609283068101094e-9,1.0245648567898591e-8,1.54754425987404e-7,0
44883,2.2074347362706428e-8,1.8757142139406383e-8,1.9933964106618583e-9,9.655444806217003e-10,1.4794057414677623e-9,2.0609283068101094e-9,1.02539980258043e-8,1.5463103815475216e-7,0
44884,2.2471121477022194e-8,1.8831794315476988e-8,1.991415328255277e-9,9.67247088629941e-10,1.4783183355932199e-9,2.0609283068101094e-9,1.0262347483710007e-8,1.5450765032210034e-7,0
44885,2.2867895591337956e-8,1.8906446491547593e-8,1.9894342458486956e-9,9.689496966381816e-10,1.4772309297186772e-9,2.0609283068101094e-9,1.0270696941615715e-8,1.5438426248944852e-7,0
44886,2.3264669705653722e-8,1.8981098667618198e-8,1.9874531634421146e-9,9.70652304646422e-10,1.4761435238441347e-9,2.0609283068101094e-9,1.0279046399521424e-8,1.5426087465679668e-7,0
44887,2.3661443819969485e-8,1.9055750843688807e-8,1.9854720810355333e-9,9.723549126546627e-10,1.4750561179695923e-9,2.0609283068101094e-9,1.0287395857427132e-8,1.5413748682414486e-7,0
44888,2.405821793428525e-8,1.9130403019759412e-8,1.983490998628952e-9,9.740575206629033e-10,1.4739687120950498e-9,2.0609283068101094e-9,1.029574531533284e-8,1.5401409899149304e-7,0
44889,2.4454992048601014e-8,1.9205055195830017e-8,1.981509916222371e-9,9.757601286711438e-10,1.4728813062205074e-9,2.0609283068101094e-9,1.0304094773238548e-8,1.538907111588412e-7,0
44890,2.485176616291678e-8,1.9279707371900622e-8,1.9795288338157896e-9,9.774627366793844e-10,1.471793900345965e-9,2.0609283068101094e-9,1.0312444231144256e-8,1.5376732332618938e-7,0
44891,2.5248540277232543e-8,1.9354359547971227e-8,1.9775477514092082e-9,9.79165344687625e-10,1.4707064944714223e-9,2.0609283068101094e-9,1.0320793689049964e-8,1.5364393549353754e-7,0
44892,2.564531439154831e-8,1.9429011724041833e-8,1.9755666690026273e-9,9.808679526958655e-10,1.4696190885968798e-9,2.0609283068101094e-9,1.0329143146955672e-8,1.5352054766088572e-7,0
44893,2.604208850586407e-8,1.9503663900112438e-8,1.973585586596046e-9,9.825705607041061e-10,1.4685316827223374e-9,2.0609283068101094e-9,1.033749260486138e-8,1.533971598282339e-7,0
44894,2.6438862620179837e-8,1.9578316076183043e-8,1.9716045041894645e-9,9.842731687123468e-10,1.467444276847795e-9,2.0609283068101094e-9,1.0345842062767088e-8,1.5327377199558205e-7,0
44895,2.68356367344956e-8,1.9652968252253648e-8,1.9696234217828836e-9,9.859757767205872e-10,1.4663568709732524e-9,2.0609283068101094e-9,1.0354191520672796e-8,1.5315038416293024e-7,0
44896,2.7232410848811366e-8,1.9727620428324253e-8,1.9676423393763022e-9,9.876783847288278e-10,1.4652694650987098e-9,2.0609283068101094e-9,1.0362540978578504e-8,1.5302699633027842e-7,0
44897,2.712321899499184e-8,1.9721405271978334e-8,1.9693810102554034e-9,9.87021400096062e-10,1.4642494839542639e-9,2.0628354645596465e-9,1.0362171570548109e-8,1.5318470736351425e-7,0
44898,2.7014027141172313e-8,1.971519011563241e-8,1.971119681134504e-9,9.86364415463296e-10,1.4632295028098177e-9,2.064742622309183e-9,1.0361802162517712e-8,1.533424183967501e-7,0
44899,2.690483528735279e-8,1.9708974959286488e-8,1.9728583520136054e-9,9.857074308305303e-10,1.4622095216653716e-9,2.0666497800587203e-9,1.0361432754487317e-8,1.5350012942998594e-7,0
44900,2.6795643433533263e-8,1.9702759802940568e-8,1.9745970228927066e-9,9.850504461977644e-10,1.4611895405209255e-9,2.0685569378082573e-9,1.036106334645692e-8,1.536578404632218e-7,0
44901,2.6686451579713736e-8,1.9696544646594645e-8,1.9763356937718078e-9,9.843934615649985e-10,1.4601695593764794e-9,2.070464095557794e-9,1.0360693938426522e-8,1.5381555149645762e-7,0
44902,2.657725972589421e-8,1.9690329490248722e-8,1.9780743646509086e-9,9.837364769322328e-10,1.4591495782320332e-9,2.072371253307331e-9,1.0360324530396127e-8,1.5397326252969348e-7,0
44903,2.6468067872074686e-8,1.9684114333902803e-8,1.9798130355300098e-9,9.830794922994669e-10,1.4581295970875871e-9,2.074278411056868e-9,1.035995512236573e-8,1.5413097356292934e-7,0
44904,2.635887601825516e-8,1.967789917755688e-8,1.981551706409111e-9,9.82422507666701e-10,1.4571096159431412e-9,2.0761855688064052e-9,1.0359585714335333e-8,1.5428868459616517e-7,0
44905,2.6322868179596953e-8,1.9647766980728022e-8,1.9832485871014717e-9,9.817655230339352e-10,1.4576533188804124e-9,2.0783640667943682e-9,1.024173200635764e-8,1.5322465136727783e-7,0
44906,2.6242773308339133e-8,1.9591715027899733e-8,1.984987257980573e-9,9.703423184792352e-10,1.4250096171616372e-9,2.074417969216358e-9,1.0221514139261581e-8,1.531523393071304e-7,0
44907,2.6162678437081317e-8,1.9535663075071444e-8,1.986725928859674e-9,9.589191139245355e-10,1.3923659154428619e-9,2.0704718716383475e-9,1.0201296272165521e-8,1.5308002724698299e-7,0
44908,2.6082583565823497e-8,1.9479611122243155e-8,1.9884645997387753e-9,9.474959093698357e-10,1.3597222137240867e-9,2.066525774060337e-9,1.0181078405069463e-8,1.5300771518683555e-7,0
44909,2.6002488694565677e-8,1.9423559169414865e-8,1.990203270617876e-9,9.360727048151357e-10,1.3270785120053115e-9,2.0625796764823267e-9,1.0160860537973405e-8,1.5293540312668814e-7,0
44910,2.5922393823307857e-8,1.9367507216586576e-8,1.9919419414969773e-9,9.246495002604359e-10,1.2944348102865364e-9,2.0586335789043163e-9,1.0140642670877345e-8,1.528630910665407e-7,0
44911,2.584229895205004e-8,1.9311455263758287e-8,1.9936806123760785e-9,9.13226295705736e-10,1.2617911085677612e-9,2.054687481326306e-9,1.0120424803781286e-8,1.5279077900639327e-7,0
44912,2.576220408079222e-8,1.925540331093e-8,1.9954192832551797e-9,9.018030911510362e-10,1.229147406848986e-9,2.0507413837482956e-9,1.0100206936685226e-8,1.5271846694624586e-7,0
44913,2.56821092095344e-8,1.9199351358101712e-8,1.9971579541342805e-9,8.903798865963364e-10,1.1965037051302109e-9,2.046795286170285e-9,1.0079989069589168e-8,1.5264615488609843e-7,0
44914,2.560201433827658e-8,1.9143299405273423e-8,1.9988966250133817e-9,8.789566820416366e-10,1.1638600034114357e-9,2.042849188592275e-9,1.005977120249311e-8,1.52573842825951e-7,0
44915,2.5521919467018765e-8,1.9087247452445134e-8,2.000635295892483e-9,8.675334774869367e-10,1.1312163016926605e-9,2.0389030910142644e-9,1.003955333539705e-8,1.5250153076580359e-7,0
44916,2.5441824595760945e-8,1.9031195499616845e-8,2.0023739667715836e-9,8.561102729322368e-10,1.0985725999738854e-9,2.034956993436254e-9,1.0019335468300991e-8,1.5242921870565615e-7,0
44917,2.541157910954892e-8,1.902498034327092e-8,1.9940679249953116e-9,8.352486978135113e-10,1.0976649933795998e-9,2.0330576117672705e-9,1.0004926986830376e-8,1.5255629362283014e-7,0
44918,2.537000414688314e-8,1.901872667168667e-8,1.997046513636307e-9,8.354069293290702e-10,1.0951262779735007e-9,2.0330576117672705e-9,9.984709119734317e-9,1.527361955988579e-7,0
44919,2.5330317430292986e-8,1.9022463468541888e-8,1.9851321590723263e-9,8.359537995873379e-10,1.091477681782827e-9,2.033189393846207e-9,9.983055835831691e-9,1.5270230895427816e-7,0
44920,2.532361095480899e-8,1.9090999655395685e-8,1.9729614629186188e-9,8.347980618373651e-10,1.0879414601423137e-9,2.046795286170285e-9,1.0005296394860773e-8,1.528856757142514e-7,0
44921,2.5316904479324996e-8,1.9159535842249482e-8,1.960790766764911e-9,8.336423240873923e-10,1.0844052385018006e-9,2.0604011784943637e-9,1.0027536953889853e-8,1.5306904247422463e-7,0
44922,2.5356537812718552e-8,1.919133279298807e-8,1.960790766764911e-9,8.344575402357169e-10,1.085492644376343e-9,2.076185568806405e-9,9.86047276409383e-9,1.5211099279133534e-07,0
44923,2.5396171146112104e-8,1.9223129743726656e-8,1.960790766764911e-9,8.352727563840417e-10,1.0865800502508855e-9,2.0919699591184463e-9,9.69340857429781e-9,1.5115294310844606e-7,0
44924,2.5435804479505656e-8,1.9254926694465243e-8,1.960790766764911e-9,8.360879725323664e-10,1.087667456125428e-9,2.107754349430488e-9,9.526344384501788e-9,1.5019489342555678e-7,0
44925,2.5475437812899212e-8,1.928672364520383e-8,1.960790766764911e-9,8.369031886806911e-10,1.0887548619999707e-9,2.1235387397425293e-9,9.359280194705766e-9,1.492368437426675e-7,0
44926,2.5515071146292764e-8,1.9318520595942416e-8,1.960790766764911e-9,8.377184048290159e-10,1.0898422678745131e-9,2.139323130054571e-9,9.192216004909744e-9,1.482787940597782e-7,0
44927,2.5554704479686317e-8,1.9350317546681006e-8,1.960790766764911e-9,8.385336209773406e-10,1.0909296737490556e-9,2.1551075203666124e-9,9.025151815113722e-9,1.4732074437688892e-7,0
44928,2.5594337813079872e-8,1.9382114497419593e-8,1.960790766764911e-9,8.393488371256652e-10,1.092017079623598e-9,2.170891910678654e-9,8.8580876253177e-9,1.4636269469399964e-7,0
44929,2.5633971146473424e-8,1.941391144815818e-8,1.960790766764911e-9,8.4016405327399e-10,1.0931044854981405e-9,2.1866763009906954e-9,8.691023435521679e-9,1.4540464501111035e-7,0
44930,2.5671885535555053e-8,1.9492384182117785e-8,1.9545911779554406e-9,8.373538246568374e-10,1.0941244666425866e-9,2.2002821933147735e-9,8.716884611458019e-9,1.4518033466162376e-7,0
44931,2.5531166998805077e-8,1.9463056915331684e-8,1.9455718316589744e-9,8.369892444846589e-10,1.0880720045060064e-9,2.207220809596026e-9,8.739125170487099e-9,1.4519492497576397e-7,0
44932,2.53904484620551e-8,1.9433729648545586e-8,1.9365524853625087e-9,8.366246643124804e-10,1.0820195423694264e-9,2.214159425877278e-9,8.76136572951618e-9,1.4520951528990418e-7,0
44933,2.537581684973919e-8,1.9359537710353855e-8,1.9297984231868445e-9,8.374158218902747e-10,1.0759670802328461e-9,2.205584992084915e-9,8.766168556673052e-9,1.450164335569168e-7,0
44934,2.5235098312989214e-8,1.926541105356918e-8,1.924741241703541e-9,8.38206979468069e-10,1.0683509340145486e-9,2.1977806516481855e-9,8.762704964316797e-9,1.44933674169183e-7,0
44935,2.509437977623924e-8,1.9171284396784502e-8,1.919684060220238e-9,8.389981370458634e-10,1.060734787796251e-9,2.1899763112114555e-9,8.759241371960541e-9,1.448509147814492e-7,0
44936,2.4953661239489262e-8,1.9077157739999826e-8,1.9146268787369347e-9,8.397892946236578e-10,1.0531186415779534e-9,2.1821719707747258e-9,8.755777779604286e-9,1.4476815539371542e-7,0
44937,2.4812942702739287e-8,1.898303108321515e-8,1.9095696972536313e-9,8.405804522014521e-10,1.0455024953596559e-9,2.174367630337996e-9,8.752314187248032e-9,1.4468539600598165e-7,0
44938,2.467222416598931e-8,1.8888904426430473e-8,1.904512515770328e-9,8.413716097792464e-10,1.0378863491413585e-9,2.1665632899012665e-9,8.748850594891777e-9,1.4460263661824786e-7,0
44939,2.4531505629239335e-8,1.8794777769645796e-8,1.8994553342870245e-9,8.421627673570407e-10,1.030270202923061e-9,2.158758949464537e-9,8.745387002535521e-9,1.4451987723051406e-7,0
44940,2.439078709248936e-8,1.870065111286112e-8,1.8943981528037215e-9,8.429539249348351e-10,1.0226540567047634e-9,2.1509546090278067e-9,8.741923410179267e-9,1.4443711784278027e-7,0
44941,2.4250068555739383e-8,1.8606524456076443e-8,1.889340971320418e-9,8.437450825126295e-10,1.0150379104864658e-9,2.143150268591077e-9,8.738459817823012e-9,1.4435435845504648e-7,0
44942,2.4109350018989407e-8,1.8512397799291766e-8,1.8842837898371147e-9,8.445362400904238e-10,1.0074217642681682e-9,2.1353459281543474e-9,8.734996225466756e-9,1.442715990673127e-7,0
44943,2.3968631482239434e-8,1.841827114250709e-8,1.8792266083538112e-9,8.453273976682182e-10,9.998056180498708e-10,2.1275415877176177e-9,8.731532633110501e-9,1.4418883967957892e-7,0
44944,2.3827912945489458e-8,1.8324144485722413e-8,1.8741694268705082e-9,8.461185552460125e-10,9.921894718315733e-10,2.1197372472808877e-9,8.728069040754247e-9,1.4410608029184513e-7,0
44945,2.3687194408739482e-8,1.8230017828937737e-8,1.869112245387205e-9,8.469097128238068e-10,9.845733256132757e-10,2.111932906844158e-9,8.724605448397992e-9,1.4402332090411134e-7,0
44946,2.3546475871989506e-8,1.813589117215306e-8,1.8640550639039014e-9,8.477008704016012e-10,9.769571793949781e-10,2.1041285664074283e-9,8.721141856041736e-9,1.4394056151637754e-7,0
44947,2.340575733523953e-8,1.8041764515368384e-8,1.858997882420598e-9,8.484920279793955e-10,9.693410331766806e-10,2.0963242259706987e-9,8.717678263685481e-9,1.4385780212864375e-7,0
44948,2.3265038798489554e-8,1.7947637858583707e-8,1.8539407009372948e-9,8.492831855571899e-10,9.617248869583832e-10,2.088519885533969e-9,8.714214671329227e-9,1.4377504274090996e-7,0
44949,2.312432026173958e-8,1.785351120179903e-8,1.8488835194539914e-9,8.500743431349842e-10,9.541087407400856e-10,2.080715545097239e-9,8.71075107897297e-9,1.436922833531762e-7,0
44950,2.2983601724989602e-8,1.7759384545014357e-8,1.8438263379706882e-9,8.508655007127785e-10,9.46492594521788e-10,2.0729112046605093e-9,8.707287486616716e-9,1.436095239654424e-7,0
44951,2.2961986039186e-8,1.7520075485326997e-8,1.8355202961944162e-9,8.52495933009428e-10,9.46470119611756e-10,2.0729112046605093e-9,8.69902106710359e-9,1.4356754300142597e-7,0
44952,2.2913251608788512e-8,1.750578784253377e-8,1.8394824610075785e-9,8.532870905872224e-10,9.415724880798146e-10,2.0578168290653636e-9,8.597580428061214e-9,1.4367958598612323e-7,0
44953,2.2864517178391026e-8,1.749150019974054e-8,1.843444625820741e-9,8.540782481650167e-10,9.366748565478734e-10,2.0427224534702176e-9,8.49613978901884e-9,1.437916289708205e-7,0
44954,2.2815782747993538e-8,1.7477212556947314e-8,1.8474067906339036e-9,8.54869405742811e-10,9.317772250159321e-10,2.0276280778750715e-9,8.394699149976466e-9,1.4390367195551776e-7,0
44955,2.2767048317596053e-8,1.7462924914154086e-8,1.8513689554470659e-9,8.556605633206053e-10,9.268795934839908e-10,2.0125337022799255e-9,8.293258510934092e-9,1.4401571494021502e-7,0
44956,2.2718313887198564e-8,1.7448637271360858e-8,1.8553311202602284e-9,8.564517208983997e-10,9.219819619520495e-10,1.9974393266847794e-9,8.191817871891718e-9,1.441277579249123e-7,0
44957,2.266957945680108e-8,1.743434962856763e-8,1.859293285073391e-9,8.572428784761941e-10,9.170843304201081e-10,1.9823449510896338e-9,8.090377232849343e-9,1.4423980090960956e-7,0
44958,2.262084502640359e-8,1.7420061985774402e-8,1.8632554498865532e-9,8.580340360539884e-10,9.121866988881668e-10,1.9672505754944877e-9,7.988936593806969e-9,1.4435184389430682e-7,0
44959,2.2572110596006105e-8,1.7405774342981174e-8,1.867217614699716e-9,8.588251936317827e-10,9.072890673562256e-10,1.9521561998993417e-9,7.887495954764595e-9,1.444638868790041e-7,0
44960,2.2523376165608616e-8,1.7391486700187947e-8,1.8711797795128783e-9,8.596163512095771e-10,9.023914358242842e-10,1.9370618243041956e-9,7.78605531572222e-9,1.4457592986370136e-7,0
44961,2.2643343829721298e-8,1.7433405071176332e-8,1.8870841590145148e-9,8.592517710373986e-10,8.979700824995178e-10,1.9211973553534165e-9,7.696030639447219e-9,1.4464315648632586e-7,0
44962,2.2568558318661947e-8,1.7439144583548044e-8,1.8893076529485763e-9,8.582302062324543e-10,8.945237604991332e-10,1.9141708843528734e-9,7.60396464400916e-9,1.4463254905527573e-7,0
44963,2.2493772807602597e-8,1.744488409591976e-8,1.891531146882638e-9,8.572086414275099e-10,8.910774384987486e-10,1.9071444133523303e-9,7.511898648571101e-9,1.446219416242256e-7,0
44964,2.2418987296543247e-8,1.745062360829147e-8,1.893754640816699e-9,8.561870766225656e-10,8.876311164983639e-10,1.9001179423517867e-9,7.419832653133044e-9,1.4461133419317546e-7,0
44965,2.2344201785483896e-8,1.7456363120663186e-8,1.8959781347507605e-9,8.551655118176213e-10,8.841847944979793e-10,1.8930914713512436e-9,7.327766657694985e-9,1.4460072676212533e-7,0
44966,2.2269416274424543e-8,1.7462102633034898e-8,1.8982016286848216e-9,8.541439470126768e-10,8.807384724975947e-10,1.8860650003507e-9,7.235700662256927e-9,1.445901193310752e-7,0
44967,2.2194630763365192e-8,1.7467842145406613e-8,1.900425122618883e-9,8.531223822077325e-10,8.772921504972101e-10,1.879038529350157e-9,7.1436346668188685e-9,1.4457951190002506e-7,0
44968,2.2119845252305842e-8,1.7473581657778325e-8,1.9026486165529447e-9,8.521008174027882e-10,8.738458284968255e-10,1.872012058349614e-9,7.0515686713808105e-9,1.4456890446897493e-7,0
44969,2.2045059741246492e-8,1.747932117015004e-8,1.904872110487006e-9,8.510792525978438e-10,8.70399506496441e-10,1.8649855873490704e-9,6.959502675942752e-9,1.445582970379248e-7,0
44970,2.197027423018714e-8,1.748506068252175e-8,1.9070956044210674e-9,8.500576877928995e-10,8.669531844960563e-10,1.8579591163485273e-9,6.867436680504694e-9,1.4454768960687466e-7,0
44971,2.1937516674041283e-8,1.7520763897164214e-8,1.9070538142343274e-9,8.43525780128148e-10,8.669531844960563e-10,1.866841041658409e-9,6.876968348660014e-9,1.444826344633933e-7,0
44972,2.1922795069833173e-8,1.7507896455736495e-8,1.9052594231062394e-9,8.411661874871416e-10,8.635068624956717e-10,1.8598145706578655e-9,6.86546934750006e-9,1.4368016718568225e-7,0
44973,2.1908073465625066e-8,1.7495029014308774e-8,1.9034650319781514e-9,8.388065948461352e-10,8.600605404952871e-10,1.8527880996573222e-9,6.853970346340105e-9,1.428776999079712e-7,0
44974,2.1893351861416955e-8,1.748216157288105e-8,1.9016706408500634e-9,8.364470022051287e-10,8.566142184949025e-10,1.845761628656779e-9,6.842471345180151e-9,1.4207523263026014e-7,0
44975,2.1878630257208848e-8,1.7469294131453333e-8,1.899876249721976e-9,8.340874095641223e-10,8.531678964945179e-10,1.8387351576562358e-9,6.830972344020196e-9,1.412727653525491e-7,0
44976,2.1863908653000738e-8,1.745642669002561e-8,1.898081858593888e-9,8.317278169231159e-10,8.497215744941333e-10,1.8317086866556925e-9,6.819473342860242e-9,1.4047029807483804e-7,0
44977,2.184918704879263e-8,1.7443559248597892e-8,1.8962874674658e-9,8.293682242821094e-10,8.462752524937486e-10,1.8246822156551492e-9,6.807974341700287e-9,1.39667830797127e-7,0
44978,2.183446544458452e-8,1.743069180717017e-8,1.894493076337712e-9,8.270086316411031e-10,8.42828930493364e-10,1.817655744654606e-9,6.796475340540333e-9,1.3886536351941594e-7,0
44979,2.1819743840376413e-8,1.741782436574245e-8,1.8926986852096242e-9,8.246490390000966e-10,8.393826084929794e-10,1.8106292736540627e-9,6.784976339380378e-9,1.380628962417049e-7,0
44980,2.1805022236168303e-8,1.740495692431473e-8,1.8909042940815362e-9,8.222894463590902e-10,8.359362864925948e-10,1.8036028026535194e-9,6.773477338220424e-9,1.3726042896399384e-7,0
44981,2.1790300631960196e-8,1.7392089482887008e-8,1.8891099029534482e-9,8.199298537180837e-10,8.324899644922102e-10,1.7965763316529761e-9,6.761978337060469e-9,1.364579616862828e-7,0
44982,2.1775579027752086e-8,1.737922204145929e-8,1.8873155118253607e-9,8.175702610770774e-10,8.290436424918256e-10,1.789549860652433e-9,6.750479335900515e-9,1.3565549440857174e-7,0
44983,2.2318393250883775e-8,1.8004512092531184e-8,1.895565833352646e-9,8.175702610770774e-10,8.290436424918256e-10,1.789549860652433e-9,6.8212282923854835e-9,1.3529733759796866e-7,0
44984,2.2290249543533783e-8,1.796194187996282e-8,1.8917903598179765e-9,8.158676530688368e-10,8.292459166821147e-10,1.7795386470292011e-9,6.803818239977469e-9,1.345178272473443e-7,0
44985,2.2262105836183787e-8,1.791937166739445e-8,1.8880148862833076e-9,8.141650450605962e-10,8.294481908724039e-10,1.7695274334059692e-9,6.786408187569453e-9,1.3373831689671994e-7,0
44986,2.220872094829484e-8,1.776986127794735e-8,1.8580061188774083e-9,8.124624370523557e-10,8.340718183874595e-10,1.7635863233591309e-9,6.7833326304736295e-9,1.337506663927565e-7,0
44987,2.2155336060405897e-8,1.7620350888500247e-8,1.8279973514715093e-9,8.107598290441151e-10,8.386954459025152e-10,1.7576452133122925e-9,6.780257073377806e-9,1.3376301588879308e-7,0
44988,2.2101951172516953e-8,1.7470840499053145e-8,1.79798858406561e-9,8.090572210358745e-10,8.433190734175709e-10,1.7517041032654544e-9,6.7771815162819825e-9,1.3377536538482964e-7,0
44989,2.2352662311035468e-8,1.7938710410722176e-8,1.7679798166597108e-9,8.065393968793093e-10,8.442941047419527e-10,1.7398658105314233e-9,6.778908786343031e-9,1.3384259200745415e-7,0
44990,2.2603373449553986e-8,1.8406580322391204e-8,1.7379710492538118e-9,8.040215727227439e-10,8.452691360663345e-10,1.7280275177973921e-9,6.780636056404079e-9,1.3390981863007865e-7,0
44991,2.2854084588072503e-8,1.8874450234060236e-8,1.7079622818479126e-9,8.015037485661786e-10,8.462441673907164e-10,1.716189225063361e-9,6.7823633264651275e-9,1.3397704525270313e-7,0
44992,2.310479572659102e-8,1.9342320145729264e-8,1.6779535144420136e-9,7.989859244096134e-10,8.472191987150981e-10,1.7043509323293299e-9,6.784090596526175e-9,1.3404427187532764e-7,0
44993,2.335550686510954e-8,1.9810190057398292e-8,1.6479447470361143e-9,7.96468100253048e-10,8.4819423003948e-10,1.6925126395952987e-9,6.785817866587224e-9,1.3411149849795215e-7,0
44994,2.3606218003628054e-8,2.0278059969067324e-8,1.6179359796302153e-9,7.939502760964828e-10,8.491692613638618e-10,1.6806743468612678e-9,6.787545136648272e-9,1.3417872512057666e-7,0
44995,2.385692914214657e-8,2.074592988073635e-8,1.587927212224316e-9,7.914324519399175e-10,8.501442926882436e-10,1.6688360541272367e-9,6.78927240670932e-9,1.3424595174320116e-7,0
44996,2.410764028066509e-8,2.1213799792405383e-8,1.557918444818417e-9,7.889146277833522e-10,8.511193240126255e-10,1.6569977613932055e-9,6.790999676770368e-9,1.3431317836582567e-7,0
44997,2.4358351419183607e-8,2.168166970407441e-8,1.5279096774125178e-9,7.863968036267869e-10,8.520943553370073e-10,1.6451594686591744e-9,6.792726946831417e-9,1.3438040498845018e-7,0
44998,2.4609062557702125e-8,2.214953961574344e-8,1.4979009100066186e-9,7.838789794702216e-10,8.530693866613891e-10,1.6333211759251433e-9,6.7944542168924644e-9,1.3444763161107469e-7,0
44999,2.485977369622064e-8,2.261740952741247e-8,1.4678921426007195e-9,7.813611553136563e-10,8.54044417985771e-10,1.6214828831911123e-9,6.796181486953513e-9,1.345148582336992e-7,0
45000,2.5110484834739157e-8,2.30852794390815e-8,1.4378833751948203e-9,7.788433311570911e-10,8.550194493101528e-10,1.6096445904570812e-9,6.797908757014561e-9,1.3458208485632368e-7,0
45001,2.5361195973257675e-8,2.355314935075053e-8,1.4078746077889213e-9,7.763255070005257e-10,8.559944806345347e-10,1.59780629772305e-9,6.7996360270756094e-9,1.3464931147894818e-7,0
45002,2.5611907111776193e-8,2.402101926241956e-8,1.377865840383022e-9,7.738076828439604e-10,8.569695119589165e-10,1.585968004989019e-9,6.801363297136657e-9,1.347165381015727e-7,0
45003,2.586261825029471e-8,2.448888917408859e-8,1.347857072977123e-9,7.712898586873952e-10,8.579445432832983e-10,1.5741297122549878e-9,6.803090567197706e-9,1.347837647241972e-7,0
45004,2.6113329388813225e-8,2.4956759085757618e-8,1.3178483055712238e-9,7.687720345308299e-10,8.589195746076802e-10,1.5622914195209567e-9,6.804817837258754e-9,1.348509913468217e-7,0
45005,2.6364040527331743e-8,2.5424628997426646e-8,1.2878395381653248e-9,7.662542103742645e-10,8.59894605932062e-10,1.5504531267869257e-9,6.806545107319802e-9,1.349182179694462e-7,0
45006,2.661475166585026e-8,2.5892498909095678e-8,1.2578307707594255e-9,7.637363862176993e-10,8.608696372564438e-10,1.5386148340528946e-9,6.80827237738085e-9,1.3498544459207072e-7,0
45007,2.686546280436878e-8,2.6360368820764706e-8,1.2278220033535263e-9,7.61218562061134e-10,8.618446685808257e-10,1.5267765413188635e-9,6.809999647441899e-9,1.3505267121469523e-7,0
45008,2.712263180673608e-8,2.682804615624208e-8,1.219128648958021e-9,7.575931172956567e-10,8.618446685808257e-10,1.5260503753228757e-9,6.7892643999985975e-9,1.3342350279059462e-7,0
45009,2.7379800809103384e-8,2.7295723491719453e-8,1.2104352945625154e-9,7.539676725301792e-10,8.618446685808257e-10,1.525324209326888e-9,6.7685291525552955e-9,1.3179433436649405e-7,0
45010,2.763696981147069e-8,2.776340082719683e-8,1.20174194016701e-9,7.503422277647019e-10,8.618446685808257e-10,1.5245980433309002e-9,6.747793905111994e-9,1.3016516594239344e-7,0
45011,2.7894138813837993e-8,2.82310781626742e-8,1.1930485857715047e-9,7.467167829992246e-10,8.618446685808257e-10,1.5238718773349125e-9,6.727058657668693e-9,1.2853599751829287e-7,0
45012,2.8151307816205296e-8,2.8698755498151576e-8,1.1843552313759991e-9,7.430913382337471e-10,8.618446685808257e-10,1.5231457113389248e-9,6.706323410225392e-9,1.2690682909419226e-7,0
45013,2.8182373884560928e-8,2.8711277274924866e-8,1.1914352854526237e-9,7.438204985781041e-10,8.7816867198846335e-10,1.552608296533229e-9,6.727335452310632e-9,1.2521215468691084e-7,0
45014,2.8403812646273718e-8,2.8750724016979667e-8,1.1847648036504397e-9,7.401950538126268e-10,8.78281046538624e-10,1.5538332156464236e-9,6.698333785354204e-9,1.235785596818683e-7,0
45015,2.839635880603731e-8,2.8630631385909562e-8,1.1768404740241146e-9,7.373848251954741e-10,8.783934210887846e-10,1.5538332156464236e-9,6.673534526814824e-9,1.2187904564269878e-7,0
45016,2.8388904965800902e-8,2.8510538754839457e-8,1.1689161443977898e-9,7.345745965783215e-10,8.785057956389453e-10,1.5538332156464236e-9,6.648735268275444e-9,1.2017953160352924e-7,0
45017,2.8381451125564494e-8,2.8390446123769352e-8,1.160991814771465e-9,7.317643679611688e-10,8.786181701891059e-10,1.5538332156464236e-9,6.6239360097360644e-9,1.1848001756435969e-7,0
45018,2.8373997285328086e-8,2.8270353492699247e-8,1.1530674851451399e-09,7.289541393440162e-10,8.787305447392666e-10,1.5538332156464236e-9,6.5991367511966845e-9,1.1678050352519016e-7,0
45019,2.836654344509168e-8,2.8150260861629146e-08,1.145143155518815e-9,7.261439107268635e-10,8.788429192894273e-10,1.5538332156464236e-9,6.5743374926573045e-9,1.1508098948602062e-7,0
45020,2.835908960485527e-8,2.803016823055904e-8,1.13721882589249e-9,7.233336821097109e-10,8.789552938395879e-10,1.5538332156464236e-9,6.5495382341179246e-9,1.1338147544685108e-7,0
45021,2.8351635764618862e-8,2.7910075599488935e-8,1.1292944962661652e-9,7.205234534925582e-10,8.790676683897486e-10,1.5538332156464236e-9,6.524738975578545e-9,1.1168196140768155e-7,0
45022,2.8344181924382454e-8,2.778998296841883e-8,1.1213701666398403e-9,7.177132248754056e-10,8.791800429399092e-10,1.5538332156464236e-9,6.499939717039165e-9,1.0998244736851201e-7,0
45023,2.8336728084146047e-8,2.7669890337348725e-8,1.1134458370135153e-9,7.14902996258253e-10,8.792924174900699e-10,1.5538332156464236e-9,6.475140458499785e-9,1.0828293332934248e-7,0
45024,2.832927424390964e-8,2.7549797706278624e-8,1.1055215073871904e-9,7.120927676411003e-10,8.794047920402306e-10,1.5538332156464236e-9,6.450341199960405e-9,1.0658341929017294e-7,0
45025,2.832182040367323e-8,2.742970507520852e-8,1.0975971777608654e-9,7.092825390239477e-10,8.795171665903912e-10,1.5538332156464236e-9,6.425541941421025e-9,1.048839052510034e-7,0
45026,2.831436656343682e-8,2.7309612444138414e-8,1.0896728481345405e-9,7.06472310406795e-10,8.796295411405519e-10,1.5538332156464236e-9,6.400742682881645e-9,1.0318439121183387e-7,0
45027,2.830691272320041e-8,2.718951981306831e-8,1.0817485185082157e-9,7.036620817896424e-10,8.797419156907125e-10,1.5538332156464236e-9,6.375943424342265e-9,1.0148487717266433e-7,0
45028,2.8299458882964003e-8,2.7069427181998204e-8,1.0738241888818906e-9,7.008518531724897e-10,8.798542902408732e-10,1.5538332156464236e-9,6.351144165802885e-9,9.97853631334948e-8,0
45029,2.8292005042727595e-8,2.69493345509281e-8,1.0658998592555658e-9,6.980416245553371e-10,8.799666647910339e-10,1.5538332156464236e-9,6.326344907263505e-9,9.808584909432526e-8,0
45030,2.8284551202491187e-8,2.6829241919857997e-8,1.0579755296292407e-9,6.952313959381844e-10,8.800790393411945e-10,1.5538332156464236e-9,6.301545648724125e-9,9.638633505515573e-8,0
45031,2.8326126165156968e-8,2.674449240517114e-8,1.0579755296292407e-9,6.958883805709502e-10,8.800790393411945e-10,1.5538332156464236e-9,6.304722871442565e-9,9.639444872061982e-8,0
45032,2.8326126165156968e-8,2.6776350980291056e-8,1.0550248011127389e-9,6.958883805709502e-10,8.801914138913552e-10,1.5507089148642453e-9,6.293861020720787e-9,9.64019371592255e-8,0
45033,2.8326126165156968e-8,2.6808209555410973e-8,1.0520740725962373e-9,6.958883805709502e-10,8.803037884415158e-10,1.547584614082067e-9,6.282999169999008e-9,9.64094255978312e-8,0
45034,2.8326126165156968e-8,2.684006813053089e-8,1.0491233440797354e-9,6.958883805709502e-10,8.804161629916765e-10,1.5444603132998886e-9,6.2721373192772305e-9,9.64169140364369e-8,0
45035,2.831991844279018e-8,2.6916791377056437e-8,1.0491790643287222e-9,6.994277695324599e-10,8.927726163716904e-10,1.5828125998846274e-9,6.390960331263427e-9,9.702093769109712e-8,0
45036,2.8313710720423394e-8,2.6993514623581984e-8,1.049234784577709e-9,7.029671584939695e-10,9.051290697517043e-10,1.6211648864693664e-9,6.509783343249622e-9,9.762496134575735e-8,0
45037,2.8307502998056607e-8,2.707023787010753e-8,1.0492905048266958e-9,7.065065474554791e-10,9.174855231317182e-10,1.6595171730541052e-9,6.628606355235818e-9,9.822898500041757e-8,0
45038,2.830129527568982e-8,2.7146961116633077e-8,1.0493462250756826e-9,7.100459364169888e-10,9.298419765117321e-10,1.6978694596388442e-9,6.747429367222014e-9,9.88330086550778e-8,0
45039,2.8295087553323033e-8,2.7223684363158624e-8,1.0494019453246694e-9,7.135853253784984e-10,9.42198429891746e-10,1.736221746223583e-9,6.86625237920821e-9,9.943703230973802e-8,0
45040,2.8288879830956246e-8,2.730040760968417e-8,1.0494576655736562e-9,7.17124714340008e-10,9.545548832717599e-10,1.7745740328083218e-9,6.985075391194405e-9,1.0004105596439826e-7,0
45041,2.8282672108589462e-8,2.7377130856209718e-8,1.049513385822643e-9,7.206641033015176e-10,9.669113366517738e-10,1.8129263193930608e-9,7.1038984031806014e-9,1.0064507961905848e-7,0
45042,2.8276464386222675e-8,2.7453854102735265e-8,1.0495691060716298e-9,7.242034922630273e-10,9.792677900317877e-10,1.8512786059777996e-9,7.2227214151667975e-9,1.0124910327371871e-7,0
45043,2.8270256663855888e-8,2.7530577349260812e-8,1.0496248263206166e-9,7.277428812245369e-10,9.916242434118016e-10,1.8896308925625384e-9,7.3415444271529936e-9,1.0185312692837893e-7,0
45044,2.8224568135358245e-8,2.758632985572067e-8,1.053386369793039e-9,7.284720415688939e-10,1.0054095314133402e-9,1.9310196252101648e-9,7.468892548825936e-9,1.0244966214443346e-7,0
45045,2.8234953488774184e-8,2.765805786802648e-8,1.0534420900420258e-9,7.320114305304035e-10,1.0161348759815404e-9,1.9734497914518506e-9,7.586237928690547e-9,1.0305319418782407e-7,0
45046,2.8245338842190127e-8,2.772978588033229e-8,1.0534978102910126e-9,7.355508194919131e-10,1.0268602205497404e-9,2.015879957693536e-9,7.703583308555157e-9,1.0365672623121467e-7,0
45047,2.826262589952867e-8,2.7810883331688255e-8,1.0534978102910126e-9,7.347356033435885e-10,1.0253414862880873e-9,2.015879957693536e-9,7.695307836807872e-9,1.0366233184739757e-7,0
45048,2.8279912956867214e-8,2.789198078304422e-8,1.0534978102910126e-9,7.339203871952637e-10,1.0238227520264342e-9,2.015879957693536e-9,7.687032365060586e-9,1.0366793746358045e-7,0
45049,2.8297200014205754e-8,2.7973078234400185e-8,1.0534978102910126e-9,7.33105171046939e-10,1.0223040177647812e-9,2.015879957693536e-9,7.678756893313301e-9,1.0367354307976335e-7,0
45050,2.8314487071544298e-8,2.805417568575615e-8,1.0534978102910126e-9,7.322899548986143e-10,1.0207852835031281e-9,2.015879957693536e-9,7.670481421566016e-9,1.0367914869594623e-7,0
45051,2.833177412888284e-8,2.8135273137112116e-8,1.0534978102910126e-9,7.314747387502895e-10,1.019266549241475e-9,2.015879957693536e-9,7.662205949818731e-9,1.0368475431212913e-7,0
45052,2.8349061186221382e-8,2.821637058846808e-8,1.0534978102910126e-9,7.306595226019648e-10,1.017747814979822e-9,2.015879957693536e-9,7.653930478071445e-9,1.0369035992831201e-7,0
45053,2.8366348243559926e-8,2.8297468039824047e-8,1.0534978102910126e-9,7.298443064536401e-10,1.016229080718169e-9,2.015879957693536e-9,7.64565500632416e-9,1.036959655444949e-7,0
45054,2.8383635300898466e-8,2.8378565491180012e-8,1.0534978102910126e-9,7.290290903053154e-10,1.0147103464565158e-9,2.015879957693536e-9,7.637379534576875e-9,1.0370157116067779e-7,0
45055,2.8438748285273235e-8,2.8370570035209368e-8,1.0618038520672846e-9,7.32568479266825e-10,1.0121716310504167e-9,2.02200455325951e-9,7.691180460072682e-9,1.0370480948501584e-7,0
45056,2.8493861269648e-8,2.8362574579238723e-8,1.0701098938435566e-9,7.361078682283346e-10,1.0096329156443175e-9,2.028129148825483e-9,7.74498138556849e-9,1.037080478093539e-7,0
45057,2.854897425402277e-8,2.835457912326808e-8,1.0784159356198286e-9,7.396472571898442e-10,1.0070942002382183e-9,2.034253744391457e-9,7.798782311064298e-9,1.0371128613369195e-7,0
45058,2.8604087238397536e-8,2.8346583667297435e-8,1.0867219773961009e-9,7.431866461513539e-10,1.004555484832119e-9,2.0403783399574304e-9,7.852583236560106e-9,1.0371452445803e-7,0
45059,2.8659200222772305e-8,2.833858821132679e-8,1.0950280191723729e-9,7.467260351128635e-10,1.0020167694260199e-9,2.0465029355234038e-9,7.906384162055913e-9,1.0371776278236804e-7,0
45060,2.871431320714707e-8,2.8330592755356146e-8,1.1033340609486449e-9,7.502654240743731e-10,9.994780540199207e-10,2.0526275310893776e-9,7.960185087551722e-9,1.037210011067061e-7,0
45061,2.876942619152184e-8,2.83225972993855e-8,1.111640102724917e-9,7.538048130358828e-10,9.969393386138215e-10,2.058752126655351e-9,8.013986013047529e-9,1.0372423943104415e-7,0
45062,2.882453917589661e-8,2.8314601843414857e-8,1.119946144501189e-9,7.573442019973924e-10,9.944006232077223e-10,2.0648767222213248e-9,8.067786938543337e-9,1.037274777553822e-7,0
45063,2.8879652160271375e-8,2.8306606387444212e-8,1.128252186277461e-9,7.60883590958902e-10,9.918619078016231e-10,2.071001317787298e-9,8.121587864039144e-9,1.0373071607972026e-7,0
45064,2.8934765144646144e-8,2.8298610931473568e-8,1.1365582280537332e-9,7.644229799204117e-10,9.89323192395524e-10,2.0771259133532715e-9,8.175388789534953e-9,1.0373395440405831e-7,0
45065,2.898987812902091e-8,2.8290615475502924e-8,1.1448642698300052e-9,7.679623688819213e-10,9.86784476989425e-10,2.0832505089192453e-9,8.22918971503076e-9,1.0373719272839637e-7,0
45066,2.904499111339568e-8,2.8282620019532282e-8,1.1531703116062772e-9,7.715017578434309e-10,9.842457615833258e-10,2.0893751044852187e-9,8.282990640526568e-9,1.0374043105273441e-7,0
45067,2.911617096391427e-8,2.824143052060054e-8,1.1405705126465961e-9,7.518301575233624e-10,9.516020598645506e-10,2.0754978719227143e-9,8.352677679614576e-9,1.0352416087072069e-7,0
45068,2.9196488520132392e-8,2.82362205735367e-8,1.1506152253019691e-9,7.536669384766315e-10,9.51669484594647e-10,2.0794439695007247e-9,8.422835792355598e-9,1.0292386715166814e-7,0
45069,2.9276806076350513e-8,2.8231010626472857e-8,1.1606599379573424e-9,7.555037194299006e-10,9.517369093247433e-10,2.083390067078735e-9,8.492993905096619e-9,1.0232357343261559e-7,0
45070,2.927785696578153e-8,2.8236987960831674e-8,1.1586927856130078e-9,7.533264168749833e-10,9.517369093247433e-10,2.081482909329198e-9,8.505518091955183e-9,1.0193208794484604e-7,0
45071,2.9567043781869382e-8,2.853639389210919e-8,1.181337297228062e-9,7.516238088667428e-10,9.528243151992857e-10,2.088150185372024e-9,8.534335054896412e-9,1.017213989706556e-7,0
45072,2.985623059795724e-8,2.8835799823386702e-8,1.2039818088431164e-9,7.499212008585022e-10,9.539117210738284e-10,2.09481746141485e-9,8.563152017837641e-9,1.0151070999646515e-7,0
45073,3.014541741404509e-8,2.9135205754664218e-8,1.2266263204581707e-9,7.482185928502617e-10,9.549991269483708e-10,2.101484737457676e-9,8.59196898077887e-9,1.013000210222747e-7,0
45074,3.043460423013294e-8,2.943461168594173e-8,1.249270832073225e-9,7.46515984842021e-10,9.560865328229133e-10,2.1081520135005023e-9,8.6207859437201e-9,1.0108933204808426e-7,0
45075,3.0723791046220795e-8,2.9734017617219246e-8,1.2719153436882792e-9,7.448133768337805e-10,9.571739386974557e-10,2.1148192895433284e-9,8.64960290666133e-9,1.008786430738938e-7,0
45076,3.101297786230865e-8,3.003342354849676e-8,1.2945598553033333e-9,7.4311076882554e-10,9.582613445719982e-10,2.121486565586154e-9,8.67841986960256e-9,1.0066795409970337e-7,0
45077,3.1302164678396507e-8,3.033282947977427e-8,1.3172043669183876e-9,7.414081608172993e-10,9.593487504465406e-10,2.12815384162898e-9,8.70723683254379e-9,1.0045726512551291e-7,0
45078,3.159135149448436e-8,3.0632235411051786e-8,1.339848878533442e-9,7.397055528090588e-10,9.604361563210833e-10,2.134821117671806e-9,8.736053795485018e-9,1.0024657615132247e-7,0
45079,3.188053831057221e-8,3.09316413423293e-8,1.3624933901484962e-9,7.380029448008182e-10,9.615235621956258e-10,2.1414883937146323e-9,8.764870758426248e-9,1.0003588717713202e-7,0
45080,3.2169725126660064e-8,3.123104727360682e-8,1.3851379017635505e-9,7.363003367925776e-10,9.626109680701682e-10,2.1481556697574583e-9,8.793687721367479e-9,9.982519820294158e-8,0
45081,3.2458911942747916e-8,3.153045320488433e-8,1.4077824133786048e-9,7.345977287843371e-10,9.636983739447107e-10,2.1548229458002844e-9,8.822504684308708e-9,9.961450922875112e-8,0
45082,3.274809875883577e-8,3.182985913616184e-8,1.430426924993659e-9,7.328951207760965e-10,9.647857798192531e-10,2.1614902218431105e-9,8.851321647249937e-9,9.940382025456068e-8,0
45083,3.303728557492363e-8,3.212926506743936e-8,1.4530714366087134e-9,7.31192512767856e-10,9.658731856937958e-10,2.168157497885936e-9,8.880138610191167e-9,9.919313128037024e-8,0
45084,3.332647239101148e-8,3.2428670998716874e-8,1.4757159482237675e-9,7.294899047596153e-10,9.669605915683382e-10,2.1748247739287622e-9,8.908955573132397e-9,9.898244230617979e-8,0
45085,3.361565920709933e-8,3.272807692999438e-8,1.4983604598388218e-9,7.277872967513748e-10,9.680479974428807e-10,2.1814920499715883e-9,8.937772536073627e-9,9.877175333198935e-8,0
45086,3.3904846023187185e-8,3.30274828612719e-8,1.521004971453876e-9,7.260846887431343e-10,9.691354033174232e-10,2.1881593260144144e-9,8.966589499014856e-9,9.856106435779889e-8,0
45087,3.419403283927504e-8,3.3326888792549414e-8,1.5436494830689303e-9,7.243820807348936e-10,9.702228091919656e-10,2.1948266020572405e-9,8.995406461956085e-9,9.835037538360845e-8,0
45088,3.448321965536289e-8,3.3626294723826923e-8,1.5662939946839846e-9,7.226794727266531e-10,9.71310215066508e-10,2.2014938781000666e-9,9.024223424897315e-9,9.8139686409418e-8,0
45089,3.4312456953319816e-8,3.380008419699728e-8,1.5888967161122987e-9,7.231541672733297e-10,9.69791480804855e-10,2.210112239252075e-9,9.043850448249427e-9,9.838718222511405e-8,0
45090,3.458923747684799e-8,3.408547111965933e-8,1.6135083800716876e-9,7.236288618200063e-10,9.708114619493011e-10,2.206584816152534e-9,9.0704876947066308e-09,9.87112881286429e-8,0
45091,3.4757906022356147e-8,3.4071452111043875e-8,1.6154755324160221e-9,7.232883402183581e-10,9.753676647342603e-10,2.1944390319009844e-9,9.067966249656401e-9,9.864143412484359e-8,0
45092,3.4926574567864304e-8,3.405743310242841e-8,1.6174426847603567e-9,7.229478186167101e-10,9.799238675192197e-10,2.182293247649435e-9,9.065444804606173e-9,9.857158012104427e-8,0
45093,3.494463644647696e-8,3.406217510856571e-8,1.6174287546981099e-9,7.22607297015062e-10,9.84480070304179e-10,2.1720985485070675e-9,9.092082051063377e-9,9.850347532407896e-8,0
45094,3.4962698325089614e-8,3.406691711470301e-8,1.6174148246358633e-9,7.222667754134138e-10,9.890362730891381e-10,2.1619038493647006e-9,9.11871929752058e-9,9.843537052711365e-8,0
45095,3.498076020370226e-8,3.407165912084031e-8,1.6174008945736165e-9,7.219262538117658e-10,9.935924758740973e-10,2.1517091502223333e-9,9.145356543977783e-9,9.836726573014835e-8,0
45096,3.499882208231492e-8,3.407640112697761e-8,1.6173869645113699e-9,7.215857322101176e-10,9.981486786590567e-10,2.1415144510799663e-9,9.171993790434987e-9,9.829916093318304e-8,0
45097,3.501688396092757e-8,3.408114313311491e-8,1.617373034449123e-9,7.212452106084695e-10,1.002704881444016e-9,2.131319751937599e-9,9.19863103689219e-9,9.823105613621773e-8,0
45098,3.503494583954023e-8,3.408588513925221e-8,1.6173591043868765e-9,7.209046890068214e-10,1.007261084228975e-9,2.121125052795232e-9,9.225268283349395e-9,9.816295133925242e-8,0
45099,3.5053007718152876e-8,3.409062714538951e-8,1.6173451743246297e-9,7.205641674051733e-10,1.0118172870139343e-9,2.1109303536528647e-9,9.251905529806597e-9,9.809484654228712e-8,0
45100,3.507106959676553e-8,3.4095369151526806e-8,1.617331244262383e-9,7.202236458035251e-10,1.0163734897988935e-9,2.1007356545104978e-9,9.2785427762638e-9,9.802674174532181e-8,0
45101,3.5089131475378186e-8,3.410011115766411e-8,1.6173173142001363e-9,7.198831242018771e-10,1.0209296925838529e-9,2.090540955368131e-9,9.305180022721004e-9,9.79586369483565e-8,0
45102,3.511959964655051e-8,3.412283138516386e-8,1.6152944416068151e-9,7.195426026002289e-10,1.026007123396051e-9,2.0917658744813255e-9,9.32276572691006e-9,9.796051262893172e-8,0
45103,3.5130108540860665e-8,3.413885310929581e-8,1.6152944416068151e-9,7.175716487019314e-10,1.0234908828999841e-9,2.0929907935945202e-9,9.347564985449439e-9,9.666077122685327e-8,0
45104,3.514061743517082e-8,3.415487483342776e-8,1.6152944416068151e-9,7.156006948036338e-10,1.0209746424039172e-9,2.094215712707715e-9,9.37236424398882e-9,9.536102982477483e-8,0
45105,3.512170904773965e-8,3.414815322091697e-8,1.6173173142001363e-9,7.139702625069843e-10,1.0162835901587651e-9,2.0954406318209096e-9,9.368817613239983e-9,9.414710252624633e-8,0
45106,3.510280066030849e-8,3.414143160840617e-8,1.6193401867934577e-9,7.12339830210335e-10,1.011592537913613e-9,2.0966655509341042e-9,9.365270982491146e-9,9.293317522771784e-8,0
45107,3.5083892272877326e-8,3.413470999589538e-8,1.621363059386779e-9,7.107093979136855e-10,1.006901485668461e-9,2.097890470047299e-9,9.361724351742309e-9,9.171924792918933e-8,0
45108,3.5064983885446164e-8,3.4127988383384584e-8,1.6233859319801004e-9,7.09078965617036e-10,1.002210433423309e-9,2.0991153891604936e-9,9.358177720993472e-9,9.050532063066083e-8,0
45109,3.5046075498014996e-8,3.412126677087379e-8,1.6254088045734217e-9,7.074485333203867e-10,9.975193811781569e-10,2.1003403082736883e-9,9.354631090244637e-9,8.929139333213234e-8,0
45110,3.5027167110583834e-8,3.4114545158362996e-8,1.6274316771667431e-9,7.058181010237372e-10,9.928283289330048e-10,2.101565227386883e-9,9.3510844594958e-9,8.807746603360383e-8,0
45111,3.500825872315267e-8,3.41078235458522e-8,1.6294545497600643e-9,7.041876687270877e-10,9.881372766878528e-10,2.1027901465000776e-9,9.347537828746963e-9,8.686353873507534e-8,0
45112,3.498935033572151e-8,3.410110193334141e-8,1.6314774223533856e-9,7.025572364304384e-10,9.83446224442701e-10,2.1040150656132723e-9,9.343991197998127e-9,8.564961143654684e-8,0
45113,3.497044194829034e-8,3.409438032083061e-8,1.633500294946707e-9,7.009268041337889e-10,9.787551721975488e-10,2.105239984726467e-9,9.34044456724929e-9,8.443568413801834e-8,0
45114,3.4975153411305514e-8,3.4110325014485905e-8,1.6355231675400284e-9,7.033104553453257e-10,9.727027100609686e-10,2.1083642855086457e-9,9.34044456724929e-9,8.318466550029463e-8,0
45115,3.497986487432068e-8,3.412626970814119e-8,1.6375460401333497e-9,7.056941065568624e-10,9.666502479243884e-10,2.111488586290824e-9,9.34044456724929e-9,8.193364686257093e-8,0
45116,3.4984576337335843e-8,3.414221440179648e-8,1.6395689127266709e-9,7.080777577683993e-10,9.605977857878082e-10,2.1146128870730022e-9,9.34044456724929e-9,8.068262822484722e-8,0
45117,3.498928780035101e-8,3.4158159095451774e-8,1.6415917853199922e-9,7.104614089799361e-10,9.54545323651228e-10,2.1177371878551805e-9,9.34044456724929e-9,7.943160958712351e-8,0
45118,3.499399926336617e-8,3.4174103789107066e-8,1.6436146579133136e-9,7.128450601914729e-10,9.484928615146478e-10,2.120861488637359e-9,9.34044456724929e-9,7.81805909493998e-8,0
45119,3.499871072638134e-8,3.419004848276236e-8,1.645637530506635e-9,7.152287114030096e-10,9.424403993780677e-10,2.1239857894195375e-9,9.34044456724929e-9,7.6929572311676093e-08,0
45120,3.500342218939651e-8,3.420599317641765e-8,1.6476604030999563e-9,7.176123626145464e-10,9.363879372414875e-10,2.1271100902017157e-9,9.34044456724929e-9,7.567855367395238e-8,0
45121,3.5008133652411673e-8,3.422193787007294e-8,1.6496832756932777e-9,7.199960138260833e-10,9.303354751049073e-10,2.130234390983894e-9,9.34044456724929e-9,7.442753503622867e-8,0
45122,3.501284511542684e-8,3.423788256372823e-8,1.6517061482865989e-9,7.223796650376201e-10,9.242830129683271e-10,2.1333586917660727e-9,9.34044456724929e-9,7.317651639850497e-8,0
45123,3.5017556578442e-8,3.425382725738352e-8,1.6537290208799202e-9,7.247633162491568e-10,9.182305508317469e-10,2.136482992548251e-9,9.34044456724929e-9,7.192549776078127e-8,0
45124,3.502226804145717e-8,3.426977195103881e-8,1.6557518934732416e-9,7.271469674606936e-10,9.121780886951668e-10,2.1396072933304293e-9,9.34044456724929e-9,7.067447912305756e-8,0
45125,3.504083782536093e-8,3.42924151480619e-8,1.657774766066563e-9,7.311610509688799e-10,9.131980698396129e-10,2.1434577601085955e-9,9.320789864432984e-9,7.07247052886115e-8,0
45126,3.505940760926469e-8,3.4315058345084987e-8,1.6597976386598843e-9,7.351751344770661e-10,9.142180509840589e-10,2.1473082268867617e-9,9.301135161616679e-9,7.077493145416545e-8,0
45127,3.507797739316845e-8,3.4337701542108074e-8,1.6618205112532057e-9,7.391892179852524e-10,9.15238032128505e-10,2.1511586936649275e-9,9.281480458800374e-9,7.08251576197194e-8,0
45128,3.509654717707221e-8,3.436034473913116e-8,1.6638433838465268e-9,7.432033014934386e-10,9.162580132729512e-10,2.1550091604430937e-9,9.261825755984068e-9,7.087538378527334e-8,0
45129,3.513224386872471e-8,3.451385285656358e-8,1.6638433838465268e-9,7.430210114073493e-10,9.187967286790503e-10,2.1705661378763545e-9,9.249384607518087e-9,7.091239656414509e-8,0
45130,3.516794056037721e-8,3.466736097399601e-8,1.6638433838465268e-9,7.428387213212601e-10,9.213354440851494e-10,2.186123115309615e-9,9.236943459052105e-9,7.094940934301685e-8,0
45131,3.52036372520297e-8,3.482086909142843e-8,1.6638433838465268e-9,7.426564312351708e-10,9.238741594912486e-10,2.201680092742876e-9,9.224502310586125e-9,7.09864221218886e-8,0
45132,3.52393339436822e-8,3.497437720886085e-8,1.6638433838465268e-9,7.424741411490816e-10,9.264128748973478e-10,2.2172370701761366e-9,9.212061162120144e-9,7.102343490076037e-8,0
45133,3.52750306353347e-8,3.512788532629328e-8,1.6638433838465268e-9,7.422918510629923e-10,9.28951590303447e-10,2.2327940476093973e-9,9.199620013654164e-9,7.106044767963211e-8,0
45134,3.5310727326987196e-8,3.52813934437257e-8,1.6638433838465268e-9,7.421095609769031e-10,9.31490305709546e-10,2.248351025042658e-9,9.187178865188182e-9,7.109746045850388e-8,0
45135,3.5346424018639695e-8,3.543490156115813e-8,1.6638433838465268e-9,7.419272708908138e-10,9.340290211156453e-10,2.2639080024759187e-9,9.174737716722202e-9,7.113447323737563e-8,0
45136,3.5382120710292194e-8,3.558840967859055e-8,1.6638433838465268e-9,7.417449808047246e-10,9.365677365217445e-10,2.2794649799091795e-9,9.162296568256221e-9,7.117148601624739e-8,0
45137,3.541781740194469e-8,3.5741917796022975e-8,1.6638433838465268e-9,7.415626907186353e-10,9.391064519278437e-10,2.29502195734244e-9,9.149855419790241e-9,7.120849879511914e-8,0
45138,3.545351409359719e-8,3.5895425913455396e-8,1.6638433838465268e-9,7.413804006325462e-10,9.416451673339429e-10,2.310578934775701e-9,9.13741427132426e-9,7.12455115739909e-8,0
45139,3.548921078524969e-8,3.604893403088782e-8,1.6638433838465268e-9,7.411981105464569e-10,9.44183882740042e-10,2.3261359122089616e-9,9.12497312285828e-9,7.128252435286265e-8,0
45140,3.552490747690219e-8,3.6202442148320244e-8,1.6638433838465268e-9,7.410158204603677e-10,9.467225981461412e-10,2.3416928896422223e-9,9.112531974392298e-9,7.13195371317344e-8,0
45141,3.556060416855469e-8,3.6355950265752665e-8,1.6638433838465268e-9,7.408335303742784e-10,9.492613135522404e-10,2.357249867075483e-9,9.100090825926318e-9,7.135654991060616e-8,0
45142,3.559630086020719e-8,3.650945838318509e-8,1.6638433838465268e-9,7.406512402881892e-10,9.518000289583396e-10,2.3728068445087437e-9,9.087649677460337e-9,7.139356268947791e-8,0
45143,3.563199755185969e-8,3.666296650061751e-8,1.6638433838465268e-9,7.404689502020999e-10,9.543387443644388e-10,2.3883638219420045e-9,9.075208528994357e-9,7.143057546834967e-8,0
45144,3.5667694243512186e-8,3.6816474618049934e-8,1.6638433838465268e-9,7.402866601160107e-10,9.56877459770538e-10,2.403920799375265e-9,9.062767380528375e-9,7.146758824722142e-8,0
45145,3.5703390935164685e-8,3.696998273548236e-8,1.6638433838465268e-9,7.401043700299214e-10,9.594161751766372e-10,2.419477776808526e-9,9.050326232062395e-9,7.150460102609318e-8,0
45146,3.5739087626817184e-8,3.712349085291478e-8,1.6638433838465268e-9,7.399220799438322e-10,9.619548905827364e-10,2.4350347542417866e-9,9.037885083596414e-9,7.154161380496493e-8,0
45147,3.577478431846968e-8,3.727699897034721e-8,1.6638433838465268e-9,7.397397898577429e-10,9.644936059888356e-10,2.4505917316750473e-9,9.025443935130434e-9,7.157862658383669e-8,0
45148,3.581048101012218e-8,3.743050708777963e-8,1.6638433838465268e-9,7.395574997716537e-10,9.670323213949348e-10,2.466148709108308e-9,9.013002786664453e-9,7.161563936270844e-8,0
45149,3.58046561223055e-8,3.747718287100065e-8,1.664584548491214e-9,7.393752096855644e-10,9.680523025393807e-10,2.4669627298235867e-9,8.98980145309931e-9,7.161714276390765e-8,0
45150,3.579883123448882e-8,3.7523858654221666e-8,1.6653257131359013e-9,7.391929195994752e-10,9.690722836838268e-10,2.4677767505388657e-9,8.966600119534168e-9,7.161864616510685e-8,0
45151,3.582896080213374e-8,3.7653611495172145e-8,1.6712828904178915e-9,7.396676141461518e-10,9.690048589537305e-10,2.4678206778985113e-9,8.94510742880004e-9,7.162177229939888e-8,0
45152,3.5859090369778665e-8,3.7783364336122624e-8,1.677240067699882e-9,7.401423086928284e-10,9.689374342236341e-10,2.4678646052581564e-9,8.92361473806591e-9,7.162489843369091e-8,0
45153,3.588921993742359e-8,3.7913117177073096e-8,1.6831972449818723e-9,7.406170032395051e-10,9.688700094935376e-10,2.467908532617802e-9,8.902122047331781e-9,7.162802456798294e-8,0
45154,3.5919349505068516e-8,3.8042870018023574e-8,1.6891544222638628e-9,7.410916977861816e-10,9.688025847634413e-10,2.4679524599774475e-9,8.880629356597651e-9,7.163115070227497e-8,0
45155,3.594947907271344e-8,3.817262285897405e-8,1.695111599545853e-9,7.415663923328582e-10,9.68735160033345e-10,2.467996387337093e-9,8.859136665863522e-9,7.1634276836567e-8,0
45156,3.597960864035836e-8,3.830237569992453e-8,1.7010687768278436e-9,7.420410868795348e-10,9.686677353032484e-10,2.4680403146967386e-9,8.837643975129392e-9,7.163740297085902e-8,0
45157,3.6009738208003286e-8,3.843212854087501e-8,1.7070259541098338e-9,7.425157814262114e-10,9.68600310573152e-10,2.468084242056384e-9,8.816151284395264e-9,7.164052910515105e-8,0
45158,3.603986777564821e-8,3.856188138182549e-8,1.7129831313918243e-9,7.42990475972888e-10,9.685328858430558e-10,2.4681281694160297e-9,8.794658593661134e-9,7.164365523944307e-8,0
45159,3.6069997343293137e-8,3.869163422277597e-8,1.7189403086738146e-9,7.434651705195647e-10,9.684654611129592e-10,2.468172096775675e-9,8.773165902927005e-9,7.16467813737351e-8,0
45160,3.610012691093806e-8,3.882138706372644e-8,1.724897485955805e-9,7.439398650662413e-10,9.683980363828629e-10,2.4682160241353204e-9,8.751673212192875e-9,7.164990750802712e-8,0
45161,3.613025647858298e-8,3.895113990467692e-8,1.7308546632377956e-9,7.444145596129179e-10,9.683306116527666e-10,2.468259951494966e-9,8.730180521458747e-9,7.165303364231915e-8,0
45162,3.6160386046227907e-8,3.9080892745627397e-8,1.7368118405197859e-9,7.448892541595944e-10,9.6826318692267e-10,2.4683038788546114e-9,8.708687830724617e-9,7.165615977661118e-8,0
45163,3.6408792555118684e-8,3.941989080437482e-8,1.740587314054455e-9,7.448892541595944e-10,9.692831680671161e-10,2.468347806214257e-9,8.685486497159474e-9,7.166402763644047e-8,0
45164,3.641886523168212e-8,3.946656658759584e-8,1.7425683964610362e-9,7.465196864562439e-10,9.68739465129845e-10,2.468347806214257e-9,8.662285163594332e-9,7.166927525694252e-8,0
45165,3.642893790824557e-8,3.951324237081686e-8,1.7445494788676176e-9,7.481501187528934e-10,9.681957621925737e-10,2.468347806214257e-9,8.63908383002919e-9,7.167452287744458e-8,0
45166,3.643901058480901e-8,3.955991815403787e-8,1.7465305612741987e-9,7.497805510495428e-10,9.676520592553025e-10,2.468347806214257e-9,8.615882496464048e-9,7.167977049794663e-8,0
45167,3.644908326137245e-8,3.960659393725889e-8,1.7485116436807799e-9,7.514109833461922e-10,9.671083563180312e-10,2.468347806214257e-9,8.592681162898905e-9,7.168501811844869e-8,0
45168,3.6459155937935897e-08,3.9653269720479906e-8,1.7504927260873612e-9,7.530414156428417e-10,9.6656465338076e-10,2.468347806214257e-9,8.569479829333763e-9,7.169026573895073e-8,0
45169,3.646922861449934e-8,3.9699945503700924e-8,1.7524738084939424e-9,7.546718479394911e-10,9.660209504434888e-10,2.468347806214257e-9,8.54627849576862e-9,7.16955133594528e-8,0
45170,3.646544297017419e-8,3.970668252230705e-8,1.7506794173658546e-9,7.566428018377887e-10,9.629385321001184e-10,2.4676216402182695e-9,8.54627849576862e-9,7.142550639403728e-8,0
45171,3.646958399252775e-8,3.975462444594025e-8,1.7519193351277487e-9,7.566428018377887e-10,9.553223858818208e-10,2.4557833474842383e-9,8.547091297987837e-9,7.125264915876334e-8,0
45172,3.6499349029970365e-8,3.988546625720659e-8,1.7572049980762854e-9,7.546718479394911e-10,9.482499426007944e-10,2.443945054750207e-9,8.54724832253884e-9,7.108388699662548e-8,0
45173,3.651067850642412e-8,3.987356453733207e-8,1.7544548909005236e-9,7.418143812666077e-10,9.414247233301216e-10,2.443131034034928e-9,8.521544171153506e-9,6.940671595856255e-8,0
45174,3.6522007982877874e-8,3.986166281745755e-8,1.7517047837247619e-9,7.289569145937242e-10,9.345995040594487e-10,2.4423170133196495e-9,8.49584001976817e-9,6.772954492049962e-8,0
45175,3.653333745933163e-8,3.984976109758303e-8,1.7489546765490002e-9,7.160994479208408e-10,9.27774284788776e-10,2.441502992604371e-9,8.470135868382834e-9,6.605237388243668e-8,0
45176,3.6544666935785384e-8,3.983785937770851e-8,1.7462045693732383e-9,7.032419812479573e-10,9.209490655181031e-10,2.4406889718890923e-9,8.444431716997498e-9,6.437520284437375e-8,0
45177,3.655599641223914e-8,3.982595765783399e-8,1.7434544621974767e-9,6.903845145750739e-10,9.141238462474304e-10,2.4398749511738136e-9,8.418727565612161e-9,6.269803180631081e-8,0
45178,3.656732588869289e-8,3.981405593795947e-8,1.7407043550217148e-9,6.775270479021905e-10,9.072986269767575e-10,2.4390609304585346e-9,8.393023414226825e-9,6.102086076824788e-8,0
45179,3.657865536514665e-8,3.980215421808495e-8,1.7379542478459531e-9,6.646695812293071e-10,9.004734077060846e-10,2.438246909743256e-9,8.36731926284149e-9,5.9343689730184946e-8,0
45180,3.658998484160041e-8,3.979025249821043e-8,1.7352041406701915e-9,6.518121145564236e-10,8.936481884354119e-10,2.4374328890279774e-9,8.341615111456155e-9,5.766651869212201e-8,0
45181,3.660131431805416e-8,3.977835077833591e-8,1.7324540334944296e-9,6.389546478835402e-10,8.86822969164739e-10,2.4366188683126987e-9,8.315910960070818e-9,5.5989347654059076e-8,0
45182,3.661264379450792e-8,3.976644905846139e-8,1.729703926318668e-9,6.260971812106568e-10,8.799977498940662e-10,2.43580484759742e-9,8.290206808685482e-9,5.431217661599614e-8,0
45183,3.662397327096167e-8,3.975454733858687e-8,1.726953819142906e-9,6.132397145377734e-10,8.731725306233933e-10,2.434990826882141e-9,8.264502657300146e-9,5.2635005577933206e-8,0
45184,3.663530274741543e-8,3.974264561871235e-8,1.7242037119671444e-9,6.003822478648899e-10,8.663473113527205e-10,2.4341768061668624e-9,8.23879850591481e-9,5.095783453987027e-8,0
45185,3.660871783478755e-8,3.959915780941951e-8,1.7154407072604054e-9,5.875247811920065e-10,8.590008640548086e-10,2.433135372572803e-9,8.214119540228083e-9,4.927132080816919e-8,0
45186,3.6598912074207115e-8,3.95084848817075e-8,1.719402872073568e-9,5.893375035747452e-10,8.590682887849049e-10,2.430098926509916e-9,8.18509019380746e-9,4.865590023310593e-8,0
45187,3.658532066930153e-8,3.95112703906143e-8,1.721099752765929e-9,5.893375035747452e-10,8.580483076404589e-10,2.4311403601039753e-9,8.188341402684323e-9,4.7782444846955497e-8,0
45188,3.6571729264395936e-8,3.9514055899521104e-8,1.72279663345829e-9,5.893375035747452e-10,8.570283264960128e-10,2.4321817936980347e-9,8.191592611561186e-9,4.690898946080507e-8,0
45189,3.655813785949035e-8,3.9516841408427907e-8,1.7244935141506509e-09,5.893375035747452e-10,8.560083453515666e-10,2.433223227292094e-9,8.19484382043805e-9,4.603553407465463e-8,0
45190,3.643197162518478e-8,3.944497474126411e-8,1.7125512994621767e-9,5.855297687231785e-10,8.534696299454675e-10,2.418480270574112e-9,8.198649141360508e-9,4.603728328148865e-8,0
45191,3.640274957188207e-8,3.942907626589481e-8,1.7103138754658686e-9,5.838752778559987e-10,8.489134271605083e-10,2.4074559985553595e-9,8.08575528509069e-9,4.603840726146426e-8,0
45192,3.637352751857937e-8,3.941317779052552e-8,1.7080764514695605e-9,5.822207869888188e-10,8.44357224375549e-10,2.3964317265366074e-9,7.972861428820872e-9,4.603953124143987e-8,0
45193,3.634430546527666e-8,3.939727931515622e-8,1.7058390274732525e-9,5.805662961216391e-10,8.398010215905898e-10,2.385407454517855e-9,7.859967572551055e-9,4.6040655221415485e-8,0
45194,3.631508341197396e-8,3.9381380839786934e-8,1.7036016034769444e-9,5.789118052544593e-10,8.352448188056306e-10,2.3743831824991024e-9,7.747073716281237e-9,4.60417792013911e-8,0
45195,3.628586135867125e-8,3.936548236441764e-8,1.7013641794806363e-9,5.772573143872795e-10,8.306886160206713e-10,2.36335891048035e-9,7.63417986001142e-9,4.604290318136671e-8,0
45196,3.625663930536854e-8,3.9349583889048343e-8,1.6991267554843283e-9,5.756028235200997e-10,8.261324132357121e-10,2.3523346384615978e-9,7.521286003741601e-9,4.6044027161342324e-8,0
45197,3.6227417252065836e-8,3.933368541367905e-8,1.6968893314880202e-9,5.739483326529198e-10,8.215762104507528e-10,2.3413103664428453e-9,7.408392147471785e-9,4.6045151141317936e-8,0
45198,3.619819519876313e-8,3.9317786938309753e-8,1.694651907491712e-9,5.7229384178574e-10,8.170200076657936e-10,2.3302860944240928e-9,7.2954982912019666e-09,4.604627512129355e-8,0
45199,3.616897314546042e-8,3.9301888462940465e-8,1.692414483495404e-9,5.706393509185602e-10,8.124638048808343e-10,2.3192618224053407e-9,7.182604434932149e-9,4.604739910126916e-8,0
45200,3.6139751092157715e-8,3.928598998757117e-8,1.690177059499096e-9,5.689848600513804e-10,8.079076020958751e-10,2.308237550386588e-9,7.069710578662331e-9,4.604852308124477e-8,0
45201,3.6110529038855006e-8,3.9270091512201875e-8,1.6879396355027879e-9,5.673303691842005e-10,8.033513993109159e-10,2.2972132783678357e-9,6.956816722392514e-9,4.604964706122038e-8,0
45202,3.6081306985552304e-8,3.925419303683258e-8,1.6857022115064797e-9,5.656758783170207e-10,7.987951965259566e-10,2.2861890063490836e-9,6.843922866122696e-9,4.605077104119599e-8,0
45203,3.6052084932249595e-8,3.9238294561463285e-8,1.6834647875101718e-9,5.640213874498409e-10,7.942389937409974e-10,2.275164734330331e-9,6.7310290098528785e-9,4.6051895021171606e-8,0
45204,3.6022862878946886e-8,3.9222396086093996e-8,1.6812273635138637e-9,5.623668965826611e-10,7.896827909560381e-10,2.2641404623115785e-9,6.618135153583061e-9,4.605301900114722e-8,0
45205,3.595670716829596e-8,3.918246502452677e-8,1.6851895283270262e-9,5.618200263243933e-10,7.897502156861345e-10,2.2611040162486914e-9,6.62356607894395e-9,4.59475005785438e-8,0
45206,3.592684451663404e-8,3.909179209681476e-8,1.6888953515504618e-9,5.629757640743662e-10,7.902939186234058e-10,2.2618741096043244e-9,6.6293387328710414e-9,4.593028288322878e-8,0
45207,3.591057326987771e-8,3.9017017644472046e-8,1.6888953515504618e-9,5.621605479260415e-10,7.903163935334379e-10,2.2626442029599575e-9,6.6305209431206534e-9,4.591243281920777e-8,0
45208,3.589430202312138e-8,3.894224319212933e-8,1.6888953515504618e-9,5.613453317777167e-10,7.903388684434701e-10,2.263414296315591e-9,6.631703153370266e-9,4.589458275518676e-8,0
45209,3.58602358137354e-8,3.884878475551052e-8,1.6975747758837205e-9,5.606883471449509e-10,7.903613433535022e-10,2.2633703689559455e-9,6.63186017792127e-9,4.5876732691165744e-8,0
45210,3.582616960434942e-8,3.87553263188917e-8,1.7062542002169793e-9,5.600313625121851e-10,7.903838182635343e-10,2.2633264415963e-9,6.632017202472275e-9,4.585888262714473e-8,0
45211,3.579210339496344e-8,3.866186788227289e-8,1.714933624550238e-9,5.593743778794192e-10,7.904062931735664e-10,2.2632825142366544e-9,6.632174227023279e-9,4.584103256312371e-8,0
45212,3.5758037185577464e-8,3.8568409445654076e-8,1.7236130488834968e-9,5.587173932466534e-10,7.904287680835985e-10,2.263238586877009e-9,6.6323312515742835e-9,4.58231824991027e-8,0
45213,3.572397097619148e-8,3.847495100903527e-8,1.7322924732167555e-9,5.580604086138875e-10,7.904512429936307e-10,2.2631946595173633e-9,6.632488276125288e-9,4.580533243508169e-8,0
45214,3.568990476680551e-8,3.838149257241645e-8,1.7409718975500143e-9,5.574034239811216e-10,7.904737179036628e-10,2.263150732157718e-9,6.632645300676292e-9,4.5787482371060676e-8,0
45215,3.5655838557419525e-8,3.828803413579764e-8,1.749651321883273e-9,5.567464393483558e-10,7.90496192813695e-10,2.2631068047980726e-9,6.632802325227297e-9,4.5769632307039664e-8,0
45216,3.562177234803355e-8,3.8194575699178826e-8,1.7583307462165318e-9,5.560894547155899e-10,7.905186677237271e-10,2.263062877438427e-9,6.632959349778301e-9,4.575178224301865e-8,0
45217,3.558770613864757e-8,3.8101117262560016e-8,1.7670101705497906e-9,5.554324700828241e-10,7.905411426337593e-10,2.2630189500787815e-9,6.6331163743293054e-9,4.573393217899764e-8,0
45218,3.5458564160139765e-8,3.805840069208599e-8,1.7737224425387148e-9,5.554324700828241e-10,7.891123080122347e-10,2.262204929363503e-9,6.607412222943969e-9,4.553622299003438e-8,0
45219,3.539646100979699e-8,3.804862493649062e-8,1.7816467721650396e-9,5.530728774418176e-10,7.862096889491213e-10,2.246296533053078e-9,6.598037579339654e-9,4.5331304797822816e-8,0
45220,3.533435785945422e-8,3.803884918089526e-8,1.7895711017913647e-9,5.507132848008113e-10,7.833070698860079e-10,2.2303881367426535e-9,6.588662935735338e-9,4.512638660561125e-8,0
45221,3.527225470911145e-8,3.802907342529989e-8,1.7974954314176895e-9,5.483536921598048e-10,7.804044508228946e-10,2.214479740432229e-9,6.5792882921310215e-9,4.4921468413399683e-8,0
45222,3.521015155876867e-8,3.8019297669704525e-8,1.8054197610440143e-9,5.459940995187984e-10,7.775018317597812e-10,2.198571344121804e-9,6.569913648526706e-9,4.471655022118812e-8,0
45223,3.51480484084259e-8,3.800952191410915e-8,1.8133440906703394e-9,5.43634506877792e-10,7.745992126966678e-10,2.1826629478113795e-9,6.56053900492239e-9,4.451163202897656e-8,0
45224,3.508594525808313e-8,3.7999746158513787e-8,1.8212684202966642e-9,5.412749142367856e-10,7.716965936335545e-10,2.1667545515009548e-9,6.551164361318074e-9,4.430671383676499e-8,0
45225,3.502384210774036e-8,3.798997040291842e-8,1.8291927499229893e-9,5.389153215957791e-10,7.687939745704411e-10,2.15084615519053e-9,6.5417897177137576e-9,4.4101795644553425e-8,0
45226,3.496173895739758e-8,3.7980194647323055e-8,1.8371170795493141e-9,5.365557289547728e-10,7.658913555073277e-10,2.1349377588801054e-9,6.532415074109442e-9,4.389687745234186e-8,0
45227,3.489963580705481e-8,3.797041889172769e-8,1.845041409175639e-9,5.341961363137663e-10,7.629887364442144e-10,2.1190293625696807e-9,6.523040430505126e-9,4.369195926013029e-8,0
45228,3.483564441063641e-8,3.795467350482117e-8,1.8480478579411276e-9,5.383684513375114e-10,7.600636424710688e-10,2.1028935533804753e-9,6.513850490916008e-9,4.349027939225678e-8,0
45229,3.480184511723344e-8,3.801081789422146e-8,1.8509985864576295e-9,5.378215810792437e-10,7.602209668412937e-10,2.087711323066038e-9,6.504475847311692e-9,4.328424436191719e-8,0
45230,3.476804582383047e-8,3.806696228362174e-8,1.8539493149741313e-9,5.37274710820976e-10,7.603782912115188e-10,2.0725290927516014e-9,6.495101203707376e-9,4.30782093315776e-8,0
45231,3.4734246530427494e-8,3.812310667302202e-8,1.8569000434906332e-9,5.367278405627082e-10,7.605356155817437e-10,2.0573468624371642e-9,6.4857265601030606e-9,4.287217430123801e-8,0
45232,3.470044723702452e-8,3.81792510624223e-8,1.8598507720071348e-9,5.361809703044405e-10,7.606929399519686e-10,2.0421646321227275e-9,6.476351916498744e-9,4.2666139270898416e-8,0
45233,3.466664794362154e-8,3.823539545182259e-8,1.8628015005236366e-9,5.356341000461727e-10,7.608502643221935e-10,2.0269824018082903e-9,6.466977272894428e-9,4.2460104240558824e-8,0
45234,3.463284865021857e-8,3.8291539841222875e-8,1.8657522290401383e-9,5.35087229787905e-10,7.610075886924184e-10,2.0118001714938536e-9,6.457602629290113e-9,4.225406921021924e-8,0
45235,3.45990493568156e-8,3.8347684230623155e-8,1.8687029575566403e-9,5.345403595296372e-10,7.611649130626433e-10,1.9966179411794165e-9,6.448227985685797e-9,4.204803417987965e-8,0
45236,3.4565250063412624e-8,3.840382862002344e-8,1.871653686073142e-9,5.339934892713696e-10,7.613222374328683e-10,1.9814357108649797e-9,6.4388533420814804e-9,4.1841999149540055e-8,0
45237,3.453145077000965e-8,3.845997300942372e-8,1.874604414589644e-9,5.334466190131018e-10,7.614795618030932e-10,1.9662534805505426e-9,6.429478698477164e-9,4.1635964119200463e-8,0
45238,3.449765147660667e-8,3.851611739882401e-8,1.8775551431061456e-9,5.328997487548341e-10,7.616368861733181e-10,1.951071250236106e-9,6.420104054872849e-9,4.142992908886087e-8,0
45239,3.44638521832037e-8,3.8572261788224293e-08,1.8805058716226473e-9,5.323528784965663e-10,7.61794210543543e-10,1.9358890199216687e-9,6.410729411268533e-9,4.122389405852128e-8,0
45240,3.443005288980073e-8,3.862840617762457e-8,1.8834566001391493e-9,5.318060082382986e-10,7.619515349137679e-10,1.920706789607232e-9,6.4013547676642165e-9,4.101785902818169e-8,0
45241,3.4396253596397755e-8,3.868455056702486e-8,1.886407328655651e-9,5.312591379800308e-10,7.621088592839928e-10,1.905524559292795e-9,6.391980124059901e-9,4.0811823997842096e-8,0
45242,3.442439730374775e-8,3.8736521030834045e-8,1.886407328655651e-9,5.312591379800308e-10,7.621088592839928e-10,1.9062507252887827e-9,6.382605480455585e-9,4.080059133993356e-8,0
45243,3.4452541011097746e-8,3.878849149464323e-8,1.886407328655651e-9,5.312591379800308e-10,7.621088592839928e-10,1.9069768912847703e-9,6.373230836851269e-9,4.0789358682025024e-8,0
45244,3.448068471844774e-8,3.8840461958452416e-8,1.886407328655651e-9,5.312591379800308e-10,7.621088592839928e-10,1.9077030572807582e-9,6.3638561932469525e-9,4.077812602411649e-8,0
45245,3.450882842579773e-8,3.889243242226161e-8,1.886407328655651e-9,5.312591379800308e-10,7.621088592839928e-10,1.9084292232767458e-9,6.354481549642637e-9,4.076689336620795e-8,0
45246,3.453697213314773e-8,3.8944402886070794e-8,1.886407328655651e-9,5.312591379800308e-10,7.621088592839928e-10,1.9091553892727337e-9,6.345106906038321e-9,4.0755660708299415e-8,0
45247,3.456511584049772e-8,3.899637334987998e-8,1.886407328655651e-9,5.312591379800308e-10,7.621088592839928e-10,1.9098815552687212e-9,6.335732262434005e-9,4.074442805039088e-8,0
45248,3.459325954784772e-8,3.9048343813689165e-8,1.886407328655651e-9,5.312591379800308e-10,7.621088592839928e-10,1.910607721264709e-9,6.3263576188296885e-9,4.073319539248234e-8,0
45249,3.4621403255197715e-8,3.9100314277498357e-8,1.886407328655651e-9,5.312591379800308e-10,7.621088592839928e-10,1.9113338872606967e-9,6.316982975225373e-9,4.07219627345738e-8,0
45250,3.4622962049919833e-8,3.910504858058799e-8,1.8864630489046378e-9,5.292881840817333e-10,7.595701438778937e-10,1.9113338872606967e-9,6.308633517319665e-9,4.071097588230007e-8,0
45251,3.462452084464196e-8,3.910978288367762e-8,1.8865187691536246e-9,5.273172301834357e-10,7.570314284717946e-10,1.9113338872606967e-9,6.300284059413957e-9,4.0699989030026346e-8,0
45252,3.4622419065779925e-8,3.909359266498756e-8,1.8848218884612638e-9,5.256867978867863e-10,7.539490101284241e-10,1.9113778146203423e-9,6.291094119824839e-9,4.068862989837661e-8,0
45253,3.46203172869179e-8,3.90774024462975e-8,1.8831250077689026e-9,5.240563655901369e-10,7.508665917850537e-10,1.911421741979988e-9,6.281904180235721e-9,4.067727076672687e-8,0
45254,3.4618215508055866e-8,3.906121222760744e-8,1.881428127076542e-9,5.224259332934874e-10,7.477841734416833e-10,1.9114656693396333e-9,6.272714240646603e-9,4.066591163507714e-8,0
45255,3.461611372919384e-8,3.9045022008917375e-8,1.8797312463841806e-9,5.20795500996838e-10,7.447017550983129e-10,1.911509596699279e-9,6.2635243010574855e-9,4.065455250342741e-8,0
45256,3.4614011950331806e-8,3.902883179022731e-8,1.87803436569182e-9,5.191650687001886e-10,7.416193367549424e-10,1.9115535240589244e-9,6.254334361468368e-9,4.064319337177767e-8,0
45257,3.461191017146978e-8,3.901264157153725e-8,1.8763374849994586e-9,5.175346364035391e-10,7.385369184115719e-10,1.9115974514185696e-9,6.24514442187925e-9,4.0631834240127934e-8,0
45258,3.460980839260775e-8,3.8996451352847193e-8,1.874640604307098e-9,5.159042041068896e-10,7.354545000682015e-10,1.911641378778215e-9,6.2359544822901325e-9,4.06204751084782e-8,0
45259,3.4607706613745714e-8,3.898026113415713e-8,1.8729437236147366e-09,5.142737718102402e-10,7.323720817248311e-10,1.9116853061378607e-9,6.226764542701015e-9,4.060911597682846e-8,0
45260,3.460560483488369e-8,3.896407091546707e-8,1.871246842922376e-9,5.126433395135908e-10,7.292896633814607e-10,1.9117292334975062e-9,6.217574603111897e-9,4.0597756845178725e-8,0
45261,3.4603503056021654e-8,3.8947880696777006e-8,1.8695499622300147e-9,5.110129072169413e-10,7.262072450380903e-10,1.9117731608571518e-9,6.2083846635227795e-9,4.058639771352899e-8,0
45262,3.456123411180006e-8,3.887972001427776e-8,1.8656156575413455e-9,5.029227429671315e-10,7.211073393158598e-10,1.9031987270647886e-9,6.206759059084348e-9,4.0586271239787795e-8,0
45263,3.453157584075065e-8,3.8858795492498064e-8,1.8556127350727125e-9,5.020834682482764e-10,7.205636363785885e-10,1.89956789708485e-9,6.144738020769642e-9,4.006424397138344e-8,0
45264,3.4501917569701235e-8,3.883787097071837e-8,1.8456098126040795e-9,5.012441935294213e-10,7.200199334413173e-10,1.8959370671049116e-9,6.082716982454937e-9,3.954221670297908e-8,0
45265,3.447225929865182e-8,3.881694644893868e-8,1.8356068901354465e-9,5.004049188105662e-10,7.194762305040461e-10,1.8923062371249727e-9,6.0206959441402315e-9,3.9020189434574726e-8,0
45266,3.444260102760241e-8,3.879602192715898e-8,1.8256039676668135e-9,4.995656440917111e-10,7.189325275667748e-10,1.8886754071450343e-9,5.9586749058255266e-9,3.849816216617037e-8,0
45267,3.4412942756552994e-8,3.8775097405379284e-8,1.8156010451981805e-9,4.98726369372856e-10,7.183888246295036e-10,1.8850445771650958e-9,5.896653867510821e-9,3.797613489776602e-8,0
45268,3.438328448550358e-8,3.875417288359959e-8,1.8055981227295473e-9,4.978870946540009e-10,7.178451216922324e-10,1.881413747185157e-9,5.834632829196115e-9,3.745410762936166e-8,0
45269,3.435362621445417e-8,3.87332483618199e-8,1.7955952002609143e-9,4.970478199351458e-10,7.17301418754961e-10,1.8777829172052184e-9,5.77261179088141e-9,3.693208036095731e-8,0
45270,3.432396794340475e-8,3.8712323840040204e-8,1.7855922777922813e-9,4.962085452162907e-10,7.167577158176898e-10,1.8741520872252795e-9,5.710590752566704e-9,3.6410053092552954e-8,0
45271,3.4294309672355336e-8,3.8691399318260504e-8,1.7755893553236483e-9,4.953692704974357e-10,7.162140128804186e-10,1.870521257245341e-9,5.648569714251999e-9,3.58880258241486e-8,0
45272,3.426465140130593e-8,3.867047479648081e-8,1.7655864328550152e-9,4.945299957785806e-10,7.156703099431474e-10,1.8668904272654025e-9,5.5865486759372936e-09,3.5365998555744246e-8,0
45273,3.423499313025651e-8,3.864955027470112e-8,1.755583510386382e-9,4.936907210597255e-10,7.151266070058761e-10,1.8632595972854636e-9,5.524527637622589e-9,3.484397128733989e-8,0
45274,3.4205334859207095e-8,3.8628625752921424e-8,1.745580587917749e-9,4.928514463408704e-10,7.145829040686048e-10,1.8596287673055251e-9,5.462506599307883e-9,3.432194401893554e-8,0
45275,3.4175676588157686e-8,3.860770123114173e-8,1.735577665449116e-9,4.920121716220152e-10,7.140392011313336e-10,1.8559979373255865e-9,5.400485560993178e-9,3.379991675053118e-8,0
45276,3.408536719509442e-8,3.861067064070197e-8,1.7356194556358562e-9,4.923526932236634e-10,7.089392954091032e-10,1.852367107345648e-9,5.4006702650083756e-9,3.37849398733198e-8,0
45277,3.357940122695913e-8,3.8533777927127765e-8,1.7376423282291774e-9,4.901753906687462e-10,7.084630172019283e-10,1.852367107345648e-9,5.391480325419258e-9,3.377358074167006e-8,0
45278,3.307343525882384e-8,3.845688521355356e-8,1.7396652008224987e-9,4.87998088113829e-10,7.079867389947535e-10,1.852367107345648e-9,5.38229038583014e-9,3.3762221610020326e-8,0
45279,3.2569410919960774e-8,3.837825071559297e-8,1.7396652008224987e-9,4.86660060277767e-10,7.075104607875786e-10,1.8530493459819902e-9,5.372915742225824e-9,3.375210579023981e-8,0
45280,3.206538658109771e-8,3.829961621763237e-8,1.7396652008224987e-9,4.853220324417049e-10,7.070341825804037e-10,1.8537315846183323e-9,5.363541098621509e-9,3.3741989970459305e-8,0
45281,3.1561362242234644e-8,3.822098171967178e-8,1.7396652008224987e-9,4.839840046056428e-10,7.065579043732289e-10,1.8544138232546745e-9,5.3541664550171925e-9,3.373187415067879e-8,0
45282,3.1057337903371586e-8,3.8142347221711185e-8,1.7396652008224987e-9,4.826459767695807e-10,7.06081626166054e-10,1.8550960618910167e-9,5.344791811412876e-9,3.372175833089828e-8,0
45283,3.055331356450852e-8,3.806371272375059e-8,1.7396652008224987e-9,4.813079489335187e-10,7.056053479588792e-10,1.8557783005273591e-9,5.335417167808561e-9,3.371164251111777e-8,0
45284,3.004928922564546e-8,3.798507822579e-8,1.7396652008224987e-9,4.799699210974565e-10,7.051290697517043e-10,1.8564605391637013e-9,5.326042524204245e-9,3.3701526691337254e-8,0
45285,2.9545264886782393e-8,3.79064437278294e-8,1.7396652008224987e-9,4.786318932613945e-10,7.046527915445295e-10,1.8571427778000435e-9,5.3166678805999285e-9,3.369141087155675e-8,0
45286,2.904124054791933e-8,3.78278092298688e-8,1.7396652008224987e-9,4.772938654253324e-10,7.041765133373546e-10,1.8578250164363857e-9,5.307293236995612e-9,3.368129505177623e-8,0
45287,2.8537216209056267e-8,3.774917473190821e-8,1.7396652008224987e-9,4.759558375892703e-10,7.037002351301798e-10,1.8585072550727279e-9,5.297918593391297e-9,3.3671179231995725e-8,0
45288,2.8033191870193205e-8,3.7670540233947614e-8,1.7396652008224987e-9,4.746178097532082e-10,7.032239569230049e-10,1.8591894937090703e-9,5.288543949786981e-9,3.366106341221521e-8,0
45289,2.752916753133014e-8,3.759190573598702e-8,1.7396652008224987e-9,4.732797819171462e-10,7.027476787158301e-10,1.8598717323454125e-9,5.2791693061826646e-9,3.3650947592434697e-8,0
45290,2.7025143192467076e-8,3.7513271238026426e-8,1.7396652008224987e-9,4.719417540810841e-10,7.022714005086552e-10,1.8605539709817547e-9,5.269794662578349e-9,3.364083177265419e-8,0
45291,2.6521118853604015e-8,3.743463674006583e-8,1.7396652008224987e-9,4.70603726245022e-10,7.017951223014804e-10,1.8612362096180969e-9,5.260420018974033e-9,3.3630715952873675e-8,0
45292,2.601709451474095e-8,3.735600224210523e-8,1.7396652008224987e-9,4.692656984089599e-10,7.013188440943055e-10,1.861918448254439e-9,5.251045375369717e-9,3.362060013309317e-8,0
45293,2.551307017587789e-8,3.727736774414464e-8,1.7396652008224987e-9,4.679276705728979e-10,7.008425658871306e-10,1.8626006868907814e-9,5.241670731765401e-9,3.361048431331265e-8,0
45294,2.5009045837014824e-8,3.7198733246184043e-8,1.7396652008224987e-9,4.665896427368357e-10,7.003662876799558e-10,1.8632829255271236e-9,5.232296088161085e-9,3.360036849353214e-8,0
45295,2.450502149815176e-8,3.7120098748223446e-8,1.7396652008224987e-9,4.6525161490077367e-10,6.998900094727809e-10,1.863965164163466e-9,5.222921444556769e-9,3.359025267375163e-8,0
45296,2.4000997159288698e-8,3.7041464250262855e-8,1.7396652008224987e-9,4.6391358706471157e-10,6.994137312656061e-10,1.864647402799808e-9,5.213546800952453e-9,3.358013685397112e-8,0
45297,2.3496972820425634e-8,3.696282975230226e-8,1.7396652008224987e-9,4.625755592286495e-10,6.989374530584312e-10,1.8653296414361504e-9,5.2041721573481375e-9,3.357002103419061e-8,0
45298,2.349891444969786e-8,3.696506258675819e-8,1.7359454475368164e-9,4.6359712403359387e-10,6.9839375012116e-10,1.8641047223229557e-9,5.203516379679926e-9,3.327880634852242e-8,0
45299,2.350085607897009e-8,3.696729542121412e-8,1.7322256942511342e-9,4.646186888385382e-10,6.978500471838888e-10,1.862879803209761e-9,5.2028606020117146e-9,3.298759166285424e-8,0
45300,2.3502797708242314e-8,3.6969528255670054e-8,1.7285059409654519e-9,4.6564025364348253e-10,6.973063442466175e-10,1.8616548840965662e-9,5.202204824343503e-9,3.2696376977186056e-8,0
45301,2.350667181461287e-8,3.697852892092278e-8,1.7248001177420161e-9,4.662972382762484e-10,6.983263253910636e-10,1.8597037989873838e-9,5.20173375069049e-9,3.2405162291517873e-8,0
45302,2.35087735934749e-8,3.698748336788951e-8,1.7231032370496551e-9,4.664795283623376e-10,6.982589006609672e-10,1.8598355810663202e-9,5.201077973022278e-9,3.2113947605849684e-8,0
45303,2.351087537233693e-8,3.699643781485623e-8,1.7214063563572941e-9,4.666618184484269e-10,6.981914759308708e-10,1.8599673631452566e-9,5.200422195354067e-9,3.18227329201815e-8,0
45304,2.351297715119896e-8,3.700539226182296e-8,1.7197094756649332e-9,4.668441085345161e-10,6.981240512007745e-10,1.8600991452241933e-9,5.1997664176858554e-9,3.153151823451332e-8,0
45305,2.351507893006099e-8,3.701434670878969e-8,1.7180125949725722e-9,4.670263986206054e-10,6.98056626470678e-10,1.8602309273031297e-9,5.199110640017644e-9,3.124030354884514e-8,0
45306,2.351718070892302e-8,3.7023301155756415e-8,1.7163157142802112e-9,4.672086887066946e-10,6.979892017405816e-10,1.8603627093820661e-9,5.198454862349433e-9,3.0949088863176955e-8,0
45307,2.351928248778505e-8,3.7032255602723144e-8,1.7146188335878502e-9,4.673909787927839e-10,6.979217770104853e-10,1.8604944914610026e-9,5.1977990846812215e-9,3.0657874177508766e-8,0
45308,2.352138426664708e-8,3.7041210049689866e-8,1.7129219528954892e-9,4.675732688788731e-10,6.978543522803888e-10,1.860626273539939e-9,5.1971433070130104e-9,3.0366659491840583e-8,0
45309,2.352348604550911e-8,3.7050164496656594e-8,1.7112250722031282e-9,4.677555589649624e-10,6.977869275502924e-10,1.8607580556188757e-9,5.1964875293447986e-9,3.00754448061724e-8,0
45310,2.352558782437114e-8,3.705911894362332e-8,1.7095281915107672e-9,4.679378490510516e-10,6.977195028201961e-10,1.860889837697812e-9,5.1958317516765875e-9,2.9784230120504215e-8,0
45311,2.352768960323317e-8,3.706807339059005e-8,1.7078313108184062e-9,4.681201391371408e-10,6.976520780900997e-10,1.8610216197767485e-9,5.1951759740083765e-9,2.9493015434836033e-8,0
45312,2.35297913820952e-8,3.707702783755677e-8,1.7061344301260452e-9,4.6830242922323e-10,6.975846533600032e-10,1.861153401855685e-9,5.194520196340165e-9,2.9201800749167847e-8,0
45313,2.353189316095723e-8,3.70859822845235e-8,1.7044375494336842e-9,4.684847193093193e-10,6.975172286299069e-10,1.8612851839346216e-9,5.193864418671954e-9,2.8910586063499665e-8,0
45314,2.353399493981926e-8,3.709493673149023e-8,1.7027406687413232e-9,4.686670093954085e-10,6.974498038998105e-10,1.861416966013558e-9,5.193208641003742e-9,2.8619371377831482e-8,0
45315,2.354258966137888e-8,3.7110866019050185e-8,1.6990209154556409e-9,4.685087778798497e-10,6.984697850442566e-10,1.8653630635915684e-9,5.193208641003742e-9,2.8326913380294075e-8,0
45316,2.354264304457548e-8,3.7117119690634444e-8,1.6953150922322053e-9,4.683505463642908e-10,6.994897661887027e-10,1.863184565603605e-9,5.192395838784526e-9,2.8034455382756663e-8,0
45317,2.3542696427772083e-8,3.7123373362218695e-8,1.6916092690087698e-9,4.68192314848732e-10,7.005097473331487e-10,1.861006067615642e-9,5.19158303656531e-9,2.7741997385219256e-8,0
45318,2.3542749810968684e-8,3.7129627033802947e-8,1.687903445785334e-9,4.680340833331731e-10,7.015297284775949e-10,1.8588275696276788e-9,5.1907702343460945e-9,2.7449539387681848e-8,0
45319,2.3542803194165284e-8,3.71358807053872e-8,1.6841976225618985e-9,4.678758518176143e-10,7.02549709622041e-10,1.8566490716397156e-9,5.1899574321268795e-9,2.715708139014444e-8,0
45320,2.3536310251467693e-8,3.712895208307997e-8,1.6998456604738082e-9,4.661732438093736e-10,7.016421030277555e-10,1.8604633871387895e-9,5.187990099122245e-9,2.715545865705162e-8,0
45321,2.3494735288801913e-8,3.7052198024363755e-8,1.7061148995945123e-9,4.6535802766104895e-10,7.001008938560703e-10,1.8449503370651743e-9,5.1629417254051205e-9,2.693507911820664e-8,0
