"time" "channel1" "channel2" "channel3" "channel4" "channel5" "channel6" "channel7" "channel8"
"1536" 49728 1.58005400575031e-07 3.48793020676264e-08 2.55656108893378e-07 3.34566585655372e-07 3.20589243322199e-07 9.11081228373924e-08 1.21860272285627e-08 9.30252598879324e-09
"1537" 49729 1.58097253639879e-07 3.47614146401176e-08 2.55487551580964e-07 3.35100405022471e-07 3.22078578482945e-07 9.11375644411239e-08 1.21830660527411e-08 9.30252598879324e-09
"1538" 49730 1.58189106704726e-07 3.46435272126088e-08 2.55318994268551e-07 3.3563422438957e-07 3.2356791364369e-07 9.11670060448555e-08 1.21801048769194e-08 9.30252598879324e-09
"1539" 49731 1.5788420356755e-07 3.46204937232934e-08 2.54735439897559e-07 3.34245188586208e-07 3.24906234882973e-07 9.12880581174554e-08 1.21771437010978e-08 9.28070164800133e-09
"1540" 49732 1.57579300430373e-07 3.45974602339779e-08 2.54151885526568e-07 3.32856152782847e-07 3.26244556122255e-07 9.14091101900553e-08 1.21741825252762e-08 9.25887730720941e-09
"1541" 49733 1.57274397293196e-07 3.45744267446624e-08 2.53568331155576e-07 3.31467116979486e-07 3.27582877361537e-07 9.15301622626553e-08 1.21712213494545e-08 9.2370529664175e-09
"1542" 49734 1.56818161573277e-07 3.45505695706452e-08 2.52943900270176e-07 3.29830137602999e-07 3.27478802674495e-07 9.14644400453436e-08 1.21923883805485e-08 9.20811905855692e-09
"1543" 49735 1.56360050417789e-07 3.45675498881112e-08 2.52937798613726e-07 3.28985388478377e-07 3.2728899428294e-07 9.1343532907625e-08 1.2218807990814e-08 9.17781280124121e-09
"1544" 49736 1.559019392623e-07 3.45845302055773e-08 2.52931696957275e-07 3.28140639353754e-07 3.27099185891385e-07 9.12226257699064e-08 1.22452276010794e-08 9.14750654392549e-09
"1545" 49737 1.55443828106812e-07 3.46015105230433e-08 2.52925595300825e-07 3.27295890229132e-07 3.2690937749983e-07 9.11017186321878e-08 1.22716472113449e-08 9.11720028660977e-09
"1546" 49738 1.54985716951323e-07 3.46184908405093e-08 2.52919493644374e-07 3.2645114110451e-07 3.26719569108275e-07 9.09808114944693e-08 1.22980668216103e-08 9.08689402929406e-09
"1547" 49739 1.54527605795835e-07 3.46354711579754e-08 2.52913391987923e-07 3.25606391979888e-07 3.2652976071672e-07 9.08599043567507e-08 1.23244864318758e-08 9.05658777197834e-09
"1548" 49740 1.54069494640346e-07 3.46524514754414e-08 2.52907290331473e-07 3.24761642855266e-07 3.26339952325165e-07 9.07389972190321e-08 1.23509060421412e-08 9.02628151466262e-09
"1549" 49741 1.53611383484858e-07 3.46694317929074e-08 2.52901188675022e-07 3.23916893730644e-07 3.2615014393361e-07 9.06180900813135e-08 1.23773256524067e-08 8.9959752573469e-09
"1550" 49742 1.53153272329369e-07 3.46864121103734e-08 2.52895087018572e-07 3.23072144606022e-07 3.25960335542055e-07 9.04971829435949e-08 1.24037452626721e-08 8.96566900003119e-09
"1551" 49743 1.52695161173881e-07 3.47033924278395e-08 2.52888985362121e-07 3.222273954814e-07 3.257705271505e-07 9.03762758058764e-08 1.24301648729376e-08 8.93536274271547e-09
"1552" 49744 1.52237050018392e-07 3.47203727453055e-08 2.52882883705671e-07 3.21382646356778e-07 3.25580718758946e-07 9.02553686681578e-08 1.2456584483203e-08 8.90505648539975e-09
"1553" 49745 1.51951589932739e-07 3.4688180907497e-08 2.5304480072937e-07 3.21448055595006e-07 3.23072579953569e-07 8.99974654619643e-08 1.24746022811857e-08 8.83210216626591e-09
"1554" 49746 1.51666129847086e-07 3.46559890696884e-08 2.53206717753069e-07 3.21513464833234e-07 3.20564441148193e-07 8.97395622557709e-08 1.24926200791684e-08 8.75914784713206e-09
"1555" 49747 1.51380669761432e-07 3.46237972318799e-08 2.53368634776769e-07 3.21578874071462e-07 3.18056302342817e-07 8.94816590495775e-08 1.2510637877151e-08 8.68619352799822e-09
"1556" 49748 1.51095209675779e-07 3.45916053940713e-08 2.53530551800468e-07 3.2164428330969e-07 3.15548163537441e-07 8.9223755843384e-08 1.25286556751337e-08 8.61323920886438e-09
"1557" 49749 1.51186139405627e-07 3.45248633222896e-08 2.53411217151725e-07 3.20794062776539e-07 3.13040487394165e-07 8.89881999042107e-08 1.26366800063429e-08 8.58615772238843e-09
"1558" 49750 1.51277069135474e-07 3.44581212505078e-08 2.53291882502983e-07 3.19943842243388e-07 3.1053281125089e-07 8.87526439650373e-08 1.2744704337552e-08 8.55907623591249e-09
"1559" 49751 1.51367998865322e-07 3.4391379178726e-08 2.5317254785424e-07 3.19093621710238e-07 3.08025135107614e-07 8.8517088025864e-08 1.28527286687612e-08 8.53199474943654e-09
"1560" 49752 1.51458928595169e-07 3.43246371069442e-08 2.53053213205498e-07 3.18243401177087e-07 3.05517458964338e-07 8.82815320866906e-08 1.29607529999703e-08 8.5049132629606e-09
"1561" 49753 1.51549858325017e-07 3.42578950351625e-08 2.52933878556755e-07 3.17393180643936e-07 3.03009782821063e-07 8.80459761475172e-08 1.30687773311795e-08 8.47783177648466e-09
"1562" 49754 1.51640788054864e-07 3.41911529633807e-08 2.52814543908012e-07 3.16542960110785e-07 3.00502106677787e-07 8.78104202083439e-08 1.31768016623886e-08 8.45075029000871e-09
"1563" 49755 1.51731717784712e-07 3.41244108915989e-08 2.5269520925927e-07 3.15692739577635e-07 2.97994430534511e-07 8.75748642691705e-08 1.32848259935978e-08 8.42366880353277e-09
"1564" 49756 1.51822647514559e-07 3.40576688198171e-08 2.52575874610527e-07 3.14842519044484e-07 2.95486754391235e-07 8.73393083299972e-08 1.33928503248069e-08 8.39658731705682e-09
"1565" 49757 1.51913577244407e-07 3.39909267480354e-08 2.52456539961784e-07 3.13992298511333e-07 2.9297907824796e-07 8.71037523908238e-08 1.35008746560161e-08 8.36950583058088e-09
"1566" 49758 1.52004506974254e-07 3.39241846762536e-08 2.52337205313042e-07 3.13142077978182e-07 2.90471402104684e-07 8.68681964516504e-08 1.36088989872253e-08 8.34242434410493e-09
"1567" 49759 1.52095436704102e-07 3.38574426044718e-08 2.52217870664299e-07 3.12291857445032e-07 2.87963725961408e-07 8.66326405124771e-08 1.37169233184344e-08 8.31534285762899e-09
"1568" 49760 1.52186366433949e-07 3.37907005326901e-08 2.52098536015556e-07 3.11441636911881e-07 2.85456049818133e-07 8.63970845733037e-08 1.38249476496436e-08 8.28826137115304e-09
"1569" 49761 1.52277296163797e-07 3.37239584609083e-08 2.51979201366814e-07 3.1059141637873e-07 2.82948373674857e-07 8.61615286341304e-08 1.39329719808527e-08 8.2611798846771e-09
"1570" 49762 1.52368225893645e-07 3.36572163891265e-08 2.51859866718071e-07 3.0974119584558e-07 2.80440697531581e-07 8.5925972694957e-08 1.40409963120619e-08 8.23409839820115e-09
"1571" 49763 1.52459155623492e-07 3.35904743173447e-08 2.51740532069329e-07 3.08890975312429e-07 2.77933021388305e-07 8.56904167557836e-08 1.4149020643271e-08 8.20701691172521e-09
"1572" 49764 1.5255008535334e-07 3.3523732245563e-08 2.51621197420586e-07 3.08040754779278e-07 2.7542534524503e-07 8.54548608166103e-08 1.42570449744802e-08 8.17993542524927e-09
"1573" 49765 1.52641015083187e-07 3.34569901737812e-08 2.51501862771843e-07 3.07190534246127e-07 2.72917669101754e-07 8.52193048774369e-08 1.43650693056893e-08 8.15285393877332e-09
"1574" 49766 1.52731944813035e-07 3.33902481019994e-08 2.51382528123101e-07 3.06340313712977e-07 2.70409992958478e-07 8.49837489382635e-08 1.44730936368985e-08 8.12577245229738e-09
"1575" 49767 1.52822874542882e-07 3.33235060302177e-08 2.51263193474358e-07 3.05490093179826e-07 2.67902316815203e-07 8.47481929990902e-08 1.45811179681077e-08 8.09869096582143e-09
"1576" 49768 1.53192364306024e-07 3.33235060302177e-08 2.51593720913477e-07 3.05161759162957e-07 2.66526898170651e-07 8.47616110216277e-08 1.47005052874212e-08 8.14506566512782e-09
"1577" 49769 1.53561854069165e-07 3.33235060302177e-08 2.51924248352595e-07 3.04833425146089e-07 2.65151479526099e-07 8.47750290441651e-08 1.48198926067348e-08 8.19144036443422e-09
"1578" 49770 1.53931343832307e-07 3.33235060302177e-08 2.52254775791714e-07 3.0450509112922e-07 2.63776060881547e-07 8.47884470667026e-08 1.49392799260483e-08 8.23781506374061e-09
"1579" 49771 1.53978086602904e-07 3.34151333640472e-08 2.52667868009149e-07 3.04020565500792e-07 2.63091054394159e-07 8.49635742933748e-08 1.50188296817486e-08 8.24529324696743e-09
"1580" 49772 1.53970032381794e-07 3.35790641592414e-08 2.53676797876338e-07 3.04067022120566e-07 2.6218170344781e-07 8.51517647902892e-08 1.50339489896728e-08 8.25427703013972e-09
"1581" 49773 1.53961978160685e-07 3.37429949544355e-08 2.54685727743526e-07 3.0411347874034e-07 2.6127235250146e-07 8.53399552872036e-08 1.50490682975971e-08 8.26326081331202e-09
"1582" 49774 1.53953923939575e-07 3.39069257496297e-08 2.55694657610715e-07 3.04159935360114e-07 2.60363001555111e-07 8.5528145784118e-08 1.50641876055214e-08 8.27224459648432e-09
"1583" 49775 1.53945869718466e-07 3.40708565448238e-08 2.56703587477904e-07 3.04206391979888e-07 2.59453650608762e-07 8.57163362810324e-08 1.50793069134456e-08 8.28122837965662e-09
"1584" 49776 1.53937815497356e-07 3.4234787340018e-08 2.57712517345093e-07 3.04252848599662e-07 2.58544299662413e-07 8.59045267779468e-08 1.50944262213699e-08 8.29021216282891e-09
"1585" 49777 1.53929761276247e-07 3.43987181352122e-08 2.58721447212282e-07 3.04299305219436e-07 2.57634948716064e-07 8.60927172748612e-08 1.51095455292942e-08 8.29919594600121e-09
"1586" 49778 1.53921707055137e-07 3.45626489304063e-08 2.59730377079471e-07 3.0434576183921e-07 2.56725597769714e-07 8.62809077717756e-08 1.51246648372184e-08 8.30817972917351e-09
"1587" 49779 1.53913652834028e-07 3.47265797256005e-08 2.6073930694666e-07 3.04392218458984e-07 2.55816246823365e-07 8.646909826869e-08 1.51397841451427e-08 8.31716351234581e-09
"1588" 49780 1.53894654809909e-07 3.45766506708703e-08 2.61726002524771e-07 3.0427115917337e-07 2.56166840694863e-07 8.65951056647106e-08 1.51535782130699e-08 8.32502587938721e-09
"1589" 49781 1.52052895055864e-07 3.44390629449642e-08 2.62719216358467e-07 3.04645949810013e-07 2.56626645758399e-07 8.67370404857007e-08 1.51694299792292e-08 8.21129771453887e-09
"1590" 49782 1.50211135301819e-07 3.4301475219058e-08 2.63712430192163e-07 3.05020740446656e-07 2.57086450821935e-07 8.68789753066908e-08 1.51852817453885e-08 8.09756954969054e-09
"1591" 49783 1.48369375547774e-07 3.41638874931518e-08 2.64705644025859e-07 3.05395531083299e-07 2.57546255885471e-07 8.70209101276809e-08 1.52011335115477e-08 7.9838413848422e-09
"1592" 49784 1.4652761579373e-07 3.40262997672457e-08 2.65698857859556e-07 3.05770321719941e-07 2.58006060949007e-07 8.7162844948671e-08 1.5216985277707e-08 7.87011321999387e-09
"1593" 49785 1.44685856039685e-07 3.38887120413395e-08 2.66692071693252e-07 3.06145112356584e-07 2.58465866012543e-07 8.73047797696612e-08 1.52328370438663e-08 7.75638505514553e-09
"1594" 49786 1.4284409628564e-07 3.37511243154334e-08 2.67685285526948e-07 3.06519902993227e-07 2.58925671076079e-07 8.74467145906513e-08 1.52486888100255e-08 7.6426568902972e-09
"1595" 49787 1.41002336531595e-07 3.36135365895272e-08 2.68678499360645e-07 3.0689469362987e-07 2.59385476139615e-07 8.75886494116414e-08 1.52645405761848e-08 7.52892872544886e-09
"1596" 49788 1.40076572060204e-07 3.37755553478613e-08 2.694845455184e-07 3.05596314586149e-07 2.56742704686822e-07 8.75103442381805e-08 1.52558451060096e-08 7.53603829251753e-09
"1597" 49789 1.39150807588814e-07 3.39375741061954e-08 2.70290591676155e-07 3.04297935542429e-07 2.54099933234029e-07 8.74320390647196e-08 1.52471496358344e-08 7.54314785958619e-09
"1598" 49790 1.38225043117423e-07 3.40995928645295e-08 2.71096637833911e-07 3.02999556498709e-07 2.51457161781237e-07 8.73537338912587e-08 1.52384541656591e-08 7.55025742665485e-09
"1599" 49791 1.37299278646032e-07 3.42616116228636e-08 2.71902683991666e-07 3.01701177454988e-07 2.48814390328444e-07 8.72754287177979e-08 1.52297586954839e-08 7.55736699372352e-09
"1600" 49792 1.36388291340072e-07 3.42542360131953e-08 2.71716736647015e-07 3.02403875001197e-07 2.47132256168802e-07 8.71575941511314e-08 1.5205242802031e-08 7.5809385271913e-09
"1601" 49793 1.35582598472982e-07 3.42610674467844e-08 2.72290703296252e-07 3.02154217429097e-07 2.44256431865719e-07 8.69099866837071e-08 1.52055562308471e-08 7.57844164807398e-09
"1602" 49794 1.34776905605892e-07 3.42678988803736e-08 2.72864669945488e-07 3.01904559856998e-07 2.41380607562635e-07 8.66623792162829e-08 1.52058696596633e-08 7.57594476895665e-09
"1603" 49795 1.33971212738802e-07 3.42747303139628e-08 2.73438636594725e-07 3.01654902284899e-07 2.38504783259552e-07 8.64147717488586e-08 1.52061830884794e-08 7.57344788983933e-09
"1604" 49796 1.33165519871712e-07 3.42815617475519e-08 2.74012603243962e-07 3.01405244712799e-07 2.35628958956468e-07 8.61671642814344e-08 1.52064965172955e-08 7.57095101072201e-09
"1605" 49797 1.32359827004622e-07 3.42883931811411e-08 2.74586569893198e-07 3.011555871407e-07 2.32753134653384e-07 8.59195568140101e-08 1.52068099461116e-08 7.56845413160469e-09
"1606" 49798 1.31554134137532e-07 3.42952246147302e-08 2.75160536542435e-07 3.009059295686e-07 2.29877310350301e-07 8.56719493465859e-08 1.52071233749277e-08 7.56595725248737e-09
"1607" 49799 1.30748441270442e-07 3.43020560483194e-08 2.75734503191672e-07 3.00656271996501e-07 2.27001486047217e-07 8.54243418791616e-08 1.52074368037438e-08 7.56346037337005e-09
"1608" 49800 1.29942748403351e-07 3.43088874819085e-08 2.76308469840908e-07 3.00406614424401e-07 2.24125661744134e-07 8.51767344117374e-08 1.52077502325599e-08 7.56096349425273e-09
"1609" 49801 1.29137055536261e-07 3.43157189154977e-08 2.76882436490145e-07 3.00156956852302e-07 2.2124983744105e-07 8.49291269443131e-08 1.52080636613761e-08 7.55846661513541e-09
"1610" 49802 1.28331362669171e-07 3.43225503490869e-08 2.77456403139382e-07 2.99907299280202e-07 2.18374013137966e-07 8.46815194768889e-08 1.52083770901922e-08 7.55596973601809e-09
"1611" 49803 1.27525669802081e-07 3.4329381782676e-08 2.78030369788618e-07 2.99657641708103e-07 2.15498188834883e-07 8.44339120094646e-08 1.52086905190083e-08 7.55347285690077e-09
"1612" 49804 1.27322916437175e-07 3.40590270113536e-08 2.77092812116938e-07 2.99736870873865e-07 2.15340248811182e-07 8.42342331529194e-08 1.51701952333271e-08 7.54225558206054e-09
"1613" 49805 1.2712016307227e-07 3.37886722400313e-08 2.76155254445257e-07 2.99816100039627e-07 2.15182308787481e-07 8.40345542963741e-08 1.51316999476459e-08 7.53103830722031e-09
"1614" 49806 1.26917409707364e-07 3.35183174687089e-08 2.75217696773577e-07 2.99895329205389e-07 2.1502436876378e-07 8.38348754398289e-08 1.50932046619647e-08 7.51982103238008e-09
"1615" 49807 1.26593780980056e-07 3.32384636766786e-08 2.73510149253738e-07 2.98361537756288e-07 2.15247239225138e-07 8.36550666556231e-08 1.50499555502292e-08 7.59153625254912e-09
"1616" 49808 1.26270152252749e-07 3.29586098846483e-08 2.71802601733899e-07 2.96827746307187e-07 2.15470109686496e-07 8.34752578714172e-08 1.50067064384937e-08 7.66325147271816e-09
"1617" 49809 1.25946523525441e-07 3.2678756092618e-08 2.7009505421406e-07 2.95293954858085e-07 2.15692980147854e-07 8.32954490872114e-08 1.49634573267583e-08 7.7349666928872e-09
"1618" 49810 1.25622894798133e-07 3.23989023005877e-08 2.68387506694221e-07 2.93760163408984e-07 2.15915850609212e-07 8.31156403030056e-08 1.49202082150228e-08 7.80668191305624e-09
"1619" 49811 1.25299266070825e-07 3.21190485085574e-08 2.66679959174383e-07 2.92226371959882e-07 2.1613872107057e-07 8.29358315187998e-08 1.48769591032873e-08 7.87839713322529e-09
"1620" 49812 1.24975637343517e-07 3.18391947165271e-08 2.64972411654544e-07 2.90692580510781e-07 2.16361591531927e-07 8.2756022734594e-08 1.48337099915519e-08 7.95011235339433e-09
"1621" 49813 1.2465200861621e-07 3.15593409244968e-08 2.63264864134705e-07 2.89158789061679e-07 2.16584461993285e-07 8.25762139503881e-08 1.47904608798164e-08 8.02182757356337e-09
"1622" 49814 1.24328379888902e-07 3.12794871324665e-08 2.61557316614866e-07 2.87624997612578e-07 2.16807332454643e-07 8.23964051661823e-08 1.47472117680809e-08 8.09354279373241e-09
"1623" 49815 1.24004751161594e-07 3.09996333404363e-08 2.59849769095027e-07 2.86091206163476e-07 2.17030202916001e-07 8.22165963819765e-08 1.47039626563454e-08 8.16525801390145e-09
"1624" 49816 1.23681122434286e-07 3.0719779548406e-08 2.58142221575189e-07 2.84557414714375e-07 2.17253073377359e-07 8.20367875977707e-08 1.466071354461e-08 8.23697323407049e-09
"1625" 49817 1.23357493706979e-07 3.04399257563757e-08 2.5643467405535e-07 2.83023623265273e-07 2.17475943838717e-07 8.18569788135649e-08 1.46174644328745e-08 8.30868845423953e-09
"1626" 49818 1.23033864979671e-07 3.01600719643454e-08 2.54727126535511e-07 2.81489831816172e-07 2.17698814300075e-07 8.16771700293591e-08 1.4574215321139e-08 8.38040367440857e-09
"1627" 49819 1.22710236252363e-07 2.98802181723151e-08 2.53019579015672e-07 2.79956040367071e-07 2.17921684761433e-07 8.14973612451533e-08 1.45309662094036e-08 8.45211889457761e-09
"1628" 49820 1.22386607525055e-07 2.96003643802848e-08 2.51312031495833e-07 2.78422248917969e-07 2.1814455522279e-07 8.13175524609474e-08 1.44877170976681e-08 8.52383411474665e-09
"1629" 49821 1.22062978797748e-07 2.93205105882545e-08 2.49604483975994e-07 2.76888457468868e-07 2.18367425684148e-07 8.11377436767416e-08 1.44444679859326e-08 8.59554933491569e-09
"1630" 49822 1.2173935007044e-07 2.90406567962242e-08 2.47896936456156e-07 2.75354666019766e-07 2.18590296145506e-07 8.09579348925358e-08 1.44012188741972e-08 8.66726455508473e-09
"1631" 49823 1.21415721343132e-07 2.87608030041939e-08 2.46189388936317e-07 2.73820874570665e-07 2.18813166606864e-07 8.077812610833e-08 1.43579697624617e-08 8.73897977525377e-09
"1632" 49824 1.21385981584185e-07 2.86780702508653e-08 2.4611367665117e-07 2.73775996096115e-07 2.19400316518379e-07 8.0268900109721e-08 1.43622248353988e-08 8.81230582407706e-09
"1633" 49825 1.21344308836042e-07 2.85384726713245e-08 2.43063352878511e-07 2.71545652173719e-07 2.20015915707962e-07 8.0268900109721e-08 1.43625069213333e-08 8.8840210442461e-09
"1634" 49826 1.213026360879e-07 2.83988750917838e-08 2.40013029105852e-07 2.69315308251324e-07 2.20631514897544e-07 8.0268900109721e-08 1.43627890072678e-08 8.95573626441514e-09
"1635" 49827 1.21260963339757e-07 2.8259277512243e-08 2.36962705333193e-07 2.67084964328928e-07 2.21247114087126e-07 8.0268900109721e-08 1.43630710932023e-08 9.02745148458418e-09
"1636" 49828 1.21351406441962e-07 2.82440057277727e-08 2.33944933166883e-07 2.64915015129651e-07 2.21353795422562e-07 8.03113746440622e-08 1.43588473631468e-08 9.05051492434089e-09
"1637" 49829 1.21339881394554e-07 2.80997001256823e-08 2.31012461007474e-07 2.62711703439396e-07 2.21779428027254e-07 8.05380330794746e-08 1.43451016760363e-08 9.03917373960419e-09
"1638" 49830 1.21328356347146e-07 2.7955394523592e-08 2.28079988848066e-07 2.60508391749141e-07 2.22205060631946e-07 8.07646915148871e-08 1.43313559889258e-08 9.02783255486748e-09
"1639" 49831 1.21316831299738e-07 2.78110889215016e-08 2.25147516688657e-07 2.58305080058886e-07 2.22630693236638e-07 8.09913499502996e-08 1.43176103018153e-08 9.01649137013077e-09
"1640" 49832 1.2130530625233e-07 2.76667833194113e-08 2.22215044529248e-07 2.56101768368631e-07 2.2305632584133e-07 8.12180083857121e-08 1.43038646147047e-08 9.00515018539406e-09
"1641" 49833 1.21293781204922e-07 2.75224777173209e-08 2.1928257236984e-07 2.53898456678377e-07 2.23481958446022e-07 8.14446668211245e-08 1.42901189275942e-08 8.99380900065735e-09
"1642" 49834 1.21282256157515e-07 2.73781721152306e-08 2.16350100210431e-07 2.51695144988122e-07 2.23907591050714e-07 8.1671325256537e-08 1.42763732404837e-08 8.98246781592064e-09
"1643" 49835 1.21270731110107e-07 2.72338665131402e-08 2.13417628051022e-07 2.49491833297867e-07 2.24333223655406e-07 8.18979836919495e-08 1.42626275533732e-08 8.97112663118393e-09
"1644" 49836 1.21259206062699e-07 2.70895609110498e-08 2.10485155891614e-07 2.47288521607612e-07 2.24758856260098e-07 8.2124642127362e-08 1.42488818662627e-08 8.95978544644723e-09
"1645" 49837 1.21247681015291e-07 2.69452553089595e-08 2.07552683732205e-07 2.45085209917357e-07 2.2518448886479e-07 8.23513005627744e-08 1.42351361791522e-08 8.94844426171052e-09
"1646" 49838 1.21236155967883e-07 2.68009497068691e-08 2.04620211572796e-07 2.42881898227102e-07 2.25610121469482e-07 8.25779589981869e-08 1.42213904920416e-08 8.93710307697381e-09
"1647" 49839 1.21224630920475e-07 2.66566441047788e-08 2.01687739413388e-07 2.40678586536848e-07 2.26035754074174e-07 8.28046174335994e-08 1.42076448049311e-08 8.9257618922371e-09
"1648" 49840 1.21213105873068e-07 2.65123385026884e-08 1.98755267253979e-07 2.38475274846593e-07 2.26461386678866e-07 8.30312758690119e-08 1.41938991178206e-08 8.91442070750039e-09
"1649" 49841 1.2120158082566e-07 2.63680329005981e-08 1.9582279509457e-07 2.36271963156338e-07 2.26887019283558e-07 8.32579343044243e-08 1.41801534307101e-08 8.90307952276368e-09
"1650" 49842 1.21190055778252e-07 2.62237272985077e-08 1.92890322935162e-07 2.34068651466083e-07 2.2731265188825e-07 8.34845927398368e-08 1.41664077435996e-08 8.89173833802697e-09
"1651" 49843 1.21178530730844e-07 2.60794216964174e-08 1.89957850775753e-07 2.31865339775828e-07 2.27738284492942e-07 8.37112511752493e-08 1.4152662056489e-08 8.88039715329027e-09
"1652" 49844 1.21167005683436e-07 2.5935116094327e-08 1.87025378616344e-07 2.29662028085573e-07 2.28163917097634e-07 8.39379096106618e-08 1.41389163693785e-08 8.86905596855356e-09
"1653" 49845 1.21116919983488e-07 2.58380251876892e-08 1.87158513836835e-07 2.28748168149162e-07 2.27513617126192e-07 8.41945737524852e-08 1.41201347702792e-08 8.81106424293592e-09
"1654" 49846 1.21027008205397e-07 2.58134805978563e-08 1.87083881211905e-07 2.26949173093277e-07 2.27662502801994e-07 8.44632562807487e-08 1.40777891361334e-08 8.80283948679894e-09
"1655" 49847 1.20937096427306e-07 2.57889360080234e-08 1.87009248586975e-07 2.25150178037391e-07 2.27811388477795e-07 8.47319388090122e-08 1.40354435019875e-08 8.79461473066195e-09
"1656" 49848 1.20847184649215e-07 2.57643914181905e-08 1.86934615962045e-07 2.23351182981506e-07 2.27960274153597e-07 8.50006213372757e-08 1.39930978678416e-08 8.78638997452496e-09
"1657" 49849 1.20757272871124e-07 2.57398468283576e-08 1.86859983337115e-07 2.21552187925621e-07 2.28109159829398e-07 8.52693038655392e-08 1.39507522336957e-08 8.77816521838798e-09
"1658" 49850 1.20667361093033e-07 2.57153022385247e-08 1.86785350712185e-07 2.19753192869736e-07 2.282580455052e-07 8.55379863938028e-08 1.39084065995498e-08 8.76994046225099e-09
"1659" 49851 1.20577449314942e-07 2.56932968372398e-08 1.86601721996986e-07 2.17949246572615e-07 2.28056034752101e-07 8.56218569698424e-08 1.3895470361384e-08 8.76994046225099e-09
"1660" 49852 1.20457426921733e-07 2.58514391280412e-08 1.86651079917645e-07 2.16128025366077e-07 2.27845637728429e-07 8.56338753562824e-08 1.3849009330774e-08 8.76246227902417e-09
"1661" 49853 1.20337404528524e-07 2.60095814188426e-08 1.86700437838304e-07 2.14306804159538e-07 2.27635240704757e-07 8.56458937427225e-08 1.3802548300164e-08 8.75498409579735e-09
"1662" 49854 1.20217382135315e-07 2.6167723709644e-08 1.86749795758963e-07 2.12485582953e-07 2.27424843681086e-07 8.56579121291626e-08 1.3756087269554e-08 8.74750591257053e-09
"1663" 49855 1.20097359742106e-07 2.63258660004454e-08 1.86799153679623e-07 2.10664361746462e-07 2.27214446657414e-07 8.56699305156027e-08 1.37096262389441e-08 8.74002772934372e-09
"1664" 49856 1.19977337348897e-07 2.64840082912468e-08 1.86848511600282e-07 2.08843140539923e-07 2.27004049633742e-07 8.56819489020428e-08 1.36631652083341e-08 8.7325495461169e-09
"1665" 49857 1.19857314955688e-07 2.66421505820482e-08 1.86897869520941e-07 2.07021919333385e-07 2.26793652610071e-07 8.56939672884829e-08 1.36167041777241e-08 8.72507136289008e-09
"1666" 49858 1.19737292562479e-07 2.68002928728496e-08 1.869472274416e-07 2.05200698126847e-07 2.26583255586399e-07 8.5705985674923e-08 1.35702431471141e-08 8.71759317966326e-09
"1667" 49859 1.1961727016927e-07 2.6958435163651e-08 1.8699658536226e-07 2.03379476920308e-07 2.26372858562727e-07 8.57180040613631e-08 1.35237821165041e-08 8.71011499643644e-09
"1668" 49860 1.19328628331401e-07 2.70944506254473e-08 1.87162715235952e-07 2.01811126346372e-07 2.25228242420486e-07 8.55516294035704e-08 1.3495977313467e-08 8.68206713903894e-09
"1669" 49861 1.1932002995151e-07 2.72587666163538e-08 1.87363004387873e-07 2.01679147525996e-07 2.24653962947842e-07 8.55351222390755e-08 1.34979409830542e-08 8.68268980205263e-09
"1670" 49862 1.19311431571619e-07 2.74230826072602e-08 1.87563293539794e-07 2.01547168705619e-07 2.24079683475198e-07 8.55186150745805e-08 1.34999046526414e-08 8.68331246506632e-09
"1671" 49863 1.19302833191727e-07 2.75873985981666e-08 1.87763582691715e-07 2.01415189885243e-07 2.23505404002554e-07 8.55021079100856e-08 1.35018683222286e-08 8.68393512808e-09
"1672" 49864 1.19294234811836e-07 2.7751714589073e-08 1.87963871843636e-07 2.01283211064866e-07 2.2293112452991e-07 8.54856007455906e-08 1.35038319918158e-08 8.68455779109369e-09
"1673" 49865 1.19285636431945e-07 2.79160305799794e-08 1.88164160995556e-07 2.0115123224449e-07 2.22356845057266e-07 8.54690935810957e-08 1.3505795661403e-08 8.68518045410738e-09
"1674" 49866 1.19283097260694e-07 2.79023677128011e-08 1.88318631187559e-07 2.01053785565011e-07 2.22236681647036e-07 8.70073296479999e-08 1.35144454837501e-08 8.68580311712106e-09
"1675" 49867 1.19280558089443e-07 2.78887048456228e-08 1.88473101379562e-07 2.00956338885531e-07 2.22116518236806e-07 8.85455657149042e-08 1.35230953060972e-08 8.68642578013475e-09
"1676" 49868 1.19278018918193e-07 2.78750419784445e-08 1.88627571571565e-07 2.00858892206052e-07 2.21996354826576e-07 9.00838017818084e-08 1.35317451284443e-08 8.68704844314844e-09
"1677" 49869 1.19275479746942e-07 2.78613791112662e-08 1.88782041763568e-07 2.00761445526572e-07 2.21876191416346e-07 9.16220378487127e-08 1.35403949507914e-08 8.68767110616213e-09
"1678" 49870 1.19272940575692e-07 2.78477162440879e-08 1.8893651195557e-07 2.00663998847093e-07 2.21756028006116e-07 9.31602739156169e-08 1.35490447731385e-08 8.68829376917581e-09
"1679" 49871 1.19270401404441e-07 2.78340533769095e-08 1.89090982147573e-07 2.00566552167614e-07 2.21635864595886e-07 9.46985099825212e-08 1.35576945954856e-08 8.6889164321895e-09
"1680" 49872 1.1926786223319e-07 2.78203905097312e-08 1.89245452339576e-07 2.00469105488134e-07 2.21515701185656e-07 9.62367460494254e-08 1.35663444178327e-08 8.68953909520319e-09
"1681" 49873 1.1926532306194e-07 2.78067276425529e-08 1.89399922531579e-07 2.00371658808655e-07 2.21395537775426e-07 9.77749821163297e-08 1.35749942401798e-08 8.69016175821687e-09
"1682" 49874 1.19262783890689e-07 2.77930647753746e-08 1.89554392723582e-07 2.00274212129175e-07 2.21275374365196e-07 9.93132181832339e-08 1.35836440625269e-08 8.69078442123056e-09
"1683" 49875 1.19260244719439e-07 2.77794019081963e-08 1.89708862915585e-07 2.00176765449696e-07 2.21155210954966e-07 1.00851454250138e-07 1.3592293884874e-08 8.69140708424425e-09
"1684" 49876 1.19257705548188e-07 2.7765739041018e-08 1.89863333107587e-07 2.00079318770216e-07 2.21035047544736e-07 1.02389690317042e-07 1.36009437072211e-08 8.69202974725794e-09
"1685" 49877 1.19255166376937e-07 2.77520761738397e-08 1.9001780329959e-07 1.99981872090737e-07 2.20914884134506e-07 1.03927926383947e-07 1.36095935295682e-08 8.69265241027162e-09
"1686" 49878 1.19252627205687e-07 2.77384133066614e-08 1.90172273491593e-07 1.99884425411258e-07 2.20794720724276e-07 1.05466162450851e-07 1.36182433519153e-08 8.69327507328531e-09
"1687" 49879 1.19250088034436e-07 2.7724750439483e-08 1.90326743683596e-07 1.99786978731778e-07 2.20674557314046e-07 1.07004398517755e-07 1.36268931742623e-08 8.693897736299e-09
"1688" 49880 1.19247548863185e-07 2.77110875723047e-08 1.90481213875599e-07 1.99689532052299e-07 2.20554393903816e-07 1.08542634584659e-07 1.36355429966094e-08 8.69452039931269e-09
"1689" 49881 1.19245009691935e-07 2.76974247051264e-08 1.90635684067601e-07 1.99592085372819e-07 2.20434230493585e-07 1.10080870651564e-07 1.36441928189565e-08 8.69514306232637e-09
"1690" 49882 1.18946499533952e-07 2.77024349477795e-08 1.9060563684744e-07 1.99603629274389e-07 2.20348257981223e-07 1.11483575168623e-07 1.36490236357206e-08 8.69028255458207e-09
"1691" 49883 1.15987962603061e-07 2.7634937325739e-08 1.90816943653602e-07 1.99468884980929e-07 2.20186253839189e-07 1.1160279560266e-07 1.34020440810697e-08 8.69028255458207e-09
"1692" 49884 1.13029425672169e-07 2.75674397036985e-08 1.91028250459764e-07 1.9933414068747e-07 2.20024249697155e-07 1.11722016036696e-07 1.31550645264188e-08 8.69028255458207e-09
"1693" 49885 1.10070888741277e-07 2.7499942081658e-08 1.91239557265926e-07 1.99199396394011e-07 2.1986224555512e-07 1.11841236470733e-07 1.2908084971768e-08 8.69028255458207e-09
"1694" 49886 1.07186488916811e-07 2.74634047055312e-08 1.92637535805739e-07 1.99714482750396e-07 2.19190896987855e-07 1.1040571367337e-07 1.26945702567867e-08 8.70649981471951e-09
"1695" 49887 1.04311297482205e-07 2.73985746706095e-08 1.9267252547141e-07 1.99911355312003e-07 2.19254164540344e-07 1.08949130517955e-07 1.24587656329505e-08 8.71709442654605e-09
"1696" 49888 1.01436106047598e-07 2.73337446356878e-08 1.9270751513708e-07 2.00108227873611e-07 2.19317432092834e-07 1.0749254736254e-07 1.22229610091144e-08 8.72768903837259e-09
"1697" 49889 9.85609146129921e-08 2.7268914600766e-08 1.92742504802751e-07 2.00305100435219e-07 2.19380699645323e-07 1.06035964207125e-07 1.19871563852783e-08 8.73828365019913e-09
"1698" 49890 9.56857231783858e-08 2.72040845658443e-08 1.92777494468422e-07 2.00501972996826e-07 2.19443967197812e-07 1.0457938105171e-07 1.17513517614422e-08 8.74887826202568e-09
"1699" 49891 9.28105317437796e-08 2.71392545309226e-08 1.92812484134093e-07 2.00698845558434e-07 2.19507234750302e-07 1.03122797896294e-07 1.15155471376061e-08 8.75947287385222e-09
"1700" 49892 8.99353403091733e-08 2.70744244960009e-08 1.92847473799763e-07 2.00895718120042e-07 2.19570502302791e-07 1.01666214740879e-07 1.12797425137699e-08 8.77006748567876e-09
"1701" 49893 8.70601488745671e-08 2.70095944610792e-08 1.92882463465434e-07 2.0109259068165e-07 2.1963376985528e-07 1.00209631585464e-07 1.10439378899338e-08 8.7806620975053e-09
"1702" 49894 8.41849574399608e-08 2.69447644261575e-08 1.92917453131105e-07 2.01289463243257e-07 2.1969703740777e-07 9.87530484300488e-08 1.08081332660977e-08 8.79125670933184e-09
"1703" 49895 8.13097660053546e-08 2.68799343912358e-08 1.92952442796776e-07 2.01486335804865e-07 2.19760304960259e-07 9.72964652746336e-08 1.05723286422616e-08 8.80185132115838e-09
"1704" 49896 7.84345745707484e-08 2.6815104356314e-08 1.92987432462446e-07 2.01683208366473e-07 2.19823572512749e-07 9.58398821192184e-08 1.03365240184254e-08 8.81244593298492e-09
"1705" 49897 7.55593831361421e-08 2.67502743213923e-08 1.93022422128117e-07 2.0188008092808e-07 2.19886840065238e-07 9.43832989638032e-08 1.01007193945893e-08 8.82304054481146e-09
"1706" 49898 7.26841917015359e-08 2.66854442864706e-08 1.93057411793788e-07 2.02076953489688e-07 2.19950107617727e-07 9.29267158083879e-08 9.86491477075319e-09 8.833635156638e-09
"1707" 49899 6.98090002669296e-08 2.66206142515489e-08 1.93092401459459e-07 2.02273826051296e-07 2.20013375170217e-07 9.14701326529727e-08 9.62911014691707e-09 8.84422976846454e-09
"1708" 49900 6.69338088323234e-08 2.65557842166272e-08 1.93127391125129e-07 2.02470698612904e-07 2.20076642722706e-07 9.00135494975575e-08 9.39330552308095e-09 8.85482438029109e-09
"1709" 49901 6.40586173977172e-08 2.64909541817055e-08 1.931623807908e-07 2.02667571174511e-07 2.20139910275195e-07 8.85569663421423e-08 9.15750089924482e-09 8.86541899211763e-09
"1710" 49902 6.11834259631109e-08 2.64261241467838e-08 1.93197370456471e-07 2.02864443736119e-07 2.20203177827685e-07 8.71003831867271e-08 8.9216962754087e-09 8.87601360394417e-09
"1711" 49903 6.10492159689176e-08 2.6300990407642e-08 1.91758693141642e-07 1.99176924654929e-07 2.19003941135826e-07 8.63890655523951e-08 8.85143203865716e-09 8.86116246619930e-09
"1712" 49904 6.11378540013596e-08 2.62967662970438e-08 1.91785259710585e-07 1.99384877720866e-07 2.19715650703206e-07 8.63906101233739e-08 8.8714904969368e-09 8.8698828619222e-09
"1713" 49905 6.12264920338016e-08 2.62925421864457e-08 1.91811826279527e-07 1.99592830786804e-07 2.20427360270586e-07 8.63921546943526e-08 8.89154895521643e-09 8.87860325764511e-09
"1714" 49906 6.13151300662435e-08 2.62883180758475e-08 1.91838392848469e-07 1.99800783852741e-07 2.21139069837966e-07 8.63936992653314e-08 8.91160741349606e-09 8.88732365336802e-09
"1715" 49907 6.14037680986855e-08 2.62840939652493e-08 1.91864959417411e-07 2.00008736918679e-07 2.21850779405346e-07 8.63952438363101e-08 8.93166587177569e-09 8.89604404909092e-09
"1716" 49908 6.14924061311274e-08 2.62798698546512e-08 1.91891525986353e-07 2.00216689984616e-07 2.22562488972726e-07 8.63967884072888e-08 8.95172433005532e-09 8.90476444481383e-09
"1717" 49909 6.15275042774174e-08 2.63585820012459e-08 1.92063062593611e-07 2.0140346930807e-07 2.25454128224461e-07 8.6456896443365e-08 8.98172650779749e-09 8.90251849902076e-09
"1718" 49910 6.15267005193159e-08 2.63552645509582e-08 1.92778338287293e-07 2.01254686413396e-07 2.25494836305476e-07 8.64795013723963e-08 9.01744867494672e-09 8.90550479066143e-09
"1719" 49911 6.15258967612145e-08 2.63519471006705e-08 1.93493613980974e-07 2.01105903518722e-07 2.25535544386491e-07 8.65021063014277e-08 9.05317084209596e-09 8.9084910823021e-09
"1720" 49912 6.1525093003113e-08 2.63486296503828e-08 1.94208889674656e-07 2.00957120624048e-07 2.25576252467506e-07 8.65247112304591e-08 9.08889300924519e-09 8.91147737394277e-09
"1721" 49913 6.15242892450116e-08 2.6345312200095e-08 1.94924165368338e-07 2.00808337729373e-07 2.2561696054852e-07 8.65473161594905e-08 9.12461517639443e-09 8.91446366558344e-09
"1722" 49914 6.15234854869101e-08 2.63419947498073e-08 1.9563944106202e-07 2.00659554834699e-07 2.25657668629535e-07 8.65699210885219e-08 9.16033734354366e-09 8.91744995722411e-09
"1723" 49915 6.15226817288087e-08 2.63386772995196e-08 1.96354716755702e-07 2.00510771940025e-07 2.2569837671055e-07 8.65925260175533e-08 9.1960595106929e-09 8.92043624886478e-09
"1724" 49916 6.15218779707072e-08 2.63353598492319e-08 1.97069992449383e-07 2.00361989045351e-07 2.25739084791565e-07 8.66151309465846e-08 9.23178167784213e-09 8.92342254050545e-09
"1725" 49917 6.15210742126058e-08 2.63320423989442e-08 1.97785268143065e-07 2.00213206150676e-07 2.25779792872579e-07 8.6637735875616e-08 9.26750384499137e-09 8.92640883214612e-09
"1726" 49918 6.15089557953244e-08 2.63261176256655e-08 1.98483607471964e-07 2.00213750499729e-07 2.24388052431077e-07 8.63964677308638e-08 9.29111626085467e-09 8.93189200290411e-09
"1727" 49919 6.14968373780431e-08 2.63201928523868e-08 1.99181946800863e-07 2.00214294848783e-07 2.22996311989575e-07 8.61551995861116e-08 9.31472867671797e-09 8.9373751736621e-09
"1728" 49920 6.14847189607618e-08 2.63142680791081e-08 1.99880286129762e-07 2.00214839197836e-07 2.21604571548073e-07 8.59139314413593e-08 9.33834109258128e-09 8.94285834442009e-09
"1729" 49921 6.14726005434804e-08 2.63083433058293e-08 2.00578625458662e-07 2.00215383546889e-07 2.20212831106571e-07 8.56726632966071e-08 9.36195350844458e-09 8.94834151517808e-09
"1730" 49922 6.14604821261991e-08 2.63024185325506e-08 2.01276964787561e-07 2.00215927895942e-07 2.18821090665068e-07 8.54313951518549e-08 9.38556592430788e-09 8.95382468593607e-09
"1731" 49923 6.16304290422204e-08 2.62936750621014e-08 2.01896933550193e-07 2.01626421257461e-07 2.17945681802194e-07 8.51689861296715e-08 9.38929090124613e-09 8.95556876508065e-09
"1732" 49924 6.18003759582417e-08 2.62849315916522e-08 2.02516902312826e-07 2.0303691461898e-07 2.1707027293932e-07 8.49065771074881e-08 9.39301587818438e-09 8.95731284422524e-09
"1733" 49925 6.1970322874263e-08 2.6276188121203e-08 2.03136871075458e-07 2.04447407980499e-07 2.16194864076445e-07 8.46441680853047e-08 9.39674085512262e-09 8.95905692336982e-09
"1734" 49926 6.21402697902843e-08 2.62674446507538e-08 2.03756839838091e-07 2.05857901342017e-07 2.15319455213571e-07 8.43817590631213e-08 9.40046583206087e-09 8.9608010025144e-09
"1735" 49927 6.23102167063056e-08 2.62587011803046e-08 2.04376808600723e-07 2.07268394703536e-07 2.14444046350697e-07 8.41193500409379e-08 9.40419080899912e-09 8.96254508165898e-09
"1736" 49928 6.24801636223269e-08 2.62499577098554e-08 2.04996777363356e-07 2.08678888065055e-07 2.13568637487822e-07 8.38569410187545e-08 9.40791578593736e-09 8.96428916080356e-09
"1737" 49929 6.26501105383483e-08 2.62412142394061e-08 2.05616746125988e-07 2.10089381426574e-07 2.12693228624948e-07 8.35945319965712e-08 9.41164076287561e-09 8.96603323994814e-09
"1738" 49930 6.28200574543696e-08 2.62324707689569e-08 2.06236714888621e-07 2.11499874788093e-07 2.11817819762073e-07 8.33321229743878e-08 9.41536573981386e-09 8.96777731909272e-09
"1739" 49931 6.29900043703909e-08 2.62237272985077e-08 2.06856683651253e-07 2.12910368149612e-07 2.10942410899199e-07 8.30697139522044e-08 9.4190907167521e-09 8.96952139823731e-09
"1740" 49932 6.31599512864122e-08 2.62149838280585e-08 2.07476652413886e-07 2.14320861511131e-07 2.10067002036325e-07 8.2807304930021e-08 9.42281569369035e-09 8.97126547738189e-09
"1741" 49933 6.33298982024335e-08 2.62062403576093e-08 2.08096621176518e-07 2.1573135487265e-07 2.0919159317345e-07 8.25448959078376e-08 9.4265406706286e-09 8.97300955652647e-09
"1742" 49934 6.34998451184548e-08 2.61974968871601e-08 2.08716589939151e-07 2.17141848234168e-07 2.08316184310576e-07 8.22824868856542e-08 9.43026564756685e-09 8.97475363567105e-09
"1743" 49935 6.36697920344762e-08 2.61887534167108e-08 2.09336558701783e-07 2.18552341595687e-07 2.07440775447702e-07 8.20200778634708e-08 9.43399062450509e-09 8.97649771481563e-09
"1744" 49936 6.38397389504975e-08 2.61800099462616e-08 2.09956527464416e-07 2.19962834957206e-07 2.06565366584827e-07 8.17576688412874e-08 9.43771560144334e-09 8.97824179396021e-09
"1745" 49937 6.38539386769565e-08 2.60160791510675e-08 2.10522344341727e-07 2.21283027020573e-07 2.07156028118549e-07 8.16915601309588e-08 9.45252148055149e-09 8.97973493978055e-09
"1746" 49938 6.37300995614207e-08 2.57697475049798e-08 2.08717680635106e-07 2.2125063785407e-07 2.07732390526326e-07 8.16599132303148e-08 9.43263404162643e-09 8.9030633237523e-09
"1747" 49939 6.3606260445885e-08 2.55234158588921e-08 2.06913016928485e-07 2.21218248687568e-07 2.08308752934103e-07 8.16282663296709e-08 9.41274660270138e-09 8.82639170772405e-09
"1748" 49940 6.34824213303493e-08 2.52770842128045e-08 2.05108353221864e-07 2.21185859521065e-07 2.0888511534188e-07 8.1596619429027e-08 9.39285916377632e-09 8.74972009169579e-09
"1749" 49941 6.33585822148136e-08 2.50307525667168e-08 2.03303689515243e-07 2.21153470354563e-07 2.09461477749656e-07 8.15649725283831e-08 9.37297172485126e-09 8.67304847566754e-09
"1750" 49942 6.32347430992779e-08 2.47844209206291e-08 2.01499025808622e-07 2.2112108118806e-07 2.10037840157433e-07 8.15333256277391e-08 9.35308428592621e-09 8.59637685963929e-09
"1751" 49943 6.31109039837422e-08 2.45380892745415e-08 1.99694362102002e-07 2.21088692021558e-07 2.1061420256521e-07 8.15016787270952e-08 9.33319684700115e-09 8.51970524361104e-09
"1752" 49944 6.28049995349038e-08 2.42910020781951e-08 1.97501495937317e-07 2.21538168143973e-07 2.11075389093929e-07 8.16860084971073e-08 9.29747467985192e-09 8.44128954843821e-09
"1753" 49945 6.26551881716563e-08 2.40674017013194e-08 1.95181832465076e-07 2.20554991764328e-07 2.11104867359491e-07 8.17473546634941e-08 9.26278136181871e-09 8.36349651627906e-09
"1754" 49946 6.25053768084087e-08 2.38438013244438e-08 1.92862168992834e-07 2.19571815384684e-07 2.11134345625053e-07 8.18087008298808e-08 9.22808804378550e-09 8.28570348411992e-09
"1755" 49947 6.23555654451611e-08 2.36202009475681e-08 1.90542505520593e-07 2.18588639005039e-07 2.11163823890616e-07 8.18700469962676e-08 9.19339472575229e-09 8.20791045196077e-09
"1756" 49948 6.22057540819136e-08 2.33966005706924e-08 1.88222842048352e-07 2.17605462625394e-07 2.11193302156178e-07 8.19313931626544e-08 9.15870140771908e-09 8.13011741980162e-09
"1757" 49949 6.2055942718666e-08 2.31730001938168e-08 1.85903178576111e-07 2.1662228624575e-07 2.11222780421741e-07 8.19927393290411e-08 9.12400808968587e-09 8.05232438764248e-09
"1758" 49950 6.19061313554184e-08 2.29493998169411e-08 1.83583515103869e-07 2.15639109866105e-07 2.11252258687303e-07 8.20540854954279e-08 9.08931477165266e-09 7.97453135548333e-09
"1759" 49951 6.17563199921709e-08 2.27257994400654e-08 1.81263851631628e-07 2.1465593348646e-07 2.11281736952866e-07 8.21154316618147e-08 9.05462145361945e-09 7.89673832332419e-09
"1760" 49952 6.16065086289233e-08 2.25021990631898e-08 1.78944188159387e-07 2.13672757106816e-07 2.11311215218428e-07 8.21767778282014e-08 9.01992813558624e-09 7.81894529116504e-09
"1761" 49953 6.14566972656758e-08 2.22785986863141e-08 1.76624524687146e-07 2.12689580727171e-07 2.1134069348399e-07 8.22381239945882e-08 8.98523481755303e-09 7.74115225900590e-09
"1762" 49954 6.13068859024282e-08 2.20549983094385e-08 1.74304861214905e-07 2.11706404347527e-07 2.11370171749553e-07 8.22994701609749e-08 8.95054149951982e-09 7.66335922684675e-09
"1763" 49955 6.11570745391806e-08 2.18313979325628e-08 1.71985197742663e-07 2.10723227967882e-07 2.11399650015115e-07 8.23608163273617e-08 8.91584818148661e-09 7.5855661946876e-09
"1764" 49956 6.10072631759331e-08 2.16077975556871e-08 1.69665534270422e-07 2.09740051588237e-07 2.11429128280678e-07 8.24221624937485e-08 8.8811548634534e-09 7.50777316252846e-09
"1765" 49957 6.08574518126855e-08 2.13841971788115e-08 1.67345870798181e-07 2.08756875208593e-07 2.1145860654624e-07 8.24835086601352e-08 8.84646154542019e-09 7.42998013036931e-09
"1766" 49958 6.07076404494379e-08 2.11605968019358e-08 1.6502620732594e-07 2.07773698828948e-07 2.11488084811803e-07 8.2544854826522e-08 8.81176822738698e-09 7.35218709821017e-09
"1767" 49959 6.05578290861904e-08 2.09369964250601e-08 1.62706543853698e-07 2.06790522449303e-07 2.11517563077365e-07 8.26062009929088e-08 8.77707490935377e-09 7.27439406605102e-09
"1768" 49960 6.06423984078401e-08 2.09604832445308e-08 1.62610791272538e-07 2.07060393481648e-07 2.11176328022531e-07 8.2437831789677e-08 8.73616284879627e-09 7.26204292095476e-09
"1769" 49961 6.07090497028875e-08 2.09886780865511e-08 1.62402169195214e-07 2.07218289786181e-07 2.0993903633291e-07 8.17069159807738e-08 8.73313898721142e-09 7.24969177585849e-09
"1770" 49962 6.07757009979349e-08 2.10168729285714e-08 1.6219354711789e-07 2.07376186090713e-07 2.08701744643288e-07 8.09760001718706e-08 8.73011512562657e-09 7.23734063076222e-09
"1771" 49963 6.08423522929823e-08 2.10450677705917e-08 1.61984925040566e-07 2.07534082395246e-07 2.07464452953666e-07 8.02450843629674e-08 8.72709126404172e-09 7.22498948566596e-09
"1772" 49964 6.09090035880297e-08 2.1073262612612e-08 1.61776302963242e-07 2.07691978699778e-07 2.06227161264044e-07 7.95141685540641e-08 8.72406740245686e-09 7.21263834056969e-09
"1773" 49965 6.09756548830771e-08 2.11014574546323e-08 1.61567680885918e-07 2.0784987500431e-07 2.04989869574423e-07 7.87832527451609e-08 8.72104354087201e-09 7.20028719547342e-09
"1774" 49966 6.08862130925336e-08 2.12193448821411e-08 1.64037004758383e-07 2.09853064782518e-07 2.04390864382263e-07 7.8145973691287e-08 8.87324296531845e-09 7.19067763575615e-09
"1775" 49967 6.09788366352929e-08 2.12832455452713e-08 1.6411456617841e-07 2.11150600785751e-07 2.03910673403443e-07 7.73384270449667e-08 8.8702191037336e-09 7.17944790679078e-09
"1776" 49968 6.10714601780522e-08 2.13471462084016e-08 1.64192127598436e-07 2.12448136788983e-07 2.03430482424624e-07 7.65308803986464e-08 8.86719524214875e-09 7.16821817782541e-09
"1777" 49969 6.11640837208114e-08 2.14110468715319e-08 1.64269689018462e-07 2.13745672792216e-07 2.02950291445804e-07 7.5723333752326e-08 8.86417138056389e-09 7.15698844886004e-09
"1778" 49970 6.12567072635707e-08 2.14749475346621e-08 1.64347250438488e-07 2.15043208795448e-07 2.02470100466984e-07 7.49157871060057e-08 8.86114751897904e-09 7.14575871989467e-09
"1779" 49971 6.13493308063299e-08 2.15388481977924e-08 1.64424811858515e-07 2.16340744798681e-07 2.01989909488164e-07 7.41082404596854e-08 8.85812365739419e-09 7.13452899092929e-09
"1780" 49972 6.14419543490892e-08 2.16027488609227e-08 1.64502373278541e-07 2.17638280801913e-07 2.01509718509344e-07 7.33006938133651e-08 8.85509979580934e-09 7.12329926196392e-09
"1781" 49973 6.15345778918484e-08 2.1666649524053e-08 1.64579934698567e-07 2.18935816805146e-07 2.01029527530524e-07 7.24931471670448e-08 8.85207593422448e-09 7.11206953299855e-09
"1782" 49974 6.16272014346077e-08 2.17305501871832e-08 1.64657496118594e-07 2.20233352808378e-07 2.00549336551704e-07 7.16856005207245e-08 8.84905207263963e-09 7.10083980403318e-09
"1783" 49975 6.18031704736525e-08 2.17222452057234e-08 1.6473505753862e-07 2.2096143929951e-07 2.00735021685129e-07 7.16808218729069e-08 8.79420626768195e-09 7.08363749178647e-09
"1784" 49976 6.19791395126974e-08 2.17139402242637e-08 1.64812618958646e-07 2.21689525790641e-07 2.00920706818553e-07 7.16760432250893e-08 8.73936046272428e-09 7.06643517953976e-09
"1785" 49977 6.21551085517423e-08 2.17056352428039e-08 1.64890180378672e-07 2.22417612281773e-07 2.01106391951977e-07 7.16712645772717e-08 8.6845146577666e-09 7.04923286729304e-09
"1786" 49978 6.23310775907872e-08 2.16973302613441e-08 1.64967741798699e-07 2.23145698772904e-07 2.01292077085402e-07 7.16664859294542e-08 8.62966885280892e-09 7.03203055504633e-09
"1787" 49979 6.25070466298321e-08 2.16890252798843e-08 1.65045303218725e-07 2.23873785264036e-07 2.01477762218826e-07 7.16617072816366e-08 8.57482304785125e-09 7.01482824279962e-09
"1788" 49980 6.25498569066302e-08 2.17696424924885e-08 1.64731712144389e-07 2.23016645461119e-07 2.00879377882102e-07 7.21335926130469e-08 8.56760679909255e-09 7.01944093075096e-09
"1789" 49981 6.25435297786224e-08 2.16987592857173e-08 1.64457389912582e-07 2.22282208231034e-07 2.00592617101457e-07 7.21110037878912e-08 8.52080372977341e-09 7.00597771011766e-09
"1790" 49982 6.25372026506146e-08 2.16278760789462e-08 1.64183067680775e-07 2.21547771000949e-07 2.00305856320812e-07 7.20884149627355e-08 8.47400066045427e-09 6.99251448948436e-09
"1791" 49983 6.25308755226068e-08 2.1556992872175e-08 1.63908745448968e-07 2.20813333770864e-07 2.00019095540167e-07 7.20658261375799e-08 8.42719759113513e-09 6.97905126885105e-09
"1792" 49984 6.25245483945989e-08 2.14861096654038e-08 1.63634423217161e-07 2.20078896540779e-07 1.99732334759521e-07 7.20432373124242e-08 8.38039452181599e-09 6.96558804821775e-09
"1793" 49985 6.25182212665911e-08 2.14152264586326e-08 1.63360100985354e-07 2.19344459310694e-07 1.99445573978876e-07 7.20206484872685e-08 8.33359145249684e-09 6.95212482758445e-09
"1794" 49986 6.25118941385833e-08 2.13443432518615e-08 1.63085778753547e-07 2.18610022080609e-07 1.99158813198231e-07 7.19980596621129e-08 8.2867883831777e-09 6.93866160695115e-09
"1795" 49987 6.25055670105755e-08 2.12734600450903e-08 1.6281145652174e-07 2.17875584850524e-07 1.98872052417585e-07 7.19754708369572e-08 8.23998531385856e-09 6.92519838631784e-09
"1796" 49988 6.24992398825677e-08 2.12025768383191e-08 1.62537134289934e-07 2.17141147620439e-07 1.9858529163694e-07 7.19528820118015e-08 8.19318224453942e-09 6.91173516568454e-09
"1797" 49989 6.24929127545598e-08 2.1131693631548e-08 1.62262812058127e-07 2.16406710390355e-07 1.98298530856295e-07 7.19302931866458e-08 8.14637917522028e-09 6.89827194505124e-09
"1798" 49990 6.2486585626552e-08 2.10608104247768e-08 1.6198848982632e-07 2.1567227316027e-07 1.98011770075649e-07 7.19077043614902e-08 8.09957610590114e-09 6.88480872441794e-09
"1799" 49991 6.24802584985442e-08 2.09899272180056e-08 1.61714167594513e-07 2.14937835930185e-07 1.97725009295004e-07 7.18851155363345e-08 8.05277303658199e-09 6.87134550378463e-09
"1800" 49992 6.24739313705364e-08 2.09190440112345e-08 1.61439845362706e-07 2.142033987001e-07 1.97438248514359e-07 7.18625267111788e-08 8.00596996726285e-09 6.85788228315133e-09
"1801" 49993 6.24676042425285e-08 2.08481608044633e-08 1.61165523130899e-07 2.13468961470015e-07 1.97151487733713e-07 7.18399378860232e-08 7.95916689794371e-09 6.84441906251803e-09
"1802" 49994 6.24612771145207e-08 2.07772775976921e-08 1.60891200899092e-07 2.1273452423993e-07 1.96864726953068e-07 7.18173490608675e-08 7.91236382862457e-09 6.83095584188472e-09
"1803" 49995 6.21551418319323e-08 2.05424399847812e-08 1.60864833310745e-07 2.12779557180226e-07 1.96117632785871e-07 7.11806336426432e-08 7.88571324622990e-09 6.81749262125142e-09
"1804" 49996 6.21529530713305e-08 2.04258749950913e-08 1.59164923585855e-07 2.12078828596608e-07 1.96260440891846e-07 7.11755816959684e-08 7.88590130351956e-09 6.82297579200941e-09
"1805" 49997 6.21507643107287e-08 2.03093100054014e-08 1.57465013860965e-07 2.11378100012989e-07 1.96403248997821e-07 7.11705297492935e-08 7.88608936080923e-09 6.8284589627674e-09
"1806" 49998 6.21485755501269e-08 2.01927450157115e-08 1.55765104136075e-07 2.10677371429371e-07 1.96546057103796e-07 7.11654778026186e-08 7.8862774180989e-09 6.83394213352540e-09
"1807" 49999 6.21463867895251e-08 2.00761800260217e-08 1.54065194411185e-07 2.09976642845753e-07 1.96688865209771e-07 7.11604258559437e-08 7.88646547538857e-09 6.83942530428339e-09
"1808" 50000 6.21441980289234e-08 1.99596150363318e-08 1.52365284686295e-07 2.09275914262134e-07 1.96831673315746e-07 7.11553739092688e-08 7.88665353267823e-09 6.84490847504138e-09
"1809" 50001 6.21420092683216e-08 1.98430500466419e-08 1.50665374961405e-07 2.08575185678516e-07 1.96974481421721e-07 7.11503219625939e-08 7.8868415899679e-09 6.85039164579937e-09
"1810" 50002 6.21398205077198e-08 1.9726485056952e-08 1.48965465236515e-07 2.07874457094898e-07 1.97117289527695e-07 7.1145270015919e-08 7.88702964725757e-09 6.85587481655736e-09
"1811" 50003 6.21733194578543e-08 1.96159732391116e-08 1.47201858386953e-07 2.09397325307594e-07 1.97136436430502e-07 7.11507885079597e-08 7.90324049006108e-09 6.86024279824703e-09
"1812" 50004 6.22435157504342e-08 1.95178166917964e-08 1.45663401397707e-07 2.08640137123861e-07 1.99822300669813e-07 7.16168484396315e-08 7.90051301935725e-09 6.86360704663971e-09
"1813" 50005 6.23137120430141e-08 1.94196601444811e-08 1.44124944408461e-07 2.07882948940127e-07 2.02508164909125e-07 7.20829083713033e-08 7.89778554865342e-09 6.86697129503239e-09
"1814" 50006 6.23839083355941e-08 1.93215035971659e-08 1.42586487419214e-07 2.07125760756393e-07 2.05194029148436e-07 7.25489683029751e-08 7.89505807794958e-09 6.87033554342508e-09
"1815" 50007 6.2454104628174e-08 1.92233470498507e-08 1.41048030429968e-07 2.0636857257266e-07 2.07879893387748e-07 7.3015028234647e-08 7.89233060724575e-09 6.87369979181776e-09
"1816" 50008 6.25243009207539e-08 1.91251905025355e-08 1.39509573440721e-07 2.05611384388926e-07 2.10565757627059e-07 7.34810881663188e-08 7.88960313654192e-09 6.87706404021044e-09
"1817" 50009 6.25944972133338e-08 1.90270339552203e-08 1.37971116451475e-07 2.04854196205192e-07 2.13251621866371e-07 7.39471480979906e-08 7.88687566583808e-09 6.88042828860312e-09
"1818" 50010 6.26646935059137e-08 1.89288774079051e-08 1.36432659462229e-07 2.04097008021459e-07 2.15937486105682e-07 7.44132080296625e-08 7.88414819513425e-09 6.88379253699581e-09
"1819" 50011 6.27348897984937e-08 1.88307208605899e-08 1.34894202472982e-07 2.03339819837725e-07 2.18623350344994e-07 7.48792679613343e-08 7.88142072443042e-09 6.88715678538849e-09
"1820" 50012 6.28050860910736e-08 1.87325643132747e-08 1.33355745483736e-07 2.02582631653992e-07 2.21309214584305e-07 7.53453278930061e-08 7.87869325372659e-09 6.89052103378117e-09
"1821" 50013 6.28752823836535e-08 1.86344077659595e-08 1.31817288494489e-07 2.01825443470258e-07 2.23995078823617e-07 7.58113878246779e-08 7.87596578302275e-09 6.89388528217385e-09
"1822" 50014 6.29454786762334e-08 1.85362512186442e-08 1.30278831505243e-07 2.01068255286524e-07 2.26680943062929e-07 7.62774477563498e-08 7.87323831231892e-09 6.89724953056654e-09
"1823" 50015 6.30156749688133e-08 1.8438094671329e-08 1.28740374515997e-07 2.00311067102791e-07 2.2936680730224e-07 7.67435076880216e-08 7.87051084161509e-09 6.90061377895922e-09
"1824" 50016 6.30858712613933e-08 1.83399381240138e-08 1.2720191752675e-07 1.99553878919057e-07 2.32052671541552e-07 7.72095676196934e-08 7.86778337091126e-09 6.9039780273519e-09
"1825" 50017 6.31560675539732e-08 1.82417815766986e-08 1.25663460537504e-07 1.98796690735323e-07 2.34738535780863e-07 7.76756275513652e-08 7.86505590020742e-09 6.90734227574459e-09
"1826" 50018 6.32274180153034e-08 1.82583688281372e-08 1.25848378514117e-07 1.98890192985801e-07 2.37591642419137e-07 7.78505449606235e-08 7.86214037221392e-09 6.91045559081302e-09
"1827" 50019 6.32356659845458e-08 1.82380859015492e-08 1.25370915282759e-07 1.98218182715299e-07 2.39951491444005e-07 7.83187287357698e-08 7.86198365780587e-09 6.9138198392057e-09
"1828" 50020 6.32439139537883e-08 1.82178029749613e-08 1.24893452051401e-07 1.97546172444797e-07 2.42311340468873e-07 7.87869125109161e-08 7.86182694339781e-09 6.91718408759839e-09
"1829" 50021 6.32521619230308e-08 1.81975200483733e-08 1.24415988820044e-07 1.96874162174296e-07 2.44671189493741e-07 7.92550962860624e-08 7.86167022898975e-09 6.92054833599107e-09
"1830" 50022 6.32604098922732e-08 1.81772371217854e-08 1.23938525588686e-07 1.96202151903794e-07 2.47031038518609e-07 7.97232800612088e-08 7.8615135145817e-09 6.92391258438375e-09
"1831" 50023 6.32686578615157e-08 1.81569541951975e-08 1.23461062357328e-07 1.95530141633292e-07 2.49390887543477e-07 8.01914638363551e-08 7.86135680017364e-09 6.92727683277643e-09
"1832" 50024 6.32769058307582e-08 1.81366712686095e-08 1.22983599125971e-07 1.9485813136279e-07 2.51750736568344e-07 8.06596476115014e-08 7.86120008576558e-09 6.93064108116912e-09
"1833" 50025 6.32190958748267e-08 1.81749468600637e-08 1.22424971790238e-07 1.94629530291424e-07 2.51257478954939e-07 8.08741441266815e-08 7.85585347794927e-09 6.94547353772627e-09
"1834" 50026 6.32267133885786e-08 1.82045698269926e-08 1.21736711126437e-07 1.94657424176051e-07 2.53323949051114e-07 8.14345664218487e-08 7.86959916505979e-09 6.94572447105052e-09
"1835" 50027 6.32343309023304e-08 1.82341927939216e-08 1.21048450462636e-07 1.94685318060677e-07 2.55390419147289e-07 8.1994988717016e-08 7.8833448521703e-09 6.94597540437477e-09
"1836" 50028 6.32419484160823e-08 1.82638157608505e-08 1.20360189798834e-07 1.94713211945304e-07 2.57456889243465e-07 8.25554110121833e-08 7.89709053928082e-09 6.94622633769901e-09
"1837" 50029 6.32495659298342e-08 1.82934387277794e-08 1.19671929135033e-07 1.94741105829931e-07 2.5952335933964e-07 8.31158333073505e-08 7.91083622639134e-09 6.94647727102326e-09
"1838" 50030 6.3257183443586e-08 1.83230616947084e-08 1.18983668471231e-07 1.94768999714557e-07 2.61589829435815e-07 8.36762556025178e-08 7.92458191350185e-09 6.94672820434751e-09
"1839" 50031 6.32648009573379e-08 1.83526846616373e-08 1.1829540780743e-07 1.94796893599184e-07 2.6365629953199e-07 8.42366778976851e-08 7.93832760061237e-09 6.94697913767175e-09
"1840" 50032 6.31405251344446e-08 1.84149458256794e-08 1.18020525909726e-07 1.95539010319591e-07 2.66202915296457e-07 8.47995617506869e-08 7.95445871971757e-09 6.94548599185142e-09
"1841" 50033 6.30162493115512e-08 1.84772069897215e-08 1.17745644012022e-07 1.96281127039998e-07 2.68749531060923e-07 8.53624456036888e-08 7.97058983882277e-09 6.94399284603108e-09
"1842" 50034 6.28919734886579e-08 1.85394681537636e-08 1.17470762114317e-07 1.97023243760404e-07 2.71296146825389e-07 8.59253294566907e-08 7.98672095792797e-09 6.94249970021075e-09
"1843" 50035 6.27676976657645e-08 1.86017293178057e-08 1.17195880216613e-07 1.97765360480811e-07 2.73842762589855e-07 8.64882133096926e-08 8.00285207703317e-09 6.94100655439041e-09
"1844" 50036 6.26434218428712e-08 1.86639904818478e-08 1.16920998318909e-07 1.98507477201218e-07 2.76389378354321e-07 8.70510971626945e-08 8.01898319613837e-09 6.93951340857008e-09
"1845" 50037 6.25191460199778e-08 1.87262516458899e-08 1.16646116421205e-07 1.99249593921625e-07 2.78935994118788e-07 8.76139810156964e-08 8.03511431524356e-09 6.93802026274974e-09
"1846" 50038 6.23948701970845e-08 1.8788512809932e-08 1.163712345235e-07 1.99991710642032e-07 2.81482609883254e-07 8.81768648686983e-08 8.05124543434876e-09 6.93652711692941e-09
"1847" 50039 6.22705943741911e-08 1.88507739739741e-08 1.16096352625796e-07 2.00733827362438e-07 2.8402922564772e-07 8.87397487217001e-08 8.06737655345396e-09 6.93503397110907e-09
"1848" 50040 6.2110251664343e-08 1.88447208021247e-08 1.15807118300221e-07 2.00757658642254e-07 2.84716038260012e-07 8.90031391462422e-08 8.06564658898454e-09 6.94289633815048e-09
"1849" 50041 6.19499089544949e-08 1.88386676302752e-08 1.15517883974645e-07 2.00781489922069e-07 2.85402850872305e-07 8.92665295707843e-08 8.06391662451512e-09 6.95075870519188e-09
"1850" 50042 6.17895662446468e-08 1.88326144584258e-08 1.1522864964907e-07 2.00805321201884e-07 2.86089663484598e-07 8.95299199953264e-08 8.0621866600457e-09 6.95862107223328e-09
"1851" 50043 6.16292235347987e-08 1.88265612865763e-08 1.14939415323494e-07 2.008291524817e-07 2.8677647609689e-07 8.97933104198685e-08 8.06045669557629e-09 6.96648343927469e-09
"1852" 50044 6.14688808249506e-08 1.88205081147269e-08 1.14650180997919e-07 2.00852983761515e-07 2.87463288709183e-07 9.00567008444106e-08 8.05872673110687e-09 6.97434580631609e-09
"1853" 50045 6.13085381151024e-08 1.88144549428774e-08 1.14360946672344e-07 2.0087681504133e-07 2.88150101321475e-07 9.03200912689527e-08 8.05699676663745e-09 6.98220817335749e-09
"1854" 50046 6.11481954052543e-08 1.88084017710279e-08 1.14071712346768e-07 2.00900646321146e-07 2.88836913933768e-07 9.05834816934948e-08 8.05526680216803e-09 6.9900705403989e-09
"1855" 50047 6.09878526954062e-08 1.88023485991785e-08 1.13782478021193e-07 2.00924477600961e-07 2.8952372654606e-07 9.08468721180369e-08 8.05353683769861e-09 6.9979329074403e-09
"1856" 50048 6.08275099855581e-08 1.8796295427329e-08 1.13493243695618e-07 2.00948308880776e-07 2.90210539158353e-07 9.1110262542579e-08 8.05180687322919e-09 7.0057952744817e-09
"1857" 50049 6.066716727571e-08 1.87902422554796e-08 1.13204009370042e-07 2.00972140160591e-07 2.90897351770645e-07 9.13736529671211e-08 8.05007690875977e-09 7.01365764152311e-09
"1858" 50050 6.05068245658619e-08 1.87841890836301e-08 1.12914775044467e-07 2.00995971440407e-07 2.91584164382938e-07 9.16370433916632e-08 8.04834694429036e-09 7.02152000856451e-09
"1859" 50051 6.03464818560137e-08 1.87781359117807e-08 1.12625540718891e-07 2.01019802720222e-07 2.9227097699523e-07 9.19004338162053e-08 8.04661697982094e-09 7.02938237560591e-09
"1860" 50052 6.01861391461656e-08 1.87720827399312e-08 1.12336306393316e-07 2.01043634000037e-07 2.92957789607523e-07 9.21638242407474e-08 8.04488701535152e-09 7.03724474264732e-09
"1861" 50053 6.00257964363175e-08 1.87660295680817e-08 1.12047072067741e-07 2.01067465279853e-07 2.93644602219815e-07 9.24272146652895e-08 8.0431570508821e-09 7.04510710968872e-09
"1862" 50054 5.98654537264694e-08 1.87599763962323e-08 1.11757837742165e-07 2.01091296559668e-07 2.94331414832108e-07 9.26906050898316e-08 8.04142708641268e-09 7.05296947673012e-09
"1863" 50055 5.94392468395803e-08 1.87146274152132e-08 1.11657986326797e-07 2.00718138970185e-07 2.95010021628912e-07 9.28286479102274e-08 8.03455287636314e-09 7.03390540250492e-09
"1864" 50056 5.90130399526913e-08 1.86692784341942e-08 1.11558134911429e-07 2.00344981380701e-07 2.95688628425716e-07 9.29666907306232e-08 8.02767866631359e-09 7.01484132827972e-09
"1865" 50057 5.85868330658023e-08 1.86239294531751e-08 1.11458283496061e-07 1.99971823791218e-07 2.96367235222521e-07 9.3104733551019e-08 8.02080445626404e-09 6.99577725405452e-09
"1866" 50058 5.81606261789132e-08 1.85785804721561e-08 1.11358432080693e-07 1.99598666201735e-07 2.97045842019325e-07 9.32427763714147e-08 8.0139302462145e-09 6.97671317982931e-09
"1867" 50059 5.77344192920242e-08 1.8533231491137e-08 1.11258580665325e-07 1.99225508612251e-07 2.97724448816129e-07 9.33808191918105e-08 8.00705603616495e-09 6.95764910560411e-09
"1868" 50060 5.73082124051351e-08 1.8487882510118e-08 1.11158729249957e-07 1.98852351022768e-07 2.98403055612933e-07 9.35188620122063e-08 8.00018182611541e-09 6.93858503137891e-09
"1869" 50061 5.69267820419434e-08 1.85737204400902e-08 1.11434680394845e-07 2.00918575383487e-07 2.98954017702749e-07 9.37430593568138e-08 8.04698489543455e-09 6.9110390406299e-09
"1870" 50062 5.64896396720929e-08 1.85670628280338e-08 1.1203744207115e-07 2.00573737851873e-07 2.99545195641581e-07 9.49267928163951e-08 8.04196602138087e-09 6.8857327686114e-09
"1871" 50063 5.60524973022424e-08 1.85604052159773e-08 1.12640203747454e-07 2.0022890032026e-07 3.00136373580413e-07 9.61105262759763e-08 8.03694714732719e-09 6.86042649659289e-09
"1872" 50064 5.56153549323919e-08 1.85537476039209e-08 1.13242965423759e-07 1.99884062788647e-07 3.00727551519245e-07 9.72942597355576e-08 8.03192827327351e-09 6.83512022457439e-09
"1873" 50065 5.51782125625414e-08 1.85470899918645e-08 1.13845727100063e-07 1.99539225257034e-07 3.01318729458077e-07 9.84779931951389e-08 8.02690939921983e-09 6.80981395255589e-09
"1874" 50066 5.47410701926909e-08 1.85404323798081e-08 1.14448488776368e-07 1.99194387725421e-07 3.01909907396909e-07 9.96617266547201e-08 8.02189052516615e-09 6.78450768053738e-09
"1875" 50067 5.43039278228404e-08 1.85337747677516e-08 1.15051250452672e-07 1.98849550193808e-07 3.02501085335741e-07 1.00845460114301e-07 8.01687165111246e-09 6.75920140851888e-09
"1876" 50068 5.38667854529899e-08 1.85271171556952e-08 1.15654012128977e-07 1.98504712662195e-07 3.03092263274573e-07 1.02029193573883e-07 8.01185277705878e-09 6.73389513650037e-09
"1877" 50069 5.34296430831394e-08 1.85204595436388e-08 1.16256773805281e-07 1.98159875130581e-07 3.03683441213405e-07 1.03212927033464e-07 8.0068339030051e-09 6.70858886448187e-09
"1878" 50070 5.29925007132889e-08 1.85138019315824e-08 1.16859535481586e-07 1.97815037598968e-07 3.04274619152236e-07 1.04396660493045e-07 8.00181502895142e-09 6.68328259246337e-09
"1879" 50071 5.25553583434384e-08 1.85071443195259e-08 1.1746229715789e-07 1.97470200067355e-07 3.04865797091068e-07 1.05580393952626e-07 7.99679615489774e-09 6.65797632044486e-09
"1880" 50072 5.21182159735879e-08 1.85004867074695e-08 1.18065058834195e-07 1.97125362535742e-07 3.054569750299e-07 1.06764127412208e-07 7.99177728084406e-09 6.63267004842636e-09
"1881" 50073 5.16810736037374e-08 1.84938290954131e-08 1.18667820510499e-07 1.96780525004129e-07 3.06048152968732e-07 1.07947860871789e-07 7.98675840679038e-09 6.60736377640785e-09
"1882" 50074 5.12439312338869e-08 1.84871714833567e-08 1.19270582186804e-07 1.96435687472516e-07 3.06639330907564e-07 1.0913159433137e-07 7.9817395327367e-09 6.58205750438935e-09
"1883" 50075 5.08067888640364e-08 1.84805138713003e-08 1.19873343863108e-07 1.96090849940902e-07 3.07230508846396e-07 1.10315327790951e-07 7.97672065868302e-09 6.55675123237085e-09
"1884" 50076 5.03696464941859e-08 1.84738562592438e-08 1.20476105539413e-07 1.95746012409289e-07 3.07821686785228e-07 1.11499061250533e-07 7.97170178462934e-09 6.53144496035234e-09
"1885" 50077 4.99325041243354e-08 1.84671986471874e-08 1.21078867215717e-07 1.95401174877676e-07 3.0841286472406e-07 1.12682794710114e-07 7.96668291057565e-09 6.50613868833384e-09
"1886" 50078 4.92839063636909e-08 1.83245255733346e-08 1.21544840487435e-07 1.94620216819883e-07 3.0718627070415e-07 1.13939747787641e-07 7.9503950770624e-09 6.40736688993914e-09
"1887" 50079 4.86353086030464e-08 1.81818524994818e-08 1.22010813759153e-07 1.9383925876209e-07 3.0595967668424e-07 1.15196700865168e-07 7.93410724354914e-09 6.30859509154444e-09
"1888" 50080 4.79867108424019e-08 1.8039179425629e-08 1.2247678703087e-07 1.93058300704297e-07 3.04733082664331e-07 1.16453653942694e-07 7.91781941003589e-09 6.20982329314974e-09
"1889" 50081 4.73381130817574e-08 1.78965063517762e-08 1.22942760302588e-07 1.92277342646504e-07 3.03506488644421e-07 1.17710607020221e-07 7.90153157652263e-09 6.11105149475505e-09
"1890" 50082 4.66895153211129e-08 1.77538332779235e-08 1.23408733574306e-07 1.91496384588711e-07 3.02279894624512e-07 1.18967560097748e-07 7.88524374300938e-09 6.01227969636035e-09
"1891" 50083 4.60223070326158e-08 1.77036557460993e-08 1.23842115568097e-07 1.90727424523728e-07 3.0068239760961e-07 1.18953658958939e-07 7.86490319879525e-09 5.93134844088248e-09
"1892" 50084 4.53693234307202e-08 1.752411249422e-08 1.23624006560945e-07 1.90121057040895e-07 2.98835641528667e-07 1.19015922112182e-07 7.84552881793391e-09 5.84042966893533e-09
"1893" 50085 4.47163398288246e-08 1.73445692423406e-08 1.23405897553793e-07 1.89514689558063e-07 2.96988885447724e-07 1.19078185265424e-07 7.82615443707258e-09 5.74951089698817e-09
"1894" 50086 4.40633562269291e-08 1.71650259904613e-08 1.23187788546641e-07 1.8890832207523e-07 2.95142129366781e-07 1.19140448418667e-07 7.80678005621125e-09 5.65859212504102e-09
"1895" 50087 4.34103726250335e-08 1.6985482738582e-08 1.22969679539489e-07 1.88301954592397e-07 2.93295373285838e-07 1.1920271157191e-07 7.78740567534992e-09 5.56767335309387e-09
"1896" 50088 4.27573890231379e-08 1.68059394867027e-08 1.22751570532337e-07 1.87695587109564e-07 2.91448617204896e-07 1.19264974725152e-07 7.76803129448859e-09 5.47675458114672e-09
"1897" 50089 4.21044054212423e-08 1.66263962348234e-08 1.22533461525185e-07 1.87089219626732e-07 2.89601861123953e-07 1.19327237878395e-07 7.74865691362726e-09 5.38583580919957e-09
"1898" 50090 4.14514218193467e-08 1.6446852982944e-08 1.22315352518033e-07 1.86482852143899e-07 2.8775510504301e-07 1.19389501031638e-07 7.72928253276593e-09 5.29491703725241e-09
"1899" 50091 4.07984382174511e-08 1.62673097310647e-08 1.22097243510881e-07 1.85876484661066e-07 2.85908348962067e-07 1.1945176418488e-07 7.7099081519046e-09 5.20399826530526e-09
"1900" 50092 4.01454546155555e-08 1.60877664791854e-08 1.21879134503729e-07 1.85270117178233e-07 2.84061592881124e-07 1.19514027338123e-07 7.69053377104327e-09 5.11307949335811e-09
"1901" 50093 3.94924710136599e-08 1.59082232273061e-08 1.21661025496577e-07 1.84663749695401e-07 2.82214836800181e-07 1.19576290491366e-07 7.67115939018194e-09 5.02216072141096e-09
"1902" 50094 3.88394874117644e-08 1.57286799754268e-08 1.21442916489425e-07 1.84057382212568e-07 2.80368080719239e-07 1.19638553644608e-07 7.65178500932061e-09 4.9312419494638e-09
"1903" 50095 3.81865038098688e-08 1.55491367235475e-08 1.21224807482274e-07 1.83451014729735e-07 2.78521324638296e-07 1.19700816797851e-07 7.63241062845928e-09 4.84032317751665e-09
"1904" 50096 3.75335202079732e-08 1.53695934716681e-08 1.21006698475122e-07 1.82844647246902e-07 2.76674568557353e-07 1.19763079951094e-07 7.61303624759795e-09 4.7494044055695e-09
"1905" 50097 3.69165580873678e-08 1.52151014330541e-08 1.20774868446946e-07 1.82572463898656e-07 2.75351586562385e-07 1.20080673426654e-07 7.62841787053305e-09 4.67082743812475e-09
"1906" 50098 3.66840361979455e-08 1.49185328904791e-08 1.20717933644118e-07 1.8286973006251e-07 2.73985305578641e-07 1.18915475285847e-07 7.65181088622507e-09 4.69451042736387e-09
"1907" 50099 3.64515143085233e-08 1.46219643479041e-08 1.2066099884129e-07 1.83166996226364e-07 2.72619024594897e-07 1.17750277145041e-07 7.6752039019171e-09 4.71819341660299e-09
"1908" 50100 3.62189924191011e-08 1.4325395805329e-08 1.20604064038462e-07 1.83464262390219e-07 2.71252743611152e-07 1.16585079004234e-07 7.69859691760912e-09 4.74187640584211e-09
"1909" 50101 3.59864705296788e-08 1.4028827262754e-08 1.20547129235634e-07 1.83761528554073e-07 2.69886462627408e-07 1.15419880863427e-07 7.72198993330115e-09 4.76555939508122e-09
"1910" 50102 3.57539486402566e-08 1.3732258720179e-08 1.20490194432807e-07 1.84058794717928e-07 2.68520181643663e-07 1.14254682722621e-07 7.74538294899317e-09 4.78924238432034e-09
"1911" 50103 3.55214267508343e-08 1.34356901776039e-08 1.20433259629979e-07 1.84356060881782e-07 2.67153900659919e-07 1.13089484581814e-07 7.7687759646852e-09 4.81292537355946e-09
"1912" 50104 3.52889048614121e-08 1.31391216350289e-08 1.20376324827151e-07 1.84653327045637e-07 2.65787619676175e-07 1.11924286441007e-07 7.79216898037722e-09 4.83660836279857e-09
"1913" 50105 3.50896677284693e-08 1.28285652936911e-08 1.20483625677474e-07 1.84340689792961e-07 2.64897851423227e-07 1.10390348240798e-07 7.78080599227281e-09 4.84347011007428e-09
"1914" 50106 3.45568260966814e-08 1.28435960216503e-08 1.20511614161559e-07 1.83684077595218e-07 2.65903809589129e-07 1.10276938503713e-07 7.72542735832775e-09 4.8187771604756e-09
"1915" 50107 3.40239844648935e-08 1.28586267496094e-08 1.20539602645645e-07 1.83027465397475e-07 2.66909767755031e-07 1.10163528766628e-07 7.67004872438268e-09 4.79408421087693e-09
"1916" 50108 3.34911428331056e-08 1.28736574775686e-08 1.2056759112973e-07 1.82370853199732e-07 2.67915725920932e-07 1.10050119029544e-07 7.61467009043761e-09 4.76939126127825e-09
"1917" 50109 3.29583012013177e-08 1.28886882055278e-08 1.20595579613816e-07 1.81714241001989e-07 2.68921684086834e-07 1.09936709292459e-07 7.55929145649254e-09 4.74469831167958e-09
"1918" 50110 3.24254595695298e-08 1.2903718933487e-08 1.20623568097902e-07 1.81057628804246e-07 2.69927642252736e-07 1.09823299555374e-07 7.50391282254748e-09 4.7200053620809e-09
"1919" 50111 3.18926179377419e-08 1.29187496614462e-08 1.20651556581987e-07 1.80401016606502e-07 2.70933600418638e-07 1.09709889818289e-07 7.44853418860241e-09 4.69531241248223e-09
"1920" 50112 3.13597763059539e-08 1.29337803894054e-08 1.20679545066073e-07 1.79744404408759e-07 2.71939558584539e-07 1.09596480081205e-07 7.39315555465734e-09 4.67061946288356e-09
"1921" 50113 3.14492180964974e-08 1.29488111173645e-08 1.20801686476783e-07 1.7948274884385e-07 2.72690586335271e-07 1.09552766949523e-07 7.37828698978597e-09 4.67673463724909e-09
"1922" 50114 3.13834939418773e-08 1.2963018160622e-08 1.20928913607333e-07 1.78924744603566e-07 2.72172553869096e-07 1.09307348675136e-07 7.37828698978597e-09 4.67386602844233e-09
"1923" 50115 3.13177697872573e-08 1.29772252038795e-08 1.21056140737884e-07 1.78366740363282e-07 2.71654521402922e-07 1.09061930400748e-07 7.37828698978597e-09 4.67099741963557e-09
"1924" 50116 3.12520456326372e-08 1.2991432247137e-08 1.21183367868434e-07 1.77808736122999e-07 2.71136488936747e-07 1.0881651212636e-07 7.37828698978597e-09 4.66812881082881e-09
"1925" 50117 3.11863214780172e-08 1.30056392903945e-08 1.21310594998985e-07 1.77250731882715e-07 2.70618456470573e-07 1.08571093851973e-07 7.37828698978597e-09 4.66526020202205e-09
"1926" 50118 3.11205973233972e-08 1.3019846333652e-08 1.21437822129536e-07 1.76692727642431e-07 2.70100424004398e-07 1.08325675577585e-07 7.37828698978597e-09 4.66239159321528e-09
"1927" 50119 3.09810123017659e-08 1.30207154413157e-08 1.21552270039033e-07 1.76133263432733e-07 2.68611088843653e-07 1.08228821783652e-07 7.40732300417532e-09 4.65266123713282e-09
"1928" 50120 3.08344818221108e-08 1.33581677978005e-08 1.21639849003808e-07 1.75836914757359e-07 2.67140110406068e-07 1.07987007508215e-07 7.47869308075263e-09 4.68670658606195e-09
"1929" 50121 3.06879513424558e-08 1.36956201542853e-08 1.21727427968583e-07 1.75540566081985e-07 2.65669131968483e-07 1.07745193232778e-07 7.55006315732993e-09 4.72075193499107e-09
"1930" 50122 3.05414208628007e-08 1.40330725107701e-08 1.21815006933358e-07 1.75244217406611e-07 2.64198153530898e-07 1.07503378957341e-07 7.62143323390723e-09 4.7547972839202e-09
"1931" 50123 3.03948903831456e-08 1.43705248672549e-08 1.21902585898133e-07 1.74947868731237e-07 2.62727175093312e-07 1.07261564681904e-07 7.69280331048453e-09 4.78884263284933e-09
"1932" 50124 3.02483599034906e-08 1.47079772237397e-08 1.21990164862908e-07 1.74651520055863e-07 2.61256196655727e-07 1.07019750406467e-07 7.76417338706183e-09 4.82288798177845e-09
"1933" 50125 3.01018294238355e-08 1.50454295802245e-08 1.22077743827683e-07 1.74355171380489e-07 2.59785218218142e-07 1.06777936131029e-07 7.83554346363914e-09 4.85693333070758e-09
"1934" 50126 2.99552989441805e-08 1.53828819367093e-08 1.22165322792458e-07 1.74058822705115e-07 2.58314239780557e-07 1.06536121855592e-07 7.90691354021644e-09 4.89097867963671e-09
"1935" 50127 2.98087684645254e-08 1.57203342931941e-08 1.22252901757233e-07 1.7376247402974e-07 2.56843261342972e-07 1.06294307580155e-07 7.97828361679374e-09 4.92502402856583e-09
"1936" 50128 2.96622379848703e-08 1.60577866496789e-08 1.22340480722008e-07 1.73466125354366e-07 2.55372282905387e-07 1.06052493304718e-07 8.04965369337104e-09 4.95906937749496e-09
"1937" 50129 2.95157075052153e-08 1.63952390061637e-08 1.22428059686783e-07 1.73169776678992e-07 2.53901304467802e-07 1.05810679029281e-07 8.12102376994834e-09 4.99311472642409e-09
"1938" 50130 2.93691770255602e-08 1.67326913626485e-08 1.22515638651558e-07 1.72873428003618e-07 2.52430326030217e-07 1.05568864753844e-07 8.19239384652565e-09 5.02716007535321e-09
"1939" 50131 2.92226465459052e-08 1.70701437191333e-08 1.22603217616334e-07 1.72577079328244e-07 2.50959347592632e-07 1.05327050478406e-07 8.26376392310295e-09 5.06120542428234e-09
"1940" 50132 2.90761160662501e-08 1.74075960756181e-08 1.22690796581109e-07 1.7228073065287e-07 2.49488369155047e-07 1.05085236202969e-07 8.33513399968025e-09 5.09525077321147e-09
"1941" 50133 2.8929585586595e-08 1.77450484321029e-08 1.22778375545884e-07 1.71984381977496e-07 2.48017390717462e-07 1.04843421927532e-07 8.40650407625755e-09 5.12929612214060e-09
"1942" 50134 2.878305510694e-08 1.80825007885877e-08 1.22865954510659e-07 1.71688033302122e-07 2.46546412279877e-07 1.04601607652095e-07 8.47787415283485e-09 5.16334147106972e-09
"1943" 50135 2.87878572100266e-08 1.84207768297742e-08 1.22994409989842e-07 1.71639628199875e-07 2.46517829768617e-07 1.04546567666569e-07 8.52511602249655e-09 5.20449638706751e-09
"1944" 50136 2.87945347486832e-08 1.87182153794775e-08 1.22504536240077e-07 1.70798992845761e-07 2.46574980961869e-07 1.04546712601451e-07 8.56710531298677e-09 5.24702365252044e-09
"1945" 50137 2.88012122873399e-08 1.90156539291808e-08 1.22014662490311e-07 1.69958357491648e-07 2.46632132155121e-07 1.04546857536332e-07 8.60909460347699e-09 5.28955091797338e-09
"1946" 50138 2.88078898259965e-08 1.93130924788841e-08 1.21524788740545e-07 1.69117722137535e-07 2.46689283348374e-07 1.04547002471213e-07 8.65108389396721e-09 5.33207818342631e-09
"1947" 50139 2.88145673646532e-08 1.96105310285874e-08 1.21034914990779e-07 1.68277086783422e-07 2.46746434541626e-07 1.04547147406095e-07 8.69307318445743e-09 5.37460544887924e-09
"1948" 50140 2.88212449033098e-08 1.99079695782907e-08 1.20545041241013e-07 1.67436451429309e-07 2.46803585734878e-07 1.04547292340976e-07 8.73506247494765e-09 5.41713271433217e-09
"1949" 50141 2.88995203771417e-08 1.98679557715092e-08 1.20078985607744e-07 1.66349558583045e-07 2.47137867815969e-07 1.04560469272408e-07 8.70568168886057e-09 5.41625911799424e-09
"1950" 50142 2.89459498227066e-08 1.98310855934826e-08 1.19797733935302e-07 1.65832695887872e-07 2.47472149897061e-07 1.04945217743188e-07 8.69142021069776e-09 5.41763146744938e-09
"1951" 50143 2.89923792682714e-08 1.97942154154561e-08 1.1951648226286e-07 1.65315833192699e-07 2.47806431978152e-07 1.05329966213969e-07 8.67715873253494e-09 5.41900381690452e-09
"1952" 50144 2.90388087138362e-08 1.97573452374296e-08 1.19235230590418e-07 1.64798970497526e-07 2.48140714059243e-07 1.05714714684749e-07 8.66289725437213e-09 5.42037616635966e-09
"1953" 50145 2.90852381594011e-08 1.9720475059403e-08 1.18953978917976e-07 1.64282107802353e-07 2.48474996140334e-07 1.0609946315553e-07 8.64863577620931e-09 5.4217485158148e-09
"1954" 50146 2.91316676049659e-08 1.96836048813765e-08 1.18672727245534e-07 1.6376524510718e-07 2.48809278221425e-07 1.0648421162631e-07 8.63437429804649e-09 5.42312086526994e-09
"1955" 50147 2.91780970505307e-08 1.964673470335e-08 1.18391475573092e-07 1.63248382412007e-07 2.49143560302517e-07 1.0686896009709e-07 8.62011281988368e-09 5.42449321472508e-09
"1956" 50148 2.92245264960956e-08 1.96098645253234e-08 1.1811022390065e-07 1.62731519716834e-07 2.49477842383608e-07 1.07253708567871e-07 8.60585134172086e-09 5.42586556418022e-09
"1957" 50149 2.92709559416604e-08 1.95729943472969e-08 1.17828972228209e-07 1.62214657021661e-07 2.49812124464699e-07 1.07638457038651e-07 8.59158986355805e-09 5.42723791363536e-09
"1958" 50150 2.89409955717245e-08 1.95706744032436e-08 1.17828972228209e-07 1.62613424097866e-07 2.5014594388369e-07 1.08000858242412e-07 8.48732185216875e-09 5.3827374304326e-09
"1959" 50151 2.86110352017885e-08 1.95683544591903e-08 1.17828972228209e-07 1.63012191174072e-07 2.50479763302681e-07 1.08363259446172e-07 8.38305384077945e-09 5.33823694722985e-09
"1960" 50152 2.82810748318526e-08 1.9566034515137e-08 1.17828972228209e-07 1.63410958250277e-07 2.50813582721672e-07 1.08725660649933e-07 8.27878582939015e-09 5.29373646402709e-09
"1961" 50153 2.79511144619166e-08 1.95637145710837e-08 1.17828972228209e-07 1.63809725326483e-07 2.51147402140663e-07 1.09088061853693e-07 8.17451781800086e-09 5.24923598082433e-09
"1962" 50154 2.76211540919807e-08 1.95613946270304e-08 1.17828972228209e-07 1.64208492402689e-07 2.51481221559653e-07 1.09450463057453e-07 8.07024980661156e-09 5.20473549762157e-09
"1963" 50155 2.7284479097771e-08 1.9580475644055e-08 1.17560865876207e-07 1.64236993910243e-07 2.52447775530902e-07 1.09445797603795e-07 7.94989632394519e-09 5.16734458148748e-09
"1964" 50156 2.69478041035613e-08 1.95995566610796e-08 1.17292759524205e-07 1.64265495417798e-07 2.53414329502151e-07 1.09441132150137e-07 7.82954284127883e-09 5.12995366535338e-09
"1965" 50157 2.66111291093516e-08 1.96186376781043e-08 1.17024653172204e-07 1.64293996925352e-07 2.54380883473399e-07 1.0943646669648e-07 7.70918935861246e-09 5.09256274921929e-09
"1966" 50158 2.62744541151419e-08 1.96377186951289e-08 1.16756546820202e-07 1.64322498432907e-07 2.55347437444648e-07 1.09431801242822e-07 7.58883587594609e-09 5.05517183308519e-09
"1967" 50159 2.59377791209322e-08 1.96567997121535e-08 1.164884404682e-07 1.64350999940461e-07 2.56313991415896e-07 1.09427135789164e-07 7.46848239327973e-09 5.0177809169511e-09
"1968" 50160 2.56011041267225e-08 1.96758807291781e-08 1.16220334116199e-07 1.64379501448016e-07 2.57280545387145e-07 1.09422470335506e-07 7.34812891061336e-09 4.98039000081701e-09
"1969" 50161 2.52644291325128e-08 1.96949617462027e-08 1.15952227764197e-07 1.6440800295557e-07 2.58247099358394e-07 1.09417804881848e-07 7.227775427947e-09 4.94299908468291e-09
"1970" 50162 2.49277541383031e-08 1.97140427632273e-08 1.15684121412195e-07 1.64436504463125e-07 2.59213653329642e-07 1.0941313942819e-07 7.10742194528063e-09 4.90560816854882e-09
"1971" 50163 2.45910791440934e-08 1.9733123780252e-08 1.15416015060194e-07 1.6446500597068e-07 2.60180207300891e-07 1.09408473974532e-07 6.98706846261426e-09 4.86821725241472e-09
"1972" 50164 2.42544041498837e-08 1.97522047972766e-08 1.15147908708192e-07 1.64493507478234e-07 2.6114676127214e-07 1.09403808520874e-07 6.8667149799479e-09 4.83082633628063e-09
"1973" 50165 2.3917729155674e-08 1.97712858143012e-08 1.1487980235619e-07 1.64522008985789e-07 2.62113315243388e-07 1.09399143067216e-07 6.74636149728153e-09 4.79343542014653e-09
"1974" 50166 2.35810541614643e-08 1.97903668313258e-08 1.14611696004189e-07 1.64550510493343e-07 2.63079869214637e-07 1.09394477613558e-07 6.62600801461517e-09 4.75604450401244e-09
"1975" 50167 2.32443791672546e-08 1.98094478483504e-08 1.14343589652187e-07 1.64579012000898e-07 2.64046423185885e-07 1.093898121599e-07 6.5056545319488e-09 4.71865358787835e-09
"1976" 50168 2.29077041730449e-08 1.9828528865375e-08 1.14075483300185e-07 1.64607513508452e-07 2.65012977157134e-07 1.09385146706242e-07 6.38530104928244e-09 4.68126267174425e-09
"1977" 50169 2.25710291788352e-08 1.98476098823996e-08 1.13807376948184e-07 1.64636015016007e-07 2.65979531128383e-07 1.09380481252584e-07 6.26494756661607e-09 4.64387175561016e-09
"1978" 50170 2.22224211954296e-08 1.99231556887584e-08 1.13635230175281e-07 1.64506901232525e-07 2.66182934477539e-07 1.09893119871754e-07 6.14485913194911e-09 4.5993712724074e-09
"1979" 50171 2.18738132120241e-08 1.99987014951172e-08 1.13463083402378e-07 1.64377787449043e-07 2.66386337826695e-07 1.10405758490923e-07 6.02477069728216e-09 4.55487078920464e-09
"1980" 50172 2.18479522211635e-08 1.99826199676464e-08 1.1320837185116e-07 1.6440486527712e-07 2.65899329018688e-07 1.10756687905958e-07 5.94451982622854e-09 4.54926682208146e-09
"1981" 50173 2.1876888222009e-08 1.9894234978811e-08 1.12357822650187e-07 1.63900960856995e-07 2.65636664669642e-07 1.11094554050751e-07 5.92869940295088e-09 4.54215725501279e-09
"1982" 50174 2.19058242228545e-08 1.98058499899756e-08 1.11507273449214e-07 1.6339705643687e-07 2.65374000320596e-07 1.11432420195544e-07 5.91287897967322e-09 4.53504768794413e-09
"1983" 50175 2.19347602237e-08 1.97174650011402e-08 1.10656724248242e-07 1.62893152016746e-07 2.6511133597155e-07 1.11770286340336e-07 5.89705855639556e-09 4.52793812087546e-09
"1984" 50176 2.19495373891307e-08 1.95678015133313e-08 1.09718882631157e-07 1.62331954262017e-07 2.64650513051393e-07 1.11568726132512e-07 5.91669525226772e-09 4.52643252092998e-09
"1985" 50177 2.19524186509827e-08 1.94598900476313e-08 1.08710684962742e-07 1.61969096476191e-07 2.64511509905516e-07 1.11419293910888e-07 5.91644450921483e-09 4.51795060440618e-09
"1986" 50178 2.19552999128346e-08 1.93519785819313e-08 1.07702487294327e-07 1.61606238690365e-07 2.64372506759638e-07 1.11269861689264e-07 5.91619376616194e-09 4.50946868788238e-09
"1987" 50179 2.19581811746866e-08 1.92440671162312e-08 1.06694289625912e-07 1.61243380904539e-07 2.64233503613761e-07 1.1112042946764e-07 5.91594302310905e-09 4.50098677135857e-09
"1988" 50180 2.19610624365386e-08 1.91361556505312e-08 1.05686091957497e-07 1.60880523118713e-07 2.64094500467883e-07 1.10970997246016e-07 5.91569228005616e-09 4.49250485483477e-09
"1989" 50181 2.19639436983905e-08 1.90282441848311e-08 1.04677894289083e-07 1.60517665332887e-07 2.63955497322006e-07 1.10821565024392e-07 5.91544153700327e-09 4.48402293831096e-09
"1990" 50182 2.19668249602425e-08 1.89203327191311e-08 1.03669696620668e-07 1.6015480754706e-07 2.63816494176128e-07 1.10672132802768e-07 5.91519079395038e-09 4.47554102178716e-09
"1991" 50183 2.19697062220944e-08 1.8812421253431e-08 1.02661498952253e-07 1.59791949761234e-07 2.63677491030251e-07 1.10522700581144e-07 5.91494005089749e-09 4.46705910526335e-09
"1992" 50184 2.19725874839464e-08 1.8704509787731e-08 1.01653301283838e-07 1.59429091975408e-07 2.63538487884374e-07 1.1037326835952e-07 5.9146893078446e-09 4.45857718873955e-09
"1993" 50185 2.19754687457984e-08 1.8596598322031e-08 1.00645103615423e-07 1.59066234189582e-07 2.63399484738496e-07 1.10223836137896e-07 5.91443856479171e-09 4.45009527221574e-09
"1994" 50186 2.19783500076503e-08 1.84886868563309e-08 9.96369059470086e-08 1.58703376403756e-07 2.63260481592619e-07 1.10074403916273e-07 5.91418782173882e-09 4.44161335569194e-09
"1995" 50187 2.19812312695023e-08 1.83807753906309e-08 9.86287082785938e-08 1.5834051861793e-07 2.63121478446741e-07 1.09924971694649e-07 5.91393707868593e-09 4.43313143916813e-09
"1996" 50188 2.19841125313542e-08 1.82728639249308e-08 9.7620510610179e-08 1.57977660832104e-07 2.62982475300864e-07 1.09775539473025e-07 5.91368633563304e-09 4.42464952264433e-09
"1997" 50189 2.19869937932062e-08 1.81649524592308e-08 9.66123129417642e-08 1.57614803046278e-07 2.62843472154987e-07 1.09626107251401e-07 5.91343559258015e-09 4.41616760612053e-09
"1998" 50190 2.19898750550582e-08 1.80570409935307e-08 9.56041152733494e-08 1.57251945260452e-07 2.62704469009109e-07 1.09476675029777e-07 5.91318484952726e-09 4.40768568959672e-09
"1999" 50191 2.19927563169101e-08 1.79491295278307e-08 9.45959176049346e-08 1.56889087474626e-07 2.62565465863232e-07 1.09327242808153e-07 5.91293410647437e-09 4.39920377307292e-09
"2000" 50192 2.19956375787621e-08 1.78412180621307e-08 9.35877199365198e-08 1.565262296888e-07 2.62426462717354e-07 1.09177810586529e-07 5.91268336342148e-09 4.39072185654911e-09
"2001" 50193 2.19837416751833e-08 1.79027009644331e-08 9.35715157705111e-08 1.54162295313045e-07 2.61326822278326e-07 1.09067907758111e-07 5.92825304364625e-09 4.36577797362619e-09
"2002" 50194 2.18665513327346e-08 1.7949976823478e-08 9.2795397610615e-08 1.52750716055598e-07 2.61420871982739e-07 1.0908777783045e-07 5.91899340160202e-09 4.36690250328837e-09
"2003" 50195 2.1749360990286e-08 1.79972526825229e-08 9.20192794507189e-08 1.51339136798151e-07 2.61514921687152e-07 1.0910764790279e-07 5.9097337595578e-09 4.36802703295055e-09
"2004" 50196 2.16321706478373e-08 1.80445285415678e-08 9.12431612908228e-08 1.49927557540704e-07 2.61608971391566e-07 1.09127517975129e-07 5.90047411751357e-09 4.36915156261273e-09
"2005" 50197 2.15149803053887e-08 1.80918044006127e-08 9.04670431309268e-08 1.48515978283257e-07 2.61703021095979e-07 1.09147388047468e-07 5.89121447546934e-09 4.37027609227491e-09
"2006" 50198 2.139778996294e-08 1.81390802596576e-08 8.96909249710307e-08 1.4710439902581e-07 2.61797070800393e-07 1.09167258119808e-07 5.88195483342512e-09 4.37140062193709e-09
"2007" 50199 2.12887734184996e-08 1.81354151663044e-08 8.92264585792657e-08 1.4549447979946e-07 2.61812624679446e-07 1.09134517556705e-07 5.85905783786173e-09 4.37140062193709e-09
"2008" 50200 2.11678980560976e-08 1.82778087315347e-08 8.94906466472798e-08 1.43899704616311e-07 2.62846079140678e-07 1.10375446586008e-07 5.84027623876244e-09 4.3926054132466e-09
"2009" 50201 2.10470226936955e-08 1.8420202296765e-08 8.97548347152939e-08 1.42304929433162e-07 2.6387953360191e-07 1.11616375615311e-07 5.82149463966315e-09 4.41381020455611e-09
"2010" 50202 2.09261473312934e-08 1.85625958619953e-08 9.00190227833079e-08 1.40710154250012e-07 2.64912988063142e-07 1.12857304644614e-07 5.80271304056386e-09 4.43501499586563e-09
"2011" 50203 2.08052719688913e-08 1.87049894272256e-08 9.02832108513219e-08 1.39115379066863e-07 2.65946442524374e-07 1.14098233673917e-07 5.78393144146457e-09 4.45621978717514e-09
"2012" 50204 2.06843966064893e-08 1.88473829924559e-08 9.0547398919336e-08 1.37520603883714e-07 2.66979896985606e-07 1.1533916270322e-07 5.76514984236528e-09 4.47742457848465e-09
"2013" 50205 2.05635212440872e-08 1.89897765576862e-08 9.08115869873501e-08 1.35925828700565e-07 2.68013351446838e-07 1.16580091732523e-07 5.74636824326599e-09 4.49862936979416e-09
"2014" 50206 2.04426458816851e-08 1.91321701229165e-08 9.10757750553641e-08 1.34331053517416e-07 2.6904680590807e-07 1.17821020761826e-07 5.7275866441667e-09 4.51983416110367e-09
"2015" 50207 2.03217705192831e-08 1.92745636881468e-08 9.13399631233782e-08 1.32736278334267e-07 2.70080260369302e-07 1.19061949791129e-07 5.7088050450674e-09 4.54103895241318e-09
"2016" 50208 2.03217705192831e-08 1.9426456274085e-08 9.23741410395505e-08 1.32754523765981e-07 2.70732904345475e-07 1.20283008748093e-07 5.69477727202239e-09 4.47931124871343e-09
"2017" 50209 2.03217705192831e-08 1.95783488600232e-08 9.34083189557228e-08 1.32772769197696e-07 2.71385548321648e-07 1.21504067705056e-07 5.68074949897737e-09 4.41758354501367e-09
"2018" 50210 2.03217705192831e-08 1.97302414459614e-08 9.44424968718951e-08 1.3279101462941e-07 2.72038192297821e-07 1.2272512666202e-07 5.66672172593235e-09 4.35585584131391e-09
"2019" 50211 2.03217705192831e-08 1.98821340318997e-08 9.54766747880674e-08 1.32809260061125e-07 2.72690836273995e-07 1.23946185618983e-07 5.65269395288733e-09 4.29412813761415e-09
"2020" 50212 2.03225742773845e-08 1.98916330526076e-08 9.54612028208329e-08 1.33010701418541e-07 2.7210368636248e-07 1.2392118354762e-07 5.63640611937408e-09 4.21556362429455e-09
"2021" 50213 2.0323378035486e-08 1.99011320733155e-08 9.54457308535983e-08 1.33212142775958e-07 2.71516536450964e-07 1.23896181476257e-07 5.62011828586082e-09 4.13699911097495e-09
"2022" 50214 2.03241817935874e-08 1.99106310940234e-08 9.54302588863637e-08 1.33413584133374e-07 2.70929386539449e-07 1.23871179404894e-07 5.60383045234757e-09 4.05843459765535e-09
"2023" 50215 2.03249855516889e-08 1.99201301147314e-08 9.54147869191291e-08 1.33615025490791e-07 2.70342236627934e-07 1.2384617733353e-07 5.58754261883431e-09 3.97987008433575e-09
"2024" 50216 2.03257893097903e-08 1.99296291354393e-08 9.53993149518945e-08 1.33816466848208e-07 2.69755086716419e-07 1.23821175262167e-07 5.57125478532106e-09 3.90130557101615e-09
"2025" 50217 2.03265930678918e-08 1.99391281561472e-08 9.538384298466e-08 1.34017908205624e-07 2.69167936804904e-07 1.23796173190804e-07 5.5549669518078e-09 3.82274105769655e-09
"2026" 50218 2.03273968259932e-08 1.99486271768551e-08 9.53683710174254e-08 1.34219349563041e-07 2.68580786893388e-07 1.23771171119441e-07 5.53867911829455e-09 3.74417654437695e-09
"2027" 50219 2.03282005840947e-08 1.9958126197563e-08 9.53528990501908e-08 1.34420790920457e-07 2.67993636981873e-07 1.23746169048078e-07 5.52239128478129e-09 3.66561203105735e-09
"2028" 50220 2.03703554452597e-08 1.99525944903118e-08 9.53374270829562e-08 1.34736275532089e-07 2.67689013621429e-07 1.23732670506162e-07 5.50424811527217e-09 3.5825556261516e-09
"2029" 50221 2.04125103064248e-08 1.99470627830605e-08 9.53219551157216e-08 1.3505176014372e-07 2.67384390260984e-07 1.23719171964246e-07 5.48610494576305e-09 3.49949922124585e-09
"2030" 50222 2.04546651675898e-08 1.99415310758093e-08 9.53064831484871e-08 1.35367244755351e-07 2.67079766900539e-07 1.2370567342233e-07 5.46796177625394e-09 3.4164428163401e-09
"2031" 50223 2.04968200287549e-08 1.9935999368558e-08 9.52910111812525e-08 1.35682729366982e-07 2.66775143540095e-07 1.23692174880414e-07 5.44981860674482e-09 3.33338641143435e-09
"2032" 50224 2.05389748899199e-08 1.99304676613068e-08 9.52755392140179e-08 1.35998213978613e-07 2.6647052017965e-07 1.23678676338498e-07 5.4316754372357e-09 3.2503300065286e-09
"2033" 50225 2.0581129751085e-08 1.99249359540555e-08 9.52600672467833e-08 1.36313698590244e-07 2.66165896819205e-07 1.23665177796582e-07 5.41353226772658e-09 3.16727360162286e-09
"2034" 50226 2.062328461225e-08 1.99194042468042e-08 9.52445952795487e-08 1.36629183201875e-07 2.6586127345876e-07 1.23651679254666e-07 5.39538909821746e-09 3.08421719671711e-09
"2035" 50227 2.0665439473415e-08 1.9913872539553e-08 9.52291233123142e-08 1.36944667813506e-07 2.65556650098316e-07 1.2363818071275e-07 5.37724592870834e-09 3.00116079181136e-09
"2036" 50228 2.07075943345801e-08 1.99083408323017e-08 9.52136513450796e-08 1.37260152425137e-07 2.65252026737871e-07 1.23624682170834e-07 5.35910275919922e-09 2.91810438690561e-09
"2037" 50229 2.06176333453974e-08 1.977848332998e-08 9.51656277714964e-08 1.3751524231365e-07 2.65456321231574e-07 1.23568709094577e-07 5.34546540568006e-09 2.88369976241218e-09
"2038" 50230 2.06296405058274e-08 1.97776596452783e-08 9.50323041910115e-08 1.37803694693141e-07 2.65341664456019e-07 1.23328552117248e-07 5.34135000921596e-09 2.88369976241218e-09
"2039" 50231 2.06416476662575e-08 1.97768359605766e-08 9.48989806105266e-08 1.38092147072631e-07 2.65227007680465e-07 1.2308839513992e-07 5.33723461275186e-09 2.88369976241218e-09
"2040" 50232 2.06536548266875e-08 1.97760122758749e-08 9.47656570300418e-08 1.38380599452121e-07 2.65112350904911e-07 1.22848238162591e-07 5.33311921628776e-09 2.88369976241218e-09
"2041" 50233 2.06656619871176e-08 1.97751885911733e-08 9.46323334495569e-08 1.38669051831612e-07 2.64997694129356e-07 1.22608081185263e-07 5.32900381982366e-09 2.88369976241218e-09
"2042" 50234 2.06776691475477e-08 1.97743649064716e-08 9.4499009869072e-08 1.38957504211102e-07 2.64883037353802e-07 1.22367924207934e-07 5.32488842335955e-09 2.88369976241218e-09
"2043" 50235 2.06563794260236e-08 1.98618056823497e-08 9.4919426885074e-08 1.39044885570425e-07 2.65088688352545e-07 1.22193071214179e-07 5.39091189212054e-09 2.90277006369996e-09
"2044" 50236 2.06616886022749e-08 1.9867269255158e-08 9.50238626639074e-08 1.42011833879059e-07 2.64787204573265e-07 1.22210012716288e-07 5.39692827240864e-09 2.91973389674757e-09
"2045" 50237 2.06669977785262e-08 1.98727328279663e-08 9.51282984427409e-08 1.44978782187694e-07 2.64485720793984e-07 1.22226954218397e-07 5.40294465269673e-09 2.93669772979518e-09
"2046" 50238 2.06723069547775e-08 1.98781964007746e-08 9.52327342215743e-08 1.47945730496329e-07 2.64184237014704e-07 1.22243895720507e-07 5.40896103298483e-09 2.95366156284279e-09
"2047" 50239 2.06776161310288e-08 1.98836599735829e-08 9.53371700004077e-08 1.50912678804963e-07 2.63882753235423e-07 1.22260837222616e-07 5.41497741327292e-09 2.9706253958904e-09
"2048" 50240 2.06829253072801e-08 1.98891235463912e-08 9.54416057792411e-08 1.53879627113598e-07 2.63581269456143e-07 1.22277778724725e-07 5.42099379356102e-09 2.987589228938e-09
"2049" 50241 2.06882344835314e-08 1.98945871191994e-08 9.55460415580745e-08 1.56846575422233e-07 2.63279785676863e-07 1.22294720226835e-07 5.42701017384911e-09 3.00455306198561e-09
"2050" 50242 2.06935436597827e-08 1.99000506920077e-08 9.56504773369079e-08 1.59813523730867e-07 2.62978301897582e-07 1.22311661728944e-07 5.43302655413721e-09 3.02151689503322e-09
"2051" 50243 2.0698852836034e-08 1.9905514264816e-08 9.57549131157414e-08 1.62780472039502e-07 2.62676818118302e-07 1.22328603231053e-07 5.4390429344253e-09 3.03848072808083e-09
"2052" 50244 2.07041620122853e-08 1.99109778376243e-08 9.58593488945748e-08 1.65747420348137e-07 2.62375334339021e-07 1.22345544733163e-07 5.4450593147134e-09 3.05544456112844e-09
"2053" 50245 2.07094711885366e-08 1.99164414104326e-08 9.59637846734082e-08 1.68714368656771e-07 2.62073850559741e-07 1.22362486235272e-07 5.45107569500149e-09 3.07240839417605e-09
"2054" 50246 2.07147803647879e-08 1.99219049832409e-08 9.60682204522416e-08 1.71681316965406e-07 2.61772366780461e-07 1.22379427737381e-07 5.45709207528959e-09 3.08937222722366e-09
"2055" 50247 2.07200895410392e-08 1.99273685560492e-08 9.6172656231075e-08 1.74648265274041e-07 2.6147088300118e-07 1.22396369239491e-07 5.46310845557768e-09 3.10633606027127e-09
"2056" 50248 2.07253987172905e-08 1.99328321288574e-08 9.62770920099085e-08 1.77615213582675e-07 2.611693992219e-07 1.224133107416e-07 5.46912483586578e-09 3.12329989331888e-09
"2057" 50249 2.07307078935418e-08 1.99382957016657e-08 9.63815277887419e-08 1.8058216189131e-07 2.6086791544262e-07 1.22430252243709e-07 5.47514121615387e-09 3.14026372636649e-09
"2058" 50250 2.07360170697931e-08 1.9943759274474e-08 9.64859635675753e-08 1.83549110199945e-07 2.60566431663339e-07 1.22447193745819e-07 5.48115759644197e-09 3.1572275594141e-09
"2059" 50251 2.07413262460444e-08 1.99492228472823e-08 9.65903993464087e-08 1.86516058508579e-07 2.60264947884059e-07 1.22464135247928e-07 5.48717397673006e-09 3.1741913924617e-09
"2060" 50252 2.07466354222957e-08 1.99521472315426e-08 9.68038312155117e-08 1.89487958058449e-07 2.60314360533679e-07 1.22665888702261e-07 5.46378096103804e-09 3.18293046937233e-09
"2061" 50253 2.07820552136649e-08 1.97749239237166e-08 9.67842764487558e-08 1.92477132517737e-07 2.60372159453872e-07 1.22939494346194e-07 5.47391273779024e-09 3.19914772950977e-09
"2062" 50254 2.08174750050341e-08 1.95977006158905e-08 9.6764721682e-08 1.95466306977025e-07 2.60429958374065e-07 1.23213099990127e-07 5.48404451454243e-09 3.21536498964721e-09
"2063" 50255 2.08528947964033e-08 1.94204773080645e-08 9.67451669152441e-08 1.98455481436313e-07 2.60487757294257e-07 1.2348670563406e-07 5.49417629129463e-09 3.23158224978465e-09
"2064" 50256 2.08883145877725e-08 1.92432540002385e-08 9.67256121484883e-08 2.014446558956e-07 2.6054555621445e-07 1.23760311277992e-07 5.50430806804682e-09 3.24779950992209e-09
"2065" 50257 2.09180172611023e-08 1.90595923248508e-08 9.64707254611351e-08 2.01704352737978e-07 2.61094805498814e-07 1.23760311277992e-07 5.50826675010287e-09 3.26200930346556e-09
"2066" 50258 2.09477199344322e-08 1.88759306494631e-08 9.62158387737819e-08 2.01964049580356e-07 2.61644054783177e-07 1.23760311277992e-07 5.51222543215891e-09 3.27621909700904e-09
"2067" 50259 2.0977422607762e-08 1.86922689740753e-08 9.59609520864287e-08 2.02223746422733e-07 2.62193304067541e-07 1.23760311277992e-07 5.51618411421496e-09 3.29042889055251e-09
"2068" 50260 2.10071252810919e-08 1.85086072986876e-08 9.57060653990755e-08 2.02483443265111e-07 2.62742553351904e-07 1.23760311277992e-07 5.520142796271e-09 3.30463868409598e-09
"2069" 50261 2.10368279544217e-08 1.83249456232999e-08 9.54511787117223e-08 2.02743140107488e-07 2.63291802636268e-07 1.23760311277992e-07 5.52410147832705e-09 3.31884847763945e-09
"2070" 50262 2.10665306277516e-08 1.81412839479122e-08 9.51962920243691e-08 2.03002836949866e-07 2.63841051920631e-07 1.23760311277992e-07 5.52806016038309e-09 3.33305827118292e-09
"2071" 50263 2.10962333010814e-08 1.79576222725244e-08 9.49414053370159e-08 2.03262533792244e-07 2.64390301204995e-07 1.23760311277992e-07 5.53201884243914e-09 3.34726806472639e-09
"2072" 50264 2.11259359744113e-08 1.77739605971367e-08 9.46865186496627e-08 2.03522230634621e-07 2.64939550489358e-07 1.23760311277992e-07 5.53597752449518e-09 3.36147785826986e-09
"2073" 50265 2.11556386477411e-08 1.7590298921749e-08 9.44316319623095e-08 2.03781927476999e-07 2.65488799773721e-07 1.23760311277992e-07 5.53993620655122e-09 3.37568765181333e-09
"2074" 50266 2.1185341321071e-08 1.74066372463613e-08 9.41767452749563e-08 2.04041624319377e-07 2.66038049058085e-07 1.23760311277992e-07 5.54389488860727e-09 3.3898974453568e-09
"2075" 50267 2.12089847857602e-08 1.74009544290583e-08 9.3967677547521e-08 2.04266789020857e-07 2.66133182280035e-07 1.22205568046593e-07 5.54116741790344e-09 3.40410723890027e-09
"2076" 50268 2.12326282504494e-08 1.73952716117553e-08 9.37586098200858e-08 2.04491953722338e-07 2.66228315501984e-07 1.20650824815194e-07 5.5384399471996e-09 3.41831703244374e-09
"2077" 50269 2.1262433860583e-08 1.7424418537048e-08 9.35766180353111e-08 2.04626698015797e-07 2.66481111150374e-07 1.19076533588969e-07 5.52979012485251e-09 3.41757045953357e-09
"2078" 50270 2.12922394707167e-08 1.74535654623407e-08 9.33946262505363e-08 2.04761442309257e-07 2.66733906798765e-07 1.17502242362745e-07 5.52114030250542e-09 3.4168238866234e-09
"2079" 50271 2.13220450808503e-08 1.74827123876334e-08 9.32126344657616e-08 2.04896186602716e-07 2.66986702447155e-07 1.1592795113652e-07 5.51249048015832e-09 3.41607731371323e-09
"2080" 50272 2.13518506909839e-08 1.75118593129261e-08 9.30306426809869e-08 2.05030930896175e-07 2.67239498095545e-07 1.14353659910296e-07 5.50384065781123e-09 3.41533074080307e-09
"2081" 50273 2.13816563011176e-08 1.75410062382188e-08 9.28486508962122e-08 2.05165675189635e-07 2.67492293743936e-07 1.12779368684071e-07 5.49519083546413e-09 3.4145841678929e-09
"2082" 50274 2.14114619112512e-08 1.75701531635116e-08 9.26666591114374e-08 2.05300419483094e-07 2.67745089392326e-07 1.11205077457847e-07 5.48654101311704e-09 3.41383759498273e-09
"2083" 50275 2.14412675213849e-08 1.75993000888043e-08 9.24846673266627e-08 2.05435163776553e-07 2.67997885040716e-07 1.09630786231622e-07 5.47789119076995e-09 3.41309102207256e-09
"2084" 50276 2.14710731315185e-08 1.7628447014097e-08 9.2302675541888e-08 2.05569908070013e-07 2.68250680689107e-07 1.08056495005398e-07 5.46924136842285e-09 3.4123444491624e-09
"2085" 50277 2.14670460209638e-08 1.76225903752613e-08 9.26686727618505e-08 2.06045109986841e-07 2.68465866349842e-07 1.06555182306013e-07 5.46035784095796e-09 3.41172178614871e-09
"2086" 50278 2.1463018910409e-08 1.76167337364255e-08 9.3034669981813e-08 2.06520311903669e-07 2.68681052010577e-07 1.05053869606628e-07 5.45147431349307e-09 3.41109912313502e-09
"2087" 50279 2.14589917998543e-08 1.76108770975898e-08 9.34006672017755e-08 2.06995513820497e-07 2.68896237671313e-07 1.03552556907243e-07 5.44259078602818e-09 3.41047646012133e-09
"2088" 50280 2.14549646892995e-08 1.76050204587541e-08 9.3766664421738e-08 2.07470715737326e-07 2.69111423332048e-07 1.02051244207858e-07 5.43370725856328e-09 3.40985379710765e-09
"2089" 50281 2.14509375787448e-08 1.75991638199183e-08 9.41326616417005e-08 2.07945917654154e-07 2.69326608992784e-07 1.00549931508473e-07 5.42482373109839e-09 3.40923113409396e-09
"2090" 50282 2.144691046819e-08 1.75933071810826e-08 9.4498658861663e-08 2.08421119570982e-07 2.69541794653519e-07 9.90486188090883e-08 5.4159402036335e-09 3.40860847108027e-09
"2091" 50283 2.14428833576353e-08 1.75874505422469e-08 9.48646560816255e-08 2.0889632148781e-07 2.69756980314255e-07 9.75473061097034e-08 5.40705667616861e-09 3.40798580806659e-09
"2092" 50284 2.14388562470805e-08 1.75815939034111e-08 9.52306533015881e-08 2.09371523404639e-07 2.6997216597499e-07 9.60459934103185e-08 5.39817314870372e-09 3.4073631450529e-09
"2093" 50285 2.14348291365258e-08 1.75757372645754e-08 9.55966505215506e-08 2.09846725321467e-07 2.70187351635726e-07 9.45446807109336e-08 5.38928962123882e-09 3.40674048203921e-09
"2094" 50286 2.1430802025971e-08 1.75698806257397e-08 9.59626477415131e-08 2.10321927238295e-07 2.70402537296461e-07 9.30433680115486e-08 5.38040609377393e-09 3.40611781902552e-09
"2095" 50287 2.13526378089904e-08 1.75330637409903e-08 9.5141973227825e-08 2.10147298505279e-07 2.71127067382427e-07 9.30967985435629e-08 5.33805772663947e-09 3.38927789587440e-09
"2096" 50288 2.126526520215e-08 1.75245395150358e-08 9.56842875882789e-08 2.1029088356704e-07 2.71116981348639e-07 9.31712894336298e-08 5.31799926835984e-09 3.37806062103417e-09
"2097" 50289 2.11778925953096e-08 1.75160152890813e-08 9.62266019487328e-08 2.10434468628802e-07 2.71106895314851e-07 9.32457803236967e-08 5.2979408100802e-09 3.36684334619394e-09
"2098" 50290 2.10905199884692e-08 1.75074910631268e-08 9.67689163091866e-08 2.10578053690563e-07 2.71096809281062e-07 9.33202712137637e-08 5.27788235180057e-09 3.35562607135371e-09
"2099" 50291 2.10031473816288e-08 1.74989668371723e-08 9.73112306696405e-08 2.10721638752324e-07 2.71086723247274e-07 9.33947621038306e-08 5.25782389352094e-09 3.34440879651348e-09
"2100" 50292 2.10458214414332e-08 1.75070071511754e-08 9.72760526439757e-08 2.11144625123533e-07 2.7065853121608e-07 9.34158224618832e-08 5.25385090651838e-09 3.33755950336292e-09
"2101" 50293 2.09809010449146e-08 1.74984829252209e-08 9.72410629783049e-08 2.12642626392124e-07 2.70005798530212e-07 9.34668885263468e-08 5.3235196285193e-09 3.32659316184694e-09
"2102" 50294 2.0915980648396e-08 1.74899586992664e-08 9.72060733126342e-08 2.14140627660715e-07 2.69353065844343e-07 9.35179545908104e-08 5.39318835052022e-09 3.31562682033096e-09
"2103" 50295 2.08510602518774e-08 1.74814344733119e-08 9.71710836469634e-08 2.15638628929306e-07 2.68700333158474e-07 9.3569020655274e-08 5.46285707252114e-09 3.30466047881498e-09
"2104" 50296 2.07861398553589e-08 1.74729102473574e-08 9.71360939812927e-08 2.17136630197897e-07 2.68047600472605e-07 9.36200867197376e-08 5.53252579452206e-09 3.29369413729900e-09
"2105" 50297 2.07212194588403e-08 1.74643860214029e-08 9.71011043156219e-08 2.18634631466488e-07 2.67394867786737e-07 9.36711527842012e-08 5.60219451652298e-09 3.28272779578301e-09
"2106" 50298 2.06562990623217e-08 1.74558617954484e-08 9.70661146499512e-08 2.20132632735079e-07 2.66742135100868e-07 9.37222188486648e-08 5.6718632385239e-09 3.27176145426703e-09
"2107" 50299 2.05913786658031e-08 1.74473375694939e-08 9.70311249842805e-08 2.2163063400367e-07 2.66089402414999e-07 9.37732849131284e-08 5.74153196052483e-09 3.26079511275105e-09
"2108" 50300 2.05264582692845e-08 1.74388133435394e-08 9.69961353186097e-08 2.23128635272261e-07 2.65436669729131e-07 9.3824350977592e-08 5.81120068252575e-09 3.24982877123507e-09
"2109" 50301 2.04615378727659e-08 1.74302891175849e-08 9.6961145652939e-08 2.24626636540852e-07 2.64783937043262e-07 9.38754170420555e-08 5.88086940452667e-09 3.23886242971909e-09
"2110" 50302 2.03966174762473e-08 1.74217648916304e-08 9.69261559872682e-08 2.26124637809443e-07 2.64131204357393e-07 9.39264831065191e-08 5.95053812652759e-09 3.2278960882031e-09
"2111" 50303 2.03316970797287e-08 1.74132406656759e-08 9.68911663215975e-08 2.27622639078034e-07 2.63478471671524e-07 9.39775491709827e-08 6.02020684852851e-09 3.21692974668712e-09
"2112" 50304 2.02667766832101e-08 1.74047164397214e-08 9.68561766559268e-08 2.29120640346625e-07 2.62825738985656e-07 9.40286152354463e-08 6.08987557052943e-09 3.20596340517114e-09
"2113" 50305 2.02018562866916e-08 1.73961922137669e-08 9.6821186990256e-08 2.30618641615216e-07 2.62173006299787e-07 9.40796812999099e-08 6.15954429253035e-09 3.19499706365516e-09
"2114" 50306 2.0136935890173e-08 1.73876679878124e-08 9.67861973245853e-08 2.32116642883807e-07 2.61520273613918e-07 9.41307473643735e-08 6.22921301453127e-09 3.18403072213918e-09
"2115" 50307 2.00720154936544e-08 1.73791437618579e-08 9.67512076589145e-08 2.33614644152398e-07 2.60867540928049e-07 9.41818134288371e-08 6.2988817365322e-09 3.17306438062319e-09
"2116" 50308 2.00070950971358e-08 1.73706195359034e-08 9.67162179932438e-08 2.35112645420989e-07 2.60214808242181e-07 9.42328794933007e-08 6.36855045853312e-09 3.16209803910721e-09
"2117" 50309 1.99421747006172e-08 1.73620953099489e-08 9.66812283275731e-08 2.3661064668958e-07 2.59562075556312e-07 9.42839455577642e-08 6.43821918053404e-09 3.15113169759123e-09
"2118" 50310 1.99307941902506e-08 1.72706348268015e-08 9.65012686235869e-08 2.37129821700655e-07 2.56729413186088e-07 9.42764481571304e-08 6.49794418307243e-09 3.15113169759123e-09
"2119" 50311 1.99553155842754e-08 1.72612039405365e-08 9.57775698331765e-08 2.38984558929858e-07 2.56747681986584e-07 9.43064538635414e-08 6.55194919620375e-09 3.14589946015749e-09
"2120" 50312 1.99798369783003e-08 1.72517730542716e-08 9.50538710427661e-08 2.4083929615906e-07 2.56765950787081e-07 9.43364595699523e-08 6.60595420933507e-09 3.14066722272374e-09
"2121" 50313 2.00043583723251e-08 1.72423421680066e-08 9.43301722523557e-08 2.42694033388263e-07 2.56784219587577e-07 9.43664652763633e-08 6.65995922246639e-09 3.13543498529e-09
"2122" 50314 2.00063162991768e-08 1.73783655001182e-08 9.36217570691858e-08 2.42679777981486e-07 2.56763240475394e-07 9.43489283978825e-08 6.64032252659422e-09 3.13431979622168e-09
"2123" 50315 2.00083854828798e-08 1.76717764722371e-08 9.31674274444718e-08 2.43804149891415e-07 2.56982116302058e-07 9.4623645209239e-08 6.6109131306141e-09 3.12883662546368e-09
"2124" 50316 2.00104546665829e-08 1.79651874443559e-08 9.27130978197578e-08 2.44928521801343e-07 2.57200992128722e-07 9.48983620205955e-08 6.58150373463398e-09 3.12335345470569e-09
"2125" 50317 2.00125238502859e-08 1.82585984164747e-08 9.22587681950439e-08 2.46052893711271e-07 2.57419867955386e-07 9.5173078831952e-08 6.55209433865386e-09 3.1178702839477e-09
"2126" 50318 2.00145930339889e-08 1.85520093885936e-08 9.18044385703299e-08 2.471772656212e-07 2.57638743782051e-07 9.54477956433085e-08 6.52268494267374e-09 3.11238711318971e-09
"2127" 50319 2.00166622176919e-08 1.88454203607124e-08 9.13501089456159e-08 2.48301637531128e-07 2.57857619608715e-07 9.5722512454665e-08 6.49327554669362e-09 3.10690394243172e-09
"2128" 50320 2.00187314013949e-08 1.91388313328313e-08 9.0895779320902e-08 2.49426009441056e-07 2.58076495435379e-07 9.59972292660215e-08 6.4638661507135e-09 3.10142077167373e-09
"2129" 50321 2.00208005850979e-08 1.94322423049501e-08 9.0441449696188e-08 2.50550381350984e-07 2.58295371262043e-07 9.6271946077378e-08 6.43445675473338e-09 3.09593760091574e-09
"2130" 50322 2.00228697688009e-08 1.9725653277069e-08 8.9987120071474e-08 2.51674753260913e-07 2.58514247088707e-07 9.65466628887345e-08 6.40504735875326e-09 3.09045443015775e-09
"2131" 50323 2.0024938952504e-08 2.00190642491878e-08 8.95327904467601e-08 2.52799125170841e-07 2.58733122915371e-07 9.6821379700091e-08 6.37563796277314e-09 3.08497125939976e-09
"2132" 50324 1.98449428029043e-08 2.03152939184772e-08 8.91568313883127e-08 2.52513548068304e-07 2.58435667163408e-07 9.71172373888787e-08 6.36611600571808e-09 3.08322718025518e-09
"2133" 50325 1.96649466533047e-08 2.06115235877665e-08 8.87808723298653e-08 2.52227970965766e-07 2.58138211411444e-07 9.74130950776664e-08 6.35659404866302e-09 3.08148310111059e-09
"2134" 50326 1.9484950503705e-08 2.09077532570559e-08 8.84049132714179e-08 2.51942393863229e-07 2.5784075565948e-07 9.7708952766454e-08 6.34707209160795e-09 3.07973902196601e-09
"2135" 50327 1.93049543541054e-08 2.12039829263452e-08 8.80289542129705e-08 2.51656816760691e-07 2.57543299907517e-07 9.80048104552417e-08 6.33755013455289e-09 3.07799494282143e-09
"2136" 50328 1.92429484996287e-08 2.12473063130993e-08 8.95811933435896e-08 2.53336926190938e-07 2.58418708770391e-07 9.81299013314361e-08 6.37037381164372e-09 3.07799494282143e-09
"2137" 50329 1.91809426451521e-08 2.12906296998533e-08 9.11334324742086e-08 2.55017035621184e-07 2.59294117633266e-07 9.82549922076305e-08 6.40319748873454e-09 3.07799494282143e-09
"2138" 50330 1.91189367906754e-08 2.13339530866073e-08 9.26856716048277e-08 2.5669714505143e-07 2.6016952649614e-07 9.83800830838249e-08 6.43602116582537e-09 3.07799494282143e-09
"2139" 50331 1.90569309361987e-08 2.13772764733614e-08 9.42379107354467e-08 2.58377254481677e-07 2.61044935359014e-07 9.85051739600193e-08 6.4688448429162e-09 3.07799494282143e-09
"2140" 50332 1.89949250817221e-08 2.14205998601154e-08 9.57901498660657e-08 2.60057363911923e-07 2.61920344221889e-07 9.86302648362138e-08 6.50166852000703e-09 3.07799494282143e-09
"2141" 50333 1.89329192272454e-08 2.14639232468695e-08 9.73423889966848e-08 2.61737473342169e-07 2.62795753084763e-07 9.87553557124082e-08 6.53449219709785e-09 3.07799494282143e-09
"2142" 50334 1.88709133727688e-08 2.15072466336235e-08 9.88946281273038e-08 2.63417582772415e-07 2.63671161947637e-07 9.88804465886026e-08 6.56731587418868e-09 3.07799494282143e-09
"2143" 50335 1.88089075182921e-08 2.15505700203775e-08 1.00446867257923e-07 2.65097692202662e-07 2.64546570810512e-07 9.9005537464797e-08 6.60013955127951e-09 3.07799494282143e-09
"2144" 50336 1.86685149331323e-08 2.15498144701188e-08 1.00243813618871e-07 2.63952090714255e-07 2.65259563913867e-07 9.90566840486391e-08 6.6204031047839e-09 3.07961511206953e-09
"2145" 50337 1.85281223479724e-08 2.15490589198601e-08 1.00040759979819e-07 2.62806489225849e-07 2.65972557017222e-07 9.91078306324812e-08 6.64066665828829e-09 3.08123528131763e-09
"2146" 50338 1.83877297628126e-08 2.15483033696014e-08 9.98377063407665e-08 2.61660887737443e-07 2.66685550120577e-07 9.91589772163233e-08 6.66093021179268e-09 3.08285545056573e-09
"2147" 50339 1.82473371776528e-08 2.15475478193427e-08 9.96346527017144e-08 2.60515286249036e-07 2.67398543223933e-07 9.92101238001655e-08 6.68119376529707e-09 3.08447561981384e-09
"2148" 50340 1.81069445924929e-08 2.1546792269084e-08 9.94315990626622e-08 2.5936968476063e-07 2.68111536327288e-07 9.92612703840076e-08 6.70145731880147e-09 3.08609578906194e-09
"2149" 50341 1.79665520073331e-08 2.15460367188253e-08 9.92285454236101e-08 2.58224083272224e-07 2.68824529430643e-07 9.93124169678497e-08 6.72172087230586e-09 3.08771595831004e-09
"2150" 50342 1.78261594221732e-08 2.15452811685666e-08 9.9025491784558e-08 2.57078481783817e-07 2.69537522533998e-07 9.93635635516918e-08 6.74198442581025e-09 3.08933612755814e-09
"2151" 50343 1.76857668370134e-08 2.15445256183079e-08 9.88224381455059e-08 2.55932880295411e-07 2.70250515637354e-07 9.9414710135534e-08 6.76224797931464e-09 3.09095629680624e-09
"2152" 50344 1.75453742518536e-08 2.15437700680491e-08 9.86193845064537e-08 2.54787278807005e-07 2.70963508740709e-07 9.94658567193761e-08 6.78251153281903e-09 3.09257646605434e-09
"2153" 50345 1.75870469999964e-08 2.15437700680491e-08 9.88045333254654e-08 2.53159812029681e-07 2.71791677723122e-07 9.93010266325622e-08 6.8186098145476e-09 3.09594071444702e-09
"2154" 50346 1.74726266625484e-08 2.15202832485784e-08 9.91164794520335e-08 2.52964997754416e-07 2.73051554968692e-07 9.92591801493736e-08 6.85367924716015e-09 3.09868229982602e-09
"2155" 50347 1.73582063251004e-08 2.14967964291077e-08 9.94284255786017e-08 2.52770183479152e-07 2.74311432214261e-07 9.9217333666185e-08 6.88874867977269e-09 3.10142388520502e-09
"2156" 50348 1.72437859876524e-08 2.1473309609637e-08 9.97403717051699e-08 2.52575369203888e-07 2.75571309459831e-07 9.91754871829964e-08 6.92381811238524e-09 3.10416547058401e-09
"2157" 50349 1.71293656502045e-08 2.14498227901663e-08 1.00052317831738e-07 2.52380554928624e-07 2.768311867054e-07 9.91336406998079e-08 6.95888754499778e-09 3.10690705596301e-09
"2158" 50350 1.70149453127565e-08 2.14263359706956e-08 1.00364263958306e-07 2.5218574065336e-07 2.7809106395097e-07 9.90917942166193e-08 6.99395697761033e-09 3.109648641342e-09
"2159" 50351 1.68596559852671e-08 2.14123481719328e-08 1.00313446846615e-07 2.51850850266094e-07 2.78935225301426e-07 9.92147778202446e-08 7.06473153943702e-09 3.11712682456882e-09
"2160" 50352 1.69435577658092e-08 2.14180082777548e-08 1.01114582213096e-07 2.51415900323893e-07 2.79167788618112e-07 1.00466277288263e-07 7.0639677383204e-09 3.12460500779564e-09
"2161" 50353 1.70274595463512e-08 2.14236683835768e-08 1.01915717579577e-07 2.50980950381692e-07 2.79400351934798e-07 1.01717776756282e-07 7.06320393720379e-09 3.13208319102246e-09
"2162" 50354 1.71113613268933e-08 2.14293284893988e-08 1.02716852946057e-07 2.50546000439491e-07 2.79632915251483e-07 1.029692762243e-07 7.06244013608717e-09 3.13956137424928e-09
"2163" 50355 1.71952631074354e-08 2.14349885952208e-08 1.03517988312538e-07 2.50111050497291e-07 2.79865478568169e-07 1.04220775692319e-07 7.06167633497055e-09 3.1470395574761e-09
"2164" 50356 1.72791648879774e-08 2.14406487010429e-08 1.04319123679019e-07 2.4967610055509e-07 2.80098041884855e-07 1.05472275160338e-07 7.06091253385394e-09 3.15451774070291e-09
"2165" 50357 1.73630666685195e-08 2.14463088068649e-08 1.051202590455e-07 2.49241150612889e-07 2.80330605201541e-07 1.06723774628356e-07 7.06014873273732e-09 3.16199592392973e-09
"2166" 50358 1.74469684490615e-08 2.14519689126869e-08 1.05921394411981e-07 2.48806200670688e-07 2.80563168518226e-07 1.07975274096375e-07 7.0593849316207e-09 3.16947410715655e-09
"2167" 50359 1.75308702296036e-08 2.14576290185089e-08 1.06722529778461e-07 2.48371250728488e-07 2.80795731834912e-07 1.09226773564393e-07 7.05862113050409e-09 3.17695229038337e-09
"2168" 50360 1.76147720101456e-08 2.14632891243309e-08 1.07523665144942e-07 2.47936300786287e-07 2.81028295151598e-07 1.10478273032412e-07 7.05785732938747e-09 3.18443047361019e-09
"2169" 50361 1.76986737906877e-08 2.14689492301529e-08 1.08324800511423e-07 2.47501350844086e-07 2.81260858468284e-07 1.1172977250043e-07 7.05709352827086e-09 3.19190865683701e-09
"2170" 50362 1.77825755712297e-08 2.14746093359749e-08 1.09125935877904e-07 2.47066400901885e-07 2.81493421784969e-07 1.12981271968449e-07 7.05632972715424e-09 3.19938684006383e-09
"2171" 50363 1.78664773517718e-08 2.14802694417969e-08 1.09927071244385e-07 2.46631450959685e-07 2.81725985101655e-07 1.14232771436468e-07 7.05556592603762e-09 3.20686502329065e-09
"2172" 50364 1.79503791323139e-08 2.14859295476189e-08 1.10728206610865e-07 2.46196501017484e-07 2.81958548418341e-07 1.15484270904486e-07 7.05480212492101e-09 3.21434320651747e-09
"2173" 50365 1.80342809128559e-08 2.14915896534409e-08 1.11529341977346e-07 2.45761551075283e-07 2.82191111735027e-07 1.16735770372505e-07 7.05403832380439e-09 3.22182138974428e-09
"2174" 50366 1.8118182693398e-08 2.14972497592629e-08 1.12330477343827e-07 2.45326601133082e-07 2.82423675051712e-07 1.17987269840523e-07 7.05327452268778e-09 3.2292995729711e-09
"2175" 50367 1.83581775595308e-08 2.14132172795965e-08 1.10453666760519e-07 2.43046357717206e-07 2.82017951870936e-07 1.19145132553513e-07 6.89728743553986e-09 3.23403617081893e-09
"2176" 50368 1.8416107092361e-08 2.13831715643085e-08 1.1096861862965e-07 2.41471768076305e-07 2.81493414476819e-07 1.20473262858948e-07 6.89652363442325e-09 3.24039293791485e-09
"2177" 50369 1.84740366251912e-08 2.13531258490205e-08 1.1148357049878e-07 2.39897178435405e-07 2.80968877082703e-07 1.21801393164384e-07 6.89575983330663e-09 3.24674970501078e-09
"2178" 50370 1.85319661580214e-08 2.13230801337325e-08 1.11998522367911e-07 2.38322588794504e-07 2.80444339688587e-07 1.2312952346982e-07 6.89499603219001e-09 3.2531064721067e-09
"2179" 50371 1.85898956908516e-08 2.12930344184446e-08 1.12513474237042e-07 2.36747999153603e-07 2.79919802294471e-07 1.24457653775255e-07 6.8942322310734e-09 3.25946323920262e-09
"2180" 50372 1.86478252236818e-08 2.12629887031566e-08 1.13028426106172e-07 2.35173409512702e-07 2.79395264900355e-07 1.25785784080691e-07 6.89346842995678e-09 3.26582000629855e-09
"2181" 50373 1.84718561846369e-08 2.11987858199228e-08 1.13289212866123e-07 2.34563552626168e-07 2.80137948992649e-07 1.26219024330971e-07 6.94109798615576e-09 3.26469859016766e-09
"2182" 50374 1.8291748778186e-08 2.12158945359596e-08 1.1323493093033e-07 2.36873640277262e-07 2.79380848281847e-07 1.26239907546391e-07 6.94638190820885e-09 3.26407904068525e-09
"2183" 50375 1.81116413717351e-08 2.12330032519964e-08 1.13180648994536e-07 2.39183727928357e-07 2.78623747571045e-07 1.2626079076181e-07 6.95166583026194e-09 3.26345949120285e-09
"2184" 50376 1.79315339652841e-08 2.12501119680332e-08 1.13126367058743e-07 2.41493815579452e-07 2.77866646860243e-07 1.2628167397723e-07 6.95694975231503e-09 3.26283994172045e-09
"2185" 50377 1.77514265588332e-08 2.126722068407e-08 1.1307208512295e-07 2.43803903230547e-07 2.77109546149441e-07 1.2630255719265e-07 6.96223367436812e-09 3.26222039223805e-09
"2186" 50378 1.75713191523823e-08 2.12843294001067e-08 1.13017803187157e-07 2.46113990881642e-07 2.76352445438639e-07 1.2632344040807e-07 6.96751759642121e-09 3.26160084275565e-09
"2187" 50379 1.73912117459314e-08 2.13014381161435e-08 1.12963521251364e-07 2.48424078532737e-07 2.75595344727838e-07 1.2634432362349e-07 6.9728015184743e-09 3.26098129327325e-09
"2188" 50380 1.72111043394804e-08 2.13185468321803e-08 1.12909239315571e-07 2.50734166183832e-07 2.74838244017036e-07 1.2636520683891e-07 6.97808544052739e-09 3.26036174379085e-09
"2189" 50381 1.71641556952763e-08 2.12467333541531e-08 1.1324610987414e-07 2.54629480128975e-07 2.74865212776382e-07 1.25909426075102e-07 6.9357398063815e-09 3.23792719411039e-09
"2190" 50382 1.71663444558781e-08 2.13264202955013e-08 1.1354371159018e-07 2.58402091501287e-07 2.74580557979649e-07 1.2594811946786e-07 6.93298099279606e-09 3.23356855301458e-09
"2191" 50383 1.71685332164799e-08 2.14061072368494e-08 1.1384131330622e-07 2.62174702873598e-07 2.74295903182917e-07 1.25986812860618e-07 6.93022217921061e-09 3.22920991191877e-09
"2192" 50384 1.71707219770817e-08 2.14857941781976e-08 1.1413891502226e-07 2.6594731424591e-07 2.74011248386185e-07 1.26025506253376e-07 6.92746336562517e-09 3.22485127082296e-09
"2193" 50385 1.71729107376835e-08 2.15654811195457e-08 1.144365167383e-07 2.69719925618221e-07 2.73726593589453e-07 1.26064199646134e-07 6.92470455203973e-09 3.22049262972715e-09
"2194" 50386 1.71750994982852e-08 2.16451680608939e-08 1.1473411845434e-07 2.73492536990532e-07 2.7344193879272e-07 1.26102893038892e-07 6.92194573845428e-09 3.21613398863134e-09
"2195" 50387 1.7357395665338e-08 2.16858238605292e-08 1.15240936586232e-07 2.75525464936326e-07 2.73467240057143e-07 1.26553943466509e-07 7.01231134832501e-09 3.28906651304618e-09
"2196" 50388 1.75396918323907e-08 2.17264796601644e-08 1.15747754718124e-07 2.77558392882121e-07 2.73492541321565e-07 1.27004993894127e-07 7.10267695819573e-09 3.36199903746102e-09
"2197" 50389 1.77219879994434e-08 2.17671354597997e-08 1.16254572850015e-07 2.79591320827915e-07 2.73517842585987e-07 1.27456044321744e-07 7.19304256806646e-09 3.43493156187586e-09
"2198" 50390 1.79042841664961e-08 2.1807791259435e-08 1.16761390981907e-07 2.81624248773709e-07 2.7354314385041e-07 1.27907094749362e-07 7.28340817793718e-09 3.5078640862907e-09
"2199" 50391 1.80865803335488e-08 2.18484470590702e-08 1.17268209113799e-07 2.83657176719503e-07 2.73568445114832e-07 1.28358145176979e-07 7.3737737878079e-09 3.58079661070555e-09
"2200" 50392 1.82688765006015e-08 2.18891028587055e-08 1.1777502724569e-07 2.85690104665297e-07 2.73593746379255e-07 1.28809195604597e-07 7.46413939767863e-09 3.65372913512039e-09
