"time" "channel1" "channel2" "channel3" "channel4" "channel5" "channel6" "channel7" "channel8"
"1" 5290 1.65834213928067e-07 3.44765772686703e-08 2.94673647042493e-07 3.18158765696224e-07 9.87304548667879e-08 2.89800666003828e-07 4.93873304789407e-07 8.29700078714134e-08
"2" 5291 1.66236767762459e-07 3.43918461303581e-08 2.94554072711896e-07 3.21119389973288e-07 9.86721215693083e-08 2.89624201326106e-07 4.93730600898835e-07 8.30121842072824e-08
"3" 5292 1.66639321596851e-07 3.4307114992046e-08 2.94434498381299e-07 3.24080014250353e-07 9.86137882718287e-08 2.89447736648384e-07 4.93587897008263e-07 8.30543605431514e-08
"4" 5293 1.67041875431243e-07 3.42223838537338e-08 2.94314924050703e-07 3.27040638527417e-07 9.85554549743491e-08 2.89271271970662e-07 4.93445193117691e-07 8.30965368790204e-08
"5" 5294 1.67444429265635e-07 3.41376527154217e-08 2.94195349720106e-07 3.30001262804482e-07 9.84971216768695e-08 2.89094807292941e-07 4.93302489227119e-07 8.31387132148895e-08
"6" 5295 1.67846983100027e-07 3.40529215771095e-08 2.94075775389509e-07 3.32961887081546e-07 9.84387883793899e-08 2.88918342615219e-07 4.93159785336547e-07 8.31808895507585e-08
"7" 5296 1.68032394157652e-07 3.40636333179962e-08 2.94140198819984e-07 3.32752057582633e-07 9.87903555629572e-08 2.88583562958521e-07 4.90160239079429e-07 8.31199643670356e-08
"8" 5297 1.68217805215277e-07 3.40743450588829e-08 2.94204622250459e-07 3.32542228083719e-07 9.91419227465245e-08 2.88248783301824e-07 4.87160692822311e-07 8.30590391833128e-08
"9" 5298 1.68403216272901e-07 3.40850567997696e-08 2.94269045680934e-07 3.32332398584805e-07 9.94934899300918e-08 2.87914003645126e-07 4.84161146565194e-07 8.299811399959e-08
"10" 5299 1.68588627330526e-07 3.40957685406562e-08 2.94333469111409e-07 3.32122569085892e-07 9.98450571136591e-08 2.87579223988428e-07 4.81161600308076e-07 8.29371888158671e-08
"11" 5300 1.68774038388151e-07 3.41064802815429e-08 2.94397892541883e-07 3.31912739586978e-07 1.00196624297226e-07 2.87244444331731e-07 4.78162054050958e-07 8.28762636321443e-08
"12" 5301 1.68959449445776e-07 3.41171920224296e-08 2.94462315972358e-07 3.31702910088064e-07 1.00548191480794e-07 2.86909664675033e-07 4.75162507793841e-07 8.28153384484214e-08
"13" 5302 1.691448605034e-07 3.41279037633162e-08 2.94526739402833e-07 3.31493080589151e-07 1.00899758664361e-07 2.86574885018335e-07 4.72162961536723e-07 8.27544132646986e-08
"14" 5303 1.69330271561025e-07 3.41386155042029e-08 2.94591162833308e-07 3.31283251090237e-07 1.01251325847928e-07 2.86240105361638e-07 4.69163415279605e-07 8.26934880809757e-08
"15" 5304 1.6951568261865e-07 3.41493272450896e-08 2.94655586263783e-07 3.31073421591324e-07 1.01602893031496e-07 2.8590532570494e-07 4.66163869022488e-07 8.26325628972529e-08
"16" 5305 1.67424167974603e-07 3.41150943138146e-08 2.94584367049046e-07 3.34875952746846e-07 1.02421792746376e-07 2.85735262086613e-07 4.65680598184983e-07 8.23570195889675e-08
"17" 5306 1.65332653330556e-07 3.40808613825396e-08 2.94513147834309e-07 3.38678483902367e-07 1.03240692461256e-07 2.85565198468287e-07 4.65197327347478e-07 8.20814762806822e-08
"18" 5307 1.63241138686509e-07 3.40466284512646e-08 2.94441928619572e-07 3.42481015057889e-07 1.04059592176136e-07 2.85395134849961e-07 4.64714056509973e-07 8.18059329723968e-08
"19" 5308 1.61149624042462e-07 3.40123955199896e-08 2.94370709404836e-07 3.46283546213411e-07 1.04878491891016e-07 2.85225071231634e-07 4.64230785672469e-07 8.15303896641115e-08
"20" 5309 1.59242348468954e-07 3.39751360806649e-08 2.94476491755528e-07 3.48747537256044e-07 1.05560286541748e-07 2.8517667652497e-07 4.63906539519437e-07 8.1215142761461e-08
"21" 5310 1.57335072895446e-07 3.39378766413401e-08 2.94582274106221e-07 3.51211528298676e-07 1.0624208119248e-07 2.85128281818306e-07 4.63582293366406e-07 8.08998958588105e-08
"22" 5311 1.54843272668078e-07 3.39006172020154e-08 2.94544420109825e-07 3.5162674898121e-07 1.06276173350936e-07 2.85455560064297e-07 4.63207937649858e-07 8.08465787617059e-08
"23" 5312 1.5235147244071e-07 3.38633577626907e-08 2.94506566113429e-07 3.52041969663744e-07 1.06310265509392e-07 2.85782838310288e-07 4.62833581933309e-07 8.07932616646013e-08
"24" 5313 1.49859672213342e-07 3.3826098323366e-08 2.94468712117033e-07 3.52457190346278e-07 1.06344357667848e-07 2.86110116556279e-07 4.62459226216761e-07 8.07399445674967e-08
"25" 5314 1.47367871985974e-07 3.37888388840413e-08 2.94430858120637e-07 3.52872411028811e-07 1.06378449826303e-07 2.8643739480227e-07 4.62084870500213e-07 8.06866274703921e-08
"26" 5315 1.44876071758607e-07 3.37515794447166e-08 2.94393004124241e-07 3.53287631711345e-07 1.06412541984759e-07 2.8676467304826e-07 4.61710514783665e-07 8.06333103732874e-08
"27" 5316 1.42384271531239e-07 3.37143200053919e-08 2.94355150127846e-07 3.53702852393879e-07 1.06446634143215e-07 2.87091951294251e-07 4.61336159067117e-07 8.05799932761828e-08
"28" 5317 1.39892471303871e-07 3.36770605660671e-08 2.9431729613145e-07 3.54118073076413e-07 1.06480726301671e-07 2.87419229540242e-07 4.60961803350569e-07 8.05266761790782e-08
"29" 5318 1.37400671076503e-07 3.36398011267424e-08 2.94279442135054e-07 3.54533293758947e-07 1.06514818460127e-07 2.87746507786233e-07 4.60587447634021e-07 8.04733590819736e-08
"30" 5319 1.36540959803921e-07 3.36470215958087e-08 2.92872235243524e-07 3.53420085149747e-07 1.06477724234841e-07 2.87101335953042e-07 4.59969571653766e-07 7.98774894825812e-08
"31" 5320 1.36377042854424e-07 3.36541400968354e-08 2.92976358511995e-07 3.53644022759273e-07 1.06412232307724e-07 2.87522053229195e-07 4.59983428931607e-07 7.95985318832153e-08
"32" 5321 1.36213125904926e-07 3.36612585978622e-08 2.93080481780466e-07 3.53867960368799e-07 1.06346740380608e-07 2.87942770505348e-07 4.59997286209447e-07 7.93195742838495e-08
"33" 5322 1.36049208955429e-07 3.3668377098889e-08 2.93184605048937e-07 3.54091897978326e-07 1.06281248453491e-07 2.883634877815e-07 4.60011143487288e-07 7.90406166844836e-08
"34" 5323 1.35885292005931e-07 3.36754955999158e-08 2.93288728317408e-07 3.54315835587852e-07 1.06215756526375e-07 2.88784205057653e-07 4.60025000765128e-07 7.87616590851177e-08
"35" 5324 1.35969341768717e-07 3.3708254445999e-08 2.93417588830359e-07 3.54612502944014e-07 1.0624913221125e-07 2.89816556933438e-07 4.60891676990954e-07 7.8887534087393e-08
"36" 5325 1.36053391531503e-07 3.37410132920822e-08 2.93546449343311e-07 3.54909170300175e-07 1.06282507896126e-07 2.90848908809223e-07 4.6175835321678e-07 7.90134090896683e-08
"37" 5326 1.35889474582006e-07 3.37587075766098e-08 2.93621416032427e-07 3.54698877981867e-07 1.0626346246061e-07 2.90771165940118e-07 4.63230268286438e-07 7.85741829016546e-08
"38" 5327 1.35725557632508e-07 3.37764018611374e-08 2.93696382721544e-07 3.54488585663558e-07 1.06244417025095e-07 2.90693423071014e-07 4.64702183356096e-07 7.81349567136409e-08
"39" 5328 1.35561640683011e-07 3.37940961456649e-08 2.9377134941066e-07 3.5427829334525e-07 1.06225371589579e-07 2.90615680201909e-07 4.66174098425754e-07 7.76957305256272e-08
"40" 5329 1.35397723733513e-07 3.38117904301925e-08 2.93846316099777e-07 3.54068001026942e-07 1.06206326154064e-07 2.90537937332805e-07 4.67646013495413e-07 7.72565043376135e-08
"41" 5330 1.35233806784016e-07 3.38294847147201e-08 2.93921282788894e-07 3.53857708708633e-07 1.06187280718549e-07 2.904601944637e-07 4.69117928565071e-07 7.68172781495998e-08
"42" 5331 1.35069889834518e-07 3.38471789992476e-08 2.9399624947801e-07 3.53647416390325e-07 1.06168235283033e-07 2.90382451594595e-07 4.70589843634729e-07 7.63780519615861e-08
"43" 5332 1.34905972885021e-07 3.38648732837752e-08 2.94071216167127e-07 3.53437124072016e-07 1.06149189847518e-07 2.90304708725491e-07 4.72061758704388e-07 7.59388257735724e-08
"44" 5333 1.34742055935523e-07 3.38825675683028e-08 2.94146182856244e-07 3.53226831753708e-07 1.06130144412002e-07 2.90226965856386e-07 4.73533673774046e-07 7.54995995855587e-08
"45" 5334 1.34578138986026e-07 3.39002618528303e-08 2.9422114954536e-07 3.530165394354e-07 1.06111098976487e-07 2.90149222987281e-07 4.75005588843704e-07 7.5060373397545e-08
"46" 5335 1.34414222036528e-07 3.39179561373579e-08 2.94296116234477e-07 3.52806247117091e-07 1.06092053540972e-07 2.90071480118177e-07 4.76477503913363e-07 7.46211472095313e-08
"47" 5336 1.34250305087031e-07 3.39356504218855e-08 2.94371082923593e-07 3.52595954798783e-07 1.06073008105456e-07 2.89993737249072e-07 4.77949418983021e-07 7.41819210215175e-08
"48" 5337 1.34086388137533e-07 3.3953344706413e-08 2.9444604961271e-07 3.52385662480474e-07 1.06053962669941e-07 2.89915994379968e-07 4.79421334052679e-07 7.37426948335038e-08
"49" 5338 1.33922471188036e-07 3.39710389909406e-08 2.94521016301827e-07 3.52175370162166e-07 1.06034917234426e-07 2.89838251510863e-07 4.80893249122337e-07 7.33034686454901e-08
"50" 5339 1.33758554238538e-07 3.39887332754682e-08 2.94595982990943e-07 3.51965077843858e-07 1.0601587179891e-07 2.89760508641758e-07 4.82365164191996e-07 7.28642424574764e-08
"51" 5340 1.33594637289041e-07 3.40064275599957e-08 2.9467094968006e-07 3.51754785525549e-07 1.05996826363395e-07 2.89682765772654e-07 4.83837079261654e-07 7.24250162694627e-08
"52" 5341 1.33430720339543e-07 3.40241218445233e-08 2.94745916369177e-07 3.51544493207241e-07 1.05977780927879e-07 2.89605022903549e-07 4.85308994331312e-07 7.1985790081449e-08
"53" 5342 1.32829819936271e-07 3.39974381886994e-08 2.94792552060969e-07 3.49607571683909e-07 1.06049217118425e-07 2.88175137944414e-07 4.82870687262223e-07 7.12000006648114e-08
"54" 5343 1.32841964491936e-07 3.40049874641504e-08 2.94903433525192e-07 3.49402374342161e-07 1.05887642786173e-07 2.8468838402629e-07 4.82790006383134e-07 7.1298100422054e-08
"55" 5344 1.328541090476e-07 3.40125367396015e-08 2.95014314989414e-07 3.49197177000412e-07 1.05726068453922e-07 2.81201630108165e-07 4.82709325504044e-07 7.13962001792966e-08
"56" 5345 1.32866253603265e-07 3.40200860150525e-08 2.95125196453637e-07 3.48991979658664e-07 1.0556449412167e-07 2.77714876190041e-07 4.82628644624955e-07 7.14942999365392e-08
"57" 5346 1.32864334313897e-07 3.40170595070028e-08 2.9535144360947e-07 3.48785623278546e-07 1.05432428631778e-07 2.74230012163975e-07 4.82401488593335e-07 7.15714662940363e-08
"58" 5347 1.32833200105622e-07 3.40334392940978e-08 2.9535597907737e-07 3.48582786483671e-07 1.05185369752765e-07 2.71018332876791e-07 4.81508248137739e-07 7.16685336124688e-08
"59" 5348 1.33245630244608e-07 3.45180226598374e-08 2.98838924633188e-07 3.4930889697056e-07 1.04948722237512e-07 2.68675210937115e-07 4.80798476713611e-07 7.17762995410449e-08
"60" 5349 1.33658060383594e-07 3.5002606025577e-08 3.02321870189006e-07 3.50035007457448e-07 1.04712074722259e-07 2.66332088997439e-07 4.80088705289484e-07 7.18840654696209e-08
"61" 5350 1.34070490522579e-07 3.54871893913166e-08 3.05804815744825e-07 3.50761117944336e-07 1.04475427207006e-07 2.63988967057762e-07 4.79378933865357e-07 7.1991831398197e-08
"62" 5351 1.34482920661565e-07 3.59717727570562e-08 3.09287761300643e-07 3.51487228431225e-07 1.04238779691753e-07 2.61645845118086e-07 4.7866916244123e-07 7.2099597326773e-08
"63" 5352 1.3489535080055e-07 3.64563561227958e-08 3.12770706856462e-07 3.52213338918113e-07 1.040021321765e-07 2.59302723178409e-07 4.77959391017103e-07 7.2207363255349e-08
"64" 5353 1.35307780939536e-07 3.69409394885354e-08 3.1625365241228e-07 3.52939449405001e-07 1.03765484661247e-07 2.56959601238733e-07 4.77249619592976e-07 7.23151291839251e-08
"65" 5354 1.35720211078522e-07 3.7425522854275e-08 3.19736597968099e-07 3.53665559891889e-07 1.03528837145994e-07 2.54616479299057e-07 4.76539848168849e-07 7.24228951125011e-08
"66" 5355 1.36090222513107e-07 3.70359855826564e-08 3.22060810247619e-07 3.540671269348e-07 1.0236988148273e-07 2.53707467066863e-07 4.77477730536586e-07 7.24873115680444e-08
"67" 5356 1.36460233947693e-07 3.66464483110378e-08 3.24385022527139e-07 3.5446869397771e-07 1.01210925819466e-07 2.5279845483467e-07 4.78415612904322e-07 7.25517280235877e-08
"68" 5357 1.36830245382278e-07 3.62569110394193e-08 3.26709234806659e-07 3.5487026102062e-07 1.00051970156202e-07 2.51889442602477e-07 4.79353495272059e-07 7.2616144479131e-08
"69" 5358 1.37200256816863e-07 3.58673737678007e-08 3.2903344708618e-07 3.55271828063531e-07 9.88930144929382e-08 2.50980430370284e-07 4.80291377639796e-07 7.26805609346743e-08
"70" 5359 1.37570268251449e-07 3.54778364961821e-08 3.313576593657e-07 3.55673395106441e-07 9.77340588296743e-08 2.50071418138091e-07 4.81229260007533e-07 7.27449773902176e-08
"71" 5360 1.37940279686034e-07 3.50882992245636e-08 3.3368187164522e-07 3.56074962149351e-07 9.65751031664104e-08 2.49162405905897e-07 4.8216714237527e-07 7.28093938457609e-08
"72" 5361 1.3831029112062e-07 3.4698761952945e-08 3.3600608392474e-07 3.56476529192262e-07 9.54161475031465e-08 2.48253393673704e-07 4.83105024743007e-07 7.28738103013042e-08
"73" 5362 1.38680302555205e-07 3.43092246813264e-08 3.3833029620426e-07 3.56878096235172e-07 9.42571918398827e-08 2.47344381441511e-07 4.84042907110744e-07 7.29382267568474e-08
"74" 5363 1.3905031398979e-07 3.39196874097079e-08 3.40654508483781e-07 3.57279663278082e-07 9.30982361766188e-08 2.46435369209318e-07 4.84980789478481e-07 7.30026432123907e-08
"75" 5364 1.39493716200918e-07 3.39660360040482e-08 3.42216297988122e-07 3.58196289107338e-07 9.30489532955666e-08 2.47091289991304e-07 4.85389398596032e-07 7.31023799273386e-08
"76" 5365 1.39937118412046e-07 3.40123845983885e-08 3.43778087492463e-07 3.59112914936593e-07 9.29996704145144e-08 2.47747210773291e-07 4.85798007713583e-07 7.32021166422865e-08
"77" 5366 1.40380520623174e-07 3.40587331927288e-08 3.45339876996805e-07 3.60029540765849e-07 9.29503875334623e-08 2.48403131555278e-07 4.86206616831135e-07 7.33018533572343e-08
"78" 5367 1.40380358487041e-07 3.36274698778904e-08 3.43460970340089e-07 3.60657026274043e-07 9.28957328629057e-08 2.4794904705849e-07 4.85664801065307e-07 7.33066160937242e-08
"79" 5368 1.40380196350908e-07 3.31962065630521e-08 3.41582063683373e-07 3.61284511782236e-07 9.28410781923492e-08 2.47494962561703e-07 4.85122985299479e-07 7.33113788302141e-08
"80" 5369 1.40382016882525e-07 3.28726968237971e-08 3.39707184640105e-07 3.61732723494164e-07 9.30129918885334e-08 2.47141389104834e-07 4.8496601999873e-07 7.3940840196705e-08
"81" 5370 1.40383837414143e-07 3.2549187084542e-08 3.37832305596837e-07 3.62180935206092e-07 9.31849055847177e-08 2.46787815647966e-07 4.8480905469798e-07 7.45703015631959e-08
"82" 5371 1.4038565794576e-07 3.2225677345287e-08 3.3595742655357e-07 3.6262914691802e-07 9.33568192809019e-08 2.46434242191097e-07 4.84652089397231e-07 7.51997629296867e-08
"83" 5372 1.40387478477377e-07 3.19021676060319e-08 3.34082547510302e-07 3.63077358629948e-07 9.35287329770861e-08 2.46080668734228e-07 4.84495124096481e-07 7.58292242961776e-08
"84" 5373 1.40389299008994e-07 3.15786578667769e-08 3.32207668467034e-07 3.63525570341876e-07 9.37006466732703e-08 2.45727095277359e-07 4.84338158795732e-07 7.64586856626685e-08
"85" 5374 1.40391119540611e-07 3.12551481275218e-08 3.30332789423766e-07 3.63973782053804e-07 9.38725603694546e-08 2.4537352182049e-07 4.84181193494983e-07 7.70881470291594e-08
"86" 5375 1.40392940072229e-07 3.09316383882668e-08 3.28457910380499e-07 3.64421993765732e-07 9.40444740656388e-08 2.45019948363622e-07 4.84024228194233e-07 7.77176083956502e-08
"87" 5376 1.40394760603846e-07 3.06081286490117e-08 3.26583031337231e-07 3.6487020547766e-07 9.4216387761823e-08 2.44666374906753e-07 4.83867262893484e-07 7.83470697621411e-08
"88" 5377 1.40396581135463e-07 3.02846189097567e-08 3.24708152293963e-07 3.65318417189587e-07 9.43883014580072e-08 2.44312801449884e-07 4.83710297592734e-07 7.8976531128632e-08
"89" 5378 1.40392765591377e-07 3.03997858034051e-08 3.24698014408749e-07 3.65480880027185e-07 9.45434128169688e-08 2.44340405068575e-07 4.82708606647569e-07 7.94159746730556e-08
"90" 5379 1.40388950047291e-07 3.05149526970536e-08 3.24687876523535e-07 3.65643342864782e-07 9.46985241759304e-08 2.44368008687265e-07 4.81706915702404e-07 7.98554182174792e-08
"91" 5380 1.40385134503205e-07 3.0630119590702e-08 3.24677738638321e-07 3.6580580570238e-07 9.4853635534892e-08 2.44395612305956e-07 4.80705224757238e-07 8.02948617619028e-08
"92" 5381 1.41156495715304e-07 3.08528235805614e-08 3.27815738347079e-07 3.66058395478768e-07 9.47786143949747e-08 2.44810102995291e-07 4.82554447768059e-07 8.11364413398326e-08
"93" 5382 1.41927856927403e-07 3.10755275704209e-08 3.30953738055836e-07 3.66310985255157e-07 9.47035932550574e-08 2.45224593684626e-07 4.8440367077888e-07 8.19780209177623e-08
"94" 5383 1.42699218139502e-07 3.12982315602804e-08 3.34091737764593e-07 3.66563575031545e-07 9.46285721151401e-08 2.45639084373961e-07 4.862528937897e-07 8.28196004956921e-08
"95" 5384 1.43353760019706e-07 3.15260479516179e-08 3.36995663989178e-07 3.65608221419888e-07 9.45150541681364e-08 2.4582421124656e-07 4.88803072804671e-07 8.35475416663223e-08
"96" 5385 1.44008301899909e-07 3.17538643429554e-08 3.39899590213762e-07 3.6465286780823e-07 9.44015362211326e-08 2.4600933811916e-07 4.91353251819642e-07 8.42754828369524e-08
"97" 5386 1.44662843780112e-07 3.19816807342929e-08 3.42803516438347e-07 3.63697514196572e-07 9.42880182741288e-08 2.46194464991759e-07 4.93903430834613e-07 8.50034240075826e-08
"98" 5387 1.45317385660315e-07 3.22094971256304e-08 3.45707442662931e-07 3.62742160584915e-07 9.41745003271251e-08 2.46379591864359e-07 4.96453609849584e-07 8.57313651782127e-08
"99" 5388 1.45225902324858e-07 3.22716262421225e-08 3.4700374988757e-07 3.623453712626e-07 9.41854624870868e-08 2.46166481119324e-07 4.96152874908569e-07 8.57136348606755e-08
"100" 5389 1.45134418989402e-07 3.23337553586146e-08 3.48300057112209e-07 3.61948581940285e-07 9.41964246470486e-08 2.45953370374288e-07 4.95852139967554e-07 8.56959045431382e-08
"101" 5390 1.45042935653945e-07 3.23958844751068e-08 3.49596364336849e-07 3.61551792617971e-07 9.42073868070103e-08 2.45740259629253e-07 4.95551405026539e-07 8.56781742256009e-08
"102" 5391 1.44951452318488e-07 3.24580135915989e-08 3.50892671561488e-07 3.61155003295656e-07 9.4218348966972e-08 2.45527148884218e-07 4.95250670085523e-07 8.56604439080636e-08
"103" 5392 1.44859968983031e-07 3.2520142708091e-08 3.52188978786127e-07 3.60758213973341e-07 9.42293111269338e-08 2.45314038139183e-07 4.94949935144508e-07 8.56427135905264e-08
"104" 5393 1.44768485647574e-07 3.25822718245831e-08 3.53485286010766e-07 3.60361424651027e-07 9.42402732868955e-08 2.45100927394147e-07 4.94649200203493e-07 8.56249832729891e-08
"105" 5394 1.44677002312117e-07 3.26444009410752e-08 3.54781593235405e-07 3.59964635328712e-07 9.42512354468573e-08 2.44887816649112e-07 4.94348465262478e-07 8.56072529554518e-08
"106" 5395 1.4458551897666e-07 3.27065300575673e-08 3.56077900460044e-07 3.59567846006397e-07 9.4262197606819e-08 2.44674705904077e-07 4.94047730321463e-07 8.55895226379145e-08
"107" 5396 1.44494035641203e-07 3.27686591740594e-08 3.57374207684683e-07 3.59171056684083e-07 9.42731597667808e-08 2.44461595159042e-07 4.93746995380448e-07 8.55717923203772e-08
"108" 5397 1.44402552305746e-07 3.28307882905516e-08 3.58670514909323e-07 3.58774267361768e-07 9.42841219267425e-08 2.44248484414007e-07 4.93446260439433e-07 8.555406200284e-08
"109" 5398 1.44311068970289e-07 3.28929174070437e-08 3.59966822133962e-07 3.58377478039453e-07 9.42950840867042e-08 2.44035373668971e-07 4.93145525498418e-07 8.55363316853027e-08
"110" 5399 1.44219585634832e-07 3.29550465235358e-08 3.61263129358601e-07 3.57980688717139e-07 9.4306046246666e-08 2.43822262923936e-07 4.92844790557403e-07 8.55186013677654e-08
"111" 5400 1.42498447041368e-07 3.28953668243101e-08 3.59366979405018e-07 3.59084749889688e-07 9.41355975839829e-08 2.43653138654318e-07 4.93030026521904e-07 8.41049526097666e-08
"112" 5401 1.40777308447905e-07 3.28356871250843e-08 3.57470829451434e-07 3.60188811062238e-07 9.39651489212999e-08 2.434840143847e-07 4.93215262486406e-07 8.26913038517677e-08
"113" 5402 1.40753641536882e-07 3.28510804930248e-08 3.58866117508664e-07 3.612857140023e-07 9.39292699227114e-08 2.41150670645508e-07 4.89967886384524e-07 8.24688389374113e-08
"114" 5403 1.41683119831854e-07 3.30455151429627e-08 3.59888342784889e-07 3.6138781682421e-07 9.40151499969121e-08 2.3871078832576e-07 4.87541696037564e-07 8.19463846964378e-08
"115" 5404 1.42612598126827e-07 3.32399497929005e-08 3.60910568061115e-07 3.6148991964612e-07 9.41010300711128e-08 2.36270906006012e-07 4.85115505690605e-07 8.14239304554642e-08
"116" 5405 1.42764992720965e-07 3.31983264458269e-08 3.60720407604592e-07 3.61474429986063e-07 9.41145389002344e-08 2.33819626176389e-07 4.83541886123067e-07 8.09943778770562e-08
"117" 5406 1.42917387315104e-07 3.31567030987534e-08 3.60530247148069e-07 3.61458940326006e-07 9.41280477293561e-08 2.31368346346766e-07 4.8196826655553e-07 8.05648252986482e-08
"118" 5407 1.43069781909242e-07 3.31150797516798e-08 3.60340086691546e-07 3.6144345066595e-07 9.41415565584777e-08 2.28917066517143e-07 4.80394646987992e-07 8.01352727202402e-08
"119" 5408 1.4322217650338e-07 3.30734564046062e-08 3.60149926235023e-07 3.61427961005893e-07 9.41550653875993e-08 2.2646578668752e-07 4.78821027420454e-07 7.97057201418322e-08
"120" 5409 1.43374571097519e-07 3.30318330575326e-08 3.599597657785e-07 3.61412471345836e-07 9.41685742167209e-08 2.24014506857897e-07 4.77247407852917e-07 7.92761675634242e-08
"121" 5410 1.43526965691657e-07 3.2990209710459e-08 3.59769605321977e-07 3.61396981685779e-07 9.41820830458425e-08 2.21563227028274e-07 4.75673788285379e-07 7.88466149850162e-08
"122" 5411 1.43679360285796e-07 3.29485863633854e-08 3.59579444865454e-07 3.61381492025722e-07 9.41955918749642e-08 2.19111947198651e-07 4.74100168717841e-07 7.84170624066082e-08
"123" 5412 1.43831754879934e-07 3.29069630163118e-08 3.59389284408931e-07 3.61366002365665e-07 9.42091007040858e-08 2.16660667369028e-07 4.72526549150303e-07 7.79875098282003e-08
"124" 5413 1.43984149474072e-07 3.28653396692382e-08 3.59199123952408e-07 3.61350512705608e-07 9.42226095332074e-08 2.14209387539405e-07 4.70952929582766e-07 7.75579572497923e-08
"125" 5414 1.44049798059973e-07 3.287514478485e-08 3.59180567606048e-07 3.61007039148294e-07 9.42719973609175e-08 2.14117800357724e-07 4.72992527336887e-07 7.70325457453748e-08
"126" 5415 1.44115446645874e-07 3.28849499004618e-08 3.59162011259687e-07 3.60663565590979e-07 9.43213851886276e-08 2.14026213176043e-07 4.75032125091009e-07 7.65071342409573e-08
"127" 5416 1.44181095231775e-07 3.28947550160735e-08 3.59143454913327e-07 3.60320092033665e-07 9.43707730163377e-08 2.13934625994362e-07 4.77071722845131e-07 7.59817227365399e-08
"128" 5417 1.44246743817676e-07 3.29045601316853e-08 3.59124898566967e-07 3.59976618476351e-07 9.44201608440478e-08 2.13843038812681e-07 4.79111320599252e-07 7.54563112321224e-08
"129" 5418 1.44312392403577e-07 3.29143652472971e-08 3.59106342220606e-07 3.59633144919036e-07 9.44695486717579e-08 2.13751451631001e-07 4.81150918353374e-07 7.4930899727705e-08
"130" 5419 1.44378040989478e-07 3.29241703629088e-08 3.59087785874246e-07 3.59289671361722e-07 9.45189364994679e-08 2.1365986444932e-07 4.83190516107496e-07 7.44054882232875e-08
"131" 5420 1.44443689575379e-07 3.29339754785206e-08 3.59069229527886e-07 3.58946197804407e-07 9.4568324327178e-08 2.13568277267639e-07 4.85230113861617e-07 7.38800767188701e-08
"132" 5421 1.43007659213327e-07 3.29164400536455e-08 3.58913409042602e-07 3.58720296764042e-07 9.46984164823243e-08 2.13486287169891e-07 4.86603135454947e-07 7.38790934438128e-08
"133" 5422 1.41571628851276e-07 3.28989046287704e-08 3.58757588557319e-07 3.58494395723677e-07 9.48285086374707e-08 2.13404297072142e-07 4.87976157048276e-07 7.38781101687556e-08
"134" 5423 1.40135598489225e-07 3.28813692038953e-08 3.58601768072036e-07 3.58268494683312e-07 9.4958600792617e-08 2.13322306974394e-07 4.89349178641605e-07 7.38771268936984e-08
"135" 5424 1.38699568127174e-07 3.28638337790202e-08 3.58445947586753e-07 3.58042593642946e-07 9.50886929477633e-08 2.13240316876646e-07 4.90722200234934e-07 7.38761436186412e-08
"136" 5425 1.37263537765123e-07 3.28462983541451e-08 3.5829012710147e-07 3.57816692602581e-07 9.52187851029096e-08 2.13158326778897e-07 4.92095221828263e-07 7.3875160343584e-08
"137" 5426 1.35958480302608e-07 3.28942244579301e-08 3.58908194979221e-07 3.59218662569833e-07 9.52187851029096e-08 2.13094396913779e-07 4.91928201605099e-07 7.43269462487613e-08
"138" 5427 1.34653422840093e-07 3.29421505617151e-08 3.59526262856972e-07 3.60620632537085e-07 9.52187851029096e-08 2.13030467048661e-07 4.91761181381934e-07 7.47787321539387e-08
"139" 5428 1.3301270287491e-07 3.29468890803819e-08 3.59509133326783e-07 3.60646108876098e-07 9.51958840939853e-08 2.12961927630782e-07 4.91185773104353e-07 7.4734230890508e-08
"140" 5429 1.31371982909727e-07 3.29516275990487e-08 3.59492003796593e-07 3.60671585215111e-07 9.5172983085061e-08 2.12893388212904e-07 4.90610364826773e-07 7.46897296270773e-08
"141" 5430 1.29731262944544e-07 3.29563661177156e-08 3.59474874266404e-07 3.60697061554124e-07 9.51500820761368e-08 2.12824848795025e-07 4.90034956549192e-07 7.46452283636466e-08
"142" 5431 1.2809054297936e-07 3.29611046363824e-08 3.59457744736215e-07 3.60722537893137e-07 9.51271810672125e-08 2.12756309377146e-07 4.89459548271611e-07 7.4600727100216e-08
"143" 5432 1.26449823014177e-07 3.29658431550492e-08 3.59440615206026e-07 3.6074801423215e-07 9.51042800582882e-08 2.12687769959268e-07 4.8888413999403e-07 7.45562258367853e-08
"144" 5433 1.24809103048994e-07 3.29705816737161e-08 3.59423485675837e-07 3.60773490571163e-07 9.50813790493639e-08 2.12619230541389e-07 4.88308731716449e-07 7.45117245733546e-08
"145" 5434 1.2316838308381e-07 3.29753201923829e-08 3.59406356145648e-07 3.60798966910176e-07 9.50584780404397e-08 2.1255069112351e-07 4.87733323438869e-07 7.44672233099239e-08
"146" 5435 1.21527663118627e-07 3.29800587110497e-08 3.59389226615459e-07 3.6082444324919e-07 9.50355770315154e-08 2.12482151705632e-07 4.87157915161288e-07 7.44227220464933e-08
"147" 5436 1.21166754342128e-07 3.29266699533488e-08 3.58876723657525e-07 3.60654190207275e-07 9.5057438899738e-08 2.1237766629507e-07 4.85525220090736e-07 7.43232172418162e-08
"148" 5437 1.21165619389198e-07 3.29587490125025e-08 3.58963352978383e-07 3.5942142314517e-07 9.48625192479716e-08 2.11851879848777e-07 4.84164143766947e-07 7.39189180031842e-08
"149" 5438 1.21164484436269e-07 3.29908280716562e-08 3.59049982299242e-07 3.58188656083064e-07 9.46675995962052e-08 2.11326093402484e-07 4.82803067443158e-07 7.35146187645521e-08
"150" 5439 1.21163349483339e-07 3.30229071308099e-08 3.591366116201e-07 3.56955889020958e-07 9.44726799444388e-08 2.10800306956191e-07 4.81441991119369e-07 7.31103195259201e-08
"151" 5440 1.2123326133278e-07 3.30743355934953e-08 3.61183509248293e-07 3.55682844558458e-07 9.44876529465718e-08 2.1038444078221e-07 4.79959236095846e-07 7.35198094209569e-08
"152" 5441 1.21303173182221e-07 3.31257640561806e-08 3.63230406876485e-07 3.54409800095958e-07 9.45026259487048e-08 2.09968574608229e-07 4.78476481072323e-07 7.39292993159937e-08
"153" 5442 1.21373085031662e-07 3.3177192518866e-08 3.65277304504677e-07 3.53136755633458e-07 9.45175989508379e-08 2.09552708434248e-07 4.769937260488e-07 7.43387892110305e-08
"154" 5443 1.21442996881102e-07 3.32286209815513e-08 3.67324202132869e-07 3.51863711170958e-07 9.45325719529709e-08 2.09136842260267e-07 4.75510971025278e-07 7.47482791060673e-08
"155" 5444 1.21512908730543e-07 3.32800494442367e-08 3.69371099761062e-07 3.50590666708458e-07 9.45475449551039e-08 2.08720976086286e-07 4.74028216001755e-07 7.51577690011041e-08
"156" 5445 1.21582820579984e-07 3.3331477906922e-08 3.71417997389254e-07 3.49317622245958e-07 9.45625179572369e-08 2.08305109912305e-07 4.72545460978232e-07 7.55672588961409e-08
"157" 5446 1.21690986628036e-07 3.33310471324978e-08 3.71363539919789e-07 3.48435362103348e-07 9.4592306971761e-08 2.09062308794661e-07 4.71383481768989e-07 7.51977106532776e-08
"158" 5447 1.21799152676087e-07 3.33306163580735e-08 3.71309082450324e-07 3.47553101960738e-07 9.46220959862851e-08 2.09819507677017e-07 4.70221502559746e-07 7.48281624104143e-08
"159" 5448 1.21907318724139e-07 3.33301855836493e-08 3.71254624980859e-07 3.46670841818129e-07 9.46518850008092e-08 2.10576706559373e-07 4.69059523350503e-07 7.44586141675509e-08
"160" 5449 1.22015484772191e-07 3.3329754809225e-08 3.71200167511394e-07 3.45788581675519e-07 9.46816740153332e-08 2.11333905441729e-07 4.6789754414126e-07 7.40890659246876e-08
"161" 5450 1.22123650820242e-07 3.33293240348008e-08 3.71145710041929e-07 3.4490632153291e-07 9.47114630298573e-08 2.12091104324085e-07 4.66735564932017e-07 7.37195176818243e-08
"162" 5451 1.22231816868294e-07 3.33288932603765e-08 3.71091252572464e-07 3.440240613903e-07 9.47412520443814e-08 2.12848303206442e-07 4.65573585722774e-07 7.3349969438961e-08
"163" 5452 1.22339982916346e-07 3.33284624859522e-08 3.71036795102999e-07 3.4314180124769e-07 9.47710410589054e-08 2.13605502088798e-07 4.64411606513531e-07 7.29804211960977e-08
"164" 5453 1.22448148964398e-07 3.3328031711528e-08 3.70982337633534e-07 3.42259541105081e-07 9.48008300734295e-08 2.14362700971154e-07 4.63249627304288e-07 7.26108729532344e-08
"165" 5454 1.22556315012449e-07 3.33276009371037e-08 3.70927880164069e-07 3.41377280962471e-07 9.48306190879536e-08 2.1511989985351e-07 4.62087648095045e-07 7.22413247103711e-08
"166" 5455 1.22664481060501e-07 3.33271701626795e-08 3.70873422694604e-07 3.40495020819861e-07 9.48604081024777e-08 2.15877098735866e-07 4.60925668885802e-07 7.18717764675078e-08
"167" 5456 1.22772647108553e-07 3.33267393882552e-08 3.70818965225139e-07 3.39612760677252e-07 9.48901971170017e-08 2.16634297618222e-07 4.59763689676559e-07 7.15022282246444e-08
"168" 5457 1.22880813156605e-07 3.3326308613831e-08 3.70764507755674e-07 3.38730500534642e-07 9.49199861315258e-08 2.17391496500578e-07 4.58601710467316e-07 7.11326799817811e-08
"169" 5458 1.20919594107347e-07 3.33156308622908e-08 3.70241585590284e-07 3.37899835202286e-07 9.50406210736993e-08 2.18540878610996e-07 4.57799419131952e-07 7.09008649026905e-08
"170" 5459 1.18958375058088e-07 3.33049531107506e-08 3.69718663424895e-07 3.3706916986993e-07 9.51612560158727e-08 2.19690260721413e-07 4.56997127796588e-07 7.06690498235999e-08
"171" 5460 1.17697250629611e-07 3.32702783179714e-08 3.69740207739291e-07 3.36826795819985e-07 9.51643734379777e-08 2.19564773982057e-07 4.56898625992041e-07 7.07381869674689e-08
"172" 5461 1.16436126201133e-07 3.32356035251922e-08 3.69761752053688e-07 3.36584421770041e-07 9.51674908600827e-08 2.19439287242701e-07 4.56800124187495e-07 7.08073241113378e-08
"173" 5462 1.15101061209333e-07 3.3223202675955e-08 3.70757487623522e-07 3.36627340311444e-07 9.56323400344262e-08 2.1931591629052e-07 4.57685288400387e-07 7.08585553067401e-08
"174" 5463 1.13765996217532e-07 3.32108018267178e-08 3.71753223193357e-07 3.36670258852848e-07 9.60971892087697e-08 2.19192545338338e-07 4.58570452613278e-07 7.09097865021425e-08
"175" 5464 1.12430931225732e-07 3.31984009774806e-08 3.72748958763191e-07 3.36713177394252e-07 9.65620383831132e-08 2.19069174386157e-07 4.5945561682617e-07 7.09610176975448e-08
"176" 5465 1.11095866233931e-07 3.31860001282433e-08 3.73744694333026e-07 3.36756095935655e-07 9.70268875574567e-08 2.18945803433975e-07 4.60340781039062e-07 7.10122488929471e-08
"177" 5466 1.09760801242131e-07 3.31735992790061e-08 3.74740429902861e-07 3.36799014477059e-07 9.74917367318002e-08 2.18822432481793e-07 4.61225945251954e-07 7.10634800883495e-08
"178" 5467 1.0842573625033e-07 3.31611984297689e-08 3.75736165472695e-07 3.36841933018462e-07 9.79565859061437e-08 2.18699061529612e-07 4.62111109464846e-07 7.11147112837518e-08
"179" 5468 1.0709067125853e-07 3.31487975805317e-08 3.7673190104253e-07 3.36884851559866e-07 9.84214350804872e-08 2.1857569057743e-07 4.62996273677737e-07 7.11659424791542e-08
"180" 5469 1.05755606266729e-07 3.31363967312944e-08 3.77727636612364e-07 3.3692777010127e-07 9.88862842548307e-08 2.18452319625249e-07 4.63881437890629e-07 7.12171736745565e-08
"181" 5470 1.05657053974599e-07 3.29529686392816e-08 3.76991486112701e-07 3.35624080271432e-07 9.91108480609756e-08 2.18449705084957e-07 4.61856509551226e-07 7.12636421334689e-08
"182" 5471 1.0555850168247e-07 3.27695405472688e-08 3.76255335613038e-07 3.34320390441593e-07 9.93354118671205e-08 2.18447090544665e-07 4.59831581211822e-07 7.13101105923814e-08
"183" 5472 1.0545994939034e-07 3.25861124552559e-08 3.75519185113374e-07 3.33016700611755e-07 9.95599756732654e-08 2.18444476004374e-07 4.57806652872418e-07 7.13565790512938e-08
"184" 5473 1.0536139709821e-07 3.24026843632431e-08 3.74783034613711e-07 3.31713010781917e-07 9.97845394794103e-08 2.18441861464082e-07 4.55781724533015e-07 7.14030475102063e-08
"185" 5474 1.05262844806081e-07 3.22192562712303e-08 3.74046884114048e-07 3.30409320952079e-07 1.00009103285555e-07 2.18439246923791e-07 4.53756796193611e-07 7.14495159691187e-08
"186" 5475 1.05164292513951e-07 3.20358281792174e-08 3.73310733614385e-07 3.29105631122241e-07 1.002336670917e-07 2.18436632383499e-07 4.51731867854207e-07 7.14959844280311e-08
"187" 5476 1.05065740221821e-07 3.18524000872046e-08 3.72574583114721e-07 3.27801941292403e-07 1.00458230897845e-07 2.18434017843207e-07 4.49706939514804e-07 7.15424528869436e-08
"188" 5477 1.04967187929692e-07 3.16689719951918e-08 3.71838432615058e-07 3.26498251462565e-07 1.0068279470399e-07 2.18431403302916e-07 4.476820111754e-07 7.1588921345856e-08
"189" 5478 1.04868635637562e-07 3.14855439031789e-08 3.71102282115395e-07 3.25194561632726e-07 1.00907358510135e-07 2.18428788762624e-07 4.45657082835996e-07 7.16353898047685e-08
"190" 5479 1.048831998905e-07 3.15151971754395e-08 3.71779626437072e-07 3.22791733186258e-07 1.01116628368005e-07 2.18426174222333e-07 4.42739339834509e-07 7.15122188089005e-08
"191" 5480 1.04897764143437e-07 3.15448504477002e-08 3.7245697075875e-07 3.2038890473979e-07 1.01325898225875e-07 2.18423559682041e-07 4.39821596833021e-07 7.13890478130325e-08
"192" 5481 1.04912328396375e-07 3.15745037199608e-08 3.73134315080428e-07 3.17986076293321e-07 1.01535168083745e-07 2.18420945141749e-07 4.36903853831533e-07 7.12658768171645e-08
"193" 5482 1.04926892649313e-07 3.16041569922214e-08 3.73811659402105e-07 3.15583247846853e-07 1.01744437941616e-07 2.18418330601458e-07 4.33986110830046e-07 7.11427058212965e-08
"194" 5483 1.04919897760953e-07 3.16119781824443e-08 3.73592464233093e-07 3.13153299426596e-07 1.01508756706747e-07 2.18609236730296e-07 4.31795376120701e-07 7.09488312343729e-08
"195" 5484 1.04912902872593e-07 3.16197993726671e-08 3.73373269064082e-07 3.10723351006339e-07 1.01273075471878e-07 2.18800142859135e-07 4.29604641411356e-07 7.07549566474494e-08
"196" 5485 1.04903564010062e-07 3.16245940548402e-08 3.73868670979002e-07 3.11380650987971e-07 1.01620529448085e-07 2.20358455562777e-07 4.25820222184043e-07 7.05762904728064e-08
"197" 5486 1.0489422514753e-07 3.16293887370134e-08 3.74364072893923e-07 3.12037950969603e-07 1.01967983424293e-07 2.21916768266419e-07 4.2203580295673e-07 7.03976242981634e-08
"198" 5487 1.04884886284998e-07 3.16341834191865e-08 3.74859474808844e-07 3.12695250951235e-07 1.023154374005e-07 2.23475080970062e-07 4.18251383729416e-07 7.02189581235203e-08
"199" 5488 1.04875547422466e-07 3.16389781013596e-08 3.75354876723764e-07 3.13352550932867e-07 1.02662891376707e-07 2.25033393673704e-07 4.14466964502103e-07 7.00402919488773e-08
"200" 5489 1.04866208559934e-07 3.16437727835328e-08 3.75850278638685e-07 3.14009850914499e-07 1.03010345352915e-07 2.26591706377346e-07 4.1068254527479e-07 6.98616257742343e-08
"201" 5490 1.04856869697403e-07 3.16485674657059e-08 3.76345680553606e-07 3.14667150896131e-07 1.03357799329122e-07 2.28150019080989e-07 4.06898126047477e-07 6.96829595995913e-08
"202" 5491 1.04847530834871e-07 3.1653362147879e-08 3.76841082468527e-07 3.15324450877762e-07 1.0370525330533e-07 2.29708331784631e-07 4.03113706820163e-07 6.95042934249483e-08
"203" 5492 1.04838191972339e-07 3.16581568300522e-08 3.77336484383447e-07 3.15981750859394e-07 1.04052707281537e-07 2.31266644488274e-07 3.9932928759285e-07 6.93256272503052e-08
"204" 5493 1.04569661970204e-07 3.16065015290214e-08 3.77307407531781e-07 3.18464274899328e-07 1.04663159419275e-07 2.32709635641777e-07 3.99377623207033e-07 6.92783369160877e-08
"205" 5494 1.04564025894501e-07 3.15372657266892e-08 3.78109221518711e-07 3.21446258080062e-07 1.04779387991839e-07 2.33444710454744e-07 3.99115447375874e-07 6.92745154064908e-08
"206" 5495 1.04558389818798e-07 3.14680299243569e-08 3.78911035505642e-07 3.24428241260796e-07 1.04895616564402e-07 2.34179785267712e-07 3.98853271544716e-07 6.92706938968938e-08
"207" 5496 1.04567853783306e-07 3.14595171320179e-08 3.79078075660729e-07 3.24065140643064e-07 1.04415274817574e-07 2.33803908809223e-07 3.9940318835852e-07 6.92869208394909e-08
"208" 5497 1.04577317747814e-07 3.14510043396789e-08 3.79245115815815e-07 3.23702040025331e-07 1.03934933070747e-07 2.33428032350734e-07 3.99953105172325e-07 6.93031477820879e-08
"209" 5498 1.04586781712322e-07 3.14424915473399e-08 3.79412155970902e-07 3.23338939407599e-07 1.0345459132392e-07 2.33052155892245e-07 4.0050302198613e-07 6.9319374724685e-08
"210" 5499 1.0459624567683e-07 3.14339787550009e-08 3.79579196125989e-07 3.22975838789867e-07 1.02974249577092e-07 2.32676279433757e-07 4.01052938799935e-07 6.9335601667282e-08
"211" 5500 1.04605709641338e-07 3.14254659626619e-08 3.79746236281076e-07 3.22612738172134e-07 1.02493907830265e-07 2.32300402975268e-07 4.0160285561374e-07 6.93518286098791e-08
"212" 5501 1.04615173605846e-07 3.14169531703229e-08 3.79913276436162e-07 3.22249637554402e-07 1.02013566083438e-07 2.31924526516779e-07 4.02152772427545e-07 6.93680555524762e-08
"213" 5502 1.04624637570355e-07 3.14084403779839e-08 3.80080316591249e-07 3.2188653693667e-07 1.0153322433661e-07 2.3154865005829e-07 4.0270268924135e-07 6.93842824950732e-08
"214" 5503 1.04673640477817e-07 3.13773817273312e-08 3.80432249532618e-07 3.22487148943481e-07 1.01602083492635e-07 2.32224382260631e-07 4.02392177796008e-07 6.94135261824705e-08
"215" 5504 1.0472264338528e-07 3.13463230766785e-08 3.80784182473987e-07 3.23087760950292e-07 1.0167094264866e-07 2.32900114462972e-07 4.02081666350667e-07 6.94427698698678e-08
"216" 5505 1.04771646292742e-07 3.13152644260257e-08 3.81136115415357e-07 3.23688372957103e-07 1.01739801804685e-07 2.33575846665313e-07 4.01771154905325e-07 6.94720135572651e-08
"217" 5506 1.04820649200205e-07 3.1284205775373e-08 3.81488048356726e-07 3.24288984963914e-07 1.0180866096071e-07 2.34251578867654e-07 4.01460643459984e-07 6.95012572446624e-08
"218" 5507 1.04869652107668e-07 3.12531471247203e-08 3.81839981298095e-07 3.24889596970725e-07 1.01877520116735e-07 2.34927311069994e-07 4.01150132014642e-07 6.95305009320597e-08
"219" 5508 1.0491865501513e-07 3.12220884740676e-08 3.82191914239464e-07 3.25490208977536e-07 1.0194637927276e-07 2.35603043272335e-07 4.00839620569301e-07 6.9559744619457e-08
"220" 5509 1.04967657922593e-07 3.11910298234148e-08 3.82543847180834e-07 3.26090820984347e-07 1.02015238428785e-07 2.36278775474676e-07 4.00529109123959e-07 6.95889883068543e-08
"221" 5510 1.05016660830055e-07 3.11599711727621e-08 3.82895780122203e-07 3.26691432991158e-07 1.0208409758481e-07 2.36954507677017e-07 4.00218597678618e-07 6.96182319942516e-08
"222" 5511 1.05065663737518e-07 3.11289125221094e-08 3.83247713063572e-07 3.2729204499797e-07 1.02152956740835e-07 2.37630239879358e-07 3.99908086233276e-07 6.96474756816489e-08
"223" 5512 1.05114666644981e-07 3.10978538714566e-08 3.83599646004941e-07 3.27892657004781e-07 1.0222181589686e-07 2.38305972081699e-07 3.99597574787935e-07 6.96767193690462e-08
"224" 5513 1.05163669552443e-07 3.10667952208039e-08 3.8395157894631e-07 3.28493269011592e-07 1.02290675052885e-07 2.3898170428404e-07 3.99287063342593e-07 6.97059630564435e-08
"225" 5514 1.04648094621158e-07 3.10677129331587e-08 3.84155698756274e-07 3.29137289236411e-07 1.02814990342961e-07 2.4022940346674e-07 3.98850514734022e-07 6.95300086491638e-08
"226" 5515 1.04132519689873e-07 3.10686306455135e-08 3.84359818566239e-07 3.29781309461231e-07 1.03339305633037e-07 2.4147710264944e-07 3.9841396612545e-07 6.9354054241884e-08
"227" 5516 1.03980125095735e-07 3.10917092462909e-08 3.80708107697425e-07 3.28358955591426e-07 1.02164609311466e-07 2.42619292066408e-07 3.98411974985185e-07 6.90986502750261e-08
"228" 5517 1.03827730501596e-07 3.11147878470684e-08 3.77056396828612e-07 3.26936601721622e-07 1.00989912989894e-07 2.43761481483377e-07 3.98409983844921e-07 6.88432463081682e-08
"229" 5518 1.03675335907458e-07 3.11378664478458e-08 3.73404685959798e-07 3.25514247851817e-07 9.98152166683225e-08 2.44903670900346e-07 3.98407992704656e-07 6.85878423413103e-08
"230" 5519 1.0352294131332e-07 3.11609450486232e-08 3.69752975090985e-07 3.24091893982012e-07 9.86405203467509e-08 2.46045860317314e-07 3.98406001564391e-07 6.83324383744524e-08
"231" 5520 1.03378190152072e-07 3.12541210005814e-08 3.68425732704251e-07 3.22170364833748e-07 9.70521070237213e-08 2.47712397987737e-07 4.00303035787063e-07 6.81842873518761e-08
"232" 5521 1.03233438990825e-07 3.13472969525396e-08 3.67098490317517e-07 3.20248835685484e-07 9.54636937006918e-08 2.49378935658159e-07 4.02200070009734e-07 6.80361363292999e-08
"233" 5522 1.03063200386936e-07 3.13249779325713e-08 3.6308467103361e-07 3.18003964601747e-07 9.37939116197297e-08 2.51112840858661e-07 4.04626626495097e-07 6.7912642211244e-08
"234" 5523 1.02892961783048e-07 3.13026589126029e-08 3.59070851749703e-07 3.1575909351801e-07 9.21241295387675e-08 2.52846746059164e-07 4.07053182980459e-07 6.77891480931881e-08
"235" 5524 1.02722723179159e-07 3.12803398926346e-08 3.55057032465796e-07 3.13514222434273e-07 9.04543474578053e-08 2.54580651259666e-07 4.09479739465822e-07 6.76656539751322e-08
"236" 5525 1.02552484575271e-07 3.12580208726663e-08 3.51043213181889e-07 3.11269351350535e-07 8.87845653768432e-08 2.56314556460169e-07 4.11906295951184e-07 6.75421598570763e-08
"237" 5526 1.02382245971383e-07 3.1235701852698e-08 3.47029393897982e-07 3.09024480266798e-07 8.7114783295881e-08 2.58048461660671e-07 4.14332852436547e-07 6.74186657390204e-08
"238" 5527 1.02212007367494e-07 3.12133828327296e-08 3.43015574614075e-07 3.06779609183061e-07 8.54450012149189e-08 2.59782366861173e-07 4.1675940892191e-07 6.72951716209645e-08
"239" 5528 1.02246458366738e-07 3.11097892288164e-08 3.42314905028914e-07 3.06251395510209e-07 8.54677573636976e-08 2.61695990921461e-07 4.17002843881293e-07 6.70782842028145e-08
"240" 5529 1.02280909365982e-07 3.10061956249031e-08 3.41614235443753e-07 3.05723181837357e-07 8.54905135124762e-08 2.63609614981748e-07 4.17246278840676e-07 6.68613967846644e-08
"241" 5530 1.02315360365225e-07 3.09026020209899e-08 3.40913565858592e-07 3.05194968164506e-07 8.55132696612549e-08 2.65523239042035e-07 4.17489713800059e-07 6.66445093665144e-08
"242" 5531 1.02349811364469e-07 3.07990084170767e-08 3.4021289627343e-07 3.04666754491654e-07 8.55360258100336e-08 2.67436863102322e-07 4.17733148759442e-07 6.64276219483643e-08
"243" 5532 1.02384262363713e-07 3.06954148131634e-08 3.39512226688269e-07 3.04138540818802e-07 8.55587819588123e-08 2.6935048716261e-07 4.17976583718826e-07 6.62107345302143e-08
"244" 5533 1.02418713362957e-07 3.05918212092502e-08 3.38811557103108e-07 3.03610327145951e-07 8.5581538107591e-08 2.71264111222897e-07 4.18220018678209e-07 6.59938471120642e-08
"245" 5534 1.024531643622e-07 3.04882276053369e-08 3.38110887517947e-07 3.03082113473099e-07 8.56042942563697e-08 2.73177735283184e-07 4.18463453637592e-07 6.57769596939142e-08
"246" 5535 1.02487615361444e-07 3.03846340014237e-08 3.37410217932786e-07 3.02553899800247e-07 8.56270504051483e-08 2.75091359343471e-07 4.18706888596975e-07 6.55600722757642e-08
"247" 5536 1.02522066360688e-07 3.02810403975104e-08 3.36709548347625e-07 3.02025686127395e-07 8.5649806553927e-08 2.77004983403759e-07 4.18950323556359e-07 6.53431848576141e-08
"248" 5537 1.01433726990136e-07 2.99295901247186e-08 3.35856657763865e-07 3.01612217253131e-07 8.57147797711825e-08 2.77184020118541e-07 4.20051594516318e-07 6.51838296788722e-08
"249" 5538 1.00345387619585e-07 2.95781398519268e-08 3.35003767180105e-07 3.01198748378867e-07 8.5779752988438e-08 2.77363056833323e-07 4.21152865476277e-07 6.50244745001302e-08
"250" 5539 9.92570482490328e-08 2.9226689579135e-08 3.34150876596346e-07 3.00785279504603e-07 8.58447262056934e-08 2.77542093548106e-07 4.22254136436236e-07 6.48651193213883e-08
"251" 5540 9.81687088784811e-08 2.88752393063432e-08 3.33297986012586e-07 3.00371810630339e-07 8.59096994229489e-08 2.77721130262888e-07 4.23355407396195e-07 6.47057641426464e-08
"252" 5541 9.70803695079294e-08 2.85237890335514e-08 3.32445095428827e-07 2.99958341756074e-07 8.59746726402044e-08 2.7790016697767e-07 4.24456678356154e-07 6.45464089639044e-08
"253" 5542 9.59920301373776e-08 2.81723387607596e-08 3.31592204845067e-07 2.9954487288181e-07 8.60396458574598e-08 2.78079203692453e-07 4.25557949316113e-07 6.43870537851625e-08
"254" 5543 9.50739293707143e-08 2.78220219515881e-08 3.30902713973705e-07 2.99006534231091e-07 8.60366221129062e-08 2.76583823256681e-07 4.27743593285155e-07 6.4048884940519e-08
"255" 5544 9.4155828604051e-08 2.74717051424166e-08 3.30213223102344e-07 2.98468195580372e-07 8.60335983683525e-08 2.75088442820909e-07 4.29929237254198e-07 6.37107160958755e-08
"256" 5545 9.32377278373877e-08 2.71213883332451e-08 3.29523732230982e-07 2.97929856929653e-07 8.60305746237988e-08 2.73593062385137e-07 4.3211488122324e-07 6.33725472512319e-08
"257" 5546 9.23196270707244e-08 2.67710715240736e-08 3.2883424135962e-07 2.97391518278934e-07 8.60275508792451e-08 2.72097681949365e-07 4.34300525192282e-07 6.30343784065884e-08
"258" 5547 9.14015263040611e-08 2.64207547149021e-08 3.28144750488258e-07 2.96853179628215e-07 8.60245271346914e-08 2.70602301513593e-07 4.36486169161324e-07 6.26962095619449e-08
"259" 5548 9.04834255373978e-08 2.60704379057306e-08 3.27455259616897e-07 2.96314840977496e-07 8.60215033901378e-08 2.69106921077822e-07 4.38671813130367e-07 6.23580407173013e-08
"260" 5549 8.95653247707345e-08 2.57201210965591e-08 3.26765768745535e-07 2.95776502326778e-07 8.60184796455841e-08 2.6761154064205e-07 4.40857457099409e-07 6.20198718726578e-08
"261" 5550 8.86472240040712e-08 2.53698042873876e-08 3.26076277874173e-07 2.95238163676059e-07 8.60154559010304e-08 2.66116160206278e-07 4.43043101068451e-07 6.16817030280143e-08
"262" 5551 8.77291232374079e-08 2.50194874782161e-08 3.25386787002811e-07 2.9469982502534e-07 8.60124321564767e-08 2.64620779770506e-07 4.45228745037493e-07 6.13435341833707e-08
"263" 5552 8.72138478889509e-08 2.50108158262247e-08 3.24198286811683e-07 2.93872490160776e-07 8.54264085128651e-08 2.64898527099264e-07 4.47515755315382e-07 6.12816186090021e-08
"264" 5553 8.73969783507857e-08 2.50075624798295e-08 3.24097915568259e-07 2.93766522184234e-07 8.53664020095481e-08 2.65079364239989e-07 4.50503866672689e-07 6.12828900736715e-08
"265" 5554 8.84321996869609e-08 2.54980060126696e-08 3.26469000356289e-07 2.96508402925314e-07 8.53740489836854e-08 2.64982454051956e-07 4.53937615148215e-07 6.23665052891166e-08
"266" 5555 8.9467421023136e-08 2.59884495455097e-08 3.28840085144319e-07 2.99250283666395e-07 8.53816959578227e-08 2.64885543863922e-07 4.57371363623742e-07 6.34501205045618e-08
"267" 5556 9.05026423593112e-08 2.64788930783498e-08 3.31211169932349e-07 3.01992164407475e-07 8.538934293196e-08 2.64788633675888e-07 4.60805112099268e-07 6.45337357200069e-08
"268" 5557 9.15378636954863e-08 2.69693366111899e-08 3.33582254720379e-07 3.04734045148555e-07 8.53969899060974e-08 2.64691723487855e-07 4.64238860574795e-07 6.5617350935452e-08
"269" 5558 9.25730850316615e-08 2.745978014403e-08 3.35953339508409e-07 3.07475925889636e-07 8.54046368802347e-08 2.64594813299821e-07 4.67672609050321e-07 6.67009661508972e-08
"270" 5559 9.36083063678367e-08 2.79502236768701e-08 3.38324424296439e-07 3.10217806630716e-07 8.5412283854372e-08 2.64497903111788e-07 4.71106357525848e-07 6.77845813663423e-08
"271" 5560 9.46435277040118e-08 2.84406672097102e-08 3.40695509084469e-07 3.12959687371796e-07 8.54199308285093e-08 2.64400992923754e-07 4.74540106001374e-07 6.88681965817874e-08
"272" 5561 9.48036134551284e-08 2.84807603080857e-08 3.40786030499908e-07 3.13506802844561e-07 8.55217484642474e-08 2.64211536091383e-07 4.74838464302701e-07 6.89305970007798e-08
"273" 5562 9.49636992062449e-08 2.85208534064612e-08 3.40876551915348e-07 3.14053918317325e-07 8.56235660999856e-08 2.64022079259011e-07 4.75136822604028e-07 6.89929974197721e-08
"274" 5563 9.51237849573615e-08 2.85609465048367e-08 3.40967073330787e-07 3.1460103379009e-07 8.57253837357237e-08 2.63832622426639e-07 4.75435180905355e-07 6.90553978387644e-08
"275" 5564 9.52838707084781e-08 2.86010396032122e-08 3.41057594746227e-07 3.15148149262855e-07 8.58272013714618e-08 2.63643165594268e-07 4.75733539206682e-07 6.91177982577568e-08
"276" 5565 9.54439564595947e-08 2.86411327015877e-08 3.41148116161666e-07 3.15695264735619e-07 8.59290190071999e-08 2.63453708761896e-07 4.76031897508009e-07 6.91801986767491e-08
"277" 5566 9.56040422107112e-08 2.86812257999632e-08 3.41238637577106e-07 3.16242380208384e-07 8.60308366429381e-08 2.63264251929524e-07 4.76330255809336e-07 6.92425990957414e-08
"278" 5567 9.57641279618278e-08 2.87213188983387e-08 3.41329158992545e-07 3.16789495681149e-07 8.61326542786762e-08 2.63074795097153e-07 4.76628614110663e-07 6.93049995147338e-08
"279" 5568 9.59242137129444e-08 2.87614119967142e-08 3.41419680407985e-07 3.17336611153913e-07 8.62344719144143e-08 2.62885338264781e-07 4.7692697241199e-07 6.93673999337261e-08
"280" 5569 9.60842994640609e-08 2.88015050950897e-08 3.41510201823424e-07 3.17883726626678e-07 8.63362895501525e-08 2.6269588143241e-07 4.77225330713317e-07 6.94298003527184e-08
"281" 5570 9.62443852151775e-08 2.88415981934651e-08 3.41600723238864e-07 3.18430842099443e-07 8.64381071858906e-08 2.62506424600038e-07 4.77523689014644e-07 6.94922007717107e-08
"282" 5571 9.64044709662941e-08 2.88816912918406e-08 3.41691244654303e-07 3.18977957572207e-07 8.65399248216287e-08 2.62316967767666e-07 4.77822047315971e-07 6.95546011907031e-08
"283" 5572 9.65645567174106e-08 2.89217843902161e-08 3.41781766069743e-07 3.19525073044972e-07 8.66417424573668e-08 2.62127510935295e-07 4.78120405617298e-07 6.96170016096954e-08
"284" 5573 9.67358775857772e-08 2.89662642986071e-08 3.42120047100742e-07 3.18966725102618e-07 8.66282336282452e-08 2.62179833049717e-07 4.78761159869689e-07 6.96782780552769e-08
"285" 5574 9.69071984541438e-08 2.9010744206998e-08 3.42458328131741e-07 3.18408377160265e-07 8.66147247991236e-08 2.62232155164139e-07 4.79401914122081e-07 6.97395545008583e-08
"286" 5575 9.55673377211058e-08 2.90098264946432e-08 3.41497479159282e-07 3.17514824653012e-07 8.67750318615935e-08 2.62002429023286e-07 4.79172780866964e-07 6.97730974268877e-08
"287" 5576 9.43633773499699e-08 2.89639980994732e-08 3.40169612785071e-07 3.15975585052942e-07 8.67785439506476e-08 2.61747282127751e-07 4.7804971371732e-07 6.98874241267273e-08
"288" 5577 9.3159416978834e-08 2.89181697043032e-08 3.38841746410861e-07 3.14436345452871e-07 8.67820560397016e-08 2.61492135232217e-07 4.76926646567676e-07 7.0001750826567e-08
"289" 5578 9.16723623526258e-08 2.88728740515969e-08 3.37548951027057e-07 3.13776072917553e-07 8.68195666096603e-08 2.61602086813118e-07 4.79832903486758e-07 7.03698658823251e-08
"290" 5579 9.01853077264176e-08 2.88275783988905e-08 3.36256155643254e-07 3.13115800382236e-07 8.68570771796189e-08 2.6171203839402e-07 4.82739160405841e-07 7.07379809380831e-08
"291" 5580 8.86982531002094e-08 2.87822827461842e-08 3.34963360259451e-07 3.12455527846919e-07 8.68945877495776e-08 2.61821989974922e-07 4.85645417324923e-07 7.11060959938412e-08
"292" 5581 8.72111984740012e-08 2.87369870934779e-08 3.33670564875648e-07 3.11795255311602e-07 8.69320983195362e-08 2.61931941555824e-07 4.88551674244006e-07 7.14742110495993e-08
"293" 5582 8.5724143847793e-08 2.86916914407716e-08 3.32377769491844e-07 3.11134982776284e-07 8.69696088894949e-08 2.62041893136725e-07 4.91457931163088e-07 7.18423261053574e-08
"294" 5583 8.42370892215848e-08 2.86463957880652e-08 3.31084974108041e-07 3.10474710240967e-07 8.70071194594535e-08 2.62151844717627e-07 4.94364188082171e-07 7.22104411611155e-08
"295" 5584 8.27500345953766e-08 2.86011001353589e-08 3.29792178724238e-07 3.0981443770565e-07 8.70446300294122e-08 2.62261796298529e-07 4.97270445001253e-07 7.25785562168736e-08
"296" 5585 8.12629799691684e-08 2.85558044826526e-08 3.28499383340435e-07 3.09154165170332e-07 8.70821405993708e-08 2.62371747879431e-07 5.00176701920336e-07 7.29466712726316e-08
"297" 5586 7.97759253429602e-08 2.85105088299463e-08 3.27206587956631e-07 3.08493892635015e-07 8.71196511693295e-08 2.62481699460332e-07 5.03082958839418e-07 7.33147863283897e-08
"298" 5587 7.97780191131797e-08 2.85033903289195e-08 3.27108799307815e-07 3.09288788581943e-07 8.68076702556548e-08 2.62591651041234e-07 5.06839087198018e-07 7.36923848089633e-08
"299" 5588 7.97801128833991e-08 2.84962718278927e-08 3.27011010658999e-07 3.1008368452887e-07 8.64956893419801e-08 2.62701602622136e-07 5.10595215556617e-07 7.40699832895369e-08
"300" 5589 7.97822066536186e-08 2.84891533268659e-08 3.26913222010183e-07 3.10878580475798e-07 8.61837084283054e-08 2.62811554203038e-07 5.14351343915216e-07 7.44475817701106e-08
"301" 5590 7.9784300423838e-08 2.84820348258391e-08 3.26815433361368e-07 3.11673476422725e-07 8.58717275146308e-08 2.62921505783939e-07 5.18107472273815e-07 7.48251802506842e-08
"302" 5591 7.97863941940574e-08 2.84749163248123e-08 3.26717644712552e-07 3.12468372369653e-07 8.55597466009561e-08 2.63031457364841e-07 5.21863600632414e-07 7.52027787312578e-08
"303" 5592 7.97884879642769e-08 2.84677978237855e-08 3.26619856063736e-07 3.13263268316581e-07 8.52477656872814e-08 2.63141408945743e-07 5.25619728991014e-07 7.55803772118314e-08
"304" 5593 7.97905817344963e-08 2.84606793227587e-08 3.2652206741492e-07 3.14058164263508e-07 8.49357847736068e-08 2.63251360526645e-07 5.29375857349613e-07 7.5957975692405e-08
"305" 5594 7.97926755047158e-08 2.84535608217319e-08 3.26424278766104e-07 3.14853060210436e-07 8.46238038599321e-08 2.63361312107546e-07 5.33131985708212e-07 7.63355741729787e-08
"306" 5595 7.97947692749352e-08 2.84464423207051e-08 3.26326490117288e-07 3.15647956157364e-07 8.43118229462574e-08 2.63471263688448e-07 5.36888114066811e-07 7.67131726535523e-08
"307" 5596 7.96977996551889e-08 2.84362973116286e-08 3.26262066686813e-07 3.16128178817369e-07 8.41620408818431e-08 2.63546559754852e-07 5.40835893936976e-07 7.71048345489134e-08
"308" 5597 7.96008300354427e-08 2.84261523025521e-08 3.26197643256338e-07 3.16608401477375e-07 8.40122588174288e-08 2.63621855821255e-07 5.44783673807142e-07 7.74964964442745e-08
"309" 5598 7.96332136086927e-08 2.8491171969708e-08 3.26197643256338e-07 3.16755944919698e-07 8.38995709783007e-08 2.64149655118632e-07 5.46026474254597e-07 7.76863386354125e-08
"310" 5599 7.95645231252133e-08 2.85477468232179e-08 3.27375325783597e-07 3.17002887607769e-07 8.41615724940866e-08 2.6457838375325e-07 5.47034771560436e-07 7.76863386354125e-08
"311" 5600 7.94958326417339e-08 2.86043216767278e-08 3.28553008310855e-07 3.1724983029584e-07 8.44235740098724e-08 2.65007112387868e-07 5.48043068866276e-07 7.76863386354125e-08
"312" 5601 7.94271421582544e-08 2.86608965302377e-08 3.29730690838114e-07 3.1749677298391e-07 8.46855755256583e-08 2.65435841022485e-07 5.49051366172115e-07 7.76863386354125e-08
"313" 5602 7.9358451674775e-08 2.87174713837476e-08 3.30908373365372e-07 3.17743715671981e-07 8.49475770414441e-08 2.65864569657103e-07 5.50059663477955e-07 7.76863386354125e-08
"314" 5603 7.92897611912956e-08 2.87740462372575e-08 3.32086055892631e-07 3.17990658360052e-07 8.520957855723e-08 2.66293298291721e-07 5.51067960783794e-07 7.76863386354125e-08
"315" 5604 7.92210707078162e-08 2.88306210907673e-08 3.33263738419889e-07 3.18237601048123e-07 8.54715800730158e-08 2.66722026926339e-07 5.52076258089634e-07 7.76863386354125e-08
"316" 5605 7.91523802243368e-08 2.88871959442772e-08 3.34441420947148e-07 3.18484543736194e-07 8.57335815888017e-08 2.67150755560957e-07 5.53084555395474e-07 7.76863386354125e-08
"317" 5606 7.90836897408573e-08 2.89437707977871e-08 3.35619103474406e-07 3.18731486424264e-07 8.59955831045875e-08 2.67579484195575e-07 5.54092852701313e-07 7.76863386354125e-08
"318" 5607 7.90149992573779e-08 2.9000345651297e-08 3.36796786001665e-07 3.18978429112335e-07 8.62575846203734e-08 2.68008212830192e-07 5.55101150007153e-07 7.76863386354125e-08
"319" 5608 7.89463087738985e-08 2.90569205048069e-08 3.37974468528923e-07 3.19225371800406e-07 8.65195861361592e-08 2.6843694146481e-07 5.56109447312992e-07 7.76863386354125e-08
"320" 5609 7.88776182904191e-08 2.91134953583168e-08 3.39152151056182e-07 3.19472314488477e-07 8.67815876519451e-08 2.68865670099428e-07 5.57117744618832e-07 7.76863386354125e-08
"321" 5610 7.88089278069396e-08 2.91700702118267e-08 3.4032983358344e-07 3.19719257176548e-07 8.70435891677309e-08 2.69294398734046e-07 5.58126041924671e-07 7.76863386354125e-08
"322" 5611 7.87824815470088e-08 2.91616253981806e-08 3.40693569226085e-07 3.20338895853578e-07 8.72621679364693e-08 2.69360688211083e-07 5.58834605667934e-07 7.76627917958094e-08
"323" 5612 7.86134783085886e-08 2.89605480980666e-08 3.36791793919825e-07 3.20416344153862e-07 8.69889015503444e-08 2.69491330219202e-07 5.61720385031735e-07 7.83161587020342e-08
"324" 5613 7.84444750701684e-08 2.87594707979526e-08 3.32890018613566e-07 3.20493792454147e-07 8.67156351642195e-08 2.6962197222732e-07 5.64606164395535e-07 7.89695256082591e-08
"325" 5614 7.82754718317482e-08 2.85583934978386e-08 3.28988243307306e-07 3.20571240754431e-07 8.64423687780945e-08 2.69752614235438e-07 5.67491943759335e-07 7.96228925144839e-08
"326" 5615 7.8106468593328e-08 2.83573161977246e-08 3.25086468001046e-07 3.20648689054716e-07 8.61691023919696e-08 2.69883256243557e-07 5.70377723123135e-07 8.02762594207087e-08
"327" 5616 7.79374653549078e-08 2.81562388976106e-08 3.21184692694786e-07 3.20726137355e-07 8.58958360058447e-08 2.70013898251675e-07 5.73263502486935e-07 8.09296263269335e-08
"328" 5617 7.77684621164876e-08 2.79551615974965e-08 3.17282917388526e-07 3.20803585655284e-07 8.56225696197197e-08 2.70144540259794e-07 5.76149281850736e-07 8.15829932331583e-08
"329" 5618 7.75994588780674e-08 2.77540842973825e-08 3.13381142082266e-07 3.20881033955569e-07 8.53493032335948e-08 2.70275182267912e-07 5.79035061214536e-07 8.22363601393831e-08
"330" 5619 7.7435605306952e-08 2.75918868381441e-08 3.10152897547617e-07 3.21015031203656e-07 8.47329476064053e-08 2.70614014566727e-07 5.78262806019742e-07 8.22631314079602e-08
"331" 5620 7.72717517358367e-08 2.74296893789057e-08 3.06924653012968e-07 3.21149028451744e-07 8.41165919792158e-08 2.70952846865542e-07 5.77490550824949e-07 8.22899026765373e-08
"332" 5621 7.71078981647214e-08 2.72674919196672e-08 3.0369640847832e-07 3.21283025699831e-07 8.35002363520263e-08 2.71291679164357e-07 5.76718295630156e-07 8.23166739451143e-08
"333" 5622 7.6944044593606e-08 2.71052944604288e-08 3.00468163943671e-07 3.21417022947919e-07 8.28838807248368e-08 2.71630511463172e-07 5.75946040435362e-07 8.23434452136914e-08
"334" 5623 7.67801910224907e-08 2.69430970011904e-08 2.97239919409022e-07 3.21551020196006e-07 8.22675250976474e-08 2.71969343761987e-07 5.75173785240569e-07 8.23702164822685e-08
"335" 5624 7.66163374513753e-08 2.67808995419519e-08 2.94011674874373e-07 3.21685017444094e-07 8.16511694704579e-08 2.72308176060802e-07 5.74401530045775e-07 8.23969877508455e-08
"336" 5625 7.645248388026e-08 2.66187020827135e-08 2.90783430339725e-07 3.21819014692181e-07 8.10348138432684e-08 2.72647008359617e-07 5.73629274850982e-07 8.24237590194226e-08
"337" 5626 7.62886303091446e-08 2.64565046234751e-08 2.87555185805076e-07 3.21953011940269e-07 8.04184582160789e-08 2.72985840658432e-07 5.72857019656189e-07 8.24505302879997e-08
"338" 5627 7.61247767380293e-08 2.62943071642366e-08 2.84326941270427e-07 3.22087009188356e-07 7.98021025888894e-08 2.73324672957247e-07 5.72084764461395e-07 8.24773015565767e-08
"339" 5628 7.59609231669139e-08 2.61321097049982e-08 2.81098696735778e-07 3.22221006436444e-07 7.91857469616999e-08 2.73663505256062e-07 5.71312509266602e-07 8.25040728251538e-08
"340" 5629 7.57970695957986e-08 2.59699122457598e-08 2.77870452201129e-07 3.22355003684531e-07 7.85693913345104e-08 2.74002337554877e-07 5.70540254071809e-07 8.25308440937309e-08
"341" 5630 7.56332160246833e-08 2.58077147865213e-08 2.74642207666481e-07 3.22489000932619e-07 7.79530357073209e-08 2.74341169853692e-07 5.69767998877015e-07 8.25576153623079e-08
"342" 5631 7.54693624535679e-08 2.56455173272829e-08 2.71413963131832e-07 3.22622998180706e-07 7.73366800801314e-08 2.74680002152507e-07 5.68995743682222e-07 8.2584386630885e-08
"343" 5632 7.37733813049133e-08 2.5680010358143e-08 2.69519822843866e-07 3.22478642910951e-07 7.73431742792719e-08 2.75196070740162e-07 5.68987157069788e-07 8.21339281470349e-08
"344" 5633 7.20774001562588e-08 2.57145033890032e-08 2.67625682555899e-07 3.22334287641196e-07 7.73496684784124e-08 2.75712139327817e-07 5.68978570457354e-07 8.16834696631848e-08
"345" 5634 7.2206810108485e-08 2.56402002616192e-08 2.67874057057601e-07 3.22095750432459e-07 7.73993885213707e-08 2.75281769085539e-07 5.66581611858496e-07 8.13413884197109e-08
"346" 5635 7.23362200607113e-08 2.55658971342353e-08 2.68122431559303e-07 3.21857213223722e-07 7.7449108564329e-08 2.74851398843262e-07 5.64184653259639e-07 8.09993071762369e-08
"347" 5636 7.18192229383877e-08 2.54915940068514e-08 2.67631532074439e-07 3.20571107163392e-07 7.7606059666997e-08 2.74443550762733e-07 5.62248663539182e-07 8.07294888554166e-08
"348" 5637 7.13022258160641e-08 2.54172908794675e-08 2.67140632589574e-07 3.19285001103062e-07 7.77630107696651e-08 2.74035702682205e-07 5.60312673818725e-07 8.04596705345962e-08
"349" 5638 7.07852286937405e-08 2.53429877520835e-08 2.6664973310471e-07 3.17998895042732e-07 7.79199618723331e-08 2.73627854601676e-07 5.58376684098269e-07 8.01898522137758e-08
"350" 5639 7.0268231571417e-08 2.52686846246996e-08 2.66158833619845e-07 3.16712788982401e-07 7.80769129750011e-08 2.73220006521148e-07 5.56440694377812e-07 7.99200338929554e-08
"351" 5640 6.97512344490934e-08 2.51943814973157e-08 2.65667934134981e-07 3.15426682922071e-07 7.82338640776691e-08 2.72812158440619e-07 5.54504704657355e-07 7.9650215572135e-08
"352" 5641 6.92342373267698e-08 2.51200783699317e-08 2.65177034650116e-07 3.14140576861741e-07 7.83908151803371e-08 2.7240431036009e-07 5.52568714936899e-07 7.93803972513147e-08
"353" 5642 6.87172402044462e-08 2.50457752425478e-08 2.64686135165252e-07 3.1285447080141e-07 7.85477662830051e-08 2.71996462279562e-07 5.50632725216442e-07 7.91105789304943e-08
"354" 5643 6.82002430821226e-08 2.49714721151639e-08 2.64195235680387e-07 3.1156836474108e-07 7.87047173856731e-08 2.71588614199033e-07 5.48696735495985e-07 7.88407606096739e-08
"355" 5644 6.7683245959799e-08 2.489716898778e-08 2.63704336195523e-07 3.1028225868075e-07 7.88616684883412e-08 2.71180766118505e-07 5.46760745775529e-07 7.85709422888535e-08
"356" 5645 6.71662488374754e-08 2.4822865860396e-08 2.63213436710659e-07 3.0899615262042e-07 7.90186195910092e-08 2.70772918037976e-07 5.44824756055072e-07 7.83011239680332e-08
"357" 5646 6.66492517151519e-08 2.47485627330121e-08 2.62722537225794e-07 3.07710046560089e-07 7.91755706936772e-08 2.70365069957447e-07 5.42888766334615e-07 7.80313056472128e-08
"358" 5647 6.61322545928283e-08 2.46742596056282e-08 2.6223163774093e-07 3.06423940499759e-07 7.93325217963452e-08 2.69957221876919e-07 5.40952776614159e-07 7.77614873263924e-08
"359" 5648 6.56152574705047e-08 2.45999564782442e-08 2.61740738256065e-07 3.05137834439429e-07 7.94894728990132e-08 2.6954937379639e-07 5.39016786893702e-07 7.7491669005572e-08
"360" 5649 6.50982603481811e-08 2.45256533508603e-08 2.61249838771201e-07 3.03851728379099e-07 7.96464240016812e-08 2.69141525715861e-07 5.37080797173245e-07 7.72218506847516e-08
"361" 5650 6.45812632258575e-08 2.44513502234764e-08 2.60758939286336e-07 3.02565622318768e-07 7.98033751043492e-08 2.68733677635333e-07 5.35144807452789e-07 7.69520323639313e-08
"362" 5651 6.40642661035339e-08 2.43770470960925e-08 2.60268039801472e-07 3.01279516258438e-07 7.99603262070172e-08 2.68325829554804e-07 5.33208817732332e-07 7.66822140431109e-08
"363" 5652 6.35472689812103e-08 2.43027439687085e-08 2.59777140316607e-07 2.99993410198108e-07 8.01172773096853e-08 2.67917981474276e-07 5.31272828011876e-07 7.64123957222905e-08
"364" 5653 6.30302718588867e-08 2.42284408413246e-08 2.59286240831743e-07 2.98707304137778e-07 8.02742284123533e-08 2.67510133393747e-07 5.29336838291419e-07 7.61425774014701e-08
"365" 5654 6.25132747365631e-08 2.41541377139407e-08 2.58795341346878e-07 2.97421198077447e-07 8.04311795150213e-08 2.67102285313218e-07 5.27400848570962e-07 7.58727590806497e-08
"366" 5655 6.2667838824022e-08 2.42270458219057e-08 2.58836192412644e-07 2.9746062788713e-07 8.04590368292672e-08 2.67538810605826e-07 5.28385802973278e-07 7.63766821528631e-08
"367" 5656 6.25739077922782e-08 2.42255835519005e-08 2.58902928583167e-07 2.969492876081e-07 8.13335366778541e-08 2.67258437542135e-07 5.24960928116624e-07 7.6312968221037e-08
"368" 5657 6.21293920080824e-08 2.42255835519005e-08 2.58280210287665e-07 2.97225126395339e-07 8.12930752236595e-08 2.67152200852837e-07 5.21440336099652e-07 7.6125598771403e-08
"369" 5658 6.16848762238866e-08 2.42255835519005e-08 2.57657491992163e-07 2.97500965182578e-07 8.12526137694648e-08 2.67045964163538e-07 5.17919744082681e-07 7.59382293217689e-08
"370" 5659 6.12403604396909e-08 2.42255835519005e-08 2.57034773696661e-07 2.97776803969817e-07 8.12121523152702e-08 2.66939727474239e-07 5.14399152065709e-07 7.57508598721349e-08
"371" 5660 6.07958446554951e-08 2.42255835519005e-08 2.56412055401159e-07 2.98052642757056e-07 8.11716908610755e-08 2.66833490784941e-07 5.10878560048738e-07 7.55634904225008e-08
"372" 5661 6.03513288712993e-08 2.42255835519005e-08 2.55789337105656e-07 2.98328481544294e-07 8.11312294068809e-08 2.66727254095642e-07 5.07357968031766e-07 7.53761209728668e-08
"373" 5662 5.99068130871035e-08 2.42255835519005e-08 2.55166618810154e-07 2.98604320331533e-07 8.10907679526863e-08 2.66621017406343e-07 5.03837376014795e-07 7.51887515232327e-08
"374" 5663 5.94622973029077e-08 2.42255835519005e-08 2.54543900514652e-07 2.98880159118772e-07 8.10503064984916e-08 2.66514780717045e-07 5.00316783997823e-07 7.50013820735987e-08
"375" 5664 5.9017781518712e-08 2.42255835519005e-08 2.5392118221915e-07 2.99155997906011e-07 8.1009845044297e-08 2.66408544027746e-07 4.96796191980852e-07 7.48140126239647e-08
"376" 5665 5.85732657345162e-08 2.42255835519005e-08 2.53298463923648e-07 2.9943183669325e-07 8.09693835901023e-08 2.66302307338447e-07 4.9327559996388e-07 7.46266431743306e-08
"377" 5666 5.81287499503204e-08 2.42255835519005e-08 2.52675745628146e-07 2.99707675480489e-07 8.09289221359077e-08 2.66196070649149e-07 4.89755007946909e-07 7.44392737246966e-08
"378" 5667 5.81299713162817e-08 2.42268758751733e-08 2.52258168585351e-07 3.01893080961478e-07 8.09176902123986e-08 2.66486264416555e-07 4.86841870121267e-07 7.39859495120033e-08
"379" 5668 5.81527394788216e-08 2.42783043378586e-08 2.52240064302263e-07 3.02434029899683e-07 8.09696958486067e-08 2.63150102631237e-07 4.86066208958977e-07 7.40000129267909e-08
"380" 5669 5.81755076413615e-08 2.4329732800544e-08 2.52221960019176e-07 3.02974978837889e-07 8.10217014848148e-08 2.5981394084592e-07 4.85290547796687e-07 7.40140763415784e-08
"381" 5670 5.81982758039014e-08 2.43811612632294e-08 2.52203855736088e-07 3.03515927776094e-07 8.10737071210229e-08 2.56477779060602e-07 4.84514886634397e-07 7.40281397563659e-08
"382" 5671 5.82210439664413e-08 2.44325897259147e-08 2.52185751453e-07 3.04056876714299e-07 8.1125712757231e-08 2.53141617275284e-07 4.83739225472107e-07 7.40422031711534e-08
"383" 5672 5.82438121289812e-08 2.44840181886001e-08 2.52167647169912e-07 3.04597825652504e-07 8.11777183934391e-08 2.49805455489966e-07 4.82963564309817e-07 7.40562665859409e-08
"384" 5673 5.82665802915211e-08 2.45354466512854e-08 2.52149542886824e-07 3.0513877459071e-07 8.12297240296471e-08 2.46469293704649e-07 4.82187903147527e-07 7.40703300007285e-08
"385" 5674 5.8289348454061e-08 2.45868751139708e-08 2.52131438603736e-07 3.05679723528915e-07 8.12817296658552e-08 2.43133131919331e-07 4.81412241985237e-07 7.4084393415516e-08
"386" 5675 5.82279878211377e-08 2.45893009008639e-08 2.51934985666736e-07 3.05819677500985e-07 8.13202481506651e-08 2.39794192315785e-07 4.80108492020401e-07 7.40821244446121e-08
"387" 5676 5.81666271882144e-08 2.4591726687757e-08 2.51738532729735e-07 3.05959631473056e-07 8.1358766635475e-08 2.36455252712239e-07 4.78804742055565e-07 7.40798554737082e-08
"388" 5677 5.8105266555291e-08 2.459415247465e-08 2.51542079792734e-07 3.06099585445126e-07 8.13972851202848e-08 2.33116313108693e-07 4.77500992090729e-07 7.40775865028044e-08
"389" 5678 5.80439059223677e-08 2.45965782615431e-08 2.51345626855734e-07 3.06239539417197e-07 8.14358036050947e-08 2.29777373505147e-07 4.76197242125894e-07 7.40753175319005e-08
"390" 5679 5.79825452894444e-08 2.45990040484362e-08 2.51149173918733e-07 3.06379493389267e-07 8.14743220899046e-08 2.26438433901601e-07 4.74893492161058e-07 7.40730485609967e-08
"391" 5680 5.7921184656521e-08 2.46014298353293e-08 2.50952720981733e-07 3.06519447361338e-07 8.15128405747145e-08 2.23099494298056e-07 4.73589742196222e-07 7.40707795900928e-08
"392" 5681 5.78598240235977e-08 2.46038556222224e-08 2.50756268044732e-07 3.06659401333408e-07 8.15513590595243e-08 2.1976055469451e-07 4.72285992231386e-07 7.40685106191889e-08
"393" 5682 5.77984633906744e-08 2.46062814091155e-08 2.50559815107732e-07 3.06799355305479e-07 8.15898775443342e-08 2.16421615090964e-07 4.70982242266551e-07 7.40662416482851e-08
"394" 5683 5.77371027577511e-08 2.46087071960086e-08 2.50363362170731e-07 3.06939309277549e-07 8.16283960291441e-08 2.13082675487418e-07 4.69678492301715e-07 7.40639726773812e-08
"395" 5684 5.76757421248277e-08 2.46111329829016e-08 2.5016690923373e-07 3.0707926324962e-07 8.1666914513954e-08 2.09743735883872e-07 4.68374742336879e-07 7.40617037064773e-08
"396" 5685 5.76143814919044e-08 2.46135587697947e-08 2.4997045629673e-07 3.0721921722169e-07 8.17054329987638e-08 2.06404796280326e-07 4.67070992372043e-07 7.40594347355735e-08
"397" 5686 5.75530208589811e-08 2.46159845566878e-08 2.49774003359729e-07 3.07359171193761e-07 8.17439514835737e-08 2.0306585667678e-07 4.65767242407208e-07 7.40571657646696e-08
"398" 5687 5.74916602260577e-08 2.46184103435809e-08 2.49577550422729e-07 3.07499125165831e-07 8.17824699683836e-08 1.99726917073234e-07 4.64463492442372e-07 7.40548967937658e-08
"399" 5688 5.74302995931344e-08 2.4620836130474e-08 2.49381097485728e-07 3.07639079137902e-07 8.18209884531934e-08 1.96387977469689e-07 4.63159742477536e-07 7.40526278228619e-08
"400" 5689 5.73759108139212e-08 2.45904011032444e-08 2.48706397283679e-07 3.06221529490123e-07 8.15970179382069e-08 1.96091744967004e-07 4.62886603394256e-07 7.38887767504765e-08
"401" 5690 5.7666595813433e-08 2.46099544428549e-08 2.47982389966206e-07 3.05363385185987e-07 8.15368049835332e-08 1.95765177990285e-07 4.62464973941014e-07 7.37328847038843e-08
"402" 5691 5.76255235769704e-08 2.46521216194721e-08 2.47966448069124e-07 3.02245018436967e-07 8.09157549874219e-08 1.95764574116757e-07 4.62549367155059e-07 7.36963984229046e-08
"403" 5692 5.74843920990958e-08 2.47918855474094e-08 2.49194820022452e-07 3.01374765030999e-07 8.07786499232741e-08 1.95786367170619e-07 4.62644424998176e-07 7.50901319887908e-08
"404" 5693 5.73432606212211e-08 2.49316494753467e-08 2.5042319197578e-07 3.00504511625032e-07 8.06415448591262e-08 1.9580816022448e-07 4.62739482841292e-07 7.6483865554677e-08
"405" 5694 5.72021291433465e-08 2.5071413403284e-08 2.51651563929109e-07 2.99634258219064e-07 8.05044397949783e-08 1.95829953278342e-07 4.62834540684408e-07 7.78775991205632e-08
"406" 5695 5.70609976654718e-08 2.52111773312213e-08 2.52879935882437e-07 2.98764004813097e-07 8.03673347308305e-08 1.95851746332204e-07 4.62929598527524e-07 7.92713326864494e-08
"407" 5696 5.69198661875971e-08 2.53509412591586e-08 2.54108307835765e-07 2.97893751407129e-07 8.02302296666826e-08 1.95873539386066e-07 4.6302465637064e-07 8.06650662523357e-08
"408" 5697 5.67787347097225e-08 2.54907051870959e-08 2.55336679789094e-07 2.97023498001162e-07 8.00931246025348e-08 1.95895332439927e-07 4.63119714213756e-07 8.20587998182219e-08
"409" 5698 5.66376032318478e-08 2.56304691150332e-08 2.56565051742422e-07 2.96153244595194e-07 7.99560195383869e-08 1.95917125493789e-07 4.63214772056873e-07 8.34525333841081e-08
"410" 5699 5.64964717539732e-08 2.57702330429704e-08 2.57793423695751e-07 2.95282991189227e-07 7.9818914474239e-08 1.95938918547651e-07 4.63309829899989e-07 8.48462669499943e-08
"411" 5700 5.63553402760985e-08 2.59099969709077e-08 2.59021795649079e-07 2.94412737783259e-07 7.96818094100912e-08 1.95960711601512e-07 4.63404887743105e-07 8.62400005158805e-08
"412" 5701 5.62142087982239e-08 2.6049760898845e-08 2.60250167602407e-07 2.93542484377292e-07 7.95447043459433e-08 1.95982504655374e-07 4.63499945586221e-07 8.76337340817667e-08
"413" 5702 5.60730773203492e-08 2.61895248267823e-08 2.61478539555736e-07 2.92672230971324e-07 7.94075992817955e-08 1.96004297709236e-07 4.63595003429337e-07 8.90274676476529e-08
"414" 5703 5.59319458424745e-08 2.63292887547196e-08 2.62706911509064e-07 2.91801977565357e-07 7.92704942176476e-08 1.96026090763097e-07 4.63690061272453e-07 9.04212012135392e-08
"415" 5704 5.57908143645999e-08 2.64690526826569e-08 2.63935283462392e-07 2.90931724159389e-07 7.91333891534998e-08 1.96047883816959e-07 4.63785119115569e-07 9.18149347794254e-08
"416" 5705 5.56496828867252e-08 2.66088166105942e-08 2.65163655415721e-07 2.90061470753422e-07 7.89962840893519e-08 1.96069676870821e-07 4.63880176958686e-07 9.32086683453116e-08
"417" 5706 5.55085514088506e-08 2.67485805385315e-08 2.66392027369049e-07 2.89191217347454e-07 7.8859179025204e-08 1.96091469924682e-07 4.63975234801802e-07 9.46024019111978e-08
"418" 5707 5.53674199309759e-08 2.68883444664688e-08 2.67620399322377e-07 2.88320963941487e-07 7.87220739610562e-08 1.96113262978544e-07 4.64070292644918e-07 9.5996135477084e-08
"419" 5708 5.52262884531013e-08 2.70281083944061e-08 2.68848771275706e-07 2.87450710535519e-07 7.85849688969083e-08 1.96135056032406e-07 4.64165350488034e-07 9.73898690429702e-08
"420" 5709 5.50851569752266e-08 2.71678723223433e-08 2.70077143229034e-07 2.86580457129552e-07 7.84478638327605e-08 1.96156849086268e-07 4.6426040833115e-07 9.87836026088564e-08
"421" 5710 5.47597864268133e-08 2.73106627583304e-08 2.71128513616933e-07 2.87048743836474e-07 7.84478638327605e-08 1.96056973228467e-07 4.64196441489793e-07 1.00217039769108e-07
"422" 5711 5.44344158784e-08 2.74534531943174e-08 2.72179884004832e-07 2.87517030543396e-07 7.84478638327605e-08 1.95957097370666e-07 4.64132474648436e-07 1.01650476929359e-07
"423" 5712 5.46935699838464e-08 2.75962436303044e-08 2.73374890739819e-07 2.90034087610417e-07 7.90955663250367e-08 1.9548154856021e-07 4.64118617370596e-07 1.02821984284065e-07
"424" 5713 5.56034858047785e-08 2.75958697474931e-08 2.7324657566983e-07 2.89604550462907e-07 7.91514995344816e-08 1.9652854766828e-07 4.63997979615282e-07 1.02651466674638e-07
"425" 5714 5.58346570472099e-08 2.76331291868179e-08 2.73520433270354e-07 2.89890778125337e-07 7.94816420117324e-08 1.96060936404468e-07 4.64328327931618e-07 1.02561838604799e-07
"426" 5715 5.59755292859892e-08 2.76357138333634e-08 2.75345590723437e-07 2.89519813251523e-07 8.06827444646247e-08 1.95654204329546e-07 4.67097464165354e-07 1.03691978235814e-07
"427" 5716 5.61164015247685e-08 2.7638298479909e-08 2.77170748176519e-07 2.89148848377709e-07 8.18838469175171e-08 1.95247472254624e-07 4.69866600399089e-07 1.0482211786683e-07
"428" 5717 5.62572737635478e-08 2.76408831264545e-08 2.78995905629602e-07 2.88777883503895e-07 8.30849493704094e-08 1.94840740179702e-07 4.72635736632825e-07 1.05952257497845e-07
"429" 5718 5.63981460023271e-08 2.7643467773e-08 2.80821063082685e-07 2.8840691863008e-07 8.42860518233017e-08 1.9443400810478e-07 4.7540487286656e-07 1.0708239712886e-07
"430" 5719 5.65390182411064e-08 2.76460524195456e-08 2.82646220535767e-07 2.88035953756266e-07 8.5487154276194e-08 1.94027276029858e-07 4.78174009100296e-07 1.08212536759876e-07
"431" 5720 5.66798904798857e-08 2.76486370660911e-08 2.8447137798885e-07 2.87664988882452e-07 8.66882567290863e-08 1.93620543954935e-07 4.80943145334031e-07 1.09342676390891e-07
"432" 5721 5.6820762718665e-08 2.76512217126367e-08 2.86296535441933e-07 2.87294024008638e-07 8.78893591819787e-08 1.93213811880013e-07 4.83712281567767e-07 1.10472816021906e-07
"433" 5722 5.69616349574443e-08 2.76538063591822e-08 2.88121692895015e-07 2.86923059134824e-07 8.9090461634871e-08 1.92807079805091e-07 4.86481417801502e-07 1.11602955652922e-07
"434" 5723 5.71025071962236e-08 2.76563910057278e-08 2.89946850348098e-07 2.8655209426101e-07 9.02915640877633e-08 1.92400347730169e-07 4.89250554035238e-07 1.12733095283937e-07
"435" 5724 5.72433794350029e-08 2.76589756522733e-08 2.9177200780118e-07 2.86181129387196e-07 9.14926665406556e-08 1.91993615655247e-07 4.92019690268973e-07 1.13863234914953e-07
"436" 5725 5.71362849614985e-08 2.76359199537625e-08 2.93572428009783e-07 2.85737434766746e-07 9.2594901381556e-08 1.90975248980692e-07 4.93936007554724e-07 1.14588541944327e-07
"437" 5726 5.70291904879941e-08 2.76128642552516e-08 2.95372848218386e-07 2.85293740146296e-07 9.36971362224564e-08 1.89956882306138e-07 4.95852324840474e-07 1.15313848973701e-07
"438" 5727 5.72603617304255e-08 2.76703346469565e-08 2.97549403454383e-07 2.89366300740498e-07 9.39434465415492e-08 1.90128064205404e-07 4.98339289380021e-07 1.15313848973701e-07
"439" 5728 5.7491532972857e-08 2.77278050386614e-08 2.99725958690381e-07 2.93438861334699e-07 9.4189756860642e-08 1.9029924610467e-07 5.00826253919568e-07 1.15313848973701e-07
"440" 5729 5.77227042152884e-08 2.77852754303663e-08 3.01902513926378e-07 2.975114219289e-07 9.44360671797348e-08 1.90470428003937e-07 5.03313218459115e-07 1.15313848973701e-07
"441" 5730 5.79538754577198e-08 2.78427458220711e-08 3.04079069162376e-07 3.01583982523102e-07 9.46823774988275e-08 1.90641609903203e-07 5.05800182998662e-07 1.15313848973701e-07
"442" 5731 5.81850467001512e-08 2.7900216213776e-08 3.06255624398374e-07 3.05656543117303e-07 9.49286878179203e-08 1.9081279180247e-07 5.08287147538209e-07 1.15313848973701e-07
"443" 5732 5.84162179425826e-08 2.79576866054809e-08 3.08432179634371e-07 3.09729103711504e-07 9.51749981370131e-08 1.90983973701736e-07 5.10774112077756e-07 1.15313848973701e-07
"444" 5733 5.8647389185014e-08 2.80151569971858e-08 3.10608734870369e-07 3.13801664305705e-07 9.54213084561059e-08 1.91155155601003e-07 5.13261076617303e-07 1.15313848973701e-07
"445" 5734 5.87456575486107e-08 2.81581410102785e-08 3.10932347098921e-07 3.15209014923852e-07 9.54732403715065e-08 1.92642871257118e-07 5.13973628085348e-07 1.1529384968526e-07
"446" 5735 5.88439259122073e-08 2.83011250233711e-08 3.11255959327474e-07 3.16616365541998e-07 9.55251722869071e-08 1.94130586913233e-07 5.14686179553393e-07 1.15273850396819e-07
"447" 5736 5.8942194275804e-08 2.84441090364638e-08 3.11579571556027e-07 3.18023716160144e-07 9.55771042023077e-08 1.95618302569348e-07 5.15398731021439e-07 1.15253851108377e-07
"448" 5737 5.90404626394006e-08 2.85870930495565e-08 3.1190318378458e-07 3.1943106677829e-07 9.56290361177083e-08 1.97106018225463e-07 5.16111282489484e-07 1.15233851819936e-07
"449" 5738 5.91387310029973e-08 2.87300770626492e-08 3.12226796013132e-07 3.20838417396436e-07 9.5680968033109e-08 1.98593733881579e-07 5.16823833957529e-07 1.15213852531495e-07
"450" 5739 5.92369993665939e-08 2.88730610757419e-08 3.12550408241685e-07 3.22245768014582e-07 9.57328999485096e-08 2.00081449537694e-07 5.17536385425574e-07 1.15193853243054e-07
"451" 5740 5.93352677301906e-08 2.90160450888346e-08 3.12874020470238e-07 3.23653118632728e-07 9.57848318639102e-08 2.01569165193809e-07 5.18248936893619e-07 1.15173853954613e-07
"452" 5741 5.94335360937872e-08 2.91590291019272e-08 3.1319763269879e-07 3.25060469250874e-07 9.58367637793108e-08 2.03056880849924e-07 5.18961488361665e-07 1.15153854666172e-07
"453" 5742 5.95318044573839e-08 2.93020131150199e-08 3.13521244927343e-07 3.2646781986902e-07 9.58886956947114e-08 2.04544596506039e-07 5.1967403982971e-07 1.15133855377731e-07
"454" 5743 5.96300728209805e-08 2.94449971281126e-08 3.13844857155896e-07 3.27875170487166e-07 9.5940627610112e-08 2.06032312162155e-07 5.20386591297755e-07 1.15113856089289e-07
"455" 5744 5.97283411845772e-08 2.95879811412053e-08 3.14168469384449e-07 3.29282521105312e-07 9.59925595255127e-08 2.0752002781827e-07 5.210991427658e-07 1.15093856800848e-07
"456" 5745 5.98266095481738e-08 2.9730965154298e-08 3.14492081613001e-07 3.30689871723458e-07 9.60444914409133e-08 2.09007743474385e-07 5.21811694233845e-07 1.15073857512407e-07
"457" 5746 5.99248779117705e-08 2.98739491673907e-08 3.14815693841554e-07 3.32097222341604e-07 9.60964233563139e-08 2.104954591305e-07 5.22524245701891e-07 1.15053858223966e-07
"458" 5747 6.00372101203995e-08 3.00275089639841e-08 3.15023940378496e-07 3.3350573199812e-07 9.61188464293546e-08 2.11981284894557e-07 5.23383272322466e-07 1.1505479233527e-07
"459" 5748 6.01787572479357e-08 3.01616624654329e-08 3.15453898603372e-07 3.34910722069392e-07 9.6256262891517e-08 2.13193925919731e-07 5.24908383367018e-07 1.15035825485639e-07
"460" 5749 5.990150320322e-08 3.00346518234909e-08 3.14656590596018e-07 3.35606477587696e-07 9.66757151235779e-08 2.12111336408109e-07 5.24285378652527e-07 1.14917986167213e-07
"461" 5750 6.17958605745561e-08 2.98203128533979e-08 3.12545448378569e-07 3.34714191564202e-07 9.66983463689548e-08 2.12757778605535e-07 5.24514466897409e-07 1.15086943799675e-07
"462" 5751 6.36902179458922e-08 2.96059738833049e-08 3.1043430616112e-07 3.33821905540707e-07 9.67209776143317e-08 2.13404220802961e-07 5.24743555142291e-07 1.15255901432137e-07
"463" 5752 6.55845753172283e-08 2.93916349132119e-08 3.08323163943671e-07 3.32929619517212e-07 9.67436088597087e-08 2.14050663000387e-07 5.24972643387173e-07 1.15424859064598e-07
"464" 5753 6.74789326885644e-08 2.91772959431189e-08 3.06212021726222e-07 3.32037333493718e-07 9.67662401050856e-08 2.14697105197814e-07 5.25201731632055e-07 1.1559381669706e-07
"465" 5754 6.93732900599005e-08 2.89629569730259e-08 3.04100879508773e-07 3.31145047470223e-07 9.67888713504626e-08 2.1534354739524e-07 5.25430819876938e-07 1.15762774329522e-07
"466" 5755 7.12676474312366e-08 2.87486180029329e-08 3.01989737291324e-07 3.30252761446728e-07 9.68115025958395e-08 2.15989989592666e-07 5.2565990812182e-07 1.15931731961983e-07
"467" 5756 7.31620048025726e-08 2.85342790328398e-08 2.99878595073875e-07 3.29360475423234e-07 9.68341338412164e-08 2.16636431790092e-07 5.25888996366702e-07 1.16100689594445e-07
"468" 5757 7.50563621739087e-08 2.83199400627468e-08 2.97767452856426e-07 3.28468189399739e-07 9.68567650865934e-08 2.17282873987518e-07 5.26118084611584e-07 1.16269647226907e-07
"469" 5758 7.69507195452448e-08 2.81056010926538e-08 2.95656310638976e-07 3.27575903376244e-07 9.68793963319703e-08 2.17929316184944e-07 5.26347172856466e-07 1.16438604859368e-07
"470" 5759 7.88450769165809e-08 2.78912621225608e-08 2.93545168421527e-07 3.26683617352749e-07 9.69020275773472e-08 2.1857575838237e-07 5.26576261101348e-07 1.1660756249183e-07
"471" 5760 8.0739434287917e-08 2.76769231524678e-08 2.91434026204078e-07 3.25791331329255e-07 9.69246588227242e-08 2.19222200579797e-07 5.2680534934623e-07 1.16776520124291e-07
"472" 5761 8.26337916592531e-08 2.74625841823748e-08 2.89322883986629e-07 3.2489904530576e-07 9.69472900681011e-08 2.19868642777223e-07 5.27034437591113e-07 1.16945477756753e-07
"473" 5762 8.45281490305892e-08 2.72482452122817e-08 2.8721174176918e-07 3.24006759282265e-07 9.6969921313478e-08 2.20515084974649e-07 5.27263525835995e-07 1.17114435389215e-07
"474" 5763 8.64225064019253e-08 2.70339062421887e-08 2.85100599551731e-07 3.23114473258771e-07 9.6992552558855e-08 2.21161527172075e-07 5.27492614080877e-07 1.17283393021676e-07
"475" 5764 8.83168637732614e-08 2.68195672720957e-08 2.82989457334282e-07 3.22222187235276e-07 9.70151838042319e-08 2.21807969369501e-07 5.27721702325759e-07 1.17452350654138e-07
"476" 5765 9.02112211445975e-08 2.66052283020027e-08 2.80878315116833e-07 3.21329901211781e-07 9.70378150496089e-08 2.22454411566927e-07 5.27950790570641e-07 1.176213082866e-07
"477" 5766 9.21055785159336e-08 2.63908893319097e-08 2.78767172899384e-07 3.20437615188287e-07 9.70604462949858e-08 2.23100853764353e-07 5.28179878815523e-07 1.17790265919061e-07
"478" 5767 9.39999358872697e-08 2.61765503618167e-08 2.76656030681935e-07 3.19545329164792e-07 9.70830775403627e-08 2.2374729596178e-07 5.28408967060405e-07 1.17959223551523e-07
"479" 5768 9.63378576058663e-08 2.64398233009023e-08 2.77985584625543e-07 3.18942183462359e-07 9.7111080575244e-08 2.2550374343798e-07 5.29588480188666e-07 1.18223155162443e-07
"480" 5769 9.8675779324463e-08 2.67030962399879e-08 2.79315138569151e-07 3.18339037759927e-07 9.71390836101253e-08 2.2726019091418e-07 5.30767993316927e-07 1.18487086773362e-07
"481" 5770 1.0101171837531e-07 2.68586156034902e-08 2.80640664899311e-07 3.1791516585376e-07 9.69405182782658e-08 2.28916127350461e-07 5.3156265598011e-07 1.18126319754281e-07
"482" 5771 1.01612763605631e-07 2.67332128198057e-08 2.80614291325945e-07 3.17702841861153e-07 9.74489966510134e-08 2.29165566526244e-07 5.31320392279706e-07 1.17482794973002e-07
"483" 5772 1.01853136263899e-07 2.66462709177593e-08 2.80614291325945e-07 3.17620694972238e-07 9.75319778840622e-08 2.29043808148466e-07 5.32212283851374e-07 1.16888653865916e-07
"484" 5773 1.01870567933564e-07 2.65212989084991e-08 2.80566965570989e-07 3.17161615597019e-07 9.74757133198589e-08 2.29576557024451e-07 5.34611411215446e-07 1.16238996555973e-07
"485" 5774 1.01887999603229e-07 2.63963268992389e-08 2.80519639816034e-07 3.16702536221801e-07 9.74194487556556e-08 2.30109305900437e-07 5.37010538579517e-07 1.15589339246029e-07
"486" 5775 1.01905431272893e-07 2.62713548899787e-08 2.80472314061078e-07 3.16243456846583e-07 9.73631841914523e-08 2.30642054776422e-07 5.39409665943589e-07 1.14939681936086e-07
"487" 5776 1.01922862942558e-07 2.61463828807185e-08 2.80424988306122e-07 3.15784377471365e-07 9.7306919627249e-08 2.31174803652407e-07 5.41808793307661e-07 1.14290024626142e-07
"488" 5777 1.01940294612222e-07 2.60214108714583e-08 2.80377662551167e-07 3.15325298096146e-07 9.72506550630457e-08 2.31707552528392e-07 5.44207920671732e-07 1.13640367316199e-07
"489" 5778 1.01957726281887e-07 2.58964388621981e-08 2.80330336796211e-07 3.14866218720928e-07 9.71943904988424e-08 2.32240301404377e-07 5.46607048035804e-07 1.12990710006255e-07
"490" 5779 1.01975157951552e-07 2.57714668529379e-08 2.80283011041255e-07 3.1440713934571e-07 9.71381259346391e-08 2.32773050280363e-07 5.49006175399875e-07 1.12341052696312e-07
"491" 5780 1.01992589621216e-07 2.56464948436777e-08 2.802356852863e-07 3.13948059970492e-07 9.70818613704359e-08 2.33305799156348e-07 5.51405302763947e-07 1.11691395386369e-07
"492" 5781 1.02010021290881e-07 2.55215228344175e-08 2.80188359531344e-07 3.13488980595274e-07 9.70255968062325e-08 2.33838548032333e-07 5.53804430128018e-07 1.11041738076425e-07
"493" 5782 1.0125227620436e-07 2.52890137289463e-08 2.76992896182417e-07 3.12939774281264e-07 9.71994647409081e-08 2.33984409837674e-07 5.53352643536104e-07 1.09989944732975e-07
"494" 5783 1.0049453111784e-07 2.50565046234751e-08 2.7379743283349e-07 3.12390567967255e-07 9.73733326755837e-08 2.34130271643014e-07 5.5290085694419e-07 1.08938151389526e-07
"495" 5784 9.99245674073414e-08 2.48283823280193e-08 2.70680814616259e-07 3.12454615636734e-07 9.74395211195369e-08 2.33655583909793e-07 5.49836659723241e-07 1.07892244755977e-07
"496" 5785 9.93546036968433e-08 2.46002600325635e-08 2.67564196399029e-07 3.12518663306214e-07 9.750570956349e-08 2.33180896176571e-07 5.46772462502292e-07 1.06846338122428e-07
"497" 5786 9.87846399863451e-08 2.43721377371077e-08 2.64447578181798e-07 3.12582710975693e-07 9.75718980074432e-08 2.32706208443349e-07 5.43708265281343e-07 1.05800431488879e-07
"498" 5787 9.8214676275847e-08 2.41440154416519e-08 2.61330959964568e-07 3.12646758645172e-07 9.76380864513963e-08 2.32231520710128e-07 5.40644068060394e-07 1.04754524855331e-07
"499" 5788 9.76447125653489e-08 2.39158931461961e-08 2.58214341747337e-07 3.12710806314651e-07 9.77042748953495e-08 2.31756832976906e-07 5.37579870839445e-07 1.03708618221782e-07
"500" 5789 9.7820774070511e-08 2.38534581255857e-08 2.56705342530052e-07 3.12216289694788e-07 9.76459832323372e-08 2.31680382861319e-07 5.37366587574482e-07 1.034083830764e-07
"501" 5790 9.79968355756731e-08 2.37910231049754e-08 2.55196343312766e-07 3.11721773074924e-07 9.75876915693248e-08 2.31603932745732e-07 5.37153304309519e-07 1.03108147931019e-07
"502" 5791 9.81728970808352e-08 2.3728588084365e-08 2.53687344095481e-07 3.1122725645506e-07 9.75293999063125e-08 2.31527482630145e-07 5.36940021044556e-07 1.02807912785637e-07
"503" 5792 9.87447907706319e-08 2.39947286718478e-08 2.55018900969719e-07 3.12232495538837e-07 9.78120055686662e-08 2.31550682477243e-07 5.39093166200909e-07 1.02710578947042e-07
"504" 5793 9.93166844604287e-08 2.42608692593307e-08 2.56350457843957e-07 3.13237734622614e-07 9.80946112310199e-08 2.3157388232434e-07 5.41246311357261e-07 1.02613245108447e-07
"505" 5794 9.98885781502254e-08 2.45270098468135e-08 2.57682014718194e-07 3.14242973706391e-07 9.83772168933737e-08 2.31597082171438e-07 5.43399456513614e-07 1.02515911269852e-07
"506" 5795 1.00460471840022e-07 2.47931504342964e-08 2.59013571592432e-07 3.15248212790168e-07 9.86598225557274e-08 2.31620282018535e-07 5.45552601669967e-07 1.02418577431256e-07
"507" 5796 1.01032365529819e-07 2.50592910217792e-08 2.6034512846667e-07 3.16253451873945e-07 9.89424282180812e-08 2.31643481865633e-07 5.47705746826319e-07 1.02321243592661e-07
"508" 5797 1.01604259219616e-07 2.53254316092621e-08 2.61676685340908e-07 3.17258690957722e-07 9.92250338804349e-08 2.31666681712731e-07 5.49858891982672e-07 1.02223909754066e-07
"509" 5798 1.02176152909412e-07 2.55915721967449e-08 2.63008242215146e-07 3.18263930041499e-07 9.95076395427886e-08 2.31689881559828e-07 5.52012037139024e-07 1.0212657591547e-07
"510" 5799 1.02748046599209e-07 2.58577127842278e-08 2.64339799089383e-07 3.19269169125276e-07 9.97902452051424e-08 2.31713081406926e-07 5.54165182295377e-07 1.02029242076875e-07
"511" 5800 1.03319940289006e-07 2.61238533717106e-08 2.65671355963621e-07 3.20274408209053e-07 1.00072850867496e-07 2.31736281254023e-07 5.5631832745173e-07 1.0193190823828e-07
"512" 5801 1.03891833978803e-07 2.63899939591935e-08 2.67002912837859e-07 3.2127964729283e-07 1.0035545652985e-07 2.31759481101121e-07 5.58471472608082e-07 1.01834574399685e-07
"513" 5802 1.04463727668599e-07 2.66561345466763e-08 2.68334469712097e-07 3.22284886376607e-07 1.00638062192204e-07 2.31782680948219e-07 5.60624617764435e-07 1.01737240561089e-07
"514" 5803 1.05035621358396e-07 2.69222751341592e-08 2.69666026586334e-07 3.23290125460384e-07 1.00920667854557e-07 2.31805880795316e-07 5.62777762920788e-07 1.01639906722494e-07
"515" 5804 1.04654369842197e-07 2.70093744396447e-08 2.71370646241576e-07 3.25290164662312e-07 1.01081514444122e-07 2.3193561922297e-07 5.64109722322218e-07 1.01842562210516e-07
"516" 5805 1.04273118325997e-07 2.70964737451301e-08 2.73075265896817e-07 3.27290203864241e-07 1.01242361033686e-07 2.32065357650623e-07 5.65441681723648e-07 1.02045217698538e-07
"517" 5806 1.04668950510632e-07 2.7419631047627e-08 2.75992271284807e-07 3.29407835548137e-07 1.0147557886833e-07 2.32206493588152e-07 5.65921070345656e-07 1.02154971523994e-07
"518" 5807 1.04615434135677e-07 2.74107894489032e-08 2.76135772113029e-07 3.29871536920122e-07 1.01709639800936e-07 2.35427139327817e-07 5.63961858719777e-07 1.02362059188045e-07
"519" 5808 1.04561917760721e-07 2.74019478501794e-08 2.7627927294125e-07 3.30335238292106e-07 1.01943700733541e-07 2.38647785067482e-07 5.62002647093898e-07 1.02569146852097e-07
"520" 5809 1.04371380070441e-07 2.76246518400388e-08 2.78003000119654e-07 3.30642625936135e-07 1.01836021242819e-07 2.38771156019664e-07 5.59989218753667e-07 1.02475999370767e-07
"521" 5810 1.04180842380162e-07 2.78473558298983e-08 2.79726727298059e-07 3.30950013580164e-07 1.01728341752096e-07 2.38894526971846e-07 5.57975790413436e-07 1.02382851889437e-07
"522" 5811 1.03990304689882e-07 2.80700598197577e-08 2.81450454476463e-07 3.31257401224192e-07 1.01620662261374e-07 2.39017897924027e-07 5.55962362073205e-07 1.02289704408107e-07
"523" 5812 1.03799766999602e-07 2.82927638096172e-08 2.83174181654867e-07 3.31564788868221e-07 1.01512982770651e-07 2.39141268876209e-07 5.53948933732974e-07 1.02196556926778e-07
"524" 5813 1.03609229309322e-07 2.85154677994767e-08 2.84897908833272e-07 3.3187217651225e-07 1.01405303279929e-07 2.3926463982839e-07 5.51935505392743e-07 1.02103409445448e-07
"525" 5814 1.03418691619042e-07 2.87381717893361e-08 2.86621636011676e-07 3.32179564156278e-07 1.01297623789206e-07 2.39388010780572e-07 5.49922077052512e-07 1.02010261964118e-07
"526" 5815 1.03228153928762e-07 2.89608757791956e-08 2.8834536319008e-07 3.32486951800307e-07 1.01189944298484e-07 2.39511381732754e-07 5.47908648712281e-07 1.01917114482788e-07
"527" 5816 1.03037616238482e-07 2.9183579769055e-08 2.90069090368485e-07 3.32794339444335e-07 1.01082264807762e-07 2.39634752684935e-07 5.4589522037205e-07 1.01823967001458e-07
"528" 5817 1.02847078548202e-07 2.94062837589145e-08 2.91792817546889e-07 3.33101727088364e-07 1.00974585317039e-07 2.39758123637117e-07 5.43881792031819e-07 1.01730819520128e-07
"529" 5818 1.02656540857922e-07 2.9628987748774e-08 2.93516544725294e-07 3.33409114732393e-07 1.00866905826317e-07 2.39881494589298e-07 5.41868363691588e-07 1.01637672038799e-07
"530" 5819 1.02466003167642e-07 2.98516917386334e-08 2.95240271903698e-07 3.33716502376421e-07 1.00759226335594e-07 2.4000486554148e-07 5.39854935351357e-07 1.01544524557469e-07
"531" 5820 1.02275465477362e-07 3.00743957284929e-08 2.96963999082102e-07 3.3402389002045e-07 1.00651546844872e-07 2.40128236493662e-07 5.37841507011126e-07 1.01451377076139e-07
"532" 5821 1.02084927787082e-07 3.02970997183523e-08 2.98687726260507e-07 3.34331277664478e-07 1.00543867354149e-07 2.40251607445843e-07 5.35828078670895e-07 1.01358229594809e-07
"533" 5822 1.01894390096802e-07 3.05198037082118e-08 3.00411453438911e-07 3.34638665308507e-07 1.00436187863427e-07 2.40374978398025e-07 5.33814650330664e-07 1.01265082113479e-07
"534" 5823 1.01703852406522e-07 3.07425076980712e-08 3.02135180617315e-07 3.34946052952536e-07 1.00328508372705e-07 2.40498349350206e-07 5.31801221990433e-07 1.01171934632149e-07
"535" 5824 1.01513314716242e-07 3.09652116879307e-08 3.0385890779572e-07 3.35253440596564e-07 1.00220828881982e-07 2.40621720302388e-07 5.29787793650202e-07 1.01078787150819e-07
"536" 5825 1.01322777025962e-07 3.11879156777902e-08 3.05582634974124e-07 3.35560828240593e-07 1.0011314939126e-07 2.40745091254569e-07 5.27774365309971e-07 1.0098563966949e-07
"537" 5826 1.01132239335682e-07 3.14106196676496e-08 3.07306362152528e-07 3.35868215884622e-07 1.00005469900537e-07 2.40868462206751e-07 5.2576093696974e-07 1.0089249218816e-07
"538" 5827 1.00810728745866e-07 3.1567862128849e-08 3.08256200967899e-07 3.34547732521033e-07 1.00027882564961e-07 2.40973772926303e-07 5.25287550446003e-07 1.00346575526595e-07
"539" 5828 1.0048921815605e-07 3.17251045900483e-08 3.09206039783269e-07 3.33227249157445e-07 1.00050295229385e-07 2.41079083645854e-07 5.24814163922265e-07 9.98006588650309e-08
"540" 5829 1.00503370068903e-07 3.19255346363659e-08 3.10791076006579e-07 3.33283259422095e-07 1.00095608902733e-07 2.41189003918166e-07 5.24749165452944e-07 9.97510293720745e-08
"541" 5830 1.00923642811068e-07 3.19388531979579e-08 3.11677699593597e-07 3.36113028157192e-07 1.00177788672287e-07 2.42471989246815e-07 5.24934714801206e-07 9.98505341767516e-08
"542" 5831 1.01105287703482e-07 3.23139273572842e-08 3.14070233132014e-07 3.38102755803901e-07 1.00207661816236e-07 2.43941403120889e-07 5.25170602520528e-07 9.99896161086173e-08
"543" 5832 1.01286932595896e-07 3.26890015166105e-08 3.16462766670431e-07 3.4009248345061e-07 1.00237534960184e-07 2.45410816994963e-07 5.25406490239849e-07 1.00128698040483e-07
"544" 5833 1.0146857748831e-07 3.30640756759368e-08 3.18855300208847e-07 3.4208221109732e-07 1.00267408104132e-07 2.46880230869037e-07 5.2564237795917e-07 1.00267779972349e-07
"545" 5834 1.01650222380724e-07 3.34391498352631e-08 3.21247833747264e-07 3.44071938744029e-07 1.00297281248081e-07 2.48349644743111e-07 5.25878265678492e-07 1.00406861904215e-07
"546" 5835 1.01831867273138e-07 3.38142239945894e-08 3.23640367285681e-07 3.46061666390738e-07 1.00327154392029e-07 2.49819058617185e-07 5.26114153397813e-07 1.0054594383608e-07
"547" 5836 1.02013512165552e-07 3.41892981539157e-08 3.26032900824098e-07 3.48051394037448e-07 1.00357027535978e-07 2.51288472491259e-07 5.26350041117135e-07 1.00685025767946e-07
"548" 5837 1.02195157057966e-07 3.4564372313242e-08 3.28425434362514e-07 3.50041121684157e-07 1.00386900679926e-07 2.52757886365333e-07 5.26585928836456e-07 1.00824107699812e-07
"549" 5838 1.0237680195038e-07 3.49394464725683e-08 3.30817967900931e-07 3.52030849330867e-07 1.00416773823874e-07 2.54227300239407e-07 5.26821816555778e-07 1.00963189631678e-07
"550" 5839 1.02558446842794e-07 3.53145206318946e-08 3.33210501439348e-07 3.54020576977576e-07 1.00446646967823e-07 2.55696714113481e-07 5.27057704275099e-07 1.01102271563543e-07
"551" 5840 1.02740091735208e-07 3.56895947912209e-08 3.35603034977764e-07 3.56010304624285e-07 1.00476520111771e-07 2.57166127987554e-07 5.27293591994421e-07 1.01241353495409e-07
"552" 5841 1.02850689825252e-07 3.60453195470156e-08 3.36035300208847e-07 3.58040309671389e-07 1.0029650060182e-07 2.58525621589317e-07 5.27651158413476e-07 1.00566646293606e-07
"553" 5842 1.02780777975811e-07 3.60527668544272e-08 3.34917258542939e-07 3.57852095708949e-07 1.01134770140316e-07 2.58852226609613e-07 5.28088291079488e-07 1.00480537635259e-07
"554" 5843 1.0271086612637e-07 3.60602141618388e-08 3.33799216877031e-07 3.5766388174651e-07 1.01973039678812e-07 2.59178831629908e-07 5.28525423745501e-07 1.00394428976911e-07
"555" 5844 1.02640954276929e-07 3.60676614692505e-08 3.32681175211123e-07 3.5747566778407e-07 1.02811309217308e-07 2.59505436650204e-07 5.28962556411513e-07 1.00308320318564e-07
"556" 5845 1.02571042427488e-07 3.60751087766621e-08 3.31563133545214e-07 3.5728745382163e-07 1.03649578755805e-07 2.598320416705e-07 5.29399689077526e-07 1.00222211660216e-07
"557" 5846 1.02501130578048e-07 3.60825560840737e-08 3.30445091879306e-07 3.57099239859191e-07 1.04487848294301e-07 2.60158646690796e-07 5.29836821743538e-07 1.00136103001869e-07
"558" 5847 1.02392964529996e-07 3.6141862628595e-08 3.31428405311055e-07 3.56520241576861e-07 1.05311301820406e-07 2.59312186654755e-07 5.29953178595271e-07 1.00829032481421e-07
"559" 5848 1.02284798481944e-07 3.62011691731162e-08 3.32411718742804e-07 3.55941243294531e-07 1.06134755346511e-07 2.58465726618714e-07 5.30069535447004e-07 1.01521961960974e-07
"560" 5849 1.02176632433892e-07 3.62604757176375e-08 3.33395032174554e-07 3.55362245012201e-07 1.06958208872616e-07 2.57619266582673e-07 5.30185892298736e-07 1.02214891440526e-07
"561" 5850 1.02068466385841e-07 3.63197822621587e-08 3.34378345606303e-07 3.54783246729871e-07 1.07781662398721e-07 2.56772806546631e-07 5.30302249150469e-07 1.02907820920079e-07
"562" 5851 1.01960300337789e-07 3.637908880668e-08 3.35361659038052e-07 3.54204248447541e-07 1.08605115924826e-07 2.5592634651059e-07 5.30418606002202e-07 1.03600750399632e-07
"563" 5852 1.01852134289737e-07 3.64383953512012e-08 3.36344972469801e-07 3.53625250165211e-07 1.09428569450931e-07 2.55079886474549e-07 5.30534962853934e-07 1.04293679879184e-07
"564" 5853 1.01743968241686e-07 3.64977018957224e-08 3.3732828590155e-07 3.53046251882881e-07 1.10252022977036e-07 2.54233426438507e-07 5.30651319705667e-07 1.04986609358737e-07
"565" 5854 1.01635802193634e-07 3.65570084402437e-08 3.38311599333299e-07 3.52467253600551e-07 1.11075476503142e-07 2.53386966402466e-07 5.307676765574e-07 1.05679538838289e-07
"566" 5855 1.01527636145582e-07 3.66163149847649e-08 3.39294912765048e-07 3.51888255318221e-07 1.11898930029247e-07 2.52540506366425e-07 5.30884033409132e-07 1.06372468317842e-07
"567" 5856 1.0141947009753e-07 3.66756215292862e-08 3.40278226196797e-07 3.51309257035891e-07 1.12722383555352e-07 2.51694046330384e-07 5.31000390260865e-07 1.07065397797395e-07
"568" 5857 1.01311304049479e-07 3.67349280738074e-08 3.41261539628546e-07 3.50730258753561e-07 1.13545837081457e-07 2.50847586294342e-07 5.31116747112598e-07 1.07758327276947e-07
"569" 5858 1.0127008367639e-07 3.67733889554454e-08 3.43227783871952e-07 3.51111442622025e-07 1.13837451525771e-07 2.51112077529757e-07 5.34873952837502e-07 1.07923983499695e-07
"570" 5859 1.01228863303302e-07 3.68118498370834e-08 3.45194028115358e-07 3.51492626490489e-07 1.14129065970085e-07 2.51376568765173e-07 5.38631158562407e-07 1.08089639722443e-07
"571" 5860 1.01187642930213e-07 3.68503107187213e-08 3.47160272358765e-07 3.51873810358953e-07 1.14420680414399e-07 2.51641060000588e-07 5.42388364287312e-07 1.0825529594519e-07
"572" 5861 1.01160223853486e-07 3.68785357103233e-08 3.49085823808607e-07 3.52858051721373e-07 1.14948807061947e-07 2.53204103031696e-07 5.4646423368813e-07 1.08421886279243e-07
"573" 5862 1.01132804776758e-07 3.69067607019252e-08 3.5101137525845e-07 3.53842293083793e-07 1.15476933709495e-07 2.54767146062804e-07 5.50540103088947e-07 1.08588476613295e-07
"574" 5863 1.01179326263353e-07 3.69127117499853e-08 3.51962735452854e-07 3.54541241854865e-07 1.15543328604805e-07 2.56328073306738e-07 5.53632306472327e-07 1.08772972895813e-07
"575" 5864 1.01225847749949e-07 3.69186627980453e-08 3.52914095647259e-07 3.55240190625937e-07 1.15609723500115e-07 2.57889000550672e-07 5.56724509855707e-07 1.08957469178332e-07
"576" 5865 1.01275335411022e-07 3.69139242793784e-08 3.51907438749357e-07 3.54978957246214e-07 1.15147856435858e-07 2.58277267565617e-07 5.56662781595071e-07 1.0888609120323e-07
"577" 5866 1.01324823072095e-07 3.69091857607116e-08 3.50900781851456e-07 3.54717723866492e-07 1.14685989371601e-07 2.58665534580561e-07 5.56601053334435e-07 1.08814713228128e-07
"578" 5867 1.01374310733168e-07 3.69091857607116e-08 3.49964742934151e-07 3.54911359137968e-07 1.14221140197257e-07 2.58943850014604e-07 5.55688032634691e-07 1.08743335253026e-07
"579" 5868 1.0142379839424e-07 3.69091857607116e-08 3.49028704016846e-07 3.55104994409444e-07 1.13756291022914e-07 2.59222165448646e-07 5.54775011934948e-07 1.08671957277924e-07
"580" 5869 1.01473286055313e-07 3.69091857607116e-08 3.4809266509954e-07 3.5529862968092e-07 1.1329144184857e-07 2.59500480882689e-07 5.53861991235204e-07 1.08600579302822e-07
"581" 5870 1.01522773716386e-07 3.69091857607116e-08 3.47156626182235e-07 3.55492264952397e-07 1.12826592674227e-07 2.59778796316732e-07 5.5294897053546e-07 1.0852920132772e-07
"582" 5871 1.01572261377459e-07 3.69091857607116e-08 3.4622058726493e-07 3.55685900223873e-07 1.12361743499883e-07 2.60057111750774e-07 5.52035949835717e-07 1.08457823352617e-07
"583" 5872 1.01621749038532e-07 3.69091857607116e-08 3.45284548347625e-07 3.55879535495349e-07 1.1189689432554e-07 2.60335427184817e-07 5.51122929135973e-07 1.08386445377515e-07
"584" 5873 1.01671236699605e-07 3.69091857607116e-08 3.44348509430319e-07 3.56073170766825e-07 1.11432045151196e-07 2.60613742618859e-07 5.50209908436229e-07 1.08315067402413e-07
"585" 5874 1.01720724360678e-07 3.69091857607116e-08 3.43412470513014e-07 3.56266806038302e-07 1.10967195976853e-07 2.60892058052902e-07 5.49296887736486e-07 1.08243689427311e-07
"586" 5875 1.01770212021751e-07 3.69091857607116e-08 3.42476431595709e-07 3.56460441309778e-07 1.10502346802509e-07 2.61170373486945e-07 5.48383867036742e-07 1.08172311452209e-07
"587" 5876 1.01819699682824e-07 3.69091857607116e-08 3.41540392678403e-07 3.56654076581254e-07 1.10037497628166e-07 2.61448688920987e-07 5.47470846336998e-07 1.08100933477107e-07
"588" 5877 1.01869187343897e-07 3.69091857607116e-08 3.40604353761098e-07 3.5684771185273e-07 1.09572648453822e-07 2.6172700435503e-07 5.46557825637255e-07 1.08029555502005e-07
"589" 5878 1.0191867500497e-07 3.69091857607116e-08 3.39668314843793e-07 3.57041347124207e-07 1.09107799279479e-07 2.62005319789073e-07 5.45644804937511e-07 1.07958177526903e-07
"590" 5879 1.01968162666043e-07 3.69091857607116e-08 3.38732275926488e-07 3.57234982395683e-07 1.08642950105135e-07 2.62283635223115e-07 5.44731784237767e-07 1.07886799551801e-07
"591" 5880 1.02017650327116e-07 3.69091857607116e-08 3.37796237009182e-07 3.57428617667159e-07 1.08178100930792e-07 2.62561950657158e-07 5.43818763538024e-07 1.07815421576699e-07
"592" 5881 1.02067137988189e-07 3.69091857607116e-08 3.36860198091877e-07 3.57622252938635e-07 1.07713251756448e-07 2.62840266091201e-07 5.4290574283828e-07 1.07744043601597e-07
"593" 5882 1.02116625649262e-07 3.69091857607116e-08 3.35924159174572e-07 3.57815888210112e-07 1.07248402582105e-07 2.63118581525243e-07 5.41992722138536e-07 1.07672665626495e-07
"594" 5883 1.02166113310334e-07 3.69091857607116e-08 3.34988120257266e-07 3.58009523481588e-07 1.06783553407761e-07 2.63396896959286e-07 5.41079701438793e-07 1.07601287651393e-07
"595" 5884 1.02237160112705e-07 3.69310178427494e-08 3.34948620830651e-07 3.58230278726852e-07 1.06763655326157e-07 2.63481691724198e-07 5.39439672446906e-07 1.07600613267346e-07
"596" 5885 1.02308206915075e-07 3.69528499247871e-08 3.34909121404035e-07 3.58451033972117e-07 1.06743757244553e-07 2.63566486489111e-07 5.37799643455019e-07 1.075999388833e-07
"597" 5886 1.02381597691617e-07 3.69777085148746e-08 3.34155024893486e-07 3.55584540815493e-07 1.06140723951872e-07 2.62283874679219e-07 5.37753298981101e-07 1.07584056086973e-07
"598" 5887 1.03304044064074e-07 3.70469443172069e-08 3.34349793628583e-07 3.52347250125496e-07 1.05540672769278e-07 2.60902623791839e-07 5.37860084902827e-07 1.08119927498358e-07
"599" 5888 1.03483321947666e-07 3.70569422818176e-08 3.33608631661238e-07 3.49404345376751e-07 1.04997874108994e-07 2.59337963726674e-07 5.38823094167985e-07 1.08116162268102e-07
"600" 5889 1.03489830427627e-07 3.70497218127514e-08 3.32775690018994e-07 3.4610657234086e-07 1.04388887004757e-07 2.5777594951039e-07 5.38845919685479e-07 1.08112397037847e-07
"601" 5890 1.03496338907589e-07 3.70425013436852e-08 3.31942748376749e-07 3.42808799304969e-07 1.03779899900521e-07 2.56213935294106e-07 5.38868745202972e-07 1.08108631807592e-07
"602" 5891 1.0350284738755e-07 3.70352808746189e-08 3.31109806734504e-07 3.39511026269078e-07 1.03170912796284e-07 2.54651921077822e-07 5.38891570720466e-07 1.08104866577336e-07
"603" 5892 1.03509355867511e-07 3.70280604055527e-08 3.30276865092259e-07 3.36213253233188e-07 1.02561925692047e-07 2.53089906861537e-07 5.38914396237959e-07 1.08101101347081e-07
"604" 5893 1.03515864347473e-07 3.70208399364865e-08 3.29443923450015e-07 3.32915480197297e-07 1.0195293858781e-07 2.51527892645253e-07 5.38937221755453e-07 1.08097336116825e-07
"605" 5894 1.03522372827434e-07 3.70136194674203e-08 3.2861098180777e-07 3.29617707161406e-07 1.01343951483574e-07 2.49965878428969e-07 5.38960047272946e-07 1.0809357088657e-07
"606" 5895 1.03528881307396e-07 3.7006398998354e-08 3.27778040165525e-07 3.26319934125516e-07 1.00734964379337e-07 2.48403864212685e-07 5.3898287279044e-07 1.08089805656314e-07
"607" 5896 1.03535389787357e-07 3.69991785292878e-08 3.2694509852328e-07 3.23022161089625e-07 1.001259772751e-07 2.46841849996401e-07 5.39005698307934e-07 1.08086040426059e-07
"608" 5897 1.03526798227107e-07 3.69312350502283e-08 3.26746930712879e-07 3.23069471852201e-07 1.00113560490254e-07 2.46390787051573e-07 5.38216431180464e-07 1.08062226743609e-07
"609" 5898 1.03518206666857e-07 3.68632915711689e-08 3.26548762902478e-07 3.23116782614777e-07 1.00101143705408e-07 2.45939724106746e-07 5.37427164052994e-07 1.0803841306116e-07
"610" 5899 1.03509615106607e-07 3.67953480921094e-08 3.26350595092077e-07 3.23164093377353e-07 1.00088726920562e-07 2.45488661161918e-07 5.36637896925524e-07 1.0801459937871e-07
"611" 5900 1.03501023546357e-07 3.67274046130499e-08 3.26152427281676e-07 3.23211404139929e-07 1.00076310135716e-07 2.4503759821709e-07 5.35848629798054e-07 1.07990785696261e-07
"612" 5901 1.03929325717273e-07 3.66590303595661e-08 3.26033104602972e-07 3.23242207771196e-07 1.00107950163053e-07 2.44918669080079e-07 5.36723850770176e-07 1.08576792791992e-07
"613" 5902 1.0435762788819e-07 3.65906561060824e-08 3.25913781924267e-07 3.23273011402463e-07 1.0013959019039e-07 2.44799739943067e-07 5.37599071742297e-07 1.09162799887723e-07
"614" 5903 1.04785930059106e-07 3.65222818525987e-08 3.25794459245562e-07 3.23303815033729e-07 1.00171230217727e-07 2.44680810806056e-07 5.38474292714419e-07 1.09748806983454e-07
"615" 5904 1.05174693287068e-07 3.64764534574287e-08 3.25490243780575e-07 3.22370906040453e-07 9.96536693422118e-08 2.43510273008215e-07 5.40209941945687e-07 1.10321797334385e-07
"616" 5905 1.0556345651503e-07 3.64306250622587e-08 3.25186028315588e-07 3.21437997047176e-07 9.91361084666965e-08 2.42339735210373e-07 5.41945591176956e-07 1.10894787685316e-07
"617" 5906 1.05952219742992e-07 3.63847966670887e-08 3.24881812850601e-07 3.205050880539e-07 9.86185475911813e-08 2.41169197412532e-07 5.43681240408224e-07 1.11467778036247e-07
"618" 5907 1.06340982970954e-07 3.63389682719186e-08 3.24577597385614e-07 3.19572179060623e-07 9.8100986715666e-08 2.39998659614691e-07 5.45416889639492e-07 1.12040768387178e-07
"619" 5908 1.06729746198916e-07 3.62931398767486e-08 3.24273381920626e-07 3.18639270067347e-07 9.75834258401508e-08 2.3882812181685e-07 5.4715253887076e-07 1.12613758738109e-07
"620" 5909 1.06902001195135e-07 3.63960876830789e-08 3.25901103765649e-07 3.18480437528587e-07 9.72376025748237e-08 2.37639508132084e-07 5.4715253887076e-07 1.13114254256115e-07
"621" 5910 1.07074256191354e-07 3.64990354894091e-08 3.27528825610671e-07 3.18321604989828e-07 9.68917793094966e-08 2.36450894447318e-07 5.4715253887076e-07 1.13614749774122e-07
"622" 5911 1.07246511187572e-07 3.66019832957393e-08 3.29156547455694e-07 3.18162772451069e-07 9.65459560441696e-08 2.35262280762551e-07 5.4715253887076e-07 1.14115245292128e-07
"623" 5912 1.07418766183791e-07 3.67049311020695e-08 3.30784269300716e-07 3.18003939912309e-07 9.62001327788425e-08 2.34073667077785e-07 5.4715253887076e-07 1.14615740810135e-07
"624" 5913 1.0759102118001e-07 3.68078789083998e-08 3.32411991145739e-07 3.1784510737355e-07 9.58543095135154e-08 2.32885053393019e-07 5.4715253887076e-07 1.15116236328142e-07
"625" 5914 1.07763276176229e-07 3.691082671473e-08 3.34039712990761e-07 3.17686274834791e-07 9.55084862481884e-08 2.31696439708253e-07 5.4715253887076e-07 1.15616731846148e-07
"626" 5915 1.07935531172448e-07 3.70137745210602e-08 3.35667434835784e-07 3.17527442296032e-07 9.51626629828613e-08 2.30507826023487e-07 5.4715253887076e-07 1.16117227364155e-07
"627" 5916 1.08107786168666e-07 3.71167223273905e-08 3.37295156680806e-07 3.17368609757272e-07 9.48168397175343e-08 2.2931921233872e-07 5.4715253887076e-07 1.16617722882161e-07
"628" 5917 1.08280041164885e-07 3.72196701337207e-08 3.38922878525829e-07 3.17209777218513e-07 9.44710164522072e-08 2.28130598653954e-07 5.4715253887076e-07 1.17118218400168e-07
"629" 5918 1.08452296161104e-07 3.73226179400509e-08 3.40550600370851e-07 3.17050944679754e-07 9.41251931868801e-08 2.26941984969188e-07 5.4715253887076e-07 1.17618713918174e-07
"630" 5919 1.08624551157323e-07 3.74255657463811e-08 3.42178322215874e-07 3.16892112140995e-07 9.37793699215531e-08 2.25753371284422e-07 5.4715253887076e-07 1.18119209436181e-07
"631" 5920 1.08796806153542e-07 3.75285135527114e-08 3.43806044060896e-07 3.16733279602235e-07 9.3433546656226e-08 2.24564757599656e-07 5.4715253887076e-07 1.18619704954188e-07
"632" 5921 1.0896141771687e-07 3.75613640078608e-08 3.43109297423839e-07 3.17073622341935e-07 9.35014403923568e-08 2.22851795661435e-07 5.45253513507824e-07 1.19012947527912e-07
"633" 5922 1.09126029280197e-07 3.75942144630103e-08 3.42412550786782e-07 3.17413965081636e-07 9.35693341284876e-08 2.21138833723215e-07 5.43354488144887e-07 1.19406190101637e-07
"634" 5923 1.09316128286166e-07 3.77425598900862e-08 3.44402381046898e-07 3.18077649756809e-07 9.37185966225511e-08 2.19358504254915e-07 5.4092594051926e-07 1.19774775770842e-07
"635" 5924 1.09642586063422e-07 3.77426618581257e-08 3.44479026204078e-07 3.17955526026652e-07 9.36729394648481e-08 2.17400166886657e-07 5.40876256021149e-07 1.19683201852287e-07
"636" 5925 1.09969043840677e-07 3.77427638261651e-08 3.44555671361258e-07 3.17833402296495e-07 9.36272823071452e-08 2.15441829518399e-07 5.40826571523038e-07 1.19591627933733e-07
"637" 5926 1.09956151982731e-07 3.77560262242508e-08 3.44553867658836e-07 3.17754304553129e-07 9.3559285345336e-08 2.13661500050099e-07 5.38446359511593e-07 1.19750983112475e-07
"638" 5927 1.09943260124785e-07 3.77692886223366e-08 3.44552063956413e-07 3.17675206809764e-07 9.34912883835269e-08 2.11881170581799e-07 5.36066147500149e-07 1.19910338291217e-07
"639" 5928 1.09930368266838e-07 3.77825510204223e-08 3.4455026025399e-07 3.17596109066398e-07 9.34232914217177e-08 2.10100841113499e-07 5.33685935488704e-07 1.20069693469959e-07
"640" 5929 1.09917476408892e-07 3.7795813418508e-08 3.44548456551567e-07 3.17517011323033e-07 9.33552944599086e-08 2.08320511645199e-07 5.3130572347726e-07 1.202290486487e-07
"641" 5930 1.09904584550946e-07 3.78090758165938e-08 3.44546652849144e-07 3.17437913579667e-07 9.32872974980994e-08 2.06540182176899e-07 5.28925511465815e-07 1.20388403827442e-07
"642" 5931 1.09891692692999e-07 3.78223382146795e-08 3.44544849146722e-07 3.17358815836302e-07 9.32193005362903e-08 2.04759852708599e-07 5.26545299454371e-07 1.20547759006184e-07
"643" 5932 1.09878800835053e-07 3.78356006127653e-08 3.44543045444299e-07 3.17279718092936e-07 9.31513035744811e-08 2.02979523240299e-07 5.24165087442926e-07 1.20707114184926e-07
"644" 5933 1.09865908977106e-07 3.7848863010851e-08 3.44541241741876e-07 3.17200620349571e-07 9.3083306612672e-08 2.01199193771998e-07 5.21784875431482e-07 1.20866469363668e-07
"645" 5934 1.0985301711916e-07 3.78621254089368e-08 3.44539438039453e-07 3.17121522606205e-07 9.30153096508629e-08 1.99418864303698e-07 5.19404663420037e-07 1.2102582454241e-07
"646" 5935 1.09840125261214e-07 3.78753878070225e-08 3.44537634337031e-07 3.1704242486284e-07 9.29473126890537e-08 1.97638534835398e-07 5.17024451408593e-07 1.21185179721152e-07
"647" 5936 1.09827233403267e-07 3.78886502051082e-08 3.44535830634608e-07 3.16963327119474e-07 9.28793157272446e-08 1.95858205367098e-07 5.14644239397148e-07 1.21344534899894e-07
"648" 5937 1.09814341545321e-07 3.7901912603194e-08 3.44534026932185e-07 3.16884229376108e-07 9.28113187654354e-08 1.94077875898798e-07 5.12264027385704e-07 1.21503890078636e-07
"649" 5938 1.09801449687375e-07 3.79151750012797e-08 3.44532223229762e-07 3.16805131632743e-07 9.27433218036263e-08 1.92297546430498e-07 5.09883815374259e-07 1.21663245257378e-07
"650" 5939 1.09788557829428e-07 3.79284373993655e-08 3.44530419527339e-07 3.16726033889377e-07 9.26753248418171e-08 1.90517216962198e-07 5.07503603362815e-07 1.2182260043612e-07
"651" 5940 1.09775665971482e-07 3.79416997974512e-08 3.44528615824917e-07 3.16646936146012e-07 9.2607327880008e-08 1.88736887493898e-07 5.0512339135137e-07 1.21981955614862e-07
"652" 5941 1.09762774113535e-07 3.79549621955369e-08 3.44526812122494e-07 3.16567838402646e-07 9.25393309181988e-08 1.86956558025598e-07 5.02743179339926e-07 1.22141310793604e-07
"653" 5942 1.09749882255589e-07 3.79682245936227e-08 3.44525008420071e-07 3.16488740659281e-07 9.24713339563897e-08 1.85176228557298e-07 5.00362967328481e-07 1.22300665972346e-07
"654" 5943 1.09736990397643e-07 3.79814869917084e-08 3.44523204717648e-07 3.16409642915915e-07 9.24033369945805e-08 1.83395899088998e-07 4.97982755317037e-07 1.22460021151087e-07
"655" 5944 1.09553859935808e-07 3.79936159261739e-08 3.44358001302828e-07 3.16455414949004e-07 9.24033369945805e-08 1.83289986771252e-07 4.94518170296509e-07 1.22798189995731e-07
"656" 5945 1.09370729473973e-07 3.80057448606393e-08 3.44192797888007e-07 3.16501186982093e-07 9.24033369945805e-08 1.83184074453506e-07 4.91053585275981e-07 1.23136358840375e-07
"657" 5946 1.09868656256221e-07 3.80500090177647e-08 3.44142521753526e-07 3.16887040397659e-07 9.24107558396378e-08 1.82973054922043e-07 4.89101006388098e-07 1.23359217064754e-07
"658" 5947 1.10231836593368e-07 3.81538627212631e-08 3.45811027405454e-07 3.17489426717857e-07 9.3322839118501e-08 1.83659415298474e-07 4.86961861284699e-07 1.23611473906061e-07
"659" 5948 1.10277210782315e-07 3.83398754598215e-08 3.46431039055162e-07 3.18944553458073e-07 9.37313899213214e-08 1.84396802760476e-07 4.85718569828535e-07 1.2453858544043e-07
"660" 5949 1.10322584971262e-07 3.85258881983799e-08 3.4705105070487e-07 3.2039968019829e-07 9.41399407241418e-08 1.85134190222478e-07 4.84475278372371e-07 1.254656969748e-07
"661" 5950 1.10367959160209e-07 3.87119009369382e-08 3.47671062354578e-07 3.21854806938506e-07 9.45484915269623e-08 1.8587157768448e-07 4.83231986916207e-07 1.26392808509169e-07
"662" 5951 1.10413333349156e-07 3.88979136754966e-08 3.48291074004286e-07 3.23309933678723e-07 9.49570423297827e-08 1.86608965146482e-07 4.81988695460043e-07 1.27319920043538e-07
"663" 5952 1.10458707538103e-07 3.9083926414055e-08 3.48911085653994e-07 3.24765060418939e-07 9.53655931326031e-08 1.87346352608484e-07 4.8074540400388e-07 1.28247031577907e-07
"664" 5953 1.1050408172705e-07 3.92699391526134e-08 3.49531097303701e-07 3.26220187159156e-07 9.57741439354235e-08 1.88083740070486e-07 4.79502112547716e-07 1.29174143112276e-07
"665" 5954 1.10549455915997e-07 3.94559518911718e-08 3.50151108953409e-07 3.27675313899372e-07 9.61826947382439e-08 1.88821127532488e-07 4.78258821091552e-07 1.30101254646645e-07
"666" 5955 1.09742739230603e-07 3.91482677504949e-08 3.48299664571663e-07 3.26282591921967e-07 9.652359206361e-08 1.89836262323248e-07 4.76569892517168e-07 1.29946022430239e-07
"667" 5956 1.0893602254521e-07 3.88405836098181e-08 3.46448220189917e-07 3.24889869944561e-07 9.68644893889761e-08 1.90851397114008e-07 4.74880963942785e-07 1.29790790213832e-07
"668" 5957 1.08129305859817e-07 3.85328994691413e-08 3.4459677580817e-07 3.23497147967156e-07 9.72053867143422e-08 1.91866531904769e-07 4.73192035368401e-07 1.29635557997425e-07
"669" 5958 1.07322589174423e-07 3.82252153284644e-08 3.42745331426424e-07 3.2210442598975e-07 9.75462840397083e-08 1.92881666695529e-07 4.71503106794018e-07 1.29480325781019e-07
"670" 5959 1.0651587248903e-07 3.79175311877876e-08 3.40893887044678e-07 3.20711704012345e-07 9.78871813650743e-08 1.93896801486289e-07 4.69814178219634e-07 1.29325093564612e-07
"671" 5960 1.05668841559387e-07 3.74270876549475e-08 3.38249447959908e-07 3.17965958116633e-07 9.79140828075531e-08 1.96357705248781e-07 4.65873458453025e-07 1.28449444490549e-07
"672" 5961 1.04821810629743e-07 3.69366441221074e-08 3.35605008875138e-07 3.15220212220921e-07 9.79409842500318e-08 1.98818609011273e-07 4.61932738686417e-07 1.27573795416486e-07
"673" 5962 1.04849915285158e-07 3.68965510237319e-08 3.35241133162958e-07 3.14669231593524e-07 9.78737150309097e-08 2.01372059418102e-07 4.61127409094008e-07 1.27719361138875e-07
