time,channel1,channel2,channel3,channel4,channel5,channel6,channel7,channel8,class
26833,1.3090197216738438e-8,9.389274085343838e-10,1.0157964679662724e-9,3.6776579669385038e-9,2.4433281159559264e-8,4.717908684515514e-9,9.3675453478066e-9,2.7279166225727172e-8,0
26834,1.3087572878208094e-8,9.40636246783078e-10,1.0176942539258318e-9,3.6920932722637924e-9,2.4545024952347995e-8,4.732254220941591e-9,9.373137611581711e-9,2.7341296925987504e-8,0
26835,1.3066325906589945e-8,9.387148296373108e-10,1.0174934906218626e-9,3.687091473554866e-9,2.4533593601961718e-8,4.732254220941591e-9,9.372822772751214e-9,2.73496839430101e-8,0
26836,1.3045078934971794e-8,9.367934124915436e-10,1.0172927273178934e-9,3.682089674845939e-9,2.452216225157544e-8,4.732254220941591e-9,9.372507933920714e-9,2.7358070960032696e-8,0
26837,1.3023831963353645e-8,9.348719953457764e-10,1.0170919640139242e-9,3.677087876137012e-9,2.451073090118916e-8,4.732254220941591e-9,9.372193095090216e-9,2.7366457977055292e-8,0
26838,1.3002584991735495e-8,9.329505782000091e-10,1.016891200709955e-9,3.6720860774280856e-9,2.4499299550802883e-8,4.732254220941591e-9,9.371878256259717e-9,2.737484499407789e-8,0
26839,1.2981338020117346e-8,9.310291610542419e-10,1.0166904374059858e-9,3.667084278719159e-9,2.4487868200416603e-8,4.732254220941591e-9,9.371563417429218e-9,2.7383232011100485e-8,0
26840,1.2960091048499197e-8,9.291077439084747e-10,1.0164896741020164e-9,3.662082480010232e-9,2.4476436850030326e-8,4.732254220941591e-9,9.37124857859872e-9,2.739161902812308e-8,0
26841,1.2938844076881047e-8,9.271863267627075e-10,1.0162889107980472e-9,3.6570806813013053e-9,2.446500549964405e-8,4.732254220941591e-9,9.37093373976822e-9,2.7400006045145677e-8,0
26842,1.2941061596305993e-8,9.273989056597806e-10,1.0153886310729019e-9,3.6283402549850834e-9,2.4213246650995412e-8,4.707820425643549e-9,9.366681865742983e-9,2.740818957859463e-8,0
26843,1.2951727274052854e-8,9.265403829993791e-10,1.0210819889515801e-9,3.6345268144102072e-9,2.4225723917313143e-8,4.70800809649314e-9,9.367548447433608e-9,2.7458737259555482e-8,0
26844,1.2962392951799716e-8,9.256818603389775e-10,1.0267753468302582e-9,3.640713373835331e-9,2.4238201183630876e-8,4.708195767342729e-9,9.368415029124232e-9,2.7509284940516334e-8,0
26845,1.2973058629546577e-8,9.248233376785759e-10,1.0324687047089364e-9,3.6468999332604546e-9,2.4250678449948606e-8,4.70838343819232e-9,9.369281610814855e-9,2.7559832621477185e-8,0
26846,1.2983724307293439e-8,9.239648150181744e-10,1.0381620625876147e-9,3.6530864926855785e-9,2.426315571626634e-8,4.7085711090419096e-9,9.370148192505479e-9,2.7610380302438036e-8,0
26847,1.2994389985040302e-8,9.231062923577729e-10,1.043855420466293e-9,3.6592730521107024e-9,2.427563298258407e-8,4.7087587798915e-9,9.371014774196102e-9,2.7660927983398888e-8,0
26848,1.2984629879516045e-8,9.231062923577729e-10,1.0487520354145263e-9,3.6646107208506954e-9,2.4288110248901804e-8,4.708635368473473e-9,9.323920022206974e-9,2.7732133003647316e-8,0
26849,1.2974869773991787e-8,9.231062923577729e-10,1.0536486503627598e-9,3.669948389590689e-9,2.4300587515219534e-8,4.708511957055447e-9,9.276825270217847e-9,2.7803338023895745e-8,0
26850,1.2979519769661561e-8,9.230326970347122e-10,1.0554555200984828e-9,3.6763507385713094e-9,2.4281087733951424e-8,4.696048236570373e-9,9.27769185190847e-9,2.7870349535632877e-8,0
26851,1.2984169765331337e-8,9.229591017116515e-10,1.0572623898342057e-9,3.68275308755193e-9,2.426158795268331e-8,4.683584516085299e-9,9.278558433599094e-9,2.7937361047370006e-8,0
26852,1.2988819761001111e-8,9.228855063885908e-10,1.059069259569929e-9,3.6891554365325508e-9,2.42420881714152e-8,4.671120795600224e-9,9.279425015289717e-9,2.800437255910714e-8,0
26853,1.2993469756670887e-8,9.228119110655301e-10,1.0608761293056519e-9,3.6955577855131712e-9,2.4222588390147087e-8,4.658657075115151e-9,9.28029159698034e-9,2.807138407084427e-8,0
26854,1.299811975234066e-8,9.227383157424694e-10,1.0626829990413748e-9,3.7019601344937917e-9,2.4203088608878973e-8,4.646193354630077e-9,9.281158178670964e-9,2.81383955825814e-8,0
26855,1.3002769748010436e-8,9.226647204194086e-10,1.0644898687770978e-9,3.708362483474412e-9,2.4183588827610863e-8,4.6337296341450026e-9,9.282024760361587e-9,2.8205407094318532e-8,0
26856,1.300741974368021e-8,9.22591125096348e-10,1.066296738512821e-9,3.7147648324550327e-9,2.416408904634275e-8,4.621265913659928e-9,9.282891342052211e-9,2.827241860605566e-8,0
26857,1.3012069739349986e-8,9.225175297732873e-10,1.068103608248544e-9,3.7211671814356536e-9,2.414458926507464e-8,4.608802193174854e-9,9.283757923742834e-9,2.8339430117792794e-8,0
26858,1.3088079625587198e-8,9.286497578258924e-10,1.063919130292351e-9,3.723512331472405e-9,2.418401385586836e-8,4.602076687260211e-9,9.414172490990492e-9,2.8365970752700034e-8,0
26859,1.316408951182441e-8,9.347819858784977e-10,1.059734652336158e-9,3.7258574815091564e-9,2.4223438446662078e-8,4.595351181345568e-9,9.544587058238148e-9,2.8392511387607274e-8,0
26860,1.315765946050569e-8,9.347819858784977e-10,1.055550174379965e-9,3.782471012241542e-9,2.4534441437848405e-8,4.59816624408942e-9,9.544901897068648e-9,2.8470031560164897e-8,0
26861,1.3151229409186969e-8,9.347819858784977e-10,1.0513656964237722e-9,3.839084542973927e-9,2.484544442903473e-8,4.600981306833273e-9,9.545216735899146e-9,2.854755173272252e-8,0
26862,1.3144799357868249e-8,9.347819858784977e-10,1.0471812184675792e-9,3.8956980737063126e-9,2.5156447420221056e-8,4.603796369577126e-9,9.545531574729645e-9,2.8625071905280143e-8,0
26863,1.3138369306549529e-8,9.347819858784977e-10,1.0429967405113864e-9,3.952311604438698e-9,2.5467450411407383e-8,4.606611432320979e-9,9.545846413560143e-9,2.870259207783777e-8,0
26864,1.3131939255230808e-8,9.347819858784977e-10,1.0388122625551934e-9,4.008925135171083e-9,2.577845340259371e-8,4.609426495064832e-9,9.546161252390642e-9,2.8780112250395393e-8,0
26865,1.3125509203912088e-8,9.347819858784977e-10,1.0346277845990006e-9,4.065538665903469e-9,2.6089456393780035e-8,4.612241557808684e-9,9.546476091221142e-9,2.8857632422953016e-8,0
26866,1.311907915259337e-8,9.347819858784977e-10,1.0304433066428075e-9,4.122152196635854e-9,2.6400459384966362e-8,4.615056620552537e-9,9.54679093005164e-9,2.893515259551064e-8,0
26867,1.311264910127465e-8,9.347819858784977e-10,1.0262588286866147e-9,4.1787657273682395e-9,2.671146237615269e-8,4.6178716832963895e-9,9.547105768882139e-9,2.9012672768068262e-8,0
26868,1.3106219049955929e-8,9.347819858784977e-10,1.0220743507304217e-9,4.235379258100625e-9,2.7022465367339013e-8,4.6206867460402425e-9,9.547420607712636e-9,2.9090192940625885e-8,0
26869,1.3099788998637209e-8,9.347819858784977e-10,1.0178898727742289e-9,4.29199278883301e-9,2.733346835852534e-8,4.6235018087840946e-9,9.547735446543136e-9,2.916771311318351e-8,0
26870,1.3093358947318489e-8,9.347819858784977e-10,1.0137053948180358e-9,4.348606319565396e-9,2.7644471349711668e-8,4.6263168715279475e-9,9.548050285373634e-9,2.924523328574113e-8,0
26871,1.3053021234165929e-8,9.350681600986314e-10,1.0137053948180358e-9,4.4010954773476985e-9,2.7980380463836418e-8,4.641595654756875e-9,9.532928722628671e-9,2.9228213761236868e-8,0
26872,1.301268352101337e-8,9.353543343187653e-10,1.0137053948180358e-9,4.453584635130001e-9,2.831628957796117e-8,4.656874437985801e-9,9.517807159883708e-9,2.9211194236732608e-8,0
26873,1.297234580786081e-8,9.356405085388993e-10,1.0137053948180358e-9,4.506073792912304e-9,2.865219869208592e-8,4.672153221214728e-9,9.502685597138746e-9,2.9194174712228344e-8,0
26874,1.2932008094708252e-8,9.35926682759033e-10,1.0137053948180358e-9,4.558562950694608e-9,2.898810780621067e-8,4.687432004443655e-9,9.487564034393781e-9,2.917715518772408e-8,0
26875,1.2891670381555692e-8,9.36212856979167e-10,1.0137053948180358e-9,4.6110521084769105e-9,2.932401692033542e-8,4.7027107876725815e-9,9.472442471648819e-9,2.9160135663219817e-8,0
26876,1.2851332668403132e-8,9.364990311993007e-10,1.0137053948180358e-9,4.663541266259213e-9,2.965992603446017e-8,4.717989570901509e-9,9.457320908903856e-9,2.9143116138715554e-8,0
26877,1.2810994955250573e-8,9.367852054194346e-10,1.0137053948180358e-9,4.716030424041516e-9,2.999583514858492e-8,4.733268354130435e-9,9.442199346158893e-9,2.912609661421129e-8,0
26878,1.2770657242098013e-8,9.370713796395683e-10,1.0137053948180358e-9,4.768519581823819e-9,3.033174426270967e-8,4.748547137359362e-9,9.42707778341393e-9,2.9109077089707027e-8,0
26879,1.2730319528945453e-8,9.373575538597023e-10,1.0137053948180358e-9,4.821008739606122e-9,3.066765337683442e-8,4.7638259205882885e-9,9.411956220668967e-9,2.9092057565202763e-8,0
26880,1.2694056224606124e-8,9.414947694434795e-10,1.0140033846312736e-9,4.81716733021775e-9,3.0659222983538945e-8,4.779104703817216e-9,9.417308480787445e-9,2.9104367710735342e-8,0
26881,1.2668427953343053e-8,9.417073483405527e-10,1.0149036643564191e-9,4.8222220353960326e-9,3.0684129106477365e-8,4.79156842430229e-9,9.402186918042482e-9,2.9012123273594297e-8,0
26882,1.2627729610153831e-8,9.419935225606864e-10,1.018699236275538e-9,4.826873696537036e-9,3.068014751992727e-8,4.79250167110514e-9,9.459933200525647e-9,2.8993272396927253e-8,0
26883,1.2587031266964609e-8,9.422796967808204e-10,1.0224948081946566e-9,4.831525357678039e-9,3.067616593337717e-8,4.79343491790799e-9,9.517679483008814e-9,2.8974421520260206e-8,0
26884,1.2546332923775387e-8,9.425658710009543e-10,1.0262903801137754e-9,4.836177018819043e-9,3.0672184346827074e-8,4.794368164710841e-9,9.575425765491978e-9,2.8955570643593163e-8,0
26885,1.2505634580586164e-8,9.42852045221088e-10,1.0300859520328942e-9,4.840828679960046e-9,3.066820276027697e-8,4.795301411513691e-9,9.633172047975145e-9,2.893671976692612e-8,0
26886,1.2505273950549502e-8,9.420671178837471e-10,1.0274040437137545e-9,4.84725956401438e-9,3.0669433876609026e-8,4.796111246898515e-9,9.693677044758935e-9,2.900023502893435e-8,0
26887,1.2504913320512839e-8,9.412821905464065e-10,1.0247221353946146e-9,4.853690448068714e-9,3.0670664992941085e-8,4.7969210822833385e-9,9.754182041542725e-9,2.9063750290942584e-8,0
26888,1.2504552690476176e-8,9.404972632090656e-10,1.0220402270754747e-9,4.860121332123049e-9,3.067189610927314e-8,4.797730917668162e-9,9.814687038326515e-9,2.9127265552950816e-8,0
26889,1.2504192060439515e-8,9.397123358717247e-10,1.019358318756335e-9,4.866552216177383e-9,3.067312722560519e-8,4.798540753052986e-9,9.875192035110306e-9,2.919078081495905e-8,0
26890,1.2503831430402853e-8,9.389274085343838e-10,1.0166764104371951e-9,4.872983100231718e-9,3.067435834193725e-8,4.79935058843781e-9,9.935697031894096e-9,2.9254296076967283e-8,0
26891,1.250347080036619e-8,9.381424811970432e-10,1.0139945021180554e-9,4.879413984286051e-9,3.06755894582693e-8,4.8001604238226335e-9,9.996202028677886e-9,2.9317811338975516e-8,0
26892,1.24813107063892e-8,9.272517150136592e-10,1.0024133333421618e-9,4.866379229232457e-9,3.052483766455679e-8,4.6867455804768576e-9,9.96220578227993e-9,2.9262764924142902e-8,0
26893,1.245915061241221e-8,9.163609488302752e-10,9.908321645662685e-10,4.853344474178862e-9,3.0374085870844276e-8,4.5733307371310816e-9,9.928209535881974e-9,2.920771850931029e-8,0
26894,1.243699051843522e-8,9.054701826468913e-10,9.79250995790375e-10,4.840309719125267e-9,3.0223334077131766e-8,4.459915893785305e-9,9.894213289484017e-9,2.9152672094477675e-8,0
26895,1.241483042445823e-8,8.945794164635074e-10,9.676698270144815e-10,4.827274964071672e-9,3.007258228341925e-8,4.346501050439529e-9,9.860217043086061e-9,2.9097625679645065e-8,0
26896,1.239267033048124e-8,8.836886502801234e-10,9.560886582385881e-10,4.8142402090180775e-9,2.992183048970674e-8,4.233086207093753e-9,9.826220796688105e-9,2.9042579264812452e-8,0
26897,1.2370510236504251e-8,8.727978840967396e-10,9.445074894626946e-10,4.801205453964483e-9,2.9771078695994225e-8,4.119671363747976e-9,9.79222455029015e-9,2.898753284997984e-8,0
26898,1.2348350142527261e-8,8.619071179133556e-10,9.329263206868012e-10,4.788170698910888e-9,2.962032690228171e-8,4.0062565204022e-9,9.758228303892195e-9,2.8932486435147225e-8,0
26899,1.2326190048550271e-8,8.510163517299716e-10,9.213451519109077e-10,4.775135943857293e-9,2.9469575108569198e-8,3.892841677056424e-9,9.724232057494238e-9,2.8877440020314612e-8,0
26900,1.230402995457328e-8,8.401255855465878e-10,9.097639831350143e-10,4.762101188803698e-9,2.9318823314856688e-8,3.779426833710647e-9,9.690235811096282e-9,2.8822393605482002e-8,0
26901,1.228186986059629e-8,8.283762967028023e-10,8.999833738094117e-10,4.8234335546833e-9,3.027449735326911e-8,3.758602614205981e-9,9.655977715610746e-9,2.876734719064939e-8,0
26902,1.22597097666193e-8,8.166270078590168e-10,8.902027644838091e-10,4.884765920562902e-9,3.123017139168154e-8,3.737778394701314e-9,9.621719620125208e-9,2.8712300775816775e-8,0
26903,1.2237549672642312e-8,8.048777190152313e-10,8.804221551582065e-10,4.946098286442504e-9,3.218584543009397e-8,3.7169541751966475e-9,9.587461524639672e-9,2.8657254360984162e-8,0
26904,1.2215389578665322e-8,7.931284301714459e-10,8.70641545832604e-10,5.007430652322106e-9,3.31415194685064e-8,3.696129955691981e-9,9.553203429154136e-9,2.860220794615155e-8,0
26905,1.2193229484688332e-8,7.813791413276604e-10,8.608609365070014e-10,5.068763018201708e-9,3.409719350691883e-8,3.6753057361873143e-9,9.518945333668598e-9,2.8547161531318938e-8,0
26906,1.2171069390711342e-8,7.69629852483875e-10,8.510803271813988e-10,5.1300953840813095e-9,3.5052867545331257e-8,3.6544815166826477e-9,9.484687238183062e-9,2.8492115116486325e-8,0
26907,1.2174315061041305e-8,7.698424313809481e-10,8.507886476535932e-10,5.234709294541135e-9,3.6247812507058725e-8,3.736544280521048e-9,9.374204049819747e-9,2.845589468877851e-8,0
26908,1.2177560731371269e-8,7.700550102780212e-10,8.504969681257876e-10,5.339323205000961e-9,3.74427574687862e-8,3.8186070443594486e-9,9.26372086145643e-9,2.8419674261070693e-8,0
26909,1.2184351412726651e-8,7.702675891750944e-10,8.516952376641707e-10,5.430106376191417e-9,3.866055669289867e-8,3.916812471352962e-9,9.264403528860347e-9,2.8419974508522706e-8,0
26910,1.2191142094082033e-8,7.704801680721675e-10,8.52893507202554e-10,5.520889547381874e-9,3.987835591701114e-8,4.015017898346476e-9,9.265086196264262e-9,2.8420274755974722e-8,0
26911,1.2197932775437416e-8,7.706927469692406e-10,8.540917767409372e-10,5.6116727185723306e-9,4.109615514112361e-8,4.113223325339989e-9,9.265768863668177e-9,2.8420575003426735e-8,0
26912,1.2204723456792798e-8,7.709053258663138e-10,8.552900462793204e-10,5.702455889762787e-9,4.2313954365236083e-8,4.211428752333503e-9,9.266451531072092e-9,2.8420875250878748e-8,0
26913,1.2211514138148181e-8,7.711179047633869e-10,8.564883158177035e-10,5.793239060953244e-9,4.353175358934855e-8,4.309634179327016e-9,9.267134198476008e-9,2.8421175498330764e-8,0
26914,1.2218304819503564e-8,7.7133048366046e-10,8.576865853560867e-10,5.8840222321437005e-9,4.4749552813461025e-8,4.40783960632053e-9,9.267816865879923e-9,2.8421475745782777e-8,0
26915,1.2225095500858947e-8,7.715430625575333e-10,8.588848548944699e-10,5.974805403334157e-9,4.596735203757349e-8,4.5060450333140434e-9,9.268499533283838e-9,2.842177599323479e-8,0
26916,1.2226315514049478e-8,7.726141641150079e-10,8.644620554075831e-10,6.1783394777651765e-9,4.6239189363226414e-8,4.5486807636675895e-9,9.293907897576431e-9,2.842177599323479e-8,0
26917,1.2227535527240012e-8,7.736852656724826e-10,8.700392559206963e-10,6.381873552196196e-9,4.6511026688879336e-8,4.5913164940211356e-9,9.319316261869024e-9,2.842177599323479e-8,0
26918,1.2310336094832606e-8,7.899397467153488e-10,8.945627646022426e-10,6.739968186492024e-9,4.7643238456876974e-8,4.691990149375182e-9,9.321573123425433e-9,2.8425562534598805e-8,0
26919,1.2393136662425201e-8,8.061942277582151e-10,9.19086273283789e-10,7.0980628207878514e-9,4.877545022487461e-8,4.792663804729228e-9,9.323829984981841e-9,2.842934907596282e-8,0
26920,1.2475937230017796e-8,8.224487088010813e-10,9.436097819653353e-10,7.456157455083679e-9,4.990766199287225e-8,4.893337460083273e-9,9.32608684653825e-9,2.843313561732683e-8,0
26921,1.255873779761039e-8,8.387031898439477e-10,9.681332906468817e-10,7.814252089379506e-9,5.1039873760869886e-8,4.9940111154373195e-9,9.328343708094658e-9,2.8436922158690845e-8,0
26922,1.2641538365202985e-8,8.549576708868139e-10,9.92656799328428e-10,8.172346723675335e-9,5.217208552886752e-8,5.094684770791366e-9,9.330600569651069e-9,2.844070870005486e-8,0
26923,1.272433893279558e-8,8.712121519296801e-10,1.0171803080099744e-9,8.530441357971163e-9,5.330429729686516e-8,5.195358426145411e-9,9.332857431207477e-9,2.844449524141887e-8,0
26924,1.2807139500388174e-8,8.874666329725464e-10,1.0417038166915208e-9,8.88853599226699e-9,5.44365090648628e-8,5.296032081499457e-9,9.335114292763886e-9,2.8448281782782886e-8,0
26925,1.2889940067980769e-8,9.037211140154127e-10,1.066227325373067e-9,9.246630626562817e-9,5.556872083286043e-8,5.396705736853503e-9,9.337371154320294e-9,2.84520683241469e-8,0
26926,1.2972740635573364e-8,9.19975595058279e-10,1.0907508340546135e-9,9.604725260858645e-9,5.6700932600858065e-8,5.497379392207549e-9,9.339628015876703e-9,2.8455854865510915e-8,0
26927,1.3055541203165958e-8,9.362300761011453e-10,1.11527434273616e-9,9.962819895154472e-9,5.78331443688557e-8,5.598053047561595e-9,9.341884877433112e-9,2.8459641406874926e-8,0
26928,1.3138341770758553e-8,9.524845571440115e-10,1.1397978514177062e-9,1.03209145294503e-8,5.896535613685334e-8,5.6987267029156404e-9,9.34414173898952e-9,2.846342794823894e-8,0
26929,1.3221142338351148e-8,9.687390381868778e-10,1.1643213600992526e-9,1.0679009163746128e-8,6.009756790485098e-8,5.799400358269687e-9,9.346398600545929e-9,2.8467214489602955e-8,0
26930,1.328474468599939e-8,9.811506849382095e-10,1.1897451485059444e-9,1.1056718052699168e-8,6.123982002166491e-8,5.891777774035703e-9,9.346791374177301e-9,2.8441386047203462e-8,0
26931,1.3348347033647634e-8,9.935623316895415e-10,1.2151689369126361e-9,1.1434426941652209e-8,6.238207213847884e-8,5.984155189801721e-9,9.347184147808672e-9,2.841555760480397e-8,0
26932,1.3430372601961933e-8,1.0087457111749331e-9,1.2396924455941826e-9,1.1812418794166959e-8,6.355900336339962e-8,6.084952256573793e-9,9.347184147808672e-9,2.8418448381720388e-8,0
26933,1.3512398170276233e-8,1.0239290906603247e-9,1.2642159542757288e-9,1.219041064668171e-8,6.47359345883204e-8,6.185749323345865e-9,9.347184147808672e-9,2.842133915863681e-8,0
26934,1.359442373859053e-8,1.0391124701457161e-9,1.2887394629572752e-9,1.256840249919646e-8,6.591286581324118e-8,6.2865463901179376e-9,9.347184147808672e-9,2.842422993555323e-8,0
26935,1.367644930690483e-8,1.0542958496311077e-9,1.3132629716388215e-9,1.294639435171121e-8,6.708979703816196e-8,6.387343456890011e-9,9.347184147808672e-9,2.8427120712469653e-8,0
26936,1.3758474875219129e-8,1.0694792291164993e-9,1.337786480320368e-9,1.3324386204225961e-8,6.826672826308273e-8,6.488140523662083e-9,9.347184147808672e-9,2.843001148938607e-8,0
26937,1.3840500443533428e-8,1.084662608601891e-9,1.3623099890019143e-9,1.3702378056740711e-8,6.944365948800352e-8,6.588937590434155e-9,9.347184147808672e-9,2.8432902266302492e-8,0
26938,1.3840500443533428e-8,1.0874343413359508e-9,1.3623099890019143e-9,1.3718069460466482e-8,6.954868810079923e-8,6.588749919584565e-9,9.345609953656178e-9,2.84340982782021e-8,0
26939,1.3840500443533428e-8,1.0865758186755492e-9,1.3652052811958876e-9,1.3839506628898918e-8,6.968704479144127e-8,6.588873331002592e-9,9.441610555816554e-9,2.8644403455448952e-8,0
26940,1.3840500443533428e-8,1.0857172960151478e-9,1.368100573389861e-9,1.3960943797331354e-8,6.982540148208333e-8,6.588996742420619e-9,9.53761115797693e-9,2.8854708632695802e-8,0
26941,1.3840500443533428e-8,1.0848587733547462e-9,1.3709958655838344e-9,1.4082380965763791e-8,6.996375817272537e-8,6.589120153838645e-9,9.633611760137303e-9,2.9065013809942652e-8,0
26942,1.3840500443533428e-8,1.0840002506943446e-9,1.3738911577778077e-9,1.4203818134196226e-8,7.010211486336743e-8,6.589243565256672e-9,9.729612362297679e-9,2.9275318987189502e-8,0
26943,1.3838697293350115e-8,1.0839266553712838e-9,1.3776867296969265e-9,1.4324190622388036e-8,7.023162235021575e-8,6.587125141369817e-9,9.825612964458055e-9,2.9451220155165968e-8,0
26944,1.3836894143166802e-8,1.0838530600482233e-9,1.3814823016160454e-9,1.4444563110579845e-8,7.036112983706408e-8,6.585006717482962e-9,9.92161356661843e-9,2.9627121323142434e-8,0
26945,1.3835090992983489e-8,1.0837794647251626e-9,1.3852778735351642e-9,1.4564935598771654e-8,7.049063732391241e-8,6.5828882935961076e-9,1.0017614168778806e-8,2.98030224911189e-8,0
26946,1.3833287842800176e-8,1.0837058694021018e-9,1.3890734454542828e-9,1.4685308086963463e-8,7.062014481076073e-8,6.580769869709254e-9,1.011361477093918e-8,2.9978923659095367e-8,0
26947,1.3831484692616863e-8,1.0836322740790411e-9,1.3928690173734016e-9,1.4805680575155272e-8,7.074965229760907e-8,6.578651445822399e-9,1.0209615373099555e-8,3.015482482707184e-8,0
26948,1.382968154243355e-8,1.0835586787559804e-9,1.3966645892925205e-9,1.492605306334708e-8,7.08791597844574e-8,6.576533021935544e-9,1.0305615975259931e-8,3.0330725995048306e-8,0
26949,1.3827878392250237e-8,1.0834850834329196e-9,1.4004601612116393e-9,1.504642555153889e-8,7.100866727130572e-8,6.57441459804869e-9,1.0401616577420307e-8,3.050662716302477e-8,0
26950,1.3807452608979118e-8,1.0836976623299928e-9,1.4004601612116393e-9,1.515163392419585e-8,7.101509643437313e-8,6.566118358460661e-9,1.0499191373733174e-8,3.071363459620792e-8,0
26951,1.3788162455022959e-8,1.084621573241346e-9,1.3968653525964897e-9,1.5135688091982084e-8,7.09119997682024e-8,6.557822118872631e-9,1.0500765567885668e-8,3.0709441087696615e-8,0
26952,1.3768872301066798e-8,1.0855454841526993e-9,1.3932705439813402e-9,1.5119742259768315e-8,7.080890310203167e-8,6.5495258792846026e-9,1.0502339762038162e-8,3.070524757918532e-8,0
26953,1.3749582147110637e-8,1.0864693950640527e-9,1.3896757353661906e-9,1.510379642755455e-8,7.070580643586094e-8,6.541229639696574e-9,1.0503913956190655e-8,3.070105407067402e-8,0
26954,1.3730291993154477e-8,1.0873933059754058e-9,1.386080926751041e-9,1.5087850595340784e-8,7.060270976969021e-8,6.532933400108544e-9,1.0505488150343149e-8,3.0696860562162726e-8,0
26955,1.3711001839198317e-8,1.0883172168867592e-9,1.3824861181358913e-9,1.5071904763127015e-8,7.049961310351948e-8,6.5246371605205155e-9,1.0507062344495643e-8,3.069266705365142e-8,0
26956,1.3691711685242157e-8,1.0892411277981123e-9,1.378891309520742e-9,1.505595893091325e-8,7.039651643734877e-8,6.516340920932487e-9,1.0508636538648136e-8,3.0688473545140126e-8,0
26957,1.3672421531285996e-8,1.0901650387094657e-9,1.3752965009055923e-9,1.5040013098699484e-8,7.029341977117804e-8,6.508044681344457e-9,1.051021073280063e-8,3.068428003662883e-8,0
26958,1.3653131377329835e-8,1.0910889496208188e-9,1.3717016922904427e-9,1.5024067266485718e-8,7.019032310500731e-8,6.499748441756428e-9,1.0511784926953124e-8,3.0680086528117534e-8,0
26959,1.3633841223373675e-8,1.0920128605321722e-9,1.3681068836752932e-9,1.500812143427195e-8,7.008722643883658e-8,6.4914522021684e-9,1.0513359121105616e-8,3.067589301960623e-8,0
26960,1.3620950476065632e-8,1.0929367714435253e-9,1.366409861019703e-9,1.4994036266514586e-8,6.998727595884778e-8,6.487081728086463e-9,1.0513359121105616e-8,3.0713182827884587e-8,0
26961,1.3608059728757588e-8,1.0938606823548787e-9,1.3647128383641128e-9,1.497995109875722e-8,6.988732547885897e-8,6.482711254004526e-9,1.0513359121105616e-8,3.075047263616294e-8,0
26962,1.3595168981449545e-8,1.0947845932662318e-9,1.3630158157085226e-9,1.4965865930999856e-8,6.978737499887016e-8,6.478340779922589e-9,1.0513359121105616e-8,3.07877624444413e-8,0
26963,1.3582278234141502e-8,1.0957085041775852e-9,1.3613187930529326e-9,1.495178076324249e-8,6.968742451888136e-8,6.473970305840652e-9,1.0513359121105616e-8,3.082505225271965e-8,0
26964,1.3569387486833459e-8,1.0966324150889385e-9,1.3596217703973423e-9,1.4937695595485123e-8,6.958747403889255e-8,6.469599831758715e-9,1.0513359121105616e-8,3.0862342060998004e-8,0
26965,1.3556496739525415e-8,1.0975563260002917e-9,1.3579247477417521e-9,1.492361042772776e-8,6.948752355890374e-8,6.4652293576767785e-9,1.0513359121105616e-8,3.089963186927636e-8,0
26966,1.3543605992217372e-8,1.098480236911645e-9,1.356227725086162e-9,1.4909525259970393e-8,6.938757307891493e-8,6.4608588835948425e-9,1.0513359121105616e-8,3.093692167755471e-8,0
26967,1.3530715244909329e-8,1.0994041478229982e-9,1.3545307024305717e-9,1.4895440092213028e-8,6.928762259892611e-8,6.456488409512906e-9,1.0513359121105616e-8,3.0974211485833066e-8,0
26968,1.3517824497601285e-8,1.1003280587343515e-9,1.3528336797749817e-9,1.4881354924455663e-8,6.918767211893731e-8,6.452117935430969e-9,1.0513359121105616e-8,3.101150129411142e-8,0
26969,1.3504933750293243e-8,1.1012519696457047e-9,1.3511366571193915e-9,1.4867269756698298e-8,6.90877216389485e-8,6.447747461349032e-9,1.0513359121105616e-8,3.104879110238978e-8,0
26970,1.3492043002985199e-8,1.102175880557058e-9,1.3494396344638012e-9,1.4853184588940933e-8,6.89877711589597e-8,6.443376987267095e-9,1.0513359121105616e-8,3.108608091066813e-8,0
26971,1.3479152255677155e-8,1.1030997914684112e-9,1.347742611808211e-9,1.4839099421183568e-8,6.888782067897089e-8,6.439006513185158e-9,1.0513359121105616e-8,3.1123370718946483e-8,0
26972,1.3466261508369113e-8,1.1040237023797645e-9,1.346045589152621e-9,1.4825014253426201e-8,6.878787019898208e-8,6.434636039103221e-9,1.0513359121105616e-8,3.116066052722484e-8,0
26973,1.3453370761061069e-8,1.1049476132911177e-9,1.3443485664970308e-9,1.4810929085668836e-8,6.868791971899327e-8,6.4302655650212846e-9,1.0513359121105616e-8,3.1197950335503196e-8,0
26974,1.3440480013753025e-8,1.105871524202471e-9,1.3426515438414406e-9,1.4796843917911471e-8,6.858796923900447e-8,6.4258950909393485e-9,1.0513359121105616e-8,3.1235240143781545e-8,0
26975,1.342185738066522e-8,1.105871524202471e-9,1.3391539617355595e-9,1.4782960272172746e-8,6.845789993319508e-8,6.41816186390009e-9,1.0513620970193197e-8,3.1231346882722265e-8,0
26976,1.3403234747577414e-8,1.105871524202471e-9,1.3356563796296784e-9,1.476907662643402e-8,6.832783062738569e-8,6.410428636860831e-9,1.0513882819280777e-8,3.122745362166298e-8,0
26977,1.339167904200608e-8,1.1069426257599456e-9,1.3321587975237975e-9,1.4753063620214041e-8,6.83919845791048e-8,6.405564517106788e-9,1.0513016237590154e-8,3.122974888158382e-8,0
26978,1.3380123336434744e-8,1.1080137273174204e-9,1.3286612154179164e-9,1.473705061399406e-8,6.845613853082389e-8,6.400700397352745e-9,1.051214965589953e-8,3.123204414150466e-8,0
26979,1.336856763086341e-8,1.109084828874895e-9,1.3251636333120354e-9,1.472103760777408e-8,6.852029248254299e-8,6.395836277598701e-9,1.0511283074208907e-8,3.12343394014255e-8,0
26980,1.3357011925292077e-8,1.1101559304323697e-9,1.3216660512061543e-9,1.4705024601554102e-8,6.85844464342621e-8,6.3909721578446585e-9,1.0510416492518284e-8,3.1236634661346344e-8,0
26981,1.3362221963420264e-8,1.1110144530927713e-9,1.3063928473058427e-9,1.4674696370484402e-8,6.852414571677709e-8,6.370394761176045e-9,1.0257149689208956e-8,3.1240726428070824e-08,0
26982,1.3367432001548453e-8,1.1118729757531727e-9,1.2911196434055312e-9,1.4644368139414703e-8,6.846384499929208e-8,6.349817364507431e-9,1.0003882885899627e-8,3.12448181947953e-8,0
26983,1.3375857065336e-8,1.1120201663992942e-9,1.2912168699147997e-9,1.4635404850841834e-8,6.866214666276474e-8,6.3524396489565935e-9,1.0003882885899627e-8,3.1234939896329535e-8,0
26984,1.3384282129123549e-8,1.1121673570454156e-9,1.2913140964240683e-9,1.4626441562268965e-8,6.88604483262374e-8,6.3550619334057556e-9,1.0003882885899627e-8,3.1225061597863766e-8,0
26985,1.3392707192911096e-8,1.112314547691537e-9,1.2914113229333368e-9,1.4617478273696096e-8,6.905874998971007e-8,6.357684217854918e-9,1.0003882885899627e-8,3.1215183299398e-8,0
26986,1.3401132256698645e-8,1.1124617383376583e-9,1.2915085494426053e-09,1.4608514985123229e-8,6.925705165318273e-8,6.36030650230408e-9,1.0003882885899627e-8,3.120530500093223e-8,0
26987,1.3409557320486192e-8,1.1126089289837798e-9,1.291605775951874e-9,1.459955169655036e-8,6.94553533166554e-8,6.362928786753242e-9,1.0003882885899627e-8,3.119542670246646e-8,0
26988,1.341798238427374e-8,1.1127561196299013e-9,1.2917030024611424e-9,1.4590588407977491e-8,6.965365498012805e-8,6.365551071202404e-9,1.0003882885899627e-8,3.1185548404000696e-8,0
26989,1.3426852461973524e-8,1.1129033102760227e-9,1.2909062595306978e-9,1.4575112793807217e-8,6.985231860601437e-8,6.365551071202404e-9,9.861813082669502e-9,3.111032349136391e-8,0
26990,1.341529675640219e-8,1.111619629821475e-9,1.2847267691056768e-9,1.4559637179636944e-8,6.98586234138967e-8,6.356642881969343e-9,9.861498243839002e-9,3.1067222261802016e-8,0
26991,1.3403741050830856e-8,1.1103359493669271e-9,1.278547278680656e-9,1.454416156546667e-8,6.986492822177905e-8,6.34773469273628e-9,9.861183405008504e-9,3.102412103224013e-8,0
26992,1.3392185345259521e-8,1.1090522689123793e-9,1.272367788255635e-9,1.4528685951296398e-8,6.987123302966139e-8,6.338826503503219e-9,9.860868566178005e-9,3.098101980267823e-8,0
26993,1.3380629639688187e-8,1.1077685884578315e-9,1.2661882978306142e-9,1.4513210337126124e-8,6.987753783754373e-8,6.3299183142701575e-9,9.860553727347507e-9,3.0937918573116345e-8,0
26994,1.3369073934116853e-8,1.1064849080032837e-9,1.2600088074055934e-9,1.449773472295585e-8,6.988384264542608e-8,6.321010125037096e-9,9.860238888517008e-9,3.089481734355445e-8,0
26995,1.3357518228545518e-8,1.1052012275487358e-9,1.2538293169805725e-9,1.4482259108785578e-8,6.989014745330843e-8,6.312101935804034e-9,9.859924049686509e-9,3.0851716113992555e-8,0
26996,1.3345962522974184e-8,1.103917547094188e-9,1.2476498265555517e-9,1.4466783494615304e-8,6.989645226119077e-8,6.303193746570972e-9,9.85960921085601e-9,3.080861488443067e-8,0
26997,1.3331552421780153e-8,1.1054055993737e-9,1.247163694009209e-9,1.4532494661932986e-8,6.978286490278358e-8,6.290853437503925e-9,9.861735147868629e-9,3.076012413445787e-8,0
26998,1.3310489762311283e-8,1.1071880329454548e-9,1.2417809465146328e-9,1.4516803258207214e-8,6.966066195068031e-8,6.278202046169261e-9,9.862548739816334e-9,3.0730275799670024e-8,0
26999,1.3289427102842412e-8,1.1089704665172096e-9,1.2363981990200567e-9,1.4501111854481445e-8,6.953845899857705e-8,6.265550654834596e-9,9.86336233176404e-9,3.070042746488218e-8,0
27000,1.3268364443373542e-8,1.1107529000889643e-9,1.2310154515254806e-9,1.4485420450755674e-8,6.941625604647377e-8,6.2528992634999325e-9,9.864175923711746e-9,3.067057913009433e-8,0
27001,1.3247301783904671e-8,1.112535333660719e-9,1.2256327040309045e-9,1.4469729047029904e-8,6.92940530943705e-8,6.2402478721652686e-9,9.864989515659451e-9,3.064073079530649e-8,0
27002,1.3243894895959797e-8,1.1163863750243625e-9,1.226727436774587e-9,1.4469446083468194e-8,6.934734817368024e-8,6.236011024391559e-9,9.866117946437657e-9,3.06398151192251e-8,0
27003,1.3240488008014922e-8,1.120237416388006e-9,1.2278221695182696e-9,1.4469163119906483e-8,6.940064325298998e-8,6.23177417661785e-9,9.86724637721586e-9,3.063889944314371e-8,0
27004,1.3237081120070046e-8,1.1240884577516494e-9,1.228916902261952e-9,1.4468880156344774e-8,6.945393833229973e-8,6.227537328844141e-9,9.868374807994065e-9,3.063798376706232e-8,0
27005,1.3233674232125172e-8,1.1279394991152929e-9,1.2300116350056345e-9,1.4468597192783064e-8,6.950723341160947e-8,6.223300481070432e-9,9.869503238772269e-9,3.063706809098093e-8,0
27006,1.3230267344180296e-8,1.1317905404789363e-9,1.231106367749317e-9,1.4468314229221353e-8,6.95605284909192e-8,6.219063633296723e-9,9.870631669550474e-9,3.0636152414899534e-8,0
27007,1.322686045623542e-8,1.1356415818425798e-9,1.2322011004929995e-9,1.4468031265659642e-08,6.961382357022894e-8,6.214826785523014e-9,9.871760100328677e-9,3.063523673881815e-8,0
27008,1.3223453568290547e-8,1.1394926232062232e-9,1.233295833236682e-9,1.4467748302097934e-8,6.966711864953868e-8,6.210589937749305e-9,9.872888531106882e-9,3.0634321062736754e-8,0
27009,1.3220046680345671e-8,1.1433436645698665e-9,1.2343905659803646e-9,1.4467465338536223e-8,6.972041372884842e-8,6.206353089975595e-9,9.874016961885087e-9,3.063340538665537e-8,0
27010,1.3369580681495957e-8,1.1518142604902763e-9,1.2345913292843338e-9,1.4473248853924066e-8,6.970355294225747e-8,6.202116242201886e-9,9.88057868720965e-9,3.0820998477244417e-8,0
27011,1.3519114682646242e-8,1.160284856410686e-9,1.234792092588303e-9,1.4479032369311911e-8,6.968669215566651e-8,6.1978793944281775e-9,9.887140412534213e-9,3.1008591567833466e-8,0
27012,1.3668648683796528e-8,1.1687554523310957e-9,1.2349928558922722e-9,1.4484815884699754e-8,6.966983136907555e-8,6.193642546654468e-9,9.893702137858776e-9,3.119618465842252e-8,0
27013,1.3818182684946812e-8,1.1772260482515055e-9,1.2351936191962414e-9,1.4490599400087599e-8,6.965297058248459e-8,6.189405698880759e-9,9.90026386318334e-9,3.138377774901157e-8,0
27014,1.3967716686097098e-8,1.1856966441719153e-9,1.2353943825002106e-9,1.4496382915475442e-8,6.963610979589364e-8,6.18516885110705e-9,9.906825588507903e-9,3.157137083960062e-8,0
27015,1.4117250687247383e-8,1.1941672400923249e-9,1.23559514580418e-9,1.4502166430863286e-8,6.961924900930267e-8,6.180932003333341e-9,9.913387313832467e-9,3.175896393018967e-8,0
27016,1.4266784688397669e-8,1.2026378360127347e-9,1.2357959091081492e-9,1.450794994625113e-8,6.960238822271172e-8,6.1766951555596315e-9,9.91994903915703e-9,3.1946557020778727e-8,0
27017,1.4416318689547955e-8,1.2111084319331443e-9,1.2359966724121184e-9,1.4513733461638974e-8,6.958552743612076e-8,6.172458307785923e-9,9.926510764481594e-9,3.2134150111367776e-8,0
27018,1.456585269069824e-8,1.219579027853554e-9,1.2361974357160875e-9,1.4519516977026817e-8,6.95686666495298e-8,6.168221460012214e-9,9.933072489806157e-9,3.2321743201956825e-8,0
27019,1.4564218308266074e-8,1.219579027853554e-9,1.2385876645074218e-9,1.4531688573858425e-8,6.981077020631016e-8,6.167727814340107e-9,9.935513265649274e-9,3.239014425335031e-8,0
27020,1.456258392583391e-8,1.219579027853554e-9,1.240977893298756e-9,1.4543860170690032e-8,7.005287376309051e-8,6.167234168668001e-9,9.937954041492392e-9,3.245854530474379e-8,0
27021,1.4560949543401744e-8,1.219579027853554e-9,1.2433681220900903e-9,1.455603176752164e-8,7.029497731987087e-8,6.166740522995894e-9,9.940394817335507e-9,3.252694635613727e-8,0
27022,1.4559315160969578e-8,1.219579027853554e-9,1.2457583508814244e-9,1.4568203364353248e-8,7.053708087665122e-8,6.166246877323788e-9,9.942835593178624e-9,3.259534740753075e-8,0
27023,1.4557680778537414e-8,1.219579027853554e-9,1.2481485796727586e-9,1.4580374961184855e-8,7.077918443343158e-8,6.165753231651681e-9,9.945276369021741e-9,3.266374845892423e-8,0
27024,1.4556046396105248e-8,1.219579027853554e-9,1.2505388084640929e-9,1.4592546558016463e-8,7.102128799021194e-8,6.165259585979575e-9,9.947717144864859e-9,3.273214951031771e-8,0
27025,1.4554412013673082e-8,1.219579027853554e-9,1.2529290372554271e-9,1.460471815484807e-8,7.126339154699229e-8,6.164765940307468e-9,9.950157920707976e-9,3.2800550561711195e-8,0
27026,1.4556184519185793e-8,1.2177312060308476e-9,1.2515236941276426e-9,1.4526509624526502e-8,7.058755797864246e-8,6.088821840183779e-9,9.932988355751267e-9,3.288871318794466e-8,0
27027,1.4557957024698503e-8,1.2177312060308476e-9,1.250118350999858e-9,1.4535108507994589e-8,7.074902341567321e-8,6.0832172519215765e-9,9.922751444319547e-9,3.297687581417813e-8,0
27028,1.4559867653291756e-8,1.215883384208141e-9,1.2516083000660467e-9,1.4547280104826196e-8,7.0964379504525e-8,6.0574646532313034e-9,9.918630494838101e-9,3.3065934204859185e-8,0
27029,1.4561778281885011e-8,1.2140355623854346e-9,1.2530982491322356e-9,1.4559451701657804e-8,7.117973559337678e-8,6.0317120545410295e-9,9.914509545356654e-9,3.315499259554025e-8,0
27030,1.4563688910478265e-8,1.212187740562728e-9,1.2545881981984244e-9,1.4571623298489411e-8,7.139509168222855e-8,6.0059594558507565e-9,9.910388595875208e-9,3.3244050986221305e-8,0
27031,1.4565599539071518e-8,1.2103399187400216e-9,1.256078147264613e-9,1.4583794895321019e-8,7.161044777108033e-8,5.9802068571604826e-9,9.906267646393762e-9,3.333310937690237e-8,0
27032,1.4567510167664773e-8,1.208492096917315e-9,1.2575680963308018e-9,1.4595966492152627e-8,7.182580385993212e-8,5.9544542584702095e-9,9.902146696912315e-9,3.3422167767583424e-8,0
27033,1.4567870797701436e-8,1.208712882886497e-9,1.2566678166056565e-9,1.4595683528590918e-8,7.193524130816372e-8,5.927387963832804e-9,9.907346187056056e-9,3.3602589764683284e-8,0
27034,1.4568231427738098e-8,1.2089336688556793e-9,1.255767536880511e-9,1.4595400565029207e-8,7.204467875639532e-8,5.9003216691954e-9,9.912545677199799e-9,3.378301176178314e-8,0
27035,1.4575022109093481e-8,1.213218075085578e-9,1.264136492792897e-9,1.4776006263605562e-8,7.220753119786511e-8,5.920567553815994e-9,9.912545677199799e-9,3.378540876349081e-8,0
27036,1.4581812790448864e-8,1.2175024813154766e-9,1.2725054487052828e-9,1.4956611962181916e-8,7.23703836393349e-8,5.940813438436589e-9,9.912545677199799e-9,3.378780576519847e-8,0
27037,1.4588603471804247e-8,1.2217868875453752e-9,1.2808744046176687e-9,1.5137217660758274e-8,7.253323608080468e-8,5.961059323057183e-9,9.912545677199799e-9,3.379020276690613e-8,0
27038,1.4595394153159628e-8,1.2260712937752739e-9,1.2892433605300545e-9,1.531782335933463e-8,7.269608852227447e-8,5.981305207677778e-9,9.912545677199799e-9,3.3792599768613795e-8,0
27039,1.4602184834515011e-8,1.2303557000051727e-9,1.2976123164424403e-9,1.5498429057910983e-8,7.285894096374427e-8,6.0015510922983725e-9,9.912545677199799e-9,3.379499677032146e-8,0
27040,1.4608975515870394e-8,1.2346401062350714e-9,1.3059812723548262e-9,1.5679034756487337e-8,7.302179340521406e-8,6.021796976918967e-9,9.912545677199799e-9,3.3797393772029124e-8,0
27041,1.4615766197225777e-8,1.23892451246497e-9,1.314350228267212e-9,1.5859640455063692e-8,7.318464584668385e-8,6.042042861539562e-9,9.912545677199799e-9,3.379979077373679e-8,0
27042,1.462255687858116e-8,1.2432089186948687e-9,1.3227191841795979e-9,1.604024615364005e-8,7.334749828815363e-8,6.062288746160156e-9,9.912545677199799e-9,3.3802187775444446e-8,0
27043,1.4629347559936542e-8,1.2474933249247673e-9,1.3310881400919837e-9,1.6220851852216404e-8,7.351035072962342e-8,6.082534630780751e-9,9.912545677199799e-9,3.380458477715211e-8,0
27044,1.4636138241291925e-8,1.2517777311546662e-9,1.3394570960043696e-9,1.640145755079276e-8,7.367320317109321e-8,6.102780515401345e-9,9.912545677199799e-9,3.3806981778859775e-8,0
27045,1.4642928922647308e-8,1.2560621373845648e-9,1.3478260519167554e-9,1.6582063249369113e-8,7.3836055612563e-8,6.12302640002194e-9,9.912545677199799e-9,3.380937878056744e-8,0
27046,1.4649719604002691e-8,1.2603465436144635e-9,1.3561950078291412e-9,1.6762668947945467e-8,7.399890805403278e-8,6.143272284642534e-9,9.912545677199799e-9,3.3811775782275104e-8,0
27047,1.4656510285358074e-8,1.2665523669901294e-9,1.3651662536534347e-9,1.6918284084192118e-8,7.391326152920505e-8,6.177547515976488e-9,9.91910740252436e-9,3.378455780021926e-8,0
27048,1.4663162843632911e-8,1.2729707692628685e-9,1.374435489290966e-9,1.7098889782768472e-8,7.410286143860342e-8,6.223545999287356e-9,9.846049443755507e-9,3.372230046862986e-8,0
27049,1.466981540190775e-8,1.2793891715356075e-9,1.3837047249284972e-9,1.7279495481344827e-8,7.429246134800178e-8,6.269544482598224e-9,9.772991484986654e-9,3.366004313704046e-8,0
27050,1.4676467960182588e-8,1.2858075738083464e-9,1.3929739605660286e-9,1.7460101179921185e-8,7.448206125740015e-8,6.315542965909092e-9,9.699933526217798e-9,3.3597785805451056e-8,0
27051,1.4683120518457427e-8,1.2922259760810855e-9,1.4022431962035598e-9,1.764070687849754e-8,7.467166116679852e-8,6.36154144921996e-9,9.626875567448945e-9,3.353552847386166e-8,0
27052,1.4689773076732265e-8,1.2986443783538246e-9,1.4115124318410911e-9,1.7821312577073894e-8,7.486126107619688e-8,6.407539932530828e-9,9.553817608680091e-9,3.347327114227226e-8,0
27053,1.4696425635007102e-8,1.3050627806265637e-9,1.4207816674786223e-9,1.8001918275650248e-8,7.505086098559525e-8,6.453538415841696e-9,9.480759649911236e-9,3.341101381068286e-8,0
27054,1.4703078193281941e-8,1.3114811828993028e-9,1.4300509031161537e-9,1.8182523974226602e-8,7.524046089499361e-8,6.499536899152563e-9,9.407701691142383e-9,3.334875647909346e-8,0
27055,1.4709730751556779e-8,1.3178995851720419e-9,1.4393201387536849e-9,1.836312967280296e-8,7.543006080439197e-8,6.545535382463431e-9,9.33464373237353e-9,3.328649914750406e-8,0
27056,1.4709730751556779e-8,1.320033581214882e-9,1.4453114864456008e-9,1.836697108219133e-8,7.575876220316574e-8,6.557258634440346e-9,9.263608830758465e-9,3.330355849527592e-8,0
27057,1.4712170777937844e-8,1.3202461601119553e-9,1.4474100357091294e-9,1.8382916914405097e-8,7.57996999300862e-8,6.559441317758764e-9,9.187717322515124e-9,3.3247576492728116e-8,0
27058,1.4714610804318908e-8,1.3204587390090283e-9,1.449508584972658e-9,1.8398862746618866e-8,7.584063765700665e-8,6.561624001077182e-9,9.11182581427178e-9,3.3191594490180316e-8,0
27059,1.4717050830699973e-8,1.3206713179061015e-9,1.4516071342361869e-9,1.8414808578832632e-8,7.58815753839271e-8,6.5638066843956005e-09,9.035934306028439e-9,3.3135612487632515e-8,0
27060,1.4719490857081036e-8,1.3208838968031747e-9,1.4537056834997155e-9,1.8430754411046397e-8,7.592251311084757e-8,6.565989367714019e-9,8.960042797785096e-9,3.3079630485084715e-8,0
27061,1.47219308834621e-8,1.321096475700248e-9,1.455804232763244e-9,1.8446700243260163e-8,7.596345083776802e-8,6.568172051032436e-9,8.884151289541754e-9,3.3023648482536914e-8,0
27062,1.4724370909843166e-8,1.321309054597321e-9,1.4579027820267727e-9,1.8462646075473932e-8,7.600438856468848e-8,6.5703547343508546e-9,8.808259781298411e-9,3.2967666479989114e-8,0
27063,1.4726810936224229e-8,1.3215216334943941e-9,1.4600013312903013e-9,1.8478591907687698e-8,7.604532629160893e-8,6.572537417669273e-9,8.73236827305507e-9,3.291168447744131e-8,0
27064,1.4729250962605293e-8,1.3217342123914673e-9,1.46209988055383e-9,1.8494537739901463e-8,7.608626401852939e-8,6.574720100987691e-9,8.656476764811726e-9,3.285570247489351e-8,0
27065,1.4731690988986358e-8,1.3219467912885403e-9,1.4641984298173585e-9,1.851048357211523e-8,7.612720174544984e-8,6.5769027843061086e-09,8.580585256568385e-9,3.279972047234571e-8,0
27066,1.4734131015367423e-8,1.3221593701856135e-9,1.4662969790808871e-9,1.8526429404328998e-8,7.616813947237029e-8,6.579085467624527e-9,8.504693748325042e-9,3.274373846979791e-8,0
27067,1.4736571041748486e-8,1.3223719490826867e-9,1.4683955283444157e-9,1.8542375236542764e-8,7.620907719929075e-8,6.581268150942945e-9,8.428802240081699e-9,3.268775646725011e-8,0
27068,1.4701903925034483e-8,1.3184473123959826e-9,1.4704940776079444e-9,1.8542375236542764e-8,7.618405116242388e-8,6.5863199415465786e-9,8.432215577101276e-9,3.269223528948807e-8,0
27069,1.4693593889793113e-8,1.309903121152512e-9,1.458912908832051e-9,1.8517317500206845e-8,7.616542053507418e-8,6.571041158317651e-9,8.434263579313021e-9,3.2678982394714023e-8,0
27070,1.4690048878767693e-8,1.3098295258294513e-9,1.458116165901606e-9,1.851146681081279e-8,7.588355129899252e-8,6.564685886657088e-9,8.388350247845016e-9,3.266481382385859e-8,0
27071,1.4686503867742272e-8,1.3097559305063906e-9,1.4573194229711614e-9,1.850561612141873e-8,7.560168206291086e-8,6.558330614996524e-9,8.342436916377011e-9,3.265064525300315e-8,0
27072,1.4682958856716853e-8,1.30968233518333e-9,1.4565226800407167e-9,1.8499765432024673e-8,7.531981282682921e-8,6.551975343335961e-9,8.296523584909005e-9,3.263647668214771e-8,0
27073,1.4679413845691434e-8,1.3096087398602693e-9,1.455725937110272e-9,1.8493914742630617e-8,7.503794359074754e-8,6.545620071675397e-9,8.250610253441e-9,3.262230811129227e-8,0
27074,1.4675868834666014e-8,1.3095351445372086e-9,1.4549291941798271e-9,1.848806405323656e-8,7.475607435466589e-8,6.539264800014834e-9,8.204696921972993e-9,3.2608139540436836e-8,0
27075,1.4672323823640595e-8,1.3094615492141478e-9,1.4541324512493825e-9,1.84822133638425e-8,7.447420511858424e-8,6.53290952835427e-9,8.158783590504988e-9,3.25939709695814e-8,0
27076,1.4668778812615176e-8,1.309387953891087e-9,1.4533357083189378e-9,1.8476362674448445e-8,7.419233588250258e-8,6.5265542566937065e-9,8.112870259036983e-9,3.257980239872596e-8,0
27077,1.4665233801589756e-8,1.3093143585680264e-9,1.452538965388493e-9,1.847051198505439e-8,7.391046664642092e-8,6.5201989850331425e-9,8.066956927568977e-9,3.256563382787052e-8,0
27078,1.4661688790564337e-8,1.3090281843478926e-9,1.452344512369956e-9,1.8470847855085453e-8,7.363902281610357e-8,6.513843713372579e-9,8.019310432719725e-9,3.255425927005313e-8,0
27079,1.4658143779538917e-8,1.3087420101277587e-9,1.452150059351419e-9,1.847118372511652e-8,7.336757898578623e-8,6.507488441712015e-9,7.971663937870471e-9,3.2542884712235745e-8,0
27080,1.4654598768513498e-8,1.308455835907625e-9,1.4519556063328818e-9,1.8471519595147587e-8,7.309613515546887e-8,6.501133170051452e-9,7.92401744302122e-9,3.2531510154418354e-8,0
27081,1.4651053757488077e-8,1.308169661687491e-9,1.4517611533143447e-9,1.8471855465178654e-8,7.282469132515153e-8,6.494777898390888e-9,7.876370948171966e-9,3.252013559660097e-8,0
27082,1.4647508746462658e-8,1.3078834874673573e-9,1.4515667002958076e-9,1.8472191335209722e-08,7.255324749483417e-8,6.488422626730325e-9,7.828724453322714e-9,3.250876103878358e-8,0
27083,1.4634510520744673e-8,1.3055287054553347e-9,1.452266216716984e-9,1.8478593684190343e-8,7.25424432498811e-8,6.4886102975799145e-9,7.82247756682865e-9,3.2396226406234646e-8,0
27084,1.462151229502669e-8,1.3031739234433122e-9,1.45296573313816e-9,1.848499603317096e-8,7.253163900492804e-8,6.488797968429505e-9,7.816230680334584e-9,3.228369177368571e-8,0
27085,1.4595462104385749e-8,1.3008191414312898e-9,1.452771280119623e-9,1.8482622348060495e-8,7.25427399258226e-8,6.472531893856365e-9,7.790953240585782e-9,3.209603894819527e-8,0
27086,1.4569411913744809e-8,1.2984643594192674e-9,1.4525768271010859e-9,1.848024866295003e-8,7.255384084671715e-8,6.456265819283226e-9,7.76567580083698e-9,3.190838612270482e-8,0
27087,1.4543361723103869e-8,1.2961095774072447e-9,1.452382374082549e-9,1.8477874977839565e-8,7.256494176761171e-8,6.439999744710086e-9,7.740398361088178e-9,3.172073329721438e-8,0
27088,1.4517311532462928e-8,1.2937547953952223e-9,1.452187921064012e-9,1.84755012927291e-8,7.257604268850627e-8,6.423733670136946e-9,7.715120921339374e-9,3.153308047172393e-8,0
27089,1.449126134182199e-8,1.2914000133831999e-9,1.4519934680454748e-9,1.8473127607618635e-8,7.258714360940082e-8,6.4074675955638065e-09,7.689843481590572e-9,3.134542764623349e-8,0
27090,1.446521115118105e-8,1.2890452313711772e-9,1.4517990150269377e-9,1.847075392250817e-8,7.259824453029539e-8,6.391201520990666e-9,7.66456604184177e-9,3.1157774820743044e-8,0
27091,1.4442705971565529e-8,1.286903028256228e-9,1.4509050455872245e-9,1.846219367797258e-8,7.259647468953664e-8,6.377177281722408e-9,7.639288602092968e-9,3.0960839213782414e-8,0
27092,1.4420200791950008e-8,1.2847608251412786e-9,1.4500110761475112e-9,1.8453633433436993e-8,7.25947048487779e-8,6.3631530424541495e-9,7.614011162344164e-9,3.076390360682178e-8,0
27093,1.439451123134573e-8,1.2826186220263294e-9,1.4489163434038286e-9,1.8494205422875686e-8,7.259357055183992e-8,6.3470103792990364e-9,7.589547314543068e-9,3.056786376430874e-8,0
27094,1.4368821670741454e-8,1.28047641891138e-9,1.4478216106601462e-9,1.8534777412314375e-8,7.259243625490194e-8,6.330867716143923e-9,7.565083466741971e-9,3.03718239217957e-8,0
27095,1.4343132110137177e-8,1.2783342157964307e-9,1.4467268779164638e-9,1.857534940175307e-8,7.259130195796397e-8,6.31472505298881e-9,7.540619618940875e-9,3.017578407928266e-8,0
27096,1.4317442549532899e-8,1.2761920126814813e-9,1.4456321451727811e-9,1.861592139119176e-8,7.2590167661026e-8,6.298582389833697e-9,7.516155771139777e-9,2.9979744236769617e-08,0
27097,1.4291752988928621e-8,1.2740498095665319e-9,1.4445374124290987e-9,1.865649338063045e-8,7.258903336408802e-8,6.282439726678584e-9,7.49169192333868e-9,2.9783704394256576e-8,0
27098,1.4266063428324344e-8,1.2719076064515826e-9,1.4434426796854163e-9,1.8697065370069144e-8,7.258789906715004e-8,6.266297063523471e-9,7.467228075537584e-9,2.9587664551743533e-8,0
27099,1.4240373867720066e-8,1.2697654033366332e-9,1.4423479469417336e-9,1.8737637359507834e-8,7.258676477021207e-8,6.250154400368358e-9,7.442764227736487e-9,2.9391624709230492e-8,0
27100,1.4214684307115789e-8,1.267623200221684e-9,1.4412532141980512e-9,1.8778209348946527e-8,7.25856304732741e-8,6.234011737213245e-9,7.41830037993539e-9,2.9195584866717452e-8,0
27101,1.4188994746511513e-8,1.2654809971067346e-9,1.4401584814543688e-9,1.881878133838522e-8,7.258449617633611e-8,6.2178690740581315e-9,7.393836532134293e-9,2.8999545024204412e-8,0
27102,1.4163305185907235e-8,1.2633387939917851e-9,1.4390637487106861e-9,1.885935332782391e-8,7.258336187939814e-8,6.201726410903018e-9,7.369372684333196e-9,2.8803505181691372e-8,0
27103,1.4137615625302957e-8,1.261196590876836e-9,1.4379690159670037e-9,1.8899925317262602e-8,7.258222758246017e-8,6.185583747747905e-9,7.3449088365321e-9,2.860746533917833e-8,0
27104,1.411192606469868e-8,1.2590543877618865e-9,1.4368742832233213e-9,1.8940497306701295e-8,7.25810932855222e-8,6.169441084592792e-9,7.3204449887310025e-9,2.841142549666529e-8,0
27105,1.4086236504094402e-8,1.2569121846469373e-9,1.4357795504796387e-9,1.8981069296139985e-8,7.257995898858421e-8,6.153298421437679e-9,7.295981140929906e-9,2.821538565415225e-8,0
27106,1.4060546943490125e-8,1.2547699815319878e-9,1.4346848177359562e-9,1.9021641285578678e-8,7.257882469164624e-8,6.137155758282566e-9,7.271517293128809e-9,2.8019345811639207e-8,0
27107,1.4034857382885847e-8,1.2526277784170384e-9,1.4335900849922738e-9,1.906221327501737e-8,7.257769039470826e-8,6.121013095127453e-9,7.247053445327712e-9,2.7823305969126167e-8,0
27108,1.4009167822281571e-8,1.2504855753020892e-9,1.4324953522485912e-9,1.910278526445606e-8,7.257655609777028e-8,6.10487043197234e-9,7.222589597526615e-9,2.7627266126613127e-8,0
27109,1.3983478261677293e-8,1.2483433721871397e-09,1.4314006195049087e-9,1.9143357253894754e-8,7.257542180083231e-8,6.0887277688172266e-9,7.198125749725518e-9,2.7431226284100087e-8,0
27110,1.3957788701073016e-8,1.2462011690721905e-9,1.4303058867612263e-9,1.9183929243333443e-8,7.257428750389434e-8,6.0725851056621134e-9,7.173661901924422e-9,2.7235186441587046e-8,0
27111,1.3932099140468738e-8,1.244058965957241e-9,1.4292111540175437e-9,1.9224501232772136e-8,7.257315320695636e-8,6.056442442507e-9,7.1491980541233244e-9,2.7039146599074006e-8,0
27112,1.395207990982762e-8,1.2479100073208846e-9,1.4307011030837326e-9,1.9224501232772136e-8,7.251129938203513e-8,6.0482155697956355e-9,7.154631348669684e-9,2.70745680262126e-8,0
27113,1.3972060679186503e-8,1.251761048684528e-9,1.4321910521499213e-9,1.9224501232772136e-8,7.244944555711391e-8,6.039988697084271e-9,7.160064643216043e-9,2.7109989453351193e-8,0
27114,1.3969843159761558e-8,1.2494062666725056e-9,1.4300988131718248e-9,1.9264065612117628e-8,7.258330503131354e-8,6.031761824372906e-9,7.14171675736522e-9,2.711548569345737e-8,0
27115,1.396762564033661e-8,1.247051484660483e-9,1.4280065741937283e-9,1.9303629991463122e-8,7.271716450551317e-8,6.023534951661541e-9,7.1233688715143974e-9,2.7120981933563546e-8,0
27116,1.3965408120911664e-8,1.2446967026484605e-9,1.425914335215632e-9,1.9343194370808613e-8,7.28510239797128e-8,6.015308078950175e-9,7.105020985663574e-9,2.712647817366972e-8,0
27117,1.3963190601486718e-8,1.242341920636438e-9,1.4238220962375355e-9,1.9382758750154104e-8,7.298488345391244e-8,6.00708120623881e-9,7.086673099812752e-9,2.71319744137759e-8,0
27118,1.3960973082061773e-8,1.2399871386244157e-9,1.421729857259439e-9,1.9422323129499596e-8,7.311874292811206e-8,5.9988543335274454e-9,7.06832521396193e-9,2.7137470653882073e-8,0
27119,1.3940132929549021e-8,1.2389160370669408e-9,1.4218270837687075e-9,1.9463815347307704e-8,7.322818037634366e-8,5.994049365759866e-9,7.0542821918792615e-9,2.7122324488426018e-8,0
27120,1.3919292777036268e-8,1.2378449355094662e-9,1.421924310277976e-9,1.950530756511581e-8,7.333761782457526e-8,5.9892443979922855e-9,7.040239169796593e-9,2.7107178322969963e-8,0
27121,1.3898452624523516e-8,1.2367738339519916e-9,1.4220215367872446e-9,1.9546799782923917e-8,7.344705527280688e-8,5.984439430224705e-9,7.026196147713925e-9,2.709203215751391e-8,0
27122,1.3877612472010765e-8,1.2357027323945168e-9,1.4221187632965132e-9,1.9588292000732022e-8,7.355649272103848e-8,5.979634462457125e-9,7.012153125631257e-9,2.7076885992057857e-8,0
27123,1.3856772319498013e-8,1.2346316308370422e-9,1.4222159898057817e-9,1.962978421854013e-8,7.366593016927008e-8,5.974829494689545e-9,6.998110103548589e-9,2.7061739826601802e-8,0
27124,1.383593216698526e-8,1.2335605292795676e-9,1.4223132163150503e-9,1.9671276436348235e-8,7.377536761750167e-8,5.970024526921965e-9,6.984067081465921e-9,2.7046593661145747e-8,0
27125,1.3815092014472509e-8,1.2334133386334461e-9,1.4223132163150503e-9,1.967518501974282e-8,7.373298204092664e-8,5.9642863123515345e-9,6.967583283540136e-9,2.7026358222730802e-8,0
27126,1.379625442456482e-8,1.2341246706477263e-9,1.4222159898057817e-9,1.9679026429131196e-8,7.373162257227859e-8,5.9641629009335075e-9,6.967268444709637e-9,2.701418466434419e-8,0
27127,1.3777416834657133e-8,1.2348360026620064e-9,1.4221187632965132e-9,1.9682867838519567e-8,7.373026310363052e-8,5.964039489515481e-9,6.966953605879139e-9,2.7002011105957584e-8,0
27128,1.3758579244749443e-8,1.2355473346762865e-9,1.4220215367872446e-9,1.9686709247907938e-8,7.372890363498246e-8,5.9639160780974545e-9,6.966638767048639e-9,2.6989837547570973e-8,0
27129,1.3739741654841755e-8,1.2362586666905667e-9,1.421924310277976e-9,1.9690550657296313e-8,7.37275441663344e-8,5.963792666679428e-9,6.966323928218141e-9,2.6977663989184363e-8,0
27130,1.3720904064934067e-8,1.2369699987048466e-9,1.4218270837687075e-9,1.9694392066684684e-8,7.372618469768635e-8,5.963669255261401e-9,6.966009089387642e-9,2.6965490430797755e-8,0
27131,1.3702066475026377e-8,1.2376813307191268e-9,1.421729857259439e-9,1.9698233476073055e-8,7.372482522903829e-8,5.963545843843375e-9,6.965694250557144e-9,2.6953316872411144e-8,0
27132,1.368322888511869e-8,1.238392662733407e-9,1.4216326307501704e-9,1.970207488546143e-8,7.372346576039022e-8,5.963422432425348e-9,6.965379411726645e-9,2.6941143314024533e-8,0
27133,1.3664391295211001e-8,1.239103994747687e-9,1.4215354042409019e-9,1.97059162948498e-8,7.372210629174217e-8,5.9632990210073216e-9,6.9650645728961465e-9,2.6928969755637923e-8,0
27134,1.3645553705303313e-8,1.2398153267619672e-9,1.4214381777316333e-9,1.9709757704238172e-8,7.372074682309411e-8,5.963175609589295e-9,6.964749734065648e-9,2.6916796197251315e-8,0
27135,1.3626716115395624e-8,1.2405266587762474e-9,1.4213409512223648e-9,1.9713599113626547e-8,7.371938735444605e-8,5.963052198171268e-9,6.9644348952351485e-9,2.6904622638864704e-8,0
27136,1.3607878525487936e-8,1.2412379907905275e-9,1.4212437247130962e-9,1.9717440523014918e-8,7.371802788579798e-8,5.962928786753242e-9,6.96412005640465e-9,2.6892449080478094e-8,0
27137,1.3589040935580248e-8,1.2419493228048076e-9,1.4211464982038279e-9,1.972128193240329e-8,7.371666841714993e-8,5.962805375335215e-9,6.963805217574151e-9,2.6880275522091483e-8,0
27138,1.3570203345672558e-8,1.2426606548190878e-9,1.4210492716945593e-9,1.9725123341791663e-8,7.371530894850187e-8,5.962681963917188e-9,6.963490378743653e-9,2.6868101963704875e-8,0
27139,1.355136575576487e-8,1.2433719868333677e-9,1.4209520451852908e-9,1.9728964751180035e-8,7.371394947985381e-8,5.962558552499162e-9,6.963175539913154e-9,2.6855928405318265e-8,0
27140,1.3532528165857182e-8,1.2440833188476479e-9,1.4208548186760222e-9,1.9732806160568406e-8,7.371259001120576e-8,5.962435141081135e-9,6.962860701082656e-9,2.6843754846931654e-8,0
27141,1.3532528165857182e-8,1.2440833188476479e-9,1.4208548186760222e-9,1.9748579005837247e-8,7.374075379586698e-8,5.975086532415799e-9,6.967112575107892e-9,2.6789507432668263e-8,0
27142,1.3532528165857182e-8,1.2440833188476479e-9,1.4208548186760222e-9,1.9764351851106087e-8,7.376891758052821e-8,5.9877379237504635e-9,6.971364449133128e-9,2.6735260018404872e-8,0
27143,1.3414277488010392e-8,1.242595266568136e-9,1.4208548186760222e-9,1.9780124696374928e-8,7.379771690901021e-8,6.000389315085127e-9,6.9756163231583655e-9,2.661678017171705e-8,0
27144,1.3296026810163602e-8,1.241107214288624e-9,1.4208548186760222e-9,1.979589754164377e-8,7.382651623749222e-8,6.013040706419792e-9,6.979868197183602e-9,2.6498300325029226e-8,0
27145,1.3177776132316812e-8,1.239619162009112e-9,1.4208548186760222e-9,1.981167038691261e-8,7.385531556597422e-8,6.025692097754456e-9,6.984120071208839e-9,2.6379820478341407e-8,0
27146,1.3059525454470022e-8,1.2381311097296002e-9,1.4208548186760222e-9,1.982744323218145e-8,7.388411489445622e-8,6.03834348908912e-9,6.988371945234075e-9,2.6261340631653584e-8,0
27147,1.2941274776623232e-8,1.2366430574500881e-9,1.4208548186760222e-9,1.984321607745029e-8,7.391291422293823e-8,6.050994880423785e-9,6.9926238192593125e-9,2.614286078496576e-8,0
27148,1.2823024098776442e-8,1.235155005170576e-9,1.4208548186760222e-9,1.9858988922719132e-8,7.394171355142021e-8,6.063646271758449e-9,6.996875693284549e-9,2.602438093827794e-8,0
27149,1.2704773420929652e-8,1.2377305731517807e-9,1.4208548186760222e-9,1.9870555953494818e-8,7.394511644223414e-8,6.06607577791292e-9,6.997742274975172e-9,2.5905102091020895e-8,0
27150,1.2586660866163406e-8,1.2360217349030867e-9,1.4214571085879298e-9,1.9868776730581487e-8,7.395463272277056e-8,6.0663868601805366e-9,6.998608856665796e-9,2.578761477265904e-8,0
27151,1.246854831139716e-8,1.2343128966543925e-9,1.4220593984998376e-9,1.9866997507668156e-8,7.396414900330697e-8,6.066697942448154e-9,6.999475438356419e-9,2.5670127454297183e-8,0
27152,1.2350435756630915e-8,1.2326040584056985e-9,1.4226616884117452e-9,1.9865218284754824e-8,7.397366528384339e-8,6.067009024715771e-9,7.000342020047043e-9,2.5552640135935326e-8,0
27153,1.2232323201864669e-8,1.2308952201570044e-9,1.423263978323653e-9,1.9863439061841493e-8,7.39831815643798e-8,6.067320106983387e-9,7.001208601737667e-9,2.5435152817573467e-8,0
27154,1.2114210647098424e-8,1.2291863819083104e-9,1.4238662682355606e-9,1.9861659838928162e-8,7.399269784491622e-8,6.067631189251004e-9,7.0020751834282905e-9,2.531766549921161e-8,0
27155,1.1996098092332178e-8,1.2274775436596162e-9,1.4244685581474682e-9,1.985988061601483e-8,7.400221412545263e-8,6.0679422715186205e-9,7.002941765118914e-9,2.5200178180849754e-8,0
27156,1.1877985537565932e-8,1.2257687054109222e-9,1.425070848059376e-9,1.98581013931015e-8,7.401173040598905e-8,6.068253353786238e-9,7.0038083468095374e-9,2.5082690862487895e-8,0
27157,1.1759872982799687e-8,1.2240598671622281e-9,1.4256731379712835e-9,1.985632217018817e-8,7.402124668652546e-8,6.0685644360538546e-9,7.004674928500161e-9,2.496520354412604e-8,0
27158,1.1641760428033441e-8,1.2223510289135339e-9,1.4262754278831913e-9,1.9854542947274837e-8,7.403076296706188e-8,6.068875518321471e-9,7.005541510190784e-9,2.4847716225764182e-8,0
27159,1.1523647873267197e-8,1.2206421906648399e-9,1.426877717795099e-9,1.9852763724361506e-8,7.404027924759829e-8,6.069186600589088e-9,7.006408091881408e-9,2.4730228907402322e-8,0
27160,1.140553531850095e-8,1.2189333524161458e-9,1.4274800077070067e-9,1.9850984501448175e-8,7.40497955281347e-8,6.069497682856705e-9,7.007274673572031e-9,2.4612741589040466e-8,0
27161,1.1287422763734704e-8,1.2172245141674516e-9,1.4280822976189143e-9,1.9849205278534844e-8,7.405931180867112e-8,6.069808765124322e-9,7.008141255262655e-9,2.449525427067861e-8,0
27162,1.116931020896846e-8,1.2155156759187576e-9,1.4286845875308219e-9,1.9847426055621513e-8,7.406882808920754e-8,6.0701198473919385e-9,7.009007836953278e-9,2.437776695231675e-8,0
27163,1.1051197654202213e-8,1.2138068376700636e-9,1.4292868774427297e-9,1.984564683270818e-8,7.407834436974395e-8,6.070430929659555e-9,7.0098744186439025e-9,2.4260279633954894e-8,0
27164,1.1048757627821149e-8,1.2148697321554292e-9,1.4290924244241926e-9,1.984192550379538e-8,7.394705860374933e-8,6.064199069417018e-9,6.967745352395898e-9,2.423275642653859e-8,0
27165,1.0870104083587344e-8,1.201338009739889e-9,1.4240013564574221e-9,1.982376886955729e-8,7.395634971257565e-8,6.044866001818872e-9,6.788583904205747e-9,2.3996774327763562e-8,0
27166,1.0691450539353539e-8,1.1878062873243487e-9,1.4189102884906515e-9,1.9805612235319197e-8,7.396564082140199e-8,6.0255329342207255e-9,6.609422456015596e-9,2.3760792228988535e-8,0
27167,1.0512796995119733e-8,1.1742745649088084e-9,1.413819220523881e-9,1.9787455601081105e-8,7.397493193022832e-8,6.006199866622579e-9,6.430261007825445e-9,2.3524810130213504e-8,0
27168,1.0334143450885927e-8,1.1607428424932683e-9,1.4087281525571106e-9,1.9769298966843014e-8,7.398422303905465e-8,5.986866799024434e-9,6.2510995596352946e-9,2.3288828031438477e-8,0
27169,1.0155489906652122e-8,1.147211120077728e-9,1.40363708459034e-9,1.9751142332604922e-8,7.399351414788099e-8,5.9675337314262875e-9,6.071938111445144e-9,2.305284593266345e-8,0
27170,9.976836362418316e-9,1.1336793976621878e-9,1.3985460166235695e-9,1.973298569836683e-8,7.400280525670731e-8,5.948200663828141e-9,5.892776663254993e-9,2.2816863833888423e-8,0
27171,9.798405325140629e-9,1.1190847807612818e-9,1.3967391468878465e-9,1.9724468256441814e-8,7.400366597223816e-8,5.9285565139623775e-9,5.713063472204717e-9,2.2578789958766197e-8,0
27172,9.619974287862942e-9,1.1044901638603759e-9,1.3949322771521233e-9,1.9715950814516795e-8,7.400452668776902e-8,5.908912364096615e-9,5.5333502811544415e-9,2.234071608364397e-8,0
27173,9.45262329757375e-9,1.0926672796935298e-9,1.4008200880493387e-9,1.9759826821294154e-8,7.401381779659535e-8,5.890389131883292e-9,5.353637090104166e-9,2.2104733984868944e-8,0
27174,9.285272307284557e-9,1.0808443955266835e-9,1.406707898946554e-9,1.980370282807151e-8,7.402310890542168e-8,5.87186589966997e-9,5.17392389905389e-9,2.1868751886093913e-8,0
27175,9.117921316995364e-9,1.0690215113598374e-9,1.4125957098437691e-9,1.984757883484887e-8,7.403240001424801e-8,5.853342667456647e-9,4.9942107080036136e-9,2.1632769787318886e-8,0
27176,8.950570326706172e-9,1.0571986271929913e-9,1.4184835207409845e-9,1.9891454841626225e-8,7.404169112307435e-8,5.8348194352433255e-9,4.814497516953338e-9,2.139678768854386e-8,0
27177,8.78321933641698e-9,1.0453757430261452e-9,1.4243713316381996e-9,1.9935330848403584e-8,7.405098223190067e-8,5.816296203030003e-9,4.634784325903062e-9,2.1160805589768832e-8,0
27178,8.316762149020379e-9,1.043168151660244e-9,1.432066012271138e-9,1.999364216050623e-8,7.395302454375239e-8,5.81087417817229e-9,4.634232583042937e-9,2.0954646936239404e-8,0
27179,7.850304961623776e-9,1.040960560294343e-9,1.4397606929040762e-9,2.0051953472608877e-8,7.385506685560411e-8,5.805452153314576e-9,4.633680840182813e-9,2.0748488282709973e-8,0
27180,7.383847774227174e-9,1.0387529689284419e-9,1.4474553735370145e-9,2.0110264784711523e-8,7.375710916745582e-8,5.800030128456863e-9,4.633129097322688e-9,2.0542329629180545e-8,0
27181,6.917390586830572e-9,1.0365453775625409e-9,1.4551500541699528e-9,2.016857609681417e-8,7.365915147930753e-8,5.79460810359915e-9,4.6325773544625634e-9,2.0336170975651114e-8,0
27182,6.45093339943397e-9,1.0343377861966397e-9,1.4628447348028911e-9,2.0226887408916815e-8,7.356119379115926e-8,5.789186078741436e-9,4.6320256116024385e-9,2.0130012322121686e-8,0
27183,5.9844762120373685e-9,1.0321301948307388e-9,1.4705394154358294e-9,2.028519872101946e-8,7.346323610301097e-8,5.783764053883723e-9,4.631473868742314e-9,1.9923853668592255e-8,0
27184,5.507353346893905e-9,1.0270036800846565e-9,1.4701505093987552e-9,2.0280196922310535e-8,7.335576213432627e-8,5.7783420290260096e-9,4.63060728705169e-9,1.9715801744380818e-8,0
27185,5.49848326919412e-9,1.0276414167758759e-9,1.4728513485741916e-9,2.027911797453305e-8,7.333671269647832e-8,5.7752260989047414e-9,4.5574246029930625e-9,1.9709511481613873e-8,0
27186,5.489613191494336e-9,1.0282791534670953e-9,1.4755521877496278e-9,2.0278039026755564e-8,7.331766325863038e-8,5.772110168783473e-9,4.484241918934435e-9,1.9703221218846925e-8,0
27187,5.4807431137945515e-9,1.0289168901583147e-9,1.4782530269250642e-9,2.027696007897808e-8,7.329861382078243e-8,5.768994238662204e-9,4.411059234875807e-9,1.9696930956079977e-8,0
27188,5.4718730360947665e-9,1.0295546268495341e-9,1.4809538661005004e-9,2.0275881131200597e-8,7.327956438293449e-8,5.765878308540936e-9,4.337876550817179e-9,1.969064069331303e-8,0
27189,5.463002958394982e-9,1.0301923635407535e-9,1.4836547052759368e-9,2.0274802183423113e-8,7.326051494508655e-8,5.762762378419667e-9,4.264693866758552e-9,1.968435043054608e-8,0
27190,5.454132880695198e-9,1.030830100231973e-9,1.486355544451373e-9,2.027372323564563e-8,7.324146550723859e-8,5.759646448298399e-9,4.1915111826999246e-9,1.9678060167779137e-8,0
27191,5.445262802995414e-9,1.0314678369231924e-9,1.4890563836268094e-9,2.0272644287868145e-8,7.322241606939065e-8,5.75653051817713e-9,4.118328498641297e-9,1.967176990501219e-8,0
27192,5.436392725295629e-9,1.0321055736144118e-9,1.4917572228022456e-9,2.027156534009066e-8,7.320336663154271e-8,5.753414588055862e-9,4.045145814582669e-9,1.966547964224524e-8,0
27193,5.427967661508081e-9,1.0341741814063003e-9,1.4930527188498974e-9,2.038010210148193e-8,7.318454236540485e-8,5.749488822549769e-9,3.9730915613022465e-9,1.966827365528329e-8,0
27194,5.419542597720533e-9,1.036242789198189e-9,1.494348214897549e-9,2.0488638862873197e-8,7.316571809926698e-8,5.745563057043677e-9,3.901037308021823e-9,1.967106766832134e-8,0
27195,5.411117533932985e-9,1.0383113969900777e-9,1.4956437109452009e-9,2.0597175624264465e-8,7.314689383312912e-8,5.741637291537585e-9,3.8289830547413996e-9,1.9673861681359388e-8,0
27196,5.402692470145437e-9,1.0403800047819664e-9,1.4969392069928525e-9,2.0705712385655733e-8,7.312806956699127e-8,5.737711526031493e-9,3.756928801460977e-9,1.9676655694397435e-8,0
27197,5.394267406357889e-9,1.0424486125738548e-9,1.4982347030405043e-9,2.0814249147047e-8,7.310924530085341e-8,5.733785760525401e-9,3.6848745481805535e-9,1.9679449707435487e-8,0
27198,5.385842342570341e-9,1.0445172203657435e-9,1.499530199088156e-9,2.092278590843827e-8,7.309042103471555e-8,5.729859995019308e-9,3.6128202949001305e-9,1.9682243720473535e-8,0
27199,5.377417278782793e-9,1.0465858281576322e-9,1.5008256951358078e-9,2.1031322669829537e-8,7.307159676857768e-8,5.725934229513216e-9,3.540766041619707e-9,1.9685037733511582e-8,0
27200,5.378276661936663e-9,1.0486544359495207e-9,1.5030151606231726e-9,2.1141720095677207e-8,7.306516138775104e-8,5.725371216964445e-9,3.5418944723979113e-9,1.969192351327411e-8,0
27201,5.379136045090533e-9,1.0507230437414094e-9,1.5052046261105377e-9,2.1252117521524877e-8,7.305872600692438e-8,5.724808204415675e-9,3.543022903176116e-9,1.9698809293036635e-8,0
27202,5.343110792105453e-9,1.046659423480693e-9,1.4983256192643406e-9,2.1347106507208484e-8,7.304943489809804e-8,5.724808204415675e-9,3.5132566853724504e-9,1.9346059229933783e-8,0
27203,5.307085539120373e-9,1.0425958032199763e-9,1.4914466124181437e-9,2.1442095492892093e-8,7.304014378927172e-8,5.724808204415675e-9,3.4834904675687852e-9,1.8993309166830927e-8,0
27204,5.271060286135293e-9,1.0385321829592597e-9,1.4845676055719465e-9,2.1537084478575703e-8,7.303085268044538e-8,5.724808204415675e-9,3.4537242497651196e-9,1.864055910372807e-8,0
27205,5.235035033150214e-9,1.0344685626985432e-9,1.4776885987257494e-9,2.1632073464259312e-8,7.302156157161906e-8,5.724808204415675e-9,3.4239580319614545e-9,1.828780904062522e-8,0
27206,5.199009780165134e-9,1.0304049424378265e-9,1.4708095918795525e-9,2.1727062449942922e-8,7.301227046279272e-8,5.724808204415675e-9,3.394191814157789e-9,1.7935058977522363e-8,0
27207,5.1629845271800544e-9,1.02634132217711e-9,1.4639305850333554e-9,2.182205143562653e-8,7.30029793539664e-8,5.724808204415675e-9,3.3644255963541237e-9,1.758230891441951e-8,0
27208,5.1283174104660515e-9,1.0240601354881482e-9,1.5115002739011235e-9,2.1861965952539946e-8,7.302226240191197e-8,5.76114781509512e-9,3.3377828217974905e-9,1.72213753178677e-8,0
27209,5.102512821315597e-9,1.0263985033559528e-9,1.5821540046677068e-9,2.233054539440723e-8,7.309543388105028e-8,5.816020872878089e-9,3.3481818020849733e-9,1.686143424964186e-8,0
27210,5.06717818373324e-9,1.0238229353747482e-9,1.5926467509853498e-9,2.231513695424317e-8,7.312304206450972e-8,5.886730618993655e-9,3.325871935981458e-9,1.6501493181416013e-8,0
27211,5.031843546150883e-9,1.0212473673935436e-9,1.603139497302993e-9,2.229972851407911e-8,7.315065024796914e-8,5.957440365109221e-9,3.3035620698779425e-9,1.614155211319017e-8,0
27212,4.996508908568525e-9,1.018671799412339e-9,1.6136322436206361e-9,2.228432007391505e-8,7.317825843142857e-8,6.028150111224787e-9,3.281252203774427e-9,1.5781611044964327e-8,0
27213,4.9611742709861676e-9,1.0160962314311343e-9,1.6241249899382792e-9,2.2268911633750988e-8,7.3205866614888e-8,6.098859857340353e-9,3.2589423376709117e-9,1.542166997673848e-8,0
27214,4.9258396334038096e-9,1.0135206634499297e-9,1.6346177362559224e-9,2.225350319358693e-8,7.323347479834743e-8,6.169569603455919e-9,3.2366324715673967e-9,1.506172890851264e-8,0
27215,4.8905049958214524e-9,1.010945095468725e-9,1.6451104825735655e-9,2.223809475342287e-8,7.326108298180685e-8,6.240279349571485e-9,3.2143226054638813e-9,1.4701787840286795e-8,0
27216,4.8551703582390944e-9,1.0083695274875207e-9,1.6556032288912085e-9,2.222268631325881e-8,7.328869116526629e-8,6.310989095687051e-9,3.192012739360366e-9,1.434184677206095e-8,0
27217,4.819835720656737e-9,1.005793959506316e-9,1.6660959752088518e-9,2.220727787309475e-8,7.33162993487257e-8,6.3816988418026174e-9,3.1697028732568505e-9,1.3981905703835108e-8,0
27218,4.784501083074379e-9,1.0032183915251114e-9,1.6765887215264948e-9,2.2191869432930688e-8,7.334390753218514e-8,6.452408587918183e-9,3.147393007153335e-9,1.3621964635609263e-8,0
27219,4.749166445492022e-9,1.0006428235439068e-9,1.687081467844138e-9,2.217646099276663e-8,7.337151571564456e-8,6.523118334033749e-9,3.12508314104982e-9,1.3262023567383419e-8,0
27220,4.713831807909664e-9,9.980672555627021e-10,1.697574214161781e-9,2.216105255260257e-8,7.3399123899104e-8,6.593828080149315e-9,3.1027732749463046e-9,1.2902082499157576e-8,0
27221,4.678497170327307e-9,9.954916875814975e-10,1.7080669604794241e-9,2.214564411243851e-8,7.342673208256342e-8,6.664537826264881e-9,3.0804634088427892e-9,1.2542141430931732e-8,0
27222,4.679187785730029e-9,9.982634203155574e-10,1.7276281791306294e-9,2.214564411243851e-8,7.346208670580052e-8,6.7200922005695465e-9,3.0881816096305203e-9,1.2538253147780898e-8,0
27223,4.664248286748187e-9,1.0021062546070918e-9,1.7473901610858038e-9,2.21334725156069e-8,7.341652341012165e-8,6.787369826851127e-9,3.0964515532783757e-9,1.2527769376502652e-8,0
27224,4.644958132792026e-9,1.0021062546070918e-9,1.7650535937774496e-9,2.211325369489377e-8,7.333060952164604e-8,6.8429242011557925e-9,3.099129233151119e-9,1.2466834688141926e-8,0
27225,4.6256679788358664e-9,1.0021062546070918e-9,1.7827170264690954e-9,2.2093034874180637e-8,7.324469563317043e-8,6.898478575460458e-9,3.1018069130238623e-9,1.2405899999781202e-8,0
27226,4.606377824879706e-9,1.0021062546070918e-9,1.8003804591607412e-9,2.2072816053467505e-8,7.315878174469482e-8,6.954032949765124e-9,3.1044845928966053e-9,1.2344965311420477e-8,0
27227,4.587087670923546e-9,1.0021062546070918e-9,1.8180438918523868e-9,2.205259723275437e-8,7.307286785621922e-8,7.00958732406979e-9,3.1071622727693484e-9,1.2284030623059753e-8,0
27228,4.567797516967385e-9,1.0021062546070918e-9,1.8357073245440326e-9,2.2032378412041238e-8,7.298695396774362e-8,7.065141698374456e-9,3.109839952642092e-9,1.2223095934699028e-8,0
27229,4.546596734417971e-9,9.991873312269105e-10,1.8374043471996229e-9,2.203715015365781e-8,7.288063961115957e-8,7.050549339112326e-9,3.104799431727104e-9,1.2160267975656297e-8,0
27230,4.527974101330165e-9,9.994817125191534e-10,1.8376960267274285e-9,2.201693133294468e-8,7.275937109944686e-8,7.035270555883399e-9,3.104799431727104e-9,1.2097241510948372e-8,0
27231,4.509351468242359e-9,9.997760938113962e-10,1.8379877062552342e-9,2.1996712512231547e-8,7.263810258773416e-8,7.019991772654473e-9,3.104799431727104e-9,1.2034215046240448e-8,0
27232,4.490728835154553e-9,1.000070475103639e-9,1.8382793857830396e-9,2.1976493691518416e-8,7.251683407602145e-8,7.0047129894255456e-9,3.104799431727104e-9,1.1971188581532523e-8,0
27233,4.472106202066747e-9,1.0003648563958818e-9,1.8385710653108453e-09,2.195627487080528e-8,7.239556556430875e-8,6.9894342061966184e-9,3.104799431727104e-9,1.1908162116824599e-8,0
27234,4.453483568978942e-9,1.0006592376881248e-9,1.838862744838651e-9,2.193605605009215e-8,7.227429705259604e-8,6.974155422967692e-9,3.104799431727104e-9,1.1845135652116675e-8,0
27235,4.434860935891135e-9,1.0009536189803675e-9,1.8391544243664565e-9,2.1915837229379017e-8,7.215302854088334e-8,6.958876639738765e-9,3.104799431727104e-9,1.178210918740875e-8,0
27236,4.434860935891135e-9,1.0048782556670717e-9,1.8415446531577906e-9,2.19150555127001e-8,7.215493517234565e-8,6.957943392935915e-9,3.1107065343327153e-9,1.1772826405938561e-8,0
27237,4.434860935891135e-9,1.0088028923537759e-9,1.8439348819491248e-9,2.1914273796021183e-8,7.215684180380795e-8,6.9570101461330644e-9,3.1166136369383268e-9,1.1763543624468372e-8,0
27238,4.434860935891135e-9,1.01272752904048e-9,1.8463251107404591e-9,2.1913492079342265e-8,7.215874843527025e-8,6.956076899330214e-9,3.1225207395439378e-9,1.1754260842998183e-8,0
27239,4.434860935891135e-9,1.016652165727184e-9,1.8487153395317934e-9,2.1912710362663346e-8,7.216065506673256e-8,6.955143652527364e-9,3.128427842149549e-9,1.1744978061527993e-8,0
27240,4.434860935891135e-9,1.0205768024138882e-9,1.8511055683231276e-9,2.191192864598443e-8,7.216256169819486e-8,6.954210405724513e-9,3.13433494475516e-9,1.1735695280057804e-8,0
27241,4.434860935891135e-9,1.0245014391005924e-9,1.8534957971144619e-9,2.1911146929305513e-8,7.216446832965718e-8,6.9532771589216625e-9,3.1402420473607716e-9,1.1726412498587615e-8,0
27242,4.432420909510071e-9,1.0242888602035192e-9,1.8572913690335805e-9,2.2031519417497322e-8,7.216483029207082e-8,6.958082126689243e-9,3.1404259616474798e-9,1.1717328222782619e-8,0
27243,4.429980883129007e-9,1.0240762813064462e-9,1.8610869409526993e-9,2.2151891905689132e-8,7.216519225448446e-8,6.962887094456823e-9,3.140609875934188e-9,1.1708243946977622e-8,0
27244,4.418678329184394e-9,1.023863702409373e-9,1.8588911651799022e-9,2.226692672514095e-8,7.215049480398782e-8,6.9686253090272535e-9,3.1399272085302726e-9,1.1637237432394386e-8,0
27245,4.407375775239781e-9,1.0236511235122998e-9,1.856695389407105e-9,2.2381961544592762e-8,7.213579735349118e-8,6.974363523597685e-9,3.1392445411263573e-9,1.1566230917811149e-8,0
27246,4.396073221295168e-9,1.0234385446152268e-9,1.8544996136343078e-9,2.2496996364044578e-8,7.212109990299454e-8,6.980101738168115e-9,3.1385618737224424e-9,1.1495224403227914e-8,0
27247,4.384770667350555e-9,1.0232259657181536e-9,1.8523038378615107e-9,2.2612031183496394e-8,7.210640245249789e-8,6.985839952738545e-9,3.137879206318527e-9,1.1424217888644677e-8,0
27248,4.373468113405942e-9,1.0230133868210804e-9,1.8501080620887135e-9,2.272706600294821e-8,7.209170500200124e-8,6.991578167308976e-9,3.137196538914612e-9,1.1353211374061441e-8,0
27249,4.3621655594613285e-9,1.0228008079240074e-9,1.8479122863159164e-9,2.2842100822400027e-8,7.207700755150461e-8,6.9973163818794065e-9,3.1365138715106965e-9,1.1282204859478204e-8,0
27250,4.350863005516715e-9,1.0225882290269342e-9,1.8457165105431192e-9,2.295713564185184e-8,7.206231010100796e-8,7.003054596449837e-9,3.1358312041067812e-9,1.1211198344894969e-8,0
27251,4.339560451572102e-9,1.0226618243499949e-9,1.843520734770322e-9,2.3000081316400998e-8,7.207866369609415e-8,7.003741020416634e-9,3.1358312041067812e-9,1.1143779866010553e-8,0
27252,4.328257897627489e-9,1.0227354196730556e-9,1.841324958997525e-9,2.3043026990950156e-8,7.209501729118035e-8,7.004427444383431e-9,3.1358312041067812e-9,1.1076361387126137e-8,0
27253,4.316955343682876e-9,1.0228090149961163e-9,1.8391291832247277e-9,2.308597266549931e-8,7.211137088626654e-8,7.005113868350229e-9,3.1358312041067812e-9,1.1008942908241723e-8,0
27254,4.305652789738263e-9,1.0228826103191769e-9,1.8369334074519306e-9,2.312891834004847e-8,7.212772448135273e-8,7.005800292317026e-9,3.1358312041067812e-9,1.0941524429357307e-8,0
27255,4.29435023579365e-9,1.0229562056422376e-9,1.8347376316791334e-9,2.3171864014597627e-8,7.214407807643893e-8,7.0064867162838226e-9,3.1358312041067812e-9,1.0874105950472891e-8,0
27256,4.2830476818490365e-9,1.0230298009652983e-9,1.8325418559063363e-9,2.3214809689146782e-8,7.216043167152512e-8,7.00717314025062e-9,3.1358312041067812e-9,1.0806687471588475e-8,0
27257,4.271745127904423e-9,1.023103396288359e-9,1.8303460801335391e-9,2.325775536369594e-8,7.217678526661132e-8,7.007859564217417e-9,3.1358312041067812e-9,1.073926899270406e-8,0
27258,4.26044257395981e-9,1.0231769916114198e-9,1.828150304360742e-9,2.3300701038245098e-8,7.219313886169751e-8,7.008545988184215e-9,3.1358312041067812e-9,1.0671850513819643e-8,0
27259,4.17778012944776e-9,1.0170447635588147e-9,1.8319458762798608e-9,2.334770391173812e-8,7.215056808472187e-8,7.003494197580581e-9,3.0062832185497476e-9,1.0644902911765118e-8,0
27260,4.09511768493571e-9,1.0109125355062093e-9,1.8357414481989796e-9,2.3394706785231148e-8,7.210799730774624e-8,6.998442406976948e-9,2.876735232992714e-9,1.0617955309710594e-8,0
27261,4.094895177979592e-9,1.0109125355062093e-9,1.8395370201180984e-9,2.338744127802854e-8,7.179384813037799e-8,6.983850047714818e-9,2.877286975852839e-9,1.0540028170005686e-8,0
27262,4.094672671023474e-9,1.0109125355062093e-9,1.8433325920372173e-9,2.3380175770825933e-8,7.147969895300974e-8,6.969257688452688e-9,2.8778387187129638e-9,1.0462101030300778e-8,0
27263,4.094450164067356e-9,1.0109125355062093e-9,1.847128163956336e-9,2.3372910263623326e-8,7.11655497756415e-8,6.954665329190559e-9,2.8783904615730887e-9,1.038417389059587e-8,0
27264,4.094227657111238e-9,1.0109125355062093e-9,1.850923735875455e-9,2.336564475642072e-8,7.085140059827325e-8,6.940072969928429e-9,2.8789422044332136e-9,1.0306246750890961e-8,0
27265,4.093867027074575e-9,1.0108389401831488e-9,1.8547193077945735e-9,2.3440178924118124e-8,7.050937809442602e-8,6.931149458360066e-9,2.878627365602715e-9,1.0225632317843274e-8,0
27266,4.0935063970379125e-9,1.010765344860088e-9,1.8585148797136924e-9,2.3514713091815533e-8,7.016735559057878e-8,6.922225946791703e-9,2.878312526772216e-9,1.0145017884795588e-8,0
27267,4.09314576700125e-9,1.0106917495370273e-9,1.8623104516328112e-9,2.358924725951294e-8,6.982533308673154e-8,6.91330243522334e-9,2.8779976879417174e-9,1.0064403451747901e-8,0
27268,4.092785136964587e-9,1.0106181542139666e-9,1.86610602355193e-9,2.366378142721035e-8,6.948331058288431e-8,6.904378923654977e-9,2.877682849111219e-9,9.983789018700215e-9,0
27269,4.092424506927925e-9,1.0105445588909058e-9,1.869901595471049e-9,2.373831559490776e-8,6.914128807903706e-8,6.895455412086614e-9,2.87736801028072e-9,9.903174585652528e-9,0
27270,4.092063876891262e-9,1.0104709635678451e-9,1.8736971673901677e-9,2.3812849762605168e-8,6.879926557518982e-8,6.8865319005182506e-9,2.8770531714502213e-9,9.822560152604842e-9,0
27271,4.092478246132896e-9,1.0162352150051468e-9,1.8778816453463607e-9,2.3780838017702063e-8,6.845561002128741e-8,6.87193954125612e-9,2.876922246906431e-9,9.744633012899934e-9,0
27272,4.0928926153745284e-9,1.0219994664424485e-9,1.8820661233025533e-9,2.3748826272798962e-8,6.811195446738498e-8,6.857347181993991e-9,2.8767913223626405e-9,9.666705873195026e-9,0
27273,4.093306984616162e-9,1.0277637178797502e-9,1.8862506012587463e-9,2.3716814527895857e-8,6.776829891348256e-8,6.842754822731861e-9,2.87666039781885e-9,9.588778733490117e-9,0
27274,4.093721353857795e-9,1.0335279693170519e-9,1.8904350792149394e-9,2.3684802782992756e-8,6.742464335958014e-8,6.828162463469732e-9,2.8765294732750596e-9,9.510851593785209e-9,0
27275,4.0941357230994284e-9,1.0392922207543536e-9,1.8946195571711324e-9,2.3652791038089652e-8,6.708098780567772e-8,6.813570104207602e-9,2.876398548731269e-9,9.4329244540803e-9,0
27276,4.094550092341061e-9,1.0450564721916553e-9,1.898804035127325e-9,2.362077929318655e-8,6.67373322517753e-8,6.798977744945472e-9,2.8762676241874788e-9,9.354997314375392e-9,0
27277,4.094964461582695e-9,1.0508207236289567e-9,1.902988513083518e-9,2.3588767548283446e-8,6.639367669787288e-8,6.7843853856833426e-9,2.8761366996436884e-9,9.277070174670486e-9,0
27278,4.095378830824328e-9,1.0565849750662584e-9,1.907172991039711e-9,2.3556755803380345e-8,6.605002114397045e-8,6.769793026421213e-9,2.876005775099898e-9,9.199143034965577e-9,0
27279,4.095793200065961e-9,1.0623492265035601e-9,1.911357468995904e-9,2.352474405847724e-8,6.570636559006804e-8,6.755200667159084e-9,2.8758748505561075e-9,9.121215895260669e-9,0
27280,4.096207569307594e-9,1.0681134779408618e-9,1.9155419469520967e-9,2.349273231357414e-8,6.536271003616561e-8,6.740608307896954e-9,2.875743926012317e-9,9.04328875555576e-9,0
27281,4.092547529735998e-9,1.07002668801452e-9,1.919428435095052e-9,2.3517051135841712e-8,6.536339398968342e-8,6.726015948634825e-9,2.855139178605086e-9,8.936031945814012e-9,0
27282,4.078252457088143e-9,1.0758645347748825e-9,1.9227126333260997e-9,2.353247384354263e-8,6.533074142696733e-8,6.714238652116547e-9,2.8550082540612954e-9,8.933329718745885e-9,0
27283,4.079027456366439e-9,1.0816287862121842e-9,1.923101539363174e-9,2.3548299595280825e-8,6.532697657373976e-8,6.713991829280494e-9,2.7820094842893762e-9,8.857233931203759e-9,0
27284,4.079802455644735e-9,1.0873930376494858e-9,1.9234904454002476e-9,2.356412534701902e-8,6.532321172051218e-8,6.713745006444441e-9,2.7090107145174567e-9,8.781138143661632e-9,0
27285,4.08057745492303e-9,1.0931572890867875e-9,1.923879351437322e-9,2.3579951098757217e-8,6.531944686728461e-8,6.7134981836083874e-9,2.6360119447455375e-9,8.705042356119504e-9,0
27286,4.0813524542013266e-9,1.0989215405240892e-9,1.924268257474396e-9,2.3595776850495416e-8,6.531568201405704e-8,6.7132513607723344e-9,2.5630131749736183e-9,8.628946568577377e-9,0
27287,4.082572467391858e-9,1.107833708382863e-9,1.9297419211928084e-9,2.3591125189354413e-8,6.531123320731165e-8,6.714189715020285e-9,2.490958921693195e-9,8.549064239671236e-9,0
27288,4.0837924805823905e-9,1.116745876241637e-9,1.935215584911221e-9,2.3586473528213407e-8,6.530678440056628e-8,6.715128069268236e-9,2.418904668412772e-9,8.469181910765095e-9,0
27289,4.085703109175645e-9,1.1519283545220418e-9,1.940105889574022e-9,2.364919634050592e-8,6.53030195473387e-8,6.715128069268236e-9,2.346036823184643e-9,8.391391358206155e-9,0
27290,4.087613737768899e-9,1.1871108328024464e-9,1.9449961942368236e-9,2.371191915279843e-8,6.529925469411113e-8,6.715128069268236e-9,2.273168977956514e-9,8.313600805647214e-9,0
27291,4.089524366362153e-9,1.222293311082851e-9,1.9498864988996247e-9,2.3774641965090938e-8,6.529548984088356e-8,6.715128069268236e-9,2.200301132728385e-9,8.235810253088272e-9,0
27292,4.091434994955407e-9,1.2574757893632557e-9,1.954776803562426e-9,2.383736477738345e-8,6.529172498765599e-8,6.715128069268236e-9,2.1274332875002564e-9,8.158019700529332e-9,0
27293,4.086554942193279e-9,1.2918733403063197e-9,1.9631646903311085e-9,2.3872550355290862e-8,6.513495662361507e-8,6.710323101500656e-9,2.1266196955525507e-9,8.159811229424518e-9,0
27294,4.08167488943115e-9,1.3262708912493834e-9,1.971552577099791e-9,2.3907735933198277e-8,6.497818825957414e-8,6.705518133733076e-9,2.125806103604845e-9,8.161602758319702e-9,0
27295,4.0767948366690214e-9,1.3606684421924473e-9,1.979940463868473e-9,2.394292151110569e-8,6.482141989553323e-8,6.700713165965496e-9,2.1249925116571392e-9,8.163394287214888e-9,0
27296,4.071914783906893e-9,1.395065993135511e-9,1.9883283506371555e-9,2.39781070890131e-8,6.46646515314923e-8,6.695908198197916e-9,2.1241789197094335e-9,8.165185816110074e-9,0
27297,4.067034731144764e-9,1.4294635440785749e-9,1.996716237405838e-9,2.4013292666920515e-8,6.450788316745138e-8,6.691103230430335e-9,2.123365327761728e-9,8.16697734500526e-9,0
27298,4.062154678382636e-9,1.4638610950216388e-9,2.00510412417452e-9,2.4048478244827927e-8,6.435111480341045e-8,6.686298262662756e-9,2.122551735814022e-9,8.168768873900446e-9,0
27299,4.057274625620508e-9,1.4982586459647025e-9,2.0134920109432025e-9,2.408366382273534e-8,6.419434643936954e-8,6.681493294895175e-9,2.1217381438663168e-9,8.17056040279563e-9,0
27300,4.052394572858379e-9,1.5326561969077664e-9,2.021879897711885e-9,2.4118849400642753e-8,6.403757807532861e-8,6.676688327127595e-9,2.120924551918611e-9,8.172351931690816e-9,0
27301,4.0475145200962504e-9,1.5670537478508303e-9,2.030267784480567e-9,2.4154034978550168e-8,6.38808097112877e-8,6.671883359360015e-9,2.1201109599709053e-9,8.174143460586002e-9,0
27302,4.042634467334122e-9,1.6023098214542956e-9,2.0368551117989585e-9,2.4114853435524384e-8,6.261761551512183e-8,6.5744877677513255e-9,2.1195592171107804e-9,8.175934989481188e-9,0
27303,4.037754414571993e-9,1.637565895057761e-9,2.04344243911735e-9,2.40756718924986e-8,6.135442131895596e-8,6.477092176142636e-9,2.1190074742506556e-9,8.177726518376373e-9,0
27304,4.032874361809865e-9,1.6728219686612263e-9,2.0500297664357414e-9,2.4036490349472816e-8,6.00912271227901e-8,6.379696584533946e-9,2.1184557313905307e-9,8.179518047271558e-9,0
27305,4.027994309047737e-9,1.7080780422646918e-9,2.056617093754133e-9,2.399730880644703e-8,5.882803292662424e-8,6.282300992925256e-9,2.1179039885304058e-9,8.181309576166744e-9,0
27306,4.023114256285608e-9,1.7433341158681571e-9,2.0632044210725244e-9,2.3958127263421247e-8,5.756483873045838e-8,6.184905401316566e-9,2.117352245670281e-9,8.18310110506193e-9,0
27307,4.018234203523479e-9,1.7785901894716224e-9,2.069791748390916e-9,2.3918945720395466e-8,5.630164453429251e-8,6.087509809707877e-9,2.116800502810156e-9,8.184892633957115e-9,0
27308,4.013354150761351e-9,1.8138462630750878e-9,2.0763790757093073e-9,2.3879764177369682e-8,5.503845033812665e-8,5.990114218099187e-9,2.116248759950031e-9,8.1866841628523e-9,0
27309,4.006563469405968e-9,1.8139198583981485e-9,2.0751808061709242e-9,2.3913530773790472e-8,5.3773711472912126e-8,5.893656980738448e-9,2.1191103541094828e-9,8.187483163421522e-9,0
27310,3.999772788050585e-9,1.8139934537212092e-9,2.073982536632541e-9,2.3947297370211262e-8,5.25089726076976e-8,5.797199743377708e-9,2.1219719482689344e-9,8.188282163990743e-9,0
27311,3.9942021198857346e-9,1.822979216903044e-9,2.0811532230065437e-9,2.384539301489297e-8,5.124387178006943e-8,5.7029200818902875e-9,2.1222337973565152e-9,8.189081164559964e-9,0
27312,3.988631451720884e-9,1.8319649800848787e-9,2.0883239093805463e-9,2.3743488659574676e-8,4.997877095244126e-8,5.608640420402866e-9,2.122495646444096e-9,8.189880165129185e-9,0
27313,3.983060783556034e-9,1.8409507432667132e-9,2.095494595754549e-9,2.3641584304256383e-8,4.8713670124813093e-8,5.514360758915445e-9,2.122757495531677e-9,8.190679165698407e-9,0
27314,3.977490115391183e-9,1.849936506448548e-9,2.102665282128552e-9,2.353967994893809e-8,4.7448569297184926e-8,5.4200810974280234e-9,2.1230193446192577e-9,8.191478166267628e-9,0
27315,3.971919447226333e-9,1.8589222696303826e-9,2.1098359685025544e-9,2.3437775593619796e-8,4.618346846955675e-8,5.325801435940603e-9,2.1232811937068385e-9,8.192277166836849e-9,0
27316,3.966348779061482e-9,1.8679080328122173e-9,2.117006654876557e-9,2.33358712383015e-8,4.4918367641928585e-8,5.231521774453181e-9,2.1235430427944194e-9,8.19307616740607e-9,0
27317,3.966348779061482e-9,1.8760352733336502e-9,2.11979841027583e-9,2.3121215979742643e-8,4.459922871275997e-8,5.192811809605728e-9,2.0990791949933226e-9,8.194175415427304e-9,0
27318,3.966348779061482e-9,1.8841625138550836e-9,2.1225901656751022e-9,2.290656072118379e-8,4.4280089783591346e-8,5.1541018447582735e-9,2.0746153471922258e-9,8.19527466344854e-9,0
27319,3.88476822465942e-9,1.877106374891125e-9,2.106435612905942e-9,2.2537344902760124e-8,4.310057641207801e-8,5.05735395491032e-9,2.073303002127313e-9,8.19258737010576e-9,0
27320,3.803187670257357e-9,1.8700502359271666e-9,2.0902810601367815e-9,2.216812908433646e-8,4.192106304056468e-8,4.960606065062366e-9,2.0719906570624004e-9,8.189900076762983e-9,0
27321,3.7216071158552944e-9,1.8629940969632083e-9,2.0741265073676207e-9,2.1798913265912793e-8,4.074154966905134e-8,4.863858175214412e-9,2.0706783119974876e-9,8.187212783420204e-9,0
27322,3.640026561453232e-9,1.8559379579992496e-9,2.0579719545984603e-9,2.1429697447489127e-8,3.9562036297538e-8,4.767110285366459e-9,2.069365966932575e-9,8.184525490077427e-9,0
27323,3.5573641169411816e-9,1.8406073878677367e-9,2.0325481661917683e-9,2.113189903390599e-8,3.838265971672823e-8,4.6698687498463985e-9,2.067109105376166e-9,8.181634713161005e-9,0
27324,3.4747016724291315e-9,1.8252768177362236e-9,2.0071243777850767e-9,2.083410062032285e-8,3.7203283135918454e-8,4.572627214326339e-9,2.0648522438197575e-9,8.178743936244586e-9,0
27325,3.391901104836537e-9,1.810093438250832e-9,1.981901352682354e-9,2.0464884801899185e-8,3.602454209892945e-8,4.4725165715210636e-9,2.0624114679766404e-9,8.175853159328164e-9,0
27326,3.309100537243942e-9,1.7949100587654404e-9,1.9566783275796316e-9,2.0095668983475523e-8,3.484580106194044e-8,4.372405928715788e-9,2.0599706921335232e-9,8.172962382411744e-9,0
27327,3.2262999696513475e-9,1.7797266792800488e-9,1.931455302476909e-9,1.9726453165051857e-8,3.366706002495144e-8,4.272295285910513e-9,2.057529916290406e-9,8.170071605495322e-9,0
27328,3.143499402058753e-9,1.7645432997946572e-9,1.9062322773741865e-9,1.935723734662819e-8,3.248831898796243e-8,4.172184643105237e-9,2.0550891404472893e-9,8.167180828578903e-9,0
27329,3.060698834466158e-9,1.7493599203092656e-9,1.8810092522714637e-9,1.8988021528204526e-8,3.130957795097343e-8,4.072074000299962e-9,2.052648364604172e-9,8.164290051662481e-9,0
27330,2.9778982668735635e-9,1.734176540823874e-9,1.8557862271687413e-9,1.8618805709780864e-8,3.0130836913984424e-8,3.971963357494687e-9,2.050207588761055e-9,8.161399274746061e-9,0
27331,2.895097699280969e-9,1.7189931613384825e-9,1.8305632020660187e-9,1.8249589891357198e-8,2.8952095876995415e-8,3.871852714689412e-9,2.0477668129179382e-9,8.15850849782964e-9,0
27332,2.812297131688374e-9,1.703809781853091e-9,1.8053401769632962e-9,1.7880374072933532e-8,2.777335484000641e-8,3.771742071884136e-9,2.045326037074821e-9,8.15561772091322e-9,0
27333,2.7294965640957795e-9,1.6886264023676993e-9,1.7801171518605736e-9,1.7511158254509867e-8,2.6594613803017403e-8,3.671631429078861e-9,2.042885261231704e-9,8.152726943996798e-9,0
27334,2.646695996503185e-9,1.6734430228823077e-9,1.754894126757851e-9,1.7141942436086205e-8,2.54158727660284e-8,3.5715207862735853e-9,2.0404444853885868e-9,8.149836167080378e-9,0
27335,2.5638954289105902e-9,1.6582596433969161e-9,1.7296711016551285e-9,1.677272661766254e-8,2.4237131729039394e-8,3.47141014346831e-9,2.03800370954547e-9,8.146945390163957e-9,0
27336,2.4810948613179956e-9,1.6430762639115245e-9,1.7044480765524059e-9,1.6403510799238873e-8,2.3058390692050388e-8,3.371299500663035e-9,2.035562933702353e-9,8.144054613247537e-9,0
27337,2.398294293725401e-9,1.6278928844261329e-9,1.6792250514496833e-9,1.6034294980815208e-8,2.1879649655061382e-8,3.2711888578577594e-9,2.0331221578592357e-9,8.141163836331115e-9,0
27338,2.3154937261328063e-9,1.6127095049407413e-9,1.6540020263469607e-9,1.5665079162391542e-8,2.0700908618072376e-8,3.171078215052484e-9,2.0306813820161185e-9,8.138273059414695e-9,0
27339,2.3147187268545104e-9,1.6099377722066814e-9,1.6533025099257846e-9,1.565816379275686e-8,2.0594070193208445e-8,3.1719523098688713e-9,2.029814800325495e-9,8.137077047515087e-9,0
27340,2.3139437275762146e-9,1.610796294867083e-9,1.649707701310635e-9,1.5545502658415507e-8,2.045390369049817e-8,3.172515322417642e-9,1.9313734223220027e-9,7.926771870268237e-9,0
27341,2.313168728297919e-9,1.6116548175274846e-9,1.6461128926954856e-9,1.543284152407416e-8,2.031373718778789e-8,3.1730783349664124e-9,1.8329320443185106e-9,7.716466693021387e-9,0
27342,2.312393729019623e-9,1.612513340187886e-9,1.642518084080336e-9,1.5320180389732808e-8,2.0173570685077615e-8,3.173641347515183e-9,1.7344906663150183e-9,7.506161515774537e-9,0
27343,2.3116187297413272e-9,1.6133718628482877e-9,1.6389232754651863e-9,1.5207519255391457e-8,2.003340418236734e-8,3.1742043600639535e-9,1.636049288311526e-9,7.295856338527687e-9,0
27344,2.3108437304630314e-9,1.6142303855086893e-9,1.6353284668500367e-9,1.5094858121050105e-8,1.989323767965706e-8,3.1747673726127243e-9,1.5376079103080336e-9,7.085551161280837e-9,0
27345,2.3100687311847356e-9,1.6150889081690907e-9,1.6317336582348872e-9,1.4982196986708757e-8,1.9753071176946785e-8,3.1753303851614946e-9,1.4391665323045413e-9,6.875245984033987e-9,0
27346,2.3094318549869844e-9,1.6190135448557949e-9,1.6372073219532996e-9,1.4885361604105602e-8,1.962043438069165e-8,3.1761402205463184e-9,1.3409090685877573e-9,6.664243548004736e-9,0
27347,2.3086568557086886e-9,1.6190135448557949e-9,1.6337097398474187e-9,1.482053796640555e-8,1.9489148614697022e-8,3.176950055931142e-9,1.244908466427382e-9,6.453342853762308e-9,0
27348,2.3078818564303928e-9,1.6190135448557949e-9,1.6302121577415376e-9,1.4755714328705501e-8,1.9357862848702392e-8,3.177759891315966e-9,1.1489078642670067e-9,6.242442159519879e-9,0
27349,2.307106857152097e-9,1.6190135448557949e-9,1.6267145756356565e-9,1.469089069100545e-8,1.922657708270776e-8,3.1785697267007897e-9,1.0529072621066314e-9,6.0315414652774495e-9,0
27350,2.306331857873801e-9,1.6190135448557949e-9,1.6232169935297754e-9,1.46260670533054e-8,1.909529131671313e-8,3.179379562085614e-9,9.569066599462562e-10,5.82064077103502e-9,0
27351,2.3055568585955053e-9,1.6190135448557949e-9,1.6197194114238946e-9,1.4561243415605348e-8,1.89640055507185e-8,3.1801893974704376e-9,8.609060577858809e-10,5.609740076792592e-9,0
27352,2.303646230002251e-9,1.6183022128415147e-9,1.619816637933163e-9,1.4617573982776024e-8,1.8942245613961992e-8,3.1809992328552614e-9,8.609060577858809e-10,5.610040324244606e-9,0
27353,2.301735601408997e-9,1.6175908808272346e-9,1.6199138644424315e-9,1.4673904549946698e-8,1.8920485677205487e-8,3.181809068240085e-9,8.609060577858809e-10,5.6103405716966195e-9,0
27354,2.2998249728157427e-9,1.6168795488129544e-9,1.6200110909517e-9,1.4730235117117374e-8,1.8898725740448983e-8,3.182618903624909e-9,8.609060577858809e-10,5.610640819148634e-9,0
27355,2.2979143442224885e-9,1.6161682167986743e-9,1.6201083174609686e-9,1.478656568428805e-8,1.8876965803692475e-8,3.1834287390097327e-9,8.609060577858809e-10,5.610941066600648e-9,0
27356,2.2960037156292347e-9,1.6154568847843943e-9,1.6202055439702371e-9,1.4842896251458725e-8,1.885520586693597e-8,3.1842385743945564e-9,8.609060577858809e-10,5.611241314052662e-9,0
27357,2.2940930870359805e-9,1.6147455527701142e-9,1.6203027704795057e-9,1.4899226818629399e-8,1.8833445930179465e-8,3.18504840977938e-9,8.609060577858809e-10,5.6115415615046764e-9,0
27358,2.2921824584427262e-9,1.614034220755834e-9,1.6203999969887742e-9,1.4955557385800075e-8,1.8811685993422957e-8,3.185858245164204e-9,8.609060577858809e-10,5.61184180895669e-9,0
27359,2.290271829849472e-9,1.613322888741554e-9,1.6204972234980428e-9,1.501188795297075e-8,1.8789926056666452e-8,3.1866680805490277e-9,8.609060577858809e-10,5.612142056408704e-9,0
27360,2.288361201256218e-9,1.6126115567272738e-9,1.6205944500073113e-9,1.5068218520141426e-8,1.8768166119909948e-8,3.1874779159338515e-9,8.609060577858809e-10,5.612442303860719e-9,0
27361,2.2800511660148467e-9,1.6119002247129936e-9,1.6187938905570204e-9,1.51226884228557e-8,1.874325999697152e-8,3.184361985812583e-9,8.624802519383744e-10,5.57125923452308e-9,0
27362,2.2717411307734752e-9,1.6111888926987135e-9,1.6169933311067296e-9,1.5177158325569973e-8,1.8718353874033098e-8,3.1812460556913144e-9,8.64054446090868e-10,5.530076165185441e-9,0
27363,2.263431095532104e-9,1.6104775606844333e-9,1.6151927716564387e-9,1.5231628228284248e-8,1.8693447751094675e-8,3.178130125570046e-9,8.656286402433615e-10,5.488893095847803e-9,0
27364,2.255121060290733e-9,1.6097662286701532e-9,1.6133922122061478e-9,1.5286098130998523e-8,1.8668541628156248e-8,3.1750141954487773e-9,8.67202834395855e-10,5.447710026510165e-9,0
27365,2.246811025049362e-9,1.6090548966558732e-9,1.611591652755857e-9,1.5340568033712794e-8,1.8643635505217825e-8,3.1718982653275087e-9,8.687770285483485e-10,5.406526957172527e-9,0
27366,2.2385009898079904e-9,1.608343564641593e-9,1.6097910933055661e-9,1.539503793642707e-8,1.8618729382279402e-08,3.1687823352062406e-9,8.70351222700842e-10,5.365343887834888e-9,0
27367,2.230329077647164e-9,1.6115568693140171e-9,1.650469154756273e-9,1.577088616092371e-8,1.8603356416652508e-8,3.1648565697001483e-9,8.697994798407172e-10,5.324059076710429e-9,0
27368,2.222157165486337e-9,1.6147701739864412e-9,1.6911472162069798e-9,1.6146734385420346e-8,1.858798345102561e-8,3.160930804194056e-9,8.692477369805923e-10,5.282774265585969e-9,0
27369,2.2139852533255103e-9,1.617983478658865e-9,1.7318252776576866e-9,1.6522582609916987e-8,1.8572610485398717e-8,3.1570050386879636e-9,8.686959941204675e-10,5.2414894544615096e-9,0
27370,2.2058133411646834e-9,1.621196783331289e-9,1.7725033391083934e-9,1.6898430834413624e-8,1.8557237519771824e-08,3.1530792731818713e-9,8.681442512603426e-10,5.2002046433370495e-9,0
27371,2.197641429003857e-9,1.624410088003713e-9,1.8131814005591002e-9,1.7274279058910264e-8,1.854186455414493e-8,3.149153507675779e-9,8.675925084002177e-10,5.15891983221259e-9,0
27372,2.18946951684303e-9,1.6276233926761371e-9,1.8538594620098073e-9,1.7650127283406904e-8,1.8526491588518033e-8,3.1452277421696866e-9,8.670407655400929e-10,5.11763502108813e-9,0
27373,2.1812976046822033e-9,1.6308366973485612e-9,1.894537523460514e-9,1.802597550790354e-8,1.851111862289114e-8,3.1413019766635943e-9,8.66489022679968e-10,5.076350209963671e-9,0
27374,2.1731256925213763e-9,1.6340500020209852e-9,1.9352155849112207e-9,1.840182373240018e-8,1.8495745657264245e-8,3.137376211157502e-9,8.659372798198433e-10,5.035065398839211e-9,0
27375,2.1649537803605494e-9,1.6372633066934092e-9,1.975893646361928e-9,1.8777671956896822e-8,1.848037269163735e-8,3.1334504456514097e-9,8.653855369597184e-10,4.993780587714752e-9,0
27376,2.1625137539794854e-9,1.6414005222771864e-9,2.0183722672629254e-9,1.915331865937482e-8,1.8495118551831036e-8,3.1328874331026393e-9,8.645719450120127e-10,4.9936788459279306e-9,0
27377,2.160073727598421e-9,1.6455377378609638e-9,2.0608508881639233e-9,1.952896536185282e-8,1.8509864412024716e-8,3.1323244205538686e-9,8.63758353064307e-10,4.993577104141109e-9,0
27378,2.1505667737008853e-9,1.6486038518872664e-9,2.103329509064921e-9,1.990674142481207e-8,1.8330387014689914e-8,3.1288923007198827e-9,8.640731918948057e-10,4.987286841374162e-9,0
27379,2.140921696722805e-9,1.6475327503297916e-9,2.1030315192516833e-9,1.9908669263274688e-8,1.813616375716143e-8,3.125460180885897e-9,8.640731918948057e-10,4.983195074649685e-9,0
27380,2.131276619744725e-9,1.646461648772317e-9,2.1027335294384453e-9,1.9910597101737302e-8,1.7941940499632946e-8,3.122028061051911e-9,8.640731918948057e-10,4.9791033079252085e-9,0
27381,2.1216315427666446e-9,1.6453905472148424e-9,2.1024355396252078e-9,1.9912524940199916e-8,1.774771724210446e-8,3.1185959412179255e-9,8.640731918948057e-10,4.975011541200731e-9,0
27382,2.1119864657885647e-9,1.6443194456573677e-9,2.10213754981197e-9,1.991445277866253e-8,1.7553493984575974e-8,3.1151638213839396e-9,8.640731918948057e-10,4.970919774476254e-9,0
27383,2.1023413888104843e-9,1.643248344099893e-9,2.1018395599987323e-9,1.9916380617125147e-8,1.7359270727047488e-8,3.1117317015499538e-9,8.640731918948057e-10,4.966828007751777e-9,0
27384,2.0926963118324043e-9,1.6421772425424183e-9,2.1015415701854944e-09,1.991830845558776e-8,1.7165047469519005e-8,3.108299581715968e-9,8.640731918948057e-10,4.9627362410273e-9,0
27385,2.083051234854324e-9,1.6411061409849437e-9,2.101243580372257e-9,1.9920236294050374e-8,1.697082421199052e-8,3.104867461881982e-9,8.640731918948057e-10,4.958644474302823e-9,0
27386,2.073544280956788e-9,1.6421690354703093e-9,2.120707572514193e-9,1.9920236294050374e-8,1.677216058610421e-8,3.1013119306299696e-9,8.64257106181514e-10,4.952155705870683e-9,0
27387,2.0640373270592523e-9,1.643231929955675e-9,2.1401715646561298e-9,1.9920236294050374e-8,1.6573496960217902e-8,3.0977563993779572e-9,8.644410204682222e-10,4.9456669374385425e-9,0
27388,2.054530373161717e-9,1.6442948244410408e-9,2.1596355567980664e-9,1.9920236294050374e-8,1.6374833334331593e-8,3.094200868125945e-9,8.646249347549306e-10,4.939178169006403e-9,0
27389,2.045023419264181e-9,1.6453577189264064e-9,2.179099548940003e-9,1.9920236294050374e-8,1.6176169708445287e-8,3.090645336873932e-9,8.648088490416389e-10,4.932689400574262e-9,0
27390,2.0355164653666452e-9,1.646420613411772e-9,2.1985635410819398e-9,1.9920236294050374e-8,1.597750608255898e-8,3.0870898056219197e-9,8.649927633283471e-10,4.926200632142122e-9,0
27391,2.0260095114691094e-9,1.6474835078971378e-9,2.2180275332238765e-9,1.9920236294050374e-8,1.577884245667267e-8,3.0835342743699073e-9,8.651766776150554e-10,4.919711863709982e-9,0
27392,2.0165025575715735e-9,1.6485464023825035e-9,2.237491525365813e-9,1.9920236294050374e-8,1.558017883078636e-8,3.079978743117895e-9,8.653605919017636e-10,4.913223095277842e-9,0
27393,2.0069956036740377e-9,1.649609296867869e-9,2.25695551750775e-9,1.9920236294050374e-8,1.5381515204900052e-8,3.0764232118658825e-9,8.65544506188472e-10,4.906734326845702e-9,0
27394,1.9974886497765023e-9,1.6506721913532349e-9,2.2764195096496865e-9,1.9920236294050374e-8,1.5182851579013743e-8,3.07286768061387e-9,8.657284204751803e-10,4.9002455584135614e-09,0
27395,1.9879816958789665e-9,1.6517350858386005e-9,2.295883501791623e-9,1.9920236294050374e-8,1.4984187953127437e-8,3.0693121493618577e-9,8.659123347618885e-10,4.893756789981421e-9,0
27396,1.9784747419814306e-9,1.6527979803239661e-9,2.31534749393356e-9,1.9920236294050374e-8,1.4785524327241127e-8,3.065756618109845e-9,8.660962490485968e-10,4.887268021549281e-9,0
27397,1.9689677880838948e-09,1.653860874809332e-9,2.3348114860754965e-9,1.9920236294050374e-8,1.458686070135482e-8,3.0622010868578326e-9,8.662801633353051e-10,4.880779253117141e-9,0
27398,1.9623152298090565e-9,1.6521520365606377e-9,2.348582120338755e-9,1.983904951256242e-8,1.4508089241758041e-8,3.062077675439806e-9,8.640233017788964e-10,4.879680005095906e-9,0
27399,1.9623152298090565e-9,1.650148817019701e-9,2.3672493695502466e-9,1.9839265302117917e-8,1.4437933375857343e-8,3.062265346289396e-9,8.630787852874002e-10,4.859938341889718e-9,0
27400,1.9623152298090565e-9,1.648145597478764e-9,2.3859166187617385e-9,1.9839481091673414e-8,1.4367777509956646e-8,3.0624530171389863e-9,8.621342687959041e-10,4.8401966786835305e-9,0
27401,1.9623152298090565e-9,1.646142377937827e-9,2.4045838679732305e-9,1.983969688122891e-8,1.4297621644055947e-8,3.062640687988577e-9,8.61189752304408e-10,4.820455015477343e-9,0
27402,1.9657221177539317e-9,1.6480555880114853e-9,2.4099666154678066e-9,1.983997984479062e-8,1.4227827740568894e-8,3.0629517702561934e-9,8.609279032168271e-10,4.800911857936348e-9,0
27403,1.9659446247100498e-9,1.6462731544397305e-9,2.425220888511822e-9,1.9929366629387454e-8,1.4163343359358075e-8,3.0629517702561934e-9,8.601143112691215e-10,4.7813687003953535e-9,0
27404,1.9677171302227595e-9,1.654097806596812e-9,2.4396973494816884e-9,1.9930431309628082e-8,1.4094410171401875e-8,3.0629517702561934e-9,8.598524621815407e-10,4.7618255428543595e-9,0
27405,1.9694896357354696e-9,1.6619224587538931e-9,2.4541738104515552e-9,1.993149598986871e-8,1.4025476983445674e-8,3.0629517702561934e-9,8.595906130939598e-10,4.742282385313365e-9,0
27406,1.9712621412481792e-9,1.6697471109109745e-9,2.468650271421422e-9,1.9932560670109337e-8,1.3956543795489474e-8,3.0629517702561934e-9,8.593287640063789e-10,4.72273922777237e-9,0
27407,1.973034646760889e-9,1.677571763068056e-9,2.483126732391289e-9,1.9933625350349964e-8,1.3887610607533273e-8,3.0629517702561934e-9,8.590669149187981e-10,4.703196070231375e-9,0
27408,1.9748071522735986e-9,1.6853964152251371e-9,2.497603193361156e-9,1.993469003059059e-8,1.3818677419577073e-8,3.0629517702561934e-9,8.588050658312172e-10,4.68365291269038e-9,0
27409,1.9765796577863083e-9,1.6932210673822185e-9,2.5120796543310227e-9,1.993575471083122e-8,1.3749744231620873e-8,3.0629517702561934e-9,8.585432167436364e-10,4.664109755149386e-9,0
27410,1.9783521632990184e-9,1.7010457195392999e-9,2.5265561153008896e-9,1.9936819391071846e-8,1.3680811043664672e-8,3.0629517702561934e-9,8.582813676560556e-10,4.644566597608391e-9,0
27411,1.8271837797165674e-9,1.704250817139615e-9,2.5419265457104695e-9,1.993181759236292e-8,1.368203372160917e-8,3.0629517702561934e-9,8.525862240221159e-10,4.436514673396955e-9,0
27412,1.6760153961341166e-9,1.7074559147399298e-9,2.5572969761200494e-9,1.9926815793653994e-8,1.3683256399553668e-8,3.0629517702561934e-9,8.46891080388176e-10,4.2284627491855184e-09,0
27413,1.5248470125516657e-9,1.7106610123402448e-9,2.5726674065296297e-9,1.9921813994945064e-8,1.3684479077498165e-8,3.0629517702561934e-9,8.411959367542363e-10,4.020410824974082e-9,0
27414,1.373678628969215e-9,1.7138661099405599e-9,2.5880378369392096e-9,1.9916812196236138e-8,1.3685701755442662e-8,3.0629517702561934e-9,8.355007931202965e-10,3.8123589007626455e-9,0
27415,1.2225102453867641e-9,1.717071207540875e-9,2.60340826734879e-9,1.9911810397527212e-8,1.368692443338716e-8,3.0629517702561934e-9,8.298056494863566e-10,3.6043069765512095e-9,0
27416,1.071341861804313e-9,1.72027630514119e-9,2.61877869775837e-9,1.9906808598818286e-8,1.3688147111331659e-8,3.0629517702561934e-9,8.241105058524169e-10,3.396255052339773e-9,0
27417,9.201734782218624e-10,1.723481402741505e-9,2.63414912816795e-9,1.990180680010936e-8,1.3689369789276156e-8,3.0629517702561934e-9,8.184153622184771e-10,3.188203128128337e-9,0
27418,7.690050946394115e-10,1.72668650034182e-9,2.64951955857753e-9,1.9896805001400433e-8,1.3690592467220653e-8,3.0629517702561934e-9,8.127202185845373e-10,2.9801512039169006e-9,0
27419,6.178367110569607e-10,1.7298915979421351e-9,2.6648899889871104e-9,1.9891803202691507e-8,1.369181514516515e-8,3.0629517702561934e-9,8.070250749505975e-10,2.7720992797054642e-9,0
27420,6.178367110569607e-10,1.7415672914628598e-9,2.6780709539093254e-9,1.9880413322538817e-8,1.3434073479738335e-8,3.059208568154591e-9,8.05450880798104e-10,2.683239394689598e-9,0
27421,6.178367110569607e-10,1.7532429849835846e-9,2.6912519188315404e-9,1.9869023442386126e-8,1.317633181431152e-8,3.055465366052988e-9,8.038766866456105e-10,2.5943795096737314e-9,0
27422,6.159260824637066e-10,1.7553115927754733e-9,2.6897619697653515e-9,1.9857633562233435e-8,1.2927020542180182e-8,3.053781435851777e-9,8.016198250892017e-10,2.5056213664446863e-9,0
27423,6.14376083907115e-10,1.7553115927754733e-9,2.6875725042779867e-9,1.988688700920372e-8,1.266805619880887e-8,3.051159151402615e-9,7.994938880765833e-10,2.416562975763627e-9,0
27424,6.128260853505233e-10,1.7553115927754733e-9,2.685383038790622e-9,1.9916140456174007e-8,1.2409091855437555e-8,3.048536866953453e-9,7.973679510639651e-10,2.3275045850825676e-9,0
27425,6.112760867939317e-10,1.7553115927754733e-9,2.6831935733032565e-9,1.994539390314429e-8,1.2150127512066241e-8,3.045914582504291e-9,7.952420140513467e-10,2.2384461944015083e-9,0
27426,6.097260882373401e-10,1.7553115927754733e-9,2.6810041078158917e-9,1.997464735011458e-8,1.1891163168694927e-8,3.043292298055129e-9,7.931160770387283e-10,2.149387803720449e-9,0
27427,6.081760896807485e-10,1.7553115927754733e-9,2.6788146423285264e-9,2.0003900797084863e-8,1.1632198825323615e-8,3.0406700136059668e-9,7.909901400261099e-10,2.0603294130393897e-9,0
27428,6.066260911241569e-10,1.7553115927754733e-9,2.6766251768411616e-9,2.0033154244055147e-8,1.1373234481952301e-8,3.0380477291568046e-9,7.888642030134917e-10,1.9712710223583303e-9,0
27429,6.050760925675653e-10,1.7553115927754733e-9,2.6744357113537967e-9,2.0062407691025435e-8,1.1114270138580987e-8,3.0354254447076425e-9,7.867382660008733e-10,1.882212631677271e-9,0
27430,6.035260940109737e-10,1.7553115927754733e-9,2.6722462458664314e-9,2.009166113799572e-8,1.0855305795209675e-8,3.032803160258481e-9,7.846123289882549e-10,1.7931542409962119e-9,0
27431,6.019760954543821e-10,1.7553115927754733e-9,2.6700567803790666e-9,2.0120914584966007e-8,1.059634145183836e-8,3.0301808758093187e-9,7.824863919756366e-10,1.7040958503151526e-9,0
27432,6.004260968977905e-10,1.7553115927754733e-9,2.6678673148917017e-9,2.015016803193629e-8,1.0337377108467047e-8,3.0275585913601566e-9,7.803604549630182e-10,1.6150374596340932e-9,0
27433,5.988760983411989e-10,1.7553115927754733e-9,2.6656778494043365e-9,2.017942147890658e-8,1.0078412765095733e-8,3.0249363069109945e-9,7.782345179503999e-10,1.525979068953034e-9,0
27434,5.988760983411989e-10,1.7532429849835846e-9,2.665878612708306e-9,2.022112948627018e-8,9.925367062344597e-9,3.0236277184089636e-9,7.66788141312594e-10,1.3455570718531745e-9,0
27435,5.988760983411989e-10,1.751174377191696e-9,2.6660793760122753e-9,2.0262837493633783e-8,9.772321359593461e-9,3.022319129906933e-9,7.553417646747881e-10,1.1651350747533151e-09,0
27436,5.922235400663606e-10,1.7485988092104913e-9,2.659200369166078e-9,2.0085804508420948e-8,9.565860663604137e-9,2.972888526762079e-9,7.490948781807234e-10,1.1636338374932449e-9,0
27437,5.855709817915223e-10,1.7460232412292869e-9,2.652321362319881e-9,1.9908771523208112e-8,9.359399967614815e-9,2.9234579236172252e-9,7.428479916866588e-10,1.1621326002331744e-9,0
27438,5.78918423516684e-10,1.7434476732480822e-9,2.645442355473684e-9,1.9731738537995276e-8,9.152939271625491e-9,2.8740273204723717e-9,7.366011051925942e-10,1.160631362973104e-9,0
27439,5.722658652418457e-10,1.7408721052668776e-9,2.6385633486274868e-9,1.955470555278244e-8,8.946478575636168e-9,2.824596717327518e-9,7.303542186985296e-10,1.1591301257130338e-9,0
27440,5.662501831647589e-10,1.7355248045516131e-9,2.629494876293925e-9,1.9374099854206086e-8,8.740017879646845e-9,2.775166114182664e-9,7.237924933739662e-10,1.1567331240053705e-9,0
27441,5.602345010876719e-10,1.7301775038363489e-9,2.620426403960363e-9,1.919349415562973e-8,8.533557183657522e-9,2.7257355110378104e-9,7.172307680494029e-10,1.1543361222977074e-9,0
27442,5.542188190105851e-10,1.7248302031210844e-9,2.611357931626801e-9,1.9012888457053374e-8,8.327096487668198e-9,2.6763049078929564e-9,7.106690427248396e-10,1.1519391205900441e-9,0
27443,5.482031369334982e-10,1.7194829024058201e-9,2.6022894592932385e-9,1.883228275847702e-8,8.120635791678876e-9,2.6268743047481025e-9,7.041073174002762e-10,1.149542118882381e-9,0
27444,5.421874548564113e-10,1.7141356016905556e-9,2.5932209869596765e-9,1.8651677059900665e-8,7.914175095689552e-9,2.577443701603249e-9,6.975455920757129e-10,1.147145117174718e-9,0
27445,5.361717727793244e-10,1.7087883009752914e-9,2.5841525146261145e-9,1.847107136132431e-8,7.707714399700228e-9,2.528013098458395e-9,6.909838667511496e-10,1.1447481154670547e-9,0
27446,5.301560907022375e-10,1.7034410002600269e-9,2.5750840422925525e-9,1.8290465662747956e-8,7.501253703710906e-9,2.478582495313541e-9,6.844221414265862e-10,1.1423511137593916e-9,0
27447,5.241404086251506e-10,1.6980936995447626e-9,2.5660155699589906e-9,1.8109859964171598e-8,7.2947930077215825e-9,2.4291518921686876e-9,6.778604161020229e-10,1.1399541120517283e-9,0
27448,5.181247265480637e-10,1.6927463988294981e-9,2.556947097625428e-9,1.7929254265595243e-8,7.0883323117322595e-9,2.3797212890238337e-9,6.712986907774596e-10,1.1375571103440653e-9,0
27449,5.121090444709768e-10,1.6873990981142339e-9,2.547878625291866e-9,1.774864856701889e-8,6.881871615742937e-9,2.3302906858789798e-9,6.647369654528962e-10,1.135160108636402e-9,0
27450,5.060933623938899e-10,1.6820517973989694e-9,2.5388101529583042e-9,1.7568042868442535e-8,6.675410919753613e-9,2.2808600827341263e-9,6.581752401283329e-10,1.132763106928739e-9,0
27451,5.00077680316803e-10,1.6767044966837051e-9,2.5297416806247423e-9,1.738743716986618e-8,6.46895022376429e-9,2.2314294795892723e-9,6.516135148037696e-10,1.1303661052210756e-9,0
27452,4.940619982397162e-10,1.6713571959684406e-9,2.5206732082911803e-9,1.7206831471289822e-8,6.262489527774967e-9,2.1819988764444184e-9,6.450517894792062e-10,1.1279691035134125e-9,0
27453,4.880463161626292e-10,1.6660098952531764e-9,2.5116047359576183e-9,1.7026225772713468e-8,6.056028831785643e-9,2.132568273299565e-9,6.384900641546429e-10,1.1255721018057495e-9,0
27454,4.820306340855424e-10,1.660662594537912e-9,2.502536263624056e-9,1.6845620074137113e-8,5.84956813579632e-9,2.083137670154711e-9,6.319283388300796e-10,1.1231751000980862e-9,0
27455,4.760149520084554e-10,1.6553152938226476e-9,2.493467791290494e-9,1.666501437556076e-8,5.643107439806997e-9,2.033707067009857e-9,6.253666135055162e-10,1.1207780983904231e-9,0
27456,4.693623937336172e-10,1.6491094704469815e-9,2.496077714242094e-9,1.6504627497697536e-8,5.4680597518141566e-9,1.9850862992498273e-9,6.188048881809529e-10,1.119480344703995e-9,0
27457,4.693623937336172e-10,1.6471880533012143e-9,2.5019655251393092e-9,1.6521004909022297e-8,5.153910574445912e-9,1.970740762823751e-9,6.102201057025985e-10,1.0388659116563085e-9,0
27458,4.675592435503043e-10,1.647261648624275e-9,2.5058583235676964e-9,1.656915390429902e-8,5.098694207527056e-9,1.96500254825332e-9,6.07358511543147e-10,1.031089345354639e-9,0
27459,4.6498109408869563e-10,1.6473352439473358e-9,2.507944252260361e-9,1.656210418665191e-8,5.040895694015643e-9,1.9590766628332994e-9,6.03630335693072e-10,1.0227172620573909e-9,0
27460,4.62402944627087e-10,1.6474088392703965e-9,2.5100301809530252e-9,1.65550544690048e-8,4.98309718050423e-9,1.9531507774132786e-9,5.99902159842997e-10,1.0143451787601429e-9,0
27461,4.5982479516547834e-10,1.6474824345934572e-9,2.5121161096456892e-9,1.6548004751357686e-8,4.925298666992817e-9,1.947224891993258e-9,5.96173983992922e-10,1.0059730954628946e-9,0
27462,4.5724664570386964e-10,1.647556029916518e-9,2.5142020383383536e-9,1.6540955033710576e-8,4.867500153481404e-9,1.941299006573237e-9,5.92445808142847e-10,9.976010121656466e-10,0
27463,4.54668496242261e-10,1.6476296252395787e-9,2.516287967031018e-9,1.6533905316063466e-8,4.8097016399699915e-9,1.9353731211532167e-9,5.887176322927719e-10,9.892289288683984e-10,0
27464,4.520903467806523e-10,1.6477032205626394e-9,2.5183738957236825e-9,1.6526855598416353e-8,4.751903126458579e-9,1.929447235733196e-9,5.849894564426969e-10,9.808568455711504e-10,0
27465,4.4951219731904364e-10,1.6477768158857e-9,2.5204598244163465e-9,1.6519805880769243e-8,4.694104612947166e-9,1.923521350313175e-9,5.812612805926219e-10,9.724847622739022e-10,0
27466,4.46934047857435e-10,1.6478504112087607e-9,2.522545753109011e-9,1.651275616312213e-8,4.636306099435753e-9,1.9175954648931544e-9,5.775331047425469e-10,9.641126789766542e-10,0
27467,4.443558983958263e-10,1.6479240065318214e-9,2.5246316818016753e-9,1.650570644547502e-8,4.57850758592434e-9,1.9116695794731336e-9,5.738049288924718e-10,9.55740595679406e-10,0
27468,4.4177774893421765e-10,1.6479976018548822e-9,2.5267176104943397e-9,1.649865672782791e-8,4.520709072412927e-9,1.905743694053113e-9,5.700767530423968e-10,9.47368512382158e-10,0
27469,4.3919959947260895e-10,1.648071197177943e-9,2.5288035391870037e-9,1.6491607010180797e-8,4.462910558901514e-9,1.899817808633092e-9,5.663485771923218e-10,9.389964290849097e-10,0
27470,4.3919959947260895e-10,1.6481447925010036e-9,2.5326900273299592e-9,1.6500570298753667e-8,4.4603284123089574e-9,1.899630137783502e-9,5.64300574980576e-10,9.328079081047836e-10,0
27471,4.3919959947260895e-10,1.6482183878240644e-9,2.5365765154729143e-9,1.6509533587326535e-8,4.4577462657164005e-9,1.899442466933912e-9,5.622525727688302e-10,9.266193871246575e-10,0
27472,4.3919959947260895e-10,1.6482919831471249e-9,2.5404630036158694e-9,1.6518496875899405e-8,4.4551641191238436e-9,1.8992547960843217e-9,5.602045705570844e-10,9.204308661445314e-10,0
27473,4.3919959947260895e-10,1.6483655784701856e-9,2.5443494917588244e-9,1.6527460164472273e-8,4.452581972531287e-9,1.899067125234731e-9,5.581565683453386e-10,9.142423451644053e-10,0
27474,4.3919959947260895e-10,1.6484391737932464e-9,2.5482359799017795e-9,1.6536423453045143e-8,4.44999982593873e-9,1.898879454385141e-9,5.561085661335929e-10,9.080538241842791e-10,0
27475,4.3919959947260895e-10,1.648512769116307e-9,2.552122468044735e-9,1.654538674161801e-8,4.447417679346173e-9,1.898691783535551e-9,5.540605639218471e-10,9.01865303204153e-10,0
27476,4.3919959947260895e-10,1.6485863644393678e-9,2.55600895618769e-9,1.655435003019088e-8,4.444835532753616e-9,1.898504112685961e-9,5.520125617101013e-10,8.956767822240269e-10,0
27477,4.3919959947260895e-10,1.6486599597624286e-9,2.559895444330645e-9,1.6563313318763748e-8,4.442253386161059e-9,1.8983164418363707e-9,5.499645594983555e-10,8.894882612439008e-10,0
27478,4.404196126631411e-10,1.64951848242283e-9,2.5619876833087416e-9,1.6599410797684434e-8,4.441577871030808e-9,1.8984398532543972e-9,5.481004715733179e-10,8.832997402637747e-10,0
27479,4.404196126631411e-10,1.6497310613199032e-9,2.561385393396834e-9,1.6760713740239002e-8,4.428932281087589e-9,1.8993731000572475e-9,5.477856327428192e-10,8.740169587935855e-10,0
27480,4.4078024269980366e-10,1.6499436402169764e-9,2.561385393396834e-9,1.681868918231058e-8,4.416286691144371e-9,1.8991854292076574e-9,5.476547081990288e-10,8.656299417709891e-10,0
27481,4.411408727364662e-10,1.6501562191140494e-9,2.561385393396834e-9,1.687666462438216e-8,4.403641101201152e-9,1.8989977583580673e-9,5.475237836552384e-10,8.572429247483928e-10,0
27482,4.4150150277312883e-10,1.6503687980111226e-9,2.561385393396834e-9,1.693464006645374e-8,4.3909955112579336e-9,1.898810087508477e-9,5.47392859111448e-10,8.488559077257964e-10,0
27483,4.418621328097914e-10,1.6505813769081958e-9,2.561385393396834e-9,1.699261550852532e-8,4.378349921314715e-9,1.898622416658887e-9,5.472619345676576e-10,8.404688907032e-10,0
27484,4.4222276284645395e-10,1.6507939558052688e-9,2.561385393396834e-9,1.70505909505969e-8,4.3657043313714965e-9,1.8984347458092965e-9,5.471310100238672e-10,8.320818736806037e-10,0
27485,4.4258339288311656e-10,1.651006534702342e-9,2.561385393396834e-9,1.710856639266848e-8,4.353058741428278e-9,1.8982470749597064e-9,5.470000854800767e-10,8.236948566580073e-10,0
27486,4.429440229197791e-10,1.6512191135994152e-9,2.561385393396834e-9,1.7166541834740057e-8,4.340413151485059e-9,1.8980594041101163e-9,5.468691609362863e-10,8.153078396354109e-10,0
27487,4.433046529564417e-10,1.6514316924964882e-9,2.561385393396834e-9,1.722451727681164e-8,4.327767561541841e-9,1.897871733260526e-9,5.467382363924959e-10,8.069208226128145e-10,0
27488,4.4366528299310424e-10,1.6516442713935614e-9,2.561385393396834e-9,1.728249271888322e-8,4.315121971598622e-9,1.897684062410936e-9,5.466073118487055e-10,7.985338055902182e-10,0
27489,4.4402591302976685e-10,1.6518568502906346e-9,2.561385393396834e-9,1.7340468160954797e-8,4.302476381655404e-9,1.897496391561346e-9,5.464763873049151e-10,7.901467885676218e-10,0
27490,4.443865430664294e-10,1.6520694291877078e-9,2.561385393396834e-9,1.7398443603026376e-8,4.289830791712185e-9,1.8973087207117554e-9,5.463454627611247e-10,7.817597715450254e-10,0
27491,4.4474717310309196e-10,1.6522820080847808e-9,2.561385393396834e-9,1.745641904509796e-8,4.277185201768967e-9,1.8971210498621653e-9,5.462145382173343e-10,7.733727545224291e-10,0
27492,4.41562792114335e-10,1.656206644771485e-9,2.5866084184995564e-9,1.7497911262906064e-8,4.277048411065405e-9,1.8950026259753106e-9,5.470281301650399e-10,7.73571260187622e-10,0
27493,4.3837841112557805e-10,1.6601312814581892e-9,2.611831443602279e-9,1.7539403480714172e-8,4.276911620361843e-9,1.8928842020884564e-9,5.478417221127456e-10,7.737697658528148e-10,0
27494,4.3837841112557805e-10,1.6640559181448932e-9,2.6372552320089708e-9,1.7531763464547995e-8,4.2761392858375134e-9,1.8928842020884564e-9,5.478417221127456e-10,7.73072507070415e-10,0
27495,4.3837841112557805e-10,1.6679805548315974e-9,2.6626790204156627e-9,1.7524123448381822e-8,4.275366951313183e-9,1.8928842020884564e-9,5.478417221127456e-10,7.723752482880151e-10,0
27496,4.3837841112557805e-10,1.6719051915183015e-9,2.6881028088223543e-9,1.751648343221565e-8,4.274594616788852e-9,1.8928842020884564e-9,5.478417221127456e-10,7.716779895056152e-10,0
27497,4.3837841112557805e-10,1.6758298282050057e-9,2.7135265972290463e-9,1.7508843416049476e-8,4.2738222822645226e-9,1.8928842020884564e-9,5.478417221127456e-10,7.709807307232153e-10,0
27498,4.3837841112557805e-10,1.67975446489171e-9,2.7389503856357382e-9,1.75012033998833e-8,4.273049947740192e-9,1.8928842020884564e-9,5.478417221127456e-10,7.702834719408154e-10,0
