"time" "channel1" "channel2" "channel3" "channel4" "channel5" "channel6" "channel7" "channel8"
"1656" 57367 3.52334397328891e-09 2.45547048351334e-09 4.87433568620374e-09 2.95073711153676e-08 3.64016814850489e-07 3.91075735338354e-07 3.8423842589197e-08 1.7389382850899e-07
"1657" 57368 3.48444490357703e-09 2.40815022864362e-09 4.74491862196309e-09 2.9070925108178e-08 3.64186502181294e-07 3.9024697483909e-07 3.78215307352762e-08 1.73921842521103e-07
"1658" 57369 3.44554583386515e-09 2.36082997377391e-09 4.61550155772244e-09 2.86344791009884e-08 3.64356189512098e-07 3.89418214339825e-07 3.72192188813554e-08 1.73949856533217e-07
"1659" 57370 3.40664676415328e-09 2.3135097189042e-09 4.48608449348179e-09 2.81980330937987e-08 3.64525876842902e-07 3.88589453840561e-07 3.66169070274346e-08 1.73977870545331e-07
"1660" 57371 3.35952102308019e-09 2.26637614549521e-09 4.35613438942622e-09 2.76788719879489e-08 3.63819924308071e-07 3.87079480732255e-07 3.60217996926745e-08 1.73958983288044e-07
"1661" 57372 3.32212372286534e-09 2.24355608463359e-09 4.3172503856332e-09 2.75950346644329e-08 3.64068479636546e-07 3.8504972719313e-07 3.54530433782077e-08 1.73945549634462e-07
"1662" 57373 3.27512221089277e-09 2.19950837065820e-09 4.19125601981756e-09 2.70819482147421e-08 3.63349375379861e-07 3.82895450323049e-07 3.48495401353739e-08 1.73934726264601e-07
"1663" 57374 3.2281206989202e-09 2.1554606566828e-09 4.06526165400192e-09 2.65688617650514e-08 3.62630271123177e-07 3.80741173452969e-07 3.424603689254e-08 1.73923902894739e-07
"1664" 57375 3.18111918694763e-09 2.11141294270741e-09 3.93926728818628e-09 2.60557753153607e-08 3.61911166866493e-07 3.78586896582888e-07 3.36425336497062e-08 1.73913079524877e-07
"1665" 57376 3.13411767497505e-09 2.06736522873202e-09 3.81327292237064e-09 2.55426888656699e-08 3.61192062609808e-07 3.76432619712808e-07 3.30390304068723e-08 1.73902256155016e-07
"1666" 57377 3.12601523271436e-09 2.04707098292184e-09 3.77633715144931e-09 2.50522508734359e-08 3.60525530771788e-07 3.76437981169244e-07 3.29686085842044e-08 1.7365082349496e-07
"1667" 57378 3.11791279045366e-09 2.02677673711167e-09 3.73940138052798e-09 2.45618128812018e-08 3.59858998933767e-07 3.76443342625679e-07 3.28981867615365e-08 1.73399390834904e-07
"1668" 57379 3.10981034819297e-09 2.00648249130149e-09 3.70246560960665e-09 2.40713748889677e-08 3.59192467095746e-07 3.76448704082115e-07 3.28277649388686e-08 1.73147958174848e-07
"1669" 57380 3.10170790593227e-09 1.98618824549132e-09 3.66552983868532e-09 2.35809368967336e-08 3.58525935257726e-07 3.76454065538551e-07 3.27573431162007e-08 1.72896525514792e-07
"1670" 57381 3.09360546367158e-09 1.96589399968114e-09 3.62859406776399e-09 2.30904989044995e-08 3.57859403419705e-07 3.76459426994987e-07 3.26869212935328e-08 1.72645092854736e-07
"1671" 57382 3.08550302141088e-09 1.94559975387097e-09 3.59165829684267e-09 2.26000609122654e-08 3.57192871581684e-07 3.76464788451423e-07 3.26164994708649e-08 1.7239366019468e-07
"1672" 57383 3.07740057915019e-09 1.92530550806079e-09 3.55472252592134e-09 2.21096229200313e-08 3.56526339743664e-07 3.76470149907858e-07 3.2546077648197e-08 1.72142227534625e-07
"1673" 57384 3.06929813688949e-09 1.90501126225062e-09 3.51778675500001e-09 2.16191849277972e-08 3.55859807905643e-07 3.76475511364294e-07 3.24756558255291e-08 1.71890794874569e-07
"1674" 57385 3.0611956946288e-09 1.88471701644044e-09 3.48085098407868e-09 2.11287469355631e-08 3.55193276067622e-07 3.7648087282073e-07 3.24052340028612e-08 1.71639362214513e-07
"1675" 57386 3.03513079328811e-09 1.85820578523081e-09 3.45947317343422e-09 2.11401929275816e-08 3.55155695043301e-07 3.76430582346659e-07 3.23994842955927e-08 1.71403773136074e-07
"1676" 57387 3.00894166284691e-09 1.82842201312687e-09 3.43467266436475e-09 2.11400136900765e-08 3.55118714442775e-07 3.76751532489917e-07 3.23962698013696e-08 1.71207021439611e-07
"1677" 57388 2.98275253240571e-09 1.79863824102292e-09 3.40987215529528e-09 2.11398344525714e-08 3.55081733842249e-07 3.77072482633174e-07 3.23930553071466e-08 1.71010269743147e-07
"1678" 57389 2.9565634019645e-09 1.76885446891898e-09 3.38507164622581e-09 2.11396552150663e-08 3.55044753241724e-07 3.77393432776432e-07 3.23898408129235e-08 1.70813518046684e-07
"1679" 57390 2.9303742715233e-09 1.73907069681503e-09 3.36027113715635e-09 2.11394759775612e-08 3.55007772641198e-07 3.7771438291969e-07 3.23866263187005e-08 1.70616766350221e-07
"1680" 57391 2.9041851410821e-09 1.70928692471108e-09 3.33547062808688e-09 2.11392967400561e-08 3.54970792040672e-07 3.78035333062948e-07 3.23834118244774e-08 1.70420014653758e-07
"1681" 57392 2.87799601064089e-09 1.67950315260714e-09 3.31067011901741e-09 2.1139117502551e-08 3.54933811440146e-07 3.78356283206205e-07 3.23801973302543e-08 1.70223262957294e-07
"1682" 57393 2.85180688019969e-09 1.64971938050319e-09 3.28586960994794e-09 2.11389382650459e-08 3.54896830839621e-07 3.78677233349463e-07 3.23769828360313e-08 1.70026511260831e-07
"1683" 57394 2.82561774975849e-09 1.61993560839924e-09 3.26106910087847e-09 2.11387590275408e-08 3.54859850239095e-07 3.78998183492721e-07 3.23737683418082e-08 1.69829759564368e-07
"1684" 57395 2.79942861931729e-09 1.5901518362953e-09 3.236268591809e-09 2.11385797900357e-08 3.54822869638569e-07 3.79319133635978e-07 3.23705538475851e-08 1.69633007867904e-07
"1685" 57396 2.77323948887608e-09 1.56036806419135e-09 3.21146808273953e-09 2.11384005525306e-08 3.54785889038043e-07 3.79640083779236e-07 3.23673393533621e-08 1.69436256171441e-07
"1686" 57397 2.74705035843488e-09 1.53058429208741e-09 3.18666757367006e-09 2.11382213150255e-08 3.54748908437518e-07 3.79961033922494e-07 3.2364124859139e-08 1.69239504474978e-07
"1687" 57398 2.72086122799368e-09 1.50080051998346e-09 3.1618670646006e-09 2.11380420775204e-08 3.54711927836992e-07 3.80281984065752e-07 3.23609103649159e-08 1.69042752778514e-07
"1688" 57399 2.69504662156916e-09 1.47120342934023e-09 3.1362124425373e-09 2.11369549525334e-08 3.54714469603955e-07 3.8023127842933e-07 3.23762326309483e-08 1.68817987069937e-07
"1689" 57400 2.69229337749129e-09 1.46356750058682e-09 3.12227539550352e-09 2.10354119540409e-08 3.53659992507651e-07 3.79563611278847e-07 3.23905988382055e-08 1.68804553416356e-07
"1690" 57401 2.68880394238597e-09 1.46983256018438e-09 3.12473487439183e-09 2.08549646443209e-08 3.5302894327523e-07 3.78644948157445e-07 3.18682090582064e-08 1.68994498788645e-07
"1691" 57402 2.6757084588078e-09 1.47212361957699e-09 3.09042376939771e-09 2.07015396216825e-08 3.50571352788993e-07 3.75296648508617e-07 3.16941990223787e-08 1.6657822469961e-07
"1692" 57403 2.66261297522963e-09 1.4744146789696e-09 3.05611266440359e-09 2.05481145990442e-08 3.48113762302757e-07 3.7194834885979e-07 3.1520188986551e-08 1.64161950610575e-07
"1693" 57404 2.64951749165147e-09 1.47670573836221e-09 3.02180155940947e-09 2.03946895764059e-08 3.45656171816521e-07 3.68600049210963e-07 3.13461789507234e-08 1.61745676521541e-07
"1694" 57405 2.6364220080733e-09 1.47899679775482e-09 2.98749045441535e-09 2.02412645537676e-08 3.43198581330284e-07 3.65251749562135e-07 3.11721689148957e-08 1.59329402432506e-07
"1695" 57406 2.62332652449513e-09 1.48128785714744e-09 2.95317934942123e-09 2.00878395311292e-08 3.40740990844048e-07 3.61903449913308e-07 3.0998158879068e-08 1.56913128343471e-07
"1696" 57407 2.61023104091696e-09 1.48357891654005e-09 2.9188682444271e-09 1.99344145084909e-08 3.38283400357812e-07 3.58555150264481e-07 3.08241488432403e-08 1.54496854254436e-07
"1697" 57408 2.59713555733879e-09 1.48586997593266e-09 2.88455713943298e-09 1.97809894858526e-08 3.35825809871575e-07 3.55206850615653e-07 3.06501388074126e-08 1.52080580165401e-07
"1698" 57409 2.58404007376062e-09 1.48816103532527e-09 2.85024603443886e-09 1.96275644632143e-08 3.33368219385339e-07 3.51858550966826e-07 3.0476128771585e-08 1.49664306076367e-07
"1699" 57410 2.57094459018245e-09 1.49045209471788e-09 2.81593492944474e-09 1.94741394405759e-08 3.30910628899103e-07 3.48510251317999e-07 3.03021187357573e-08 1.47248031987332e-07
"1700" 57411 2.55784910660428e-09 1.49274315411049e-09 2.78162382445062e-09 1.93207144179376e-08 3.28453038412866e-07 3.45161951669171e-07 3.01281086999296e-08 1.44831757898297e-07
"1701" 57412 2.54475362302612e-09 1.4950342135031e-09 2.7473127194565e-09 1.91672893952993e-08 3.2599544792663e-07 3.41813652020344e-07 2.99540986641019e-08 1.42415483809262e-07
"1702" 57413 2.53165813944795e-09 1.49732527289571e-09 2.71300161446238e-09 1.9013864372661e-08 3.23537857440394e-07 3.38465352371516e-07 2.97800886282743e-08 1.39999209720227e-07
"1703" 57414 2.51856265586978e-09 1.49961633228833e-09 2.67869050946825e-09 1.88604393500227e-08 3.21080266954157e-07 3.35117052722689e-07 2.96060785924466e-08 1.37582935631193e-07
"1704" 57415 2.50546717229161e-09 1.50190739168094e-09 2.64437940447413e-09 1.87070143273843e-08 3.18622676467921e-07 3.31768753073862e-07 2.94320685566189e-08 1.35166661542158e-07
"1705" 57416 2.49237168871344e-09 1.50419845107355e-09 2.61006829948001e-09 1.8553589304746e-08 3.16165085981685e-07 3.28420453425034e-07 2.92580585207912e-08 1.32750387453123e-07
"1706" 57417 2.47927620513527e-09 1.50648951046616e-09 2.57575719448589e-09 1.84001642821077e-08 3.13707495495448e-07 3.25072153776207e-07 2.90840484849635e-08 1.30334113364088e-07
"1707" 57418 2.4661807215571e-09 1.50878056985877e-09 2.54144608949177e-09 1.82467392594694e-08 3.11249905009212e-07 3.2172385412738e-07 2.89100384491359e-08 1.27917839275053e-07
"1708" 57419 2.45308523797893e-09 1.51107162925138e-09 2.50713498449765e-09 1.8093314236831e-08 3.08792314522976e-07 3.18375554478552e-07 2.87360284133082e-08 1.25501565186019e-07
"1709" 57420 2.43998975440077e-09 1.51336268864399e-09 2.47282387950353e-09 1.79398892141927e-08 3.06334724036739e-07 3.15027254829725e-07 2.85620183774805e-08 1.23085291096984e-07
"1710" 57421 2.4268942708226e-09 1.5156537480366e-09 2.4385127745094e-09 1.77864641915544e-08 3.03877133550503e-07 3.11678955180898e-07 2.83880083416528e-08 1.20669017007949e-07
"1711" 57422 2.39086716414371e-09 1.5138454170285e-09 2.43424220954028e-09 1.77897002368381e-08 3.03077360024761e-07 3.11422096767239e-07 2.84888941683249e-08 1.18885593766601e-07
"1712" 57423 2.35159724384542e-09 1.51283188606138e-09 2.42683573262732e-09 1.77839840556893e-08 3.02259113433132e-07 3.10827497785872e-07 2.85171987536276e-08 1.17012264241822e-07
"1713" 57424 2.33813274639597e-09 1.51113292051633e-09 2.43851902095911e-09 1.78094964536985e-08 3.02277983581458e-07 3.08769687569439e-07 2.85638314782841e-08 1.16887375606836e-07
"1714" 57425 2.32466824894651e-09 1.50943395497129e-09 2.4502023092909e-09 1.78350088517077e-08 3.02296853729784e-07 3.06711877353007e-07 2.86104642029405e-08 1.16762486971851e-07
"1715" 57426 2.31120375149706e-09 1.50773498942624e-09 2.46188559762269e-09 1.78605212497169e-08 3.0231572387811e-07 3.04654067136574e-07 2.8657096927597e-08 1.16637598336866e-07
"1716" 57427 2.2977392540476e-09 1.5060360238812e-09 2.47356888595448e-09 1.78860336477261e-08 3.02334594026436e-07 3.02596256920142e-07 2.87037296522535e-08 1.1651270970188e-07
"1717" 57428 2.28427475659815e-09 1.50433705833615e-09 2.48525217428627e-09 1.79115460457353e-08 3.02353464174762e-07 3.00538446703709e-07 2.87503623769099e-08 1.16387821066895e-07
"1718" 57429 2.27081025914869e-09 1.50263809279111e-09 2.49693546261806e-09 1.79370584437445e-08 3.02372334323088e-07 2.98480636487276e-07 2.87969951015664e-08 1.1626293243191e-07
"1719" 57430 2.25734576169924e-09 1.50093912724607e-09 2.50861875094985e-09 1.79625708417537e-08 3.02391204471414e-07 2.96422826270844e-07 2.88436278262228e-08 1.16138043796925e-07
"1720" 57431 2.24388126424979e-09 1.49924016170102e-09 2.52030203928164e-09 1.79880832397629e-08 3.02410074619741e-07 2.94365016054411e-07 2.88902605508793e-08 1.16013155161939e-07
"1721" 57432 2.23041676680033e-09 1.49754119615598e-09 2.53198532761343e-09 1.80135956377722e-08 3.02428944768067e-07 2.92307205837979e-07 2.89368932755357e-08 1.15888266526954e-07
"1722" 57433 2.21695226935088e-09 1.49584223061093e-09 2.54366861594522e-09 1.80391080357814e-08 3.02447814916393e-07 2.90249395621546e-07 2.89835260001922e-08 1.15763377891969e-07
"1723" 57434 2.20348777190142e-09 1.49414326506589e-09 2.55535190427701e-09 1.80646204337906e-08 3.02466685064719e-07 2.88191585405113e-07 2.90301587248487e-08 1.15638489256984e-07
"1724" 57435 2.19002327445197e-09 1.49244429952084e-09 2.5670351926088e-09 1.80901328317998e-08 3.02485555213045e-07 2.86133775188681e-07 2.90767914495051e-08 1.15513600621998e-07
"1725" 57436 2.18428853196166e-09 1.49216427732976e-09 2.56588804668409e-09 1.79628339087177e-08 3.0189843465604e-07 2.86190299797569e-07 2.90979182248835e-08 1.15780535853637e-07
"1726" 57437 2.17855378947134e-09 1.49188425513868e-09 2.56474090075938e-09 1.78355349856355e-08 3.01311314099034e-07 2.86246824406456e-07 2.91190450002618e-08 1.16047471085276e-07
"1727" 57438 2.17281904698103e-09 1.49160423294761e-09 2.56359375483466e-09 1.77082360625534e-08 3.00724193542029e-07 2.86303349015344e-07 2.91401717756402e-08 1.16314406316916e-07
"1728" 57439 2.16708430449072e-09 1.49132421075653e-09 2.56244660890995e-09 1.75809371394713e-08 3.00137072985024e-07 2.86359873624232e-07 2.91612985510185e-08 1.16581341548555e-07
"1729" 57440 2.16134956200041e-09 1.49104418856545e-09 2.56129946298524e-09 1.74536382163891e-08 2.99549952428018e-07 2.8641639823312e-07 2.91824253263969e-08 1.16848276780194e-07
"1730" 57441 2.15561481951009e-09 1.49076416637437e-09 2.56015231706053e-09 1.7326339293307e-08 2.98962831871013e-07 2.86472922842008e-07 2.92035521017752e-08 1.17115212011833e-07
"1731" 57442 2.14988007701978e-09 1.49048414418329e-09 2.55900517113582e-09 1.71990403702249e-08 2.98375711314008e-07 2.86529447450896e-07 2.92246788771536e-08 1.17382147243472e-07
"1732" 57443 2.14414533452947e-09 1.49020412199221e-09 2.55785802521111e-09 1.70717414471427e-08 2.97788590757002e-07 2.86585972059784e-07 2.9245805652532e-08 1.17649082475111e-07
"1733" 57444 2.13841059203915e-09 1.48992409980113e-09 2.5567108792864e-09 1.69444425240606e-08 2.97201470199997e-07 2.86642496668672e-07 2.92669324279103e-08 1.1791601770675e-07
"1734" 57445 2.1405298336085e-09 1.48333094381438e-09 2.54787671641726e-09 1.66873684015604e-08 2.93089519095134e-07 2.86392289785367e-07 2.93127896218522e-08 1.18258501967538e-07
"1735" 57446 2.14264907517785e-09 1.47673778782762e-09 2.53904255354812e-09 1.64302942790601e-08 2.88977567990271e-07 2.86142082902063e-07 2.9358646815794e-08 1.18600986228325e-07
"1736" 57447 2.14476831674719e-09 1.47014463184087e-09 2.53020839067899e-09 1.61732201565599e-08 2.84865616885408e-07 2.85891876018759e-07 2.94045040097359e-08 1.18943470489113e-07
"1737" 57448 2.14688755831654e-09 1.46355147585411e-09 2.52137422780985e-09 1.59161460340596e-08 2.80753665780545e-07 2.85641669135454e-07 2.94503612036778e-08 1.192859547499e-07
"1738" 57449 2.14900679988588e-09 1.45695831986736e-09 2.51254006494071e-09 1.56590719115594e-08 2.76641714675682e-07 2.8539146225215e-07 2.94962183976196e-08 1.19628439010688e-07
"1739" 57450 2.15112604145523e-09 1.4503651638806e-09 2.50370590207158e-09 1.54019977890591e-08 2.72529763570819e-07 2.85141255368845e-07 2.95420755915615e-08 1.19970923271475e-07
"1740" 57451 2.15324528302458e-09 1.44377200789385e-09 2.49487173920244e-09 1.51449236665589e-08 2.68417812465956e-07 2.84891048485541e-07 2.95879327855034e-08 1.20313407532263e-07
"1741" 57452 2.15162479457244e-09 1.43616532093998e-09 2.47179194902004e-09 1.4858372450789e-08 2.64641478139947e-07 2.84584109133025e-07 2.95860902082538e-08 1.20300775301416e-07
"1742" 57453 2.1500043061203e-09 1.4285586339861e-09 2.44871215883764e-09 1.45718212350191e-08 2.60865143813938e-07 2.84277169780509e-07 2.95842476310043e-08 1.20288143070568e-07
"1743" 57454 2.14838381766816e-09 1.42095194703223e-09 2.42563236865523e-09 1.42852700192492e-08 2.57088809487928e-07 2.83970230427994e-07 2.95824050537547e-08 1.20275510839721e-07
"1744" 57455 2.14676332921602e-09 1.41334526007836e-09 2.40255257847283e-09 1.39987188034793e-08 2.53312475161919e-07 2.83663291075478e-07 2.95805624765052e-08 1.20262878608874e-07
"1745" 57456 2.14514284076388e-09 1.40573857312448e-09 2.37947278829043e-09 1.37121675877094e-08 2.4953614083591e-07 2.83356351722962e-07 2.95787198992556e-08 1.20250246378027e-07
"1746" 57457 2.14352235231174e-09 1.39813188617061e-09 2.35639299810803e-09 1.34256163719396e-08 2.45759806509901e-07 2.83049412370446e-07 2.95768773220061e-08 1.2023761414718e-07
"1747" 57458 2.13229581538675e-09 1.3989266862116e-09 2.35721282440413e-09 1.33149048798759e-08 2.45051076594776e-07 2.82918447044351e-07 2.9259710403317e-08 1.17224547136732e-07
"1748" 57459 2.13404053293941e-09 1.39621418969944e-09 2.35247779301552e-09 1.31476959372255e-08 2.44603758318218e-07 2.80470197286209e-07 2.91280957660567e-08 1.17228653679803e-07
"1749" 57460 2.12131957337793e-09 1.40855762743384e-09 2.38311994625089e-09 1.31476959372255e-08 2.43103580075937e-07 2.80216248358783e-07 2.89936691381537e-08 1.16907526305672e-07
"1750" 57461 2.108971301118e-09 1.42024768005573e-09 2.40235310473622e-09 1.30930240317942e-08 2.41596380888914e-07 2.79472936799425e-07 2.88488930371673e-08 1.16503591709884e-07
"1751" 57462 2.09662302885807e-09 1.43193773267762e-09 2.42158626322155e-09 1.30383521263628e-08 2.40089181701892e-07 2.78729625240066e-07 2.8704116936181e-08 1.16099657114096e-07
"1752" 57463 2.08427475659815e-09 1.44362778529951e-09 2.44081942170689e-09 1.29836802209315e-08 2.38581982514869e-07 2.77986313680708e-07 2.85593408351947e-08 1.15695722518309e-07
"1753" 57464 2.07192648433822e-09 1.4553178379214e-09 2.46005258019222e-09 1.29290083155001e-08 2.37074783327846e-07 2.77243002121349e-07 2.84145647342084e-08 1.15291787922521e-07
"1754" 57465 2.06569115201557e-09 1.45541117865176e-09 2.46219098590164e-09 1.29086743861244e-08 2.35731838856639e-07 2.76860623987095e-07 2.82853328747742e-08 1.15793198208231e-07
"1755" 57466 2.05945581969291e-09 1.45550451938212e-09 2.46432939161106e-09 1.28883404567487e-08 2.34388894385433e-07 2.76478245852841e-07 2.815610101534e-08 1.16294608493941e-07
"1756" 57467 2.05322048737026e-09 1.45559786011248e-09 2.46646779732047e-09 1.2868006527373e-08 2.33045949914227e-07 2.76095867718586e-07 2.80268691559059e-08 1.16796018779651e-07
"1757" 57468 2.04698515504761e-09 1.45569120084284e-09 2.46860620302989e-09 1.28476725979973e-08 2.31703005443021e-07 2.75713489584332e-07 2.78976372964717e-08 1.17297429065361e-07
"1758" 57469 2.04074982272495e-09 1.4557845415732e-09 2.47074460873931e-09 1.28273386686216e-08 2.30360060971814e-07 2.75331111450078e-07 2.77684054370375e-08 1.17798839351071e-07
"1759" 57470 2.0345144904023e-09 1.45587788230356e-09 2.47288301444873e-09 1.28070047392459e-08 2.29017116500608e-07 2.74948733315824e-07 2.76391735776034e-08 1.18300249636781e-07
"1760" 57471 2.02827915807964e-09 1.45597122303392e-09 2.47502142015814e-09 1.27866708098701e-08 2.27674172029402e-07 2.74566355181569e-07 2.75099417181692e-08 1.18801659922491e-07
"1761" 57472 2.02204382575699e-09 1.45606456376427e-09 2.47715982586756e-09 1.27663368804944e-08 2.26331227558195e-07 2.74183977047315e-07 2.7380709858735e-08 1.193030702082e-07
"1762" 57473 2.01580849343433e-09 1.45615790449463e-09 2.47929823157698e-09 1.27460029511187e-08 2.24988283086989e-07 2.73801598913061e-07 2.72514779993009e-08 1.1980448049391e-07
"1763" 57474 2.00957316111168e-09 1.45625124522499e-09 2.48143663728639e-09 1.2725669021743e-08 2.23645338615783e-07 2.73419220778807e-07 2.71222461398667e-08 1.2030589077962e-07
"1764" 57475 2.00333782878902e-09 1.45634458595535e-09 2.48357504299581e-09 1.27053350923673e-08 2.22302394144577e-07 2.73036842644552e-07 2.69930142804325e-08 1.2080730106533e-07
"1765" 57476 1.99710249646637e-09 1.45643792668571e-09 2.48571344870523e-09 1.26850011629916e-08 2.2095944967337e-07 2.72654464510298e-07 2.68637824209984e-08 1.2130871135104e-07
"1766" 57477 1.99086716414371e-09 1.45653126741607e-09 2.48785185441464e-09 1.26646672336159e-08 2.19616505202164e-07 2.72272086376044e-07 2.67345505615642e-08 1.2181012163675e-07
"1767" 57478 1.98463183182106e-09 1.45662460814643e-09 2.48999026012406e-09 1.26443333042401e-08 2.18273560730958e-07 2.7188970824179e-07 2.660531870213e-08 1.2231153192246e-07
"1768" 57479 1.97839649949841e-09 1.45671794887679e-09 2.49212866583348e-09 1.26239993748644e-08 2.16930616259752e-07 2.71507330107535e-07 2.64760868426959e-08 1.2281294220817e-07
"1769" 57480 1.96157046947442e-09 1.44831646188193e-09 2.49088490626531e-09 1.26604473118187e-08 2.17106536038346e-07 2.71888379722268e-07 2.60057640367745e-08 1.23708894617991e-07
"1770" 57481 1.94474443945044e-09 1.43991497488707e-09 2.48964114669715e-09 1.26968952487729e-08 2.1728245581694e-07 2.72269429337001e-07 2.55354412308531e-08 1.24604847027812e-07
"1771" 57482 1.92791840942646e-09 1.4315134878922e-09 2.48839738712899e-09 1.27333431857271e-08 2.17458375595534e-07 2.72650478951734e-07 2.50651184249317e-08 1.25500799437633e-07
"1772" 57483 1.91109237940248e-09 1.42311200089734e-09 2.48715362756082e-09 1.27697911226813e-08 2.17634295374128e-07 2.73031528566467e-07 2.45947956190103e-08 1.26396751847453e-07
"1773" 57484 1.8942663493785e-09 1.41471051390248e-09 2.48590986799266e-09 1.28062390596356e-08 2.17810215152722e-07 2.73412578181199e-07 2.41244728130889e-08 1.27292704257274e-07
"1774" 57485 1.87744031935452e-09 1.40630902690761e-09 2.4846661084245e-09 1.28426869965898e-08 2.17986134931316e-07 2.73793627795932e-07 2.36541500071675e-08 1.28188656667095e-07
"1775" 57486 1.86061428933054e-09 1.39790753991275e-09 2.48342234885633e-09 1.2879134933544e-08 2.1816205470991e-07 2.74174677410665e-07 2.31838272012461e-08 1.29084609076916e-07
"1776" 57487 1.83954793945273e-09 1.39159440611707e-09 2.50056388122939e-09 1.28947365582844e-08 2.18357633133783e-07 2.74711209262036e-07 2.27096668056063e-08 1.29093838145676e-07
"1777" 57488 1.82570891798659e-09 1.37183096288951e-09 2.51605951456053e-09 1.29959444816793e-08 2.18538669179479e-07 2.74909462788681e-07 2.27145138725725e-08 1.29211613514687e-07
"1778" 57489 1.79877992308768e-09 1.33668348902619e-09 2.49650528289629e-09 1.29686416383836e-08 2.18053449598364e-07 2.74870934529099e-07 2.25668267641969e-08 1.29352065810239e-07
"1779" 57490 1.77185092818877e-09 1.30153601516287e-09 2.47695105123206e-09 1.29413387950879e-08 2.1756823001725e-07 2.74832406269518e-07 2.24191396558213e-08 1.29492518105791e-07
"1780" 57491 1.74492193328986e-09 1.26638854129955e-09 2.45739681956783e-09 1.29140359517922e-08 2.17083010436135e-07 2.74793878009936e-07 2.22714525474457e-08 1.29632970401343e-07
"1781" 57492 1.71799293839095e-09 1.23124106743623e-09 2.4378425879036e-09 1.28867331084965e-08 2.1659779085502e-07 2.74755349750354e-07 2.21237654390701e-08 1.29773422696895e-07
"1782" 57493 1.69106394349205e-09 1.19609359357291e-09 2.41828835623936e-09 1.28594302652008e-08 2.16112571273905e-07 2.74716821490772e-07 2.19760783306944e-08 1.29913874992447e-07
"1783" 57494 1.68320444928698e-09 1.19249295628939e-09 2.40657078120985e-09 1.28063714973154e-08 2.15821111380299e-07 2.72606434895006e-07 2.17974151105792e-08 1.28715700942165e-07
"1784" 57495 1.67534495508192e-09 1.18889231900588e-09 2.39485320618034e-09 1.275331272943e-08 2.15529651486694e-07 2.7049604829924e-07 2.1618751890464e-08 1.27517526891883e-07
"1785" 57496 1.66748546087686e-09 1.18529168172237e-09 2.38313563115083e-09 1.27002539615447e-08 2.15238191593088e-07 2.68385661703474e-07 2.14400886703488e-08 1.26319352841602e-07
"1786" 57497 1.6596259666718e-09 1.18169104443886e-09 2.37141805612132e-09 1.26471951936593e-08 2.14946731699482e-07 2.66275275107707e-07 2.12614254502336e-08 1.2512117879132e-07
"1787" 57498 1.65176647246673e-09 1.17809040715534e-09 2.35970048109181e-09 1.25941364257739e-08 2.14655271805877e-07 2.64164888511941e-07 2.10827622301183e-08 1.23923004741038e-07
"1788" 57499 1.64390697826167e-09 1.17448976987183e-09 2.3479829060623e-09 1.25410776578886e-08 2.14363811912271e-07 2.62054501916175e-07 2.09040990100031e-08 1.22724830690757e-07
"1789" 57500 1.63604748405661e-09 1.17088913258832e-09 2.33626533103279e-09 1.24880188900032e-08 2.14072352018665e-07 2.59944115320409e-07 2.07254357898879e-08 1.21526656640475e-07
"1790" 57501 1.62818798985154e-09 1.1672884953048e-09 2.32454775600328e-09 1.24349601221178e-08 2.1378089212506e-07 2.57833728724643e-07 2.05467725697727e-08 1.20328482590193e-07
"1791" 57502 1.63005693650472e-09 1.16102343570724e-09 2.31514002017179e-09 1.24210203645132e-08 2.13308966073153e-07 2.57788425781743e-07 2.04606554539381e-08 1.20407220221545e-07
"1792" 57503 1.63043146052141e-09 1.17517520444976e-09 2.33669551075456e-09 1.24300875393755e-08 2.12970178302714e-07 2.57819017461723e-07 2.0439210453503e-08 1.20345622075478e-07
"1793" 57504 1.6308059845381e-09 1.18932697319227e-09 2.35825100133733e-09 1.24391547142378e-08 2.12631390532276e-07 2.57849609141703e-07 2.04177654530679e-08 1.20284023929412e-07
"1794" 57505 1.63342581593979e-09 1.18376337290534e-09 2.35471919636945e-09 1.24426323563374e-08 2.12399746543984e-07 2.57969808084653e-07 2.03550068388234e-08 1.2056862153567e-07
"1795" 57506 1.63604564734147e-09 1.17819977261841e-09 2.35118739140158e-09 1.24461099984369e-08 2.12168102555692e-07 2.58090007027604e-07 2.02922482245788e-08 1.20853219141929e-07
"1796" 57507 1.63866547874316e-09 1.17263617233147e-09 2.3476555864337e-09 1.24495876405365e-08 2.119364585674e-07 2.58210205970554e-07 2.02294896103343e-08 1.21137816748187e-07
"1797" 57508 1.64128531014485e-09 1.16707257204454e-09 2.34412378146582e-09 1.2453065282636e-08 2.11704814579109e-07 2.58330404913504e-07 2.01667309960897e-08 1.21422414354446e-07
"1798" 57509 1.64390514154654e-09 1.16150897175761e-09 2.34059197649794e-09 1.24565429247356e-08 2.11473170590817e-07 2.58450603856454e-07 2.01039723818452e-08 1.21707011960704e-07
"1799" 57510 1.64652497294822e-09 1.15594537147068e-09 2.33706017153007e-09 1.24600205668351e-08 2.11241526602525e-07 2.58570802799404e-07 2.00412137676006e-08 1.21991609566963e-07
"1800" 57511 1.64652497294822e-09 1.15446513685176e-09 2.34179520291868e-09 1.24738064166118e-08 2.0917616681127e-07 2.5868372830592e-07 2.00701695412398e-08 1.22306285831154e-07
"1801" 57512 1.64652497294822e-09 1.15298490223285e-09 2.34653023430729e-09 1.24875922663885e-08 2.07110807020014e-07 2.58796653812436e-07 2.0099125314879e-08 1.22620962095345e-07
"1802" 57513 1.64353612767525e-09 1.1538890677369e-09 2.35037686600436e-09 1.25032192208061e-08 2.07177856811703e-07 2.5784964200434e-07 2.01246312641571e-08 1.2213607741132e-07
"1803" 57514 1.64054728240228e-09 1.15479323324095e-09 2.35422349770142e-09 1.25188461752237e-08 2.07244906603392e-07 2.56902630196244e-07 2.01501372134352e-08 1.21651192727295e-07
"1804" 57515 1.6375584371293e-09 1.15569739874501e-09 2.35807012939849e-09 1.25344731296414e-08 2.0731195639508e-07 2.55955618388148e-07 2.01756431627133e-08 1.2116630804327e-07
"1805" 57516 1.63456959185633e-09 1.15660156424906e-09 2.36191676109556e-09 1.2550100084059e-08 2.07379006186769e-07 2.55008606580052e-07 2.02011491119914e-08 1.20681423359245e-07
"1806" 57517 1.62933543919836e-09 1.15769241121384e-09 2.36020853510791e-09 1.25462250075511e-08 2.07245562893265e-07 2.54072611369105e-07 2.02032965596795e-08 1.19850342922895e-07
"1807" 57518 1.62559570917687e-09 1.15798845813762e-09 2.35817923594136e-09 1.25422603122907e-08 2.07047717178065e-07 2.52967870423008e-07 2.02472149268349e-08 1.19159598263963e-07
"1808" 57519 1.6226068639039e-09 1.16724603643842e-09 2.3818045588381e-09 1.2568758516578e-08 2.06931526902306e-07 2.51853569576917e-07 2.02551535292508e-08 1.18362717232817e-07
"1809" 57520 1.61961801863093e-09 1.17650361473923e-09 2.40542988173485e-09 1.25952567208653e-08 2.06815336626548e-07 2.50739268730827e-07 2.02630921316668e-08 1.17565836201671e-07
"1810" 57521 1.61662917335796e-09 1.18576119304003e-09 2.4290552046316e-09 1.26217549251526e-08 2.06699146350789e-07 2.49624967884736e-07 2.02710307340827e-08 1.16768955170524e-07
"1811" 57522 1.61364032808498e-09 1.19501877134084e-09 2.45268052752834e-09 1.26482531294399e-08 2.06582956075031e-07 2.48510667038646e-07 2.02789693364987e-08 1.15972074139378e-07
"1812" 57523 1.61065148281201e-09 1.20427634964164e-09 2.47630585042509e-09 1.26747513337272e-08 2.06466765799272e-07 2.47396366192555e-07 2.02869079389146e-08 1.15175193108231e-07
"1813" 57524 1.60766263753904e-09 1.21353392794245e-09 2.49993117332183e-09 1.27012495380145e-08 2.06350575523514e-07 2.46282065346465e-07 2.02948465413306e-08 1.14378312077085e-07
"1814" 57525 1.60467379226606e-09 1.22279150624325e-09 2.52355649621858e-09 1.27277477423018e-08 2.06234385247755e-07 2.45167764500374e-07 2.03027851437465e-08 1.13581431045938e-07
"1815" 57526 1.60168494699309e-09 1.23204908454406e-09 2.54718181911533e-09 1.27542459465891e-08 2.06118194971997e-07 2.44053463654284e-07 2.03107237461624e-08 1.12784550014792e-07
"1816" 57527 1.59869610172012e-09 1.24130666284486e-09 2.57080714201207e-09 1.27807441508764e-08 2.06002004696238e-07 2.42939162808193e-07 2.03186623485784e-08 1.11987668983646e-07
"1817" 57528 1.59570725644715e-09 1.25056424114567e-09 2.59443246490882e-09 1.28072423551637e-08 2.0588581442048e-07 2.41824861962103e-07 2.03266009509943e-08 1.11190787952499e-07
"1818" 57529 1.59271841117417e-09 1.25982181944647e-09 2.61805778780556e-09 1.2833740559451e-08 2.05769624144721e-07 2.40710561116012e-07 2.03345395534103e-08 1.10393906921353e-07
"1819" 57530 1.5897295659012e-09 1.26907939774728e-09 2.64168311070231e-09 1.28602387637383e-08 2.05653433868963e-07 2.39596260269922e-07 2.03424781558262e-08 1.09597025890206e-07
"1820" 57531 1.58674072062823e-09 1.27833697604808e-09 2.66530843359905e-09 1.28867369680256e-08 2.05537243593204e-07 2.38481959423831e-07 2.03504167582422e-08 1.0880014485906e-07
"1821" 57532 1.58375187535525e-09 1.28759455434888e-09 2.6889337564958e-09 1.29132351723129e-08 2.05421053317446e-07 2.37367658577741e-07 2.03583553606581e-08 1.08003263827913e-07
"1822" 57533 1.58450276010377e-09 1.29304878917275e-09 2.71255907939255e-09 1.28884650540014e-08 2.05326702575815e-07 2.37144343125679e-07 2.0223928732755e-08 1.07663459484195e-07
"1823" 57534 1.58525364485228e-09 1.29850302399662e-09 2.73618440228929e-09 1.28636949356898e-08 2.05232351834185e-07 2.36921027673617e-07 2.00895021048519e-08 1.07323655140477e-07
"1824" 57535 1.57814503539573e-09 1.30776060229743e-09 2.76151795117369e-09 1.28856537025678e-08 2.0348412222327e-07 2.36866664142138e-07 2.00895021048519e-08 1.07192846829252e-07
"1825" 57536 1.57103642593918e-09 1.31701818059823e-09 2.78685150005808e-09 1.29076124694458e-08 2.01735892612356e-07 2.36812300610659e-07 2.00895021048519e-08 1.07062038518027e-07
"1826" 57537 1.56392781648263e-09 1.32627575889903e-09 2.81218504894248e-09 1.29295712363238e-08 1.99987663001441e-07 2.3675793707918e-07 2.00895021048519e-08 1.06931230206802e-07
"1827" 57538 1.55681920702608e-09 1.33553333719984e-09 2.83751859782687e-09 1.29515300032018e-08 1.98239433390527e-07 2.36703573547701e-07 2.00895021048519e-08 1.06800421895577e-07
"1828" 57539 1.54833856731842e-09 1.33553333719984e-09 2.83922682381452e-09 1.29725029638018e-08 1.96445429763783e-07 2.36671363572e-07 2.00781136780749e-08 1.06652320628167e-07
"1829" 57540 1.53985792761077e-09 1.33553333719984e-09 2.84093504980217e-09 1.29934759244017e-08 1.94651426137039e-07 2.36639153596298e-07 2.00667252512979e-08 1.06504219360757e-07
"1830" 57541 1.53199843340571e-09 1.33933668067678e-09 2.84916135301124e-09 1.3026329341062e-08 1.93738659931174e-07 2.36963342005889e-07 2.00864253076252e-08 1.06347275531753e-07
"1831" 57542 1.52787866922213e-09 1.35911614863704e-09 2.88389014482771e-09 1.31266547066522e-08 1.92003770115269e-07 2.37039484609585e-07 2.00816035662906e-08 1.062519625294e-07
"1832" 57543 1.52375890503855e-09 1.3788956165973e-09 2.91861893664418e-09 1.32269800722425e-08 1.90268880299365e-07 2.37115627213281e-07 2.0076781824956e-08 1.06156649527047e-07
"1833" 57544 1.51963914085498e-09 1.39867508455757e-09 2.95334772846065e-09 1.33273054378328e-08 1.88533990483461e-07 2.37191769816977e-07 2.00719600836214e-08 1.06061336524694e-07
"1834" 57545 1.5155193766714e-09 1.41845455251783e-09 2.98807652027712e-09 1.3427630803423e-08 1.86799100667557e-07 2.37267912420673e-07 2.00671383422868e-08 1.05966023522341e-07
"1835" 57546 1.50616913326012e-09 1.43443067700116e-09 3.02109708610594e-09 1.35121753067678e-08 1.86441151269383e-07 2.33982214383356e-07 2.00426165446249e-08 1.04769294574444e-07
"1836" 57547 1.49681888984884e-09 1.45040680148449e-09 3.05411765193476e-09 1.35967198101125e-08 1.86083201871208e-07 2.3069651634604e-07 2.0018094746963e-08 1.03572565626547e-07
"1837" 57548 1.48746864643756e-09 1.46638292596782e-09 3.08713821776358e-09 1.36812643134573e-08 1.85725252473034e-07 2.27410818308724e-07 1.99935729493012e-08 1.0237583667865e-07
"1838" 57549 1.47811840302628e-09 1.48235905045114e-09 3.1201587835924e-09 1.3765808816802e-08 1.8536730307486e-07 2.24125120271408e-07 1.99690511516393e-08 1.01179107730753e-07
"1839" 57550 1.468768159615e-09 1.49833517493447e-09 3.15317934942123e-09 1.38503533201467e-08 1.85009353676685e-07 2.20839422234092e-07 1.99445293539774e-08 9.99823787828566e-08
"1840" 57551 1.45941791620372e-09 1.5143112994178e-09 3.18619991525005e-09 1.39348978234915e-08 1.84651404278511e-07 2.17553724196776e-07 1.99200075563155e-08 9.87856498349598e-08
"1841" 57552 1.45006767279244e-09 1.53028742390113e-09 3.21922048107887e-09 1.40194423268362e-08 1.84293454880336e-07 2.14268026159459e-07 1.98954857586536e-08 9.75889208870629e-08
"1842" 57553 1.44071742938116e-09 1.54626354838446e-09 3.25224104690769e-09 1.4103986830181e-08 1.83935505482162e-07 2.10982328122143e-07 1.98709639609918e-08 9.63921919391661e-08
"1843" 57554 1.43136718596988e-09 1.56223967286778e-09 3.28526161273651e-09 1.41885313335257e-08 1.83577556083988e-07 2.07696630084827e-07 1.98464421633299e-08 9.51954629912694e-08
"1844" 57555 1.43660133862785e-09 1.58172309390426e-09 3.31917057825688e-09 1.4297565398968e-08 1.83608148896743e-07 2.07816995092718e-07 1.98029262997548e-08 9.52503769911288e-08
"1845" 57556 1.44183549128582e-09 1.60120651494075e-09 3.35307954377724e-09 1.44065994644104e-08 1.83638741709499e-07 2.07937360100608e-07 1.97594104361797e-08 9.53052909909883e-08
"1846" 57557 1.44706964394379e-09 1.62068993597723e-09 3.38698850929761e-09 1.45156335298527e-08 1.83669334522255e-07 2.08057725108498e-07 1.97158945726046e-08 9.53602049908477e-08
"1847" 57558 1.45230379660176e-09 1.64017335701371e-09 3.42089747481798e-09 1.4624667595295e-08 1.8369992733501e-07 2.08178090116389e-07 1.96723787090294e-08 9.54151189907072e-08
"1848" 57559 1.45753794925974e-09 1.65965677805019e-09 3.45480644033834e-09 1.47337016607373e-08 1.83730520147766e-07 2.08298455124279e-07 1.96288628454543e-08 9.54700329905666e-08
"1849" 57560 1.46277210191771e-09 1.67914019908667e-09 3.48871540585871e-09 1.48427357261796e-08 1.83761112960522e-07 2.0841882013217e-07 1.95853469818792e-08 9.55249469904261e-08
"1850" 57561 1.46800625457568e-09 1.69862362012315e-09 3.52262437137907e-09 1.4951769791622e-08 1.83791705773277e-07 2.0853918514006e-07 1.95418311183041e-08 9.55798609902855e-08
"1851" 57562 1.47324040723365e-09 1.71810704115963e-09 3.55653333689944e-09 1.50608038570643e-08 1.83822298586033e-07 2.0865955014795e-07 1.9498315254729e-08 9.5634774990145e-08
"1852" 57563 1.47847455989162e-09 1.73759046219611e-09 3.59044230241981e-09 1.51698379225066e-08 1.83852891398789e-07 2.08779915155841e-07 1.94547993911539e-08 9.56896889900044e-08
"1853" 57564 1.48370871254959e-09 1.75707388323259e-09 3.62435126794017e-09 1.52788719879489e-08 1.83883484211544e-07 2.08900280163731e-07 1.94112835275788e-08 9.57446029898639e-08
"1854" 57565 1.48894286520757e-09 1.77655730426907e-09 3.65826023346054e-09 1.53879060533913e-08 1.839140770243e-07 2.09020645171622e-07 1.93677676640037e-08 9.57995169897234e-08
"1855" 57566 1.49417701786554e-09 1.79604072530556e-09 3.69216919898091e-09 1.54969401188336e-08 1.83944669837056e-07 2.09141010179512e-07 1.93242518004286e-08 9.58544309895828e-08
"1856" 57567 1.49941117052351e-09 1.81552414634204e-09 3.72607816450127e-09 1.56059741842759e-08 1.83975262649811e-07 2.09261375187402e-07 1.92807359368534e-08 9.59093449894423e-08
"1857" 57568 1.47883071675697e-09 1.79255226115097e-09 3.7243574456142e-09 1.56986896749574e-08 1.83919891453526e-07 2.09352645332961e-07 1.92790591494414e-08 9.57873650356102e-08
"1858" 57569 1.47733629412048e-09 1.79344040192232e-09 3.72831318385414e-09 1.5741416835253e-08 1.83837453185056e-07 2.07961708713024e-07 1.91775221344328e-08 9.59146678708146e-08
"1859" 57570 1.47584187148399e-09 1.79432854269367e-09 3.73226892209408e-09 1.57841439955486e-08 1.83755014916587e-07 2.06570772093087e-07 1.90759851194242e-08 9.60419707060191e-08
"1860" 57571 1.47472013614906e-09 1.7950300020043e-09 3.73782377977879e-09 1.57960497812862e-08 1.83929394366803e-07 2.05179835473151e-07 1.9039687129628e-08 9.61415863349437e-08
"1861" 57572 1.47359840081413e-09 1.79573146131493e-09 3.74337863746351e-09 1.58079555670238e-08 1.84103773817019e-07 2.03788898853214e-07 1.90033891398318e-08 9.62412019638684e-08
"1862" 57573 1.4724766654792e-09 1.79643292062557e-09 3.74893349514823e-09 1.58198613527615e-08 1.84278153267235e-07 2.02397962233277e-07 1.89670911500356e-08 9.6340817592793e-08
"1863" 57574 1.47135493014426e-09 1.7971343799362e-09 3.75448835283294e-09 1.58317671384991e-08 1.84452532717451e-07 2.0100702561334e-07 1.89307931602394e-08 9.64404332217176e-08
"1864" 57575 1.47023319480933e-09 1.79783583924683e-09 3.76004321051766e-09 1.58436729242367e-08 1.84626912167668e-07 1.99616088993403e-07 1.88944951704432e-08 9.65400488506423e-08
"1865" 57576 1.47098407955784e-09 1.79792917997719e-09 3.76086303681377e-09 1.58474837116693e-08 1.84453825635446e-07 1.98254123524538e-07 1.90201528631382e-08 9.67261306481439e-08
"1866" 57577 1.47173496430636e-09 1.79802252070755e-09 3.76168286310987e-09 1.58512944991018e-08 1.84280739103224e-07 1.96892158055672e-07 1.91458105558332e-08 9.69122124456456e-08
"1867" 57578 1.47248584905487e-09 1.79811586143791e-09 3.76250268940598e-09 1.58551052865344e-08 1.84107652571003e-07 1.95530192586807e-07 1.92714682485281e-08 9.70982942431473e-08
"1868" 57579 1.47323673380338e-09 1.79820920216826e-09 3.76332251570208e-09 1.58589160739669e-08 1.83934566038781e-07 1.94168227117942e-07 1.93971259412231e-08 9.7284376040649e-08
"1869" 57580 1.47398761855189e-09 1.79830254289862e-09 3.76414234199819e-09 1.58627268613995e-08 1.8376147950656e-07 1.92806261649076e-07 1.95227836339181e-08 9.74704578381506e-08
"1870" 57581 1.47473850330041e-09 1.79839588362898e-09 3.76496216829429e-09 1.5866537648832e-08 1.83588392974338e-07 1.91444296180211e-07 1.96484413266131e-08 9.76565396356523e-08
"1871" 57582 1.47361676796547e-09 1.79819317743556e-09 3.7648187750537e-09 1.5866537648832e-08 1.83394945702364e-07 1.89963626352857e-07 1.95470981942831e-08 9.77051048395048e-08
"1872" 57583 1.47249503263054e-09 1.79799047124214e-09 3.76467538181311e-09 1.5866537648832e-08 1.8320149843039e-07 1.88482956525503e-07 1.94457550619532e-08 9.77536700433573e-08
"1873" 57584 1.47137329729561e-09 1.79778776504871e-09 3.76453198857252e-09 1.5866537648832e-08 1.83008051158415e-07 1.87002286698149e-07 1.93444119296233e-08 9.78022352472099e-08
"1874" 57585 1.47025156196068e-09 1.79758505885529e-09 3.76438859533194e-09 1.5866537648832e-08 1.82814603886441e-07 1.85521616870795e-07 1.92430687972933e-08 9.78508004510624e-08
"1875" 57586 1.46912982662575e-09 1.79738235266187e-09 3.76424520209135e-09 1.5866537648832e-08 1.82621156614467e-07 1.84040947043441e-07 1.91417256649634e-08 9.78993656549149e-08
"1876" 57587 1.46800809129081e-09 1.79717964646844e-09 3.76410180885076e-09 1.5866537648832e-08 1.82427709342492e-07 1.82560277216087e-07 1.90403825326334e-08 9.79479308587674e-08
"1877" 57588 1.46688635595588e-09 1.79697694027502e-09 3.76395841561017e-09 1.5866537648832e-08 1.82234262070518e-07 1.81079607388732e-07 1.89390394003035e-08 9.79964960626199e-08
"1878" 57589 1.46576462062095e-09 1.79677423408159e-09 3.76381502236958e-09 1.5866537648832e-08 1.82040814798544e-07 1.79598937561378e-07 1.88376962679735e-08 9.80450612664725e-08
"1879" 57590 1.46302239683388e-09 1.77230328187304e-09 3.73460680154011e-09 1.58663330816497e-08 1.81835551056162e-07 1.77967221314124e-07 1.88380425858715e-08 9.81067759306726e-08
"1880" 57591 1.46028017304681e-09 1.74783232966449e-09 3.70539858071063e-09 1.58661285144674e-08 1.8163028731378e-07 1.7633550506687e-07 1.88383889037694e-08 9.81684905948727e-08
"1881" 57592 1.46065286034836e-09 1.74783232966449e-09 3.70354696148239e-09 1.5865923947285e-08 1.81519278310276e-07 1.75978063471882e-07 1.8756192272572e-08 9.81376560113392e-08
"1882" 57593 1.46102554764992e-09 1.74783232966449e-09 3.70169534225415e-09 1.58657193801027e-08 1.81408269306771e-07 1.75620621876895e-07 1.86739956413745e-08 9.81068214278056e-08
"1883" 57594 1.46139823495147e-09 1.74783232966449e-09 3.69984372302591e-09 1.58655148129204e-08 1.81297260303266e-07 1.75263180281908e-07 1.85917990101771e-08 9.80759868442721e-08
"1884" 57595 1.46177092225302e-09 1.74783232966449e-09 3.69799210379767e-09 1.58653102457381e-08 1.81186251299761e-07 1.74905738686921e-07 1.85096023789797e-08 9.80451522607385e-08
"1885" 57596 1.46214360955458e-09 1.74783232966449e-09 3.69614048456944e-09 1.58651056785557e-08 1.81075242296257e-07 1.74548297091933e-07 1.84274057477822e-08 9.8014317677205e-08
"1886" 57597 1.46251629685613e-09 1.74783232966449e-09 3.6942888653412e-09 1.58649011113734e-08 1.80964233292752e-07 1.74190855496946e-07 1.83452091165848e-08 9.79834830936715e-08
"1887" 57598 1.46288898415769e-09 1.74783232966449e-09 3.69243724611296e-09 1.58646965441911e-08 1.80853224289247e-07 1.73833413901959e-07 1.82630124853874e-08 9.79526485101379e-08
"1888" 57599 1.46326167145924e-09 1.74783232966449e-09 3.69058562688472e-09 1.58644919770087e-08 1.80742215285742e-07 1.73475972306972e-07 1.81808158541899e-08 9.79218139266044e-08
"1889" 57600 1.4636343587608e-09 1.74783232966449e-09 3.68873400765648e-09 1.58642874098264e-08 1.80631206282238e-07 1.73118530711984e-07 1.80986192229925e-08 9.78909793430708e-08
"1890" 57601 1.46400704606235e-09 1.74783232966449e-09 3.68688238842824e-09 1.58640828426441e-08 1.80520197278733e-07 1.72761089116997e-07 1.80164225917951e-08 9.78601447595373e-08
"1891" 57602 1.4643797333639e-09 1.74783232966449e-09 3.6850307692e-09 1.58638782754618e-08 1.80409188275228e-07 1.7240364752201e-07 1.79342259605976e-08 9.78293101760038e-08
"1892" 57603 1.45951826800749e-09 1.73913479574585e-09 3.67666107275035e-09 1.57091381607415e-08 1.78276778692284e-07 1.70005647000852e-07 1.77363466990494e-08 9.72491721909587e-08
"1893" 57604 1.45465680265107e-09 1.7304372618272e-09 3.6682913763007e-09 1.55543980460213e-08 1.7614436910934e-07 1.67607646479694e-07 1.75384674375011e-08 9.66690342059137e-08
"1894" 57605 1.45029592712699e-09 1.7304372618272e-09 3.6682913763007e-09 1.54412200478134e-08 1.75241485895416e-07 1.65933505588027e-07 1.73427770711003e-08 9.61923057912307e-08
"1895" 57606 1.44506177446902e-09 1.72264389341261e-09 3.66177329907929e-09 1.52957263454605e-08 1.73728072999952e-07 1.64585341932987e-07 1.72524907858724e-08 9.70392368566821e-08
"1896" 57607 1.4491815386526e-09 1.71394635949396e-09 3.65525522185788e-09 1.51654757928378e-08 1.71809162484349e-07 1.62202553102756e-07 1.70542652064262e-08 9.83402478186754e-08
"1897" 57608 1.45330130283618e-09 1.70524882557531e-09 3.64873714463647e-09 1.50352252402152e-08 1.69890251968746e-07 1.59819764272524e-07 1.685603962698e-08 9.96412587806687e-08
"1898" 57609 1.45742106701976e-09 1.69655129165667e-09 3.64221906741506e-09 1.49049746875925e-08 1.67971341453144e-07 1.57436975442293e-07 1.66578140475338e-08 1.00942269742662e-07
"1899" 57610 1.46154083120333e-09 1.68785375773802e-09 3.63570099019365e-09 1.47747241349698e-08 1.66052430937541e-07 1.55054186612062e-07 1.64595884680876e-08 1.02243280704655e-07
"1900" 57611 1.46566059538691e-09 1.67915622381937e-09 3.62918291297224e-09 1.46444735823471e-08 1.64133520421938e-07 1.5267139778183e-07 1.62613628886414e-08 1.03544291666649e-07
"1901" 57612 1.46978035957049e-09 1.67045868990073e-09 3.62266483575083e-09 1.45142230297245e-08 1.62214609906335e-07 1.50288608951599e-07 1.60631373091952e-08 1.04845302628642e-07
"1902" 57613 1.47390012375407e-09 1.66176115598208e-09 3.61614675852942e-09 1.43839724771018e-08 1.60295699390733e-07 1.47905820121368e-07 1.5864911729749e-08 1.06146313590635e-07
"1903" 57614 1.47801988793764e-09 1.65306362206343e-09 3.609628681308e-09 1.42537219244791e-08 1.5837678887513e-07 1.45523031291136e-07 1.56666861503028e-08 1.07447324552629e-07
"1904" 57615 1.48213965212122e-09 1.64436608814479e-09 3.60311060408659e-09 1.41234713718564e-08 1.56457878359527e-07 1.43140242460905e-07 1.54684605708566e-08 1.08748335514622e-07
"1905" 57616 1.4862594163048e-09 1.63566855422614e-09 3.59659252686518e-09 1.39932208192337e-08 1.54538967843924e-07 1.40757453630674e-07 1.52702349914104e-08 1.10049346476615e-07
"1906" 57617 1.49336802576135e-09 1.61933509155408e-09 3.56185124214929e-09 1.38479667839322e-08 1.53263194035636e-07 1.39259777144095e-07 1.48550075913102e-08 1.11202725128265e-07
"1907" 57618 1.5004766352179e-09 1.60300162888202e-09 3.52710995743341e-09 1.37027127486306e-08 1.51987420227348e-07 1.37762100657515e-07 1.443978019121e-08 1.12356103779914e-07
"1908" 57619 1.50758524467445e-09 1.58666816620995e-09 3.49236867271752e-09 1.3557458713329e-08 1.50711646419059e-07 1.36264424170936e-07 1.40245527911098e-08 1.13509482431564e-07
"1909" 57620 1.505712624591e-09 1.57033470353789e-09 3.45559808883508e-09 1.33941735767763e-08 1.49146674340568e-07 1.34766747684357e-07 1.36208662530059e-08 1.12725567593815e-07
"1910" 57621 1.50384000450756e-09 1.55400124086583e-09 3.41882750495265e-09 1.32308884402236e-08 1.47581702262077e-07 1.33269071197778e-07 1.3217179714902e-08 1.11941652756065e-07
"1911" 57622 1.50134440220639e-09 1.53796382511755e-09 3.38319782054521e-09 1.307367795983e-08 1.45914311254027e-07 1.31759258571446e-07 1.28212793439948e-08 1.11387700058115e-07
"1912" 57623 1.49884879990522e-09 1.52192640936927e-09 3.34756813613778e-09 1.29164674794363e-08 1.44246920245978e-07 1.30249445945113e-07 1.24253789730876e-08 1.10833747360164e-07
"1913" 57624 1.49635319760405e-09 1.50588899362099e-09 3.31193845173035e-09 1.27592569990427e-08 1.42579529237928e-07 1.28739633318781e-07 1.20294786021804e-08 1.10279794662214e-07
"1914" 57625 1.49385759530288e-09 1.48985157787271e-09 3.27630876732291e-09 1.2602046518649e-08 1.40912138229879e-07 1.27229820692449e-07 1.16335782312731e-08 1.09725841964263e-07
"1915" 57626 1.49136199300171e-09 1.47381416212444e-09 3.24067908291548e-09 1.24448360382553e-08 1.39244747221829e-07 1.25720008066116e-07 1.12376778603659e-08 1.09171889266313e-07
"1916" 57627 1.48886639070054e-09 1.45777674637616e-09 3.20504939850804e-09 1.22876255578617e-08 1.37577356213779e-07 1.24210195439784e-07 1.08417774894587e-08 1.08617936568362e-07
"1917" 57628 1.48637078839937e-09 1.44173933062788e-09 3.16941971410061e-09 1.2130415077468e-08 1.3590996520573e-07 1.22700382813452e-07 1.04458771185515e-08 1.08063983870412e-07
"1918" 57629 1.48387518609821e-09 1.4257019148796e-09 3.13379002969318e-09 1.19732045970744e-08 1.3424257419768e-07 1.21190570187119e-07 1.00499767476442e-08 1.07510031172461e-07
"1919" 57630 1.48137958379704e-09 1.40966449913132e-09 3.09816034528574e-09 1.18159941166807e-08 1.32575183189631e-07 1.19680757560787e-07 9.654076376737e-09 1.06956078474511e-07
"1920" 57631 1.47888398149587e-09 1.39362708338304e-09 3.06253066087831e-09 1.16587836362871e-08 1.30907792181581e-07 1.18170944934455e-07 9.25817600582978e-09 1.0640212577656e-07
"1921" 57632 1.4763883791947e-09 1.37758966763476e-09 3.02690097647088e-09 1.15015731558934e-08 1.29240401173532e-07 1.16661132308122e-07 8.86227563492255e-09 1.0584817307861e-07
"1922" 57633 1.45955132887991e-09 1.36155225188648e-09 3.01863414011439e-09 1.15048598605316e-08 1.28414460343512e-07 1.14603979093594e-07 8.7837908674606e-09 1.06076806634158e-07
"1923" 57634 1.44271427856512e-09 1.34551483613821e-09 3.0103673037579e-09 1.15081465651697e-08 1.27588519513492e-07 1.12546825879065e-07 8.70530609999865e-09 1.06305440189705e-07
"1924" 57635 1.43934907256032e-09 1.34200753958505e-09 3.00947890406635e-09 1.15142212213287e-08 1.27591178219334e-07 1.12356633201579e-07 8.72209791614621e-09 1.06106652255823e-07
"1925" 57636 1.43598386655553e-09 1.3385002430319e-09 3.00859050437481e-09 1.15202958774878e-08 1.27593836925176e-07 1.12166440524093e-07 8.73888973229378e-09 1.05907864321941e-07
"1926" 57637 1.43261866055073e-09 1.33499294647875e-09 3.00770210468326e-09 1.15263705336468e-08 1.27596495631017e-07 1.11976247846607e-07 8.75568154844135e-09 1.05709076388059e-07
"1927" 57638 1.42925345454594e-09 1.33148564992559e-09 3.00681370499172e-09 1.15324451898058e-08 1.27599154336859e-07 1.11786055169121e-07 8.77247336458891e-09 1.05510288454177e-07
"1928" 57639 1.42588824854114e-09 1.32797835337244e-09 3.00592530530017e-09 1.15385198459649e-08 1.276018130427e-07 1.11595862491635e-07 8.78926518073648e-09 1.05311500520295e-07
"1929" 57640 1.42252304253634e-09 1.32447105681929e-09 3.00503690560863e-09 1.15445945021239e-08 1.27604471748542e-07 1.11405669814149e-07 8.80605699688404e-09 1.05112712586413e-07
"1930" 57641 1.41915783653155e-09 1.32096376026613e-09 3.00414850591708e-09 1.15506691582829e-08 1.27607130454384e-07 1.11215477136663e-07 8.82284881303161e-09 1.04913924652531e-07
"1931" 57642 1.41579263052675e-09 1.31745646371298e-09 3.00326010622554e-09 1.1556743814442e-08 1.27609789160225e-07 1.11025284459177e-07 8.83964062917918e-09 1.04715136718649e-07
"1932" 57643 1.41242742452195e-09 1.31394916715983e-09 3.00237170653399e-09 1.1562818470601e-08 1.27612447866067e-07 1.10835091781691e-07 8.85643244532674e-09 1.04516348784767e-07
"1933" 57644 1.40906221851716e-09 1.31044187060667e-09 3.00148330684245e-09 1.15688931267601e-08 1.27615106571909e-07 1.10644899104205e-07 8.87322426147431e-09 1.04317560850885e-07
"1934" 57645 1.40569701251236e-09 1.30693457405352e-09 3.0005949071509e-09 1.15749677829191e-08 1.2761776527775e-07 1.10454706426719e-07 8.89001607762188e-09 1.04118772917003e-07
"1935" 57646 1.40233180650757e-09 1.30342727750037e-09 2.99970650745936e-09 1.15810424390781e-08 1.27620423983592e-07 1.10264513749232e-07 8.90680789376944e-09 1.03919984983121e-07
"1936" 57647 1.3998362042064e-09 1.29725555863316e-09 2.9942545098678e-09 1.15729727704503e-08 1.27628699445227e-07 1.0953924591753e-07 8.8342680998594e-09 1.04104779421321e-07
"1937" 57648 1.39734060190523e-09 1.29755160555695e-09 2.9953954093428e-09 1.15767971876037e-08 1.27019401608882e-07 1.09531473169682e-07 8.81884820068535e-09 1.04282209080897e-07
"1938" 57649 1.38773639014751e-09 1.29694348697668e-09 2.99450700965126e-09 1.15893303046092e-08 1.25944897585687e-07 1.09213931824071e-07 8.82977932180454e-09 1.04093092152092e-07
"1939" 57650 1.37813217838979e-09 1.29633536839641e-09 2.99361860995971e-09 1.16018634216147e-08 1.24870393562492e-07 1.0889639047846e-07 8.84071044292372e-09 1.03903975223286e-07
"1940" 57651 1.36852796663207e-09 1.29572724981613e-09 2.99273021026817e-09 1.16143965386202e-08 1.23795889539297e-07 1.0857884913285e-07 8.85164156404291e-09 1.03714858294481e-07
"1941" 57652 1.35892375487435e-09 1.29511913123586e-09 2.99184181057662e-09 1.16269296556258e-08 1.22721385516102e-07 1.08261307787239e-07 8.86257268516209e-09 1.03525741365676e-07
"1942" 57653 1.34931954311663e-09 1.29451101265559e-09 2.99095341088508e-09 1.16394627726313e-08 1.21646881492907e-07 1.07943766441628e-07 8.87350380628128e-09 1.03336624436871e-07
"1943" 57654 1.33971533135891e-09 1.29390289407532e-09 2.99006501119353e-09 1.16519958896368e-08 1.20572377469712e-07 1.07626225096018e-07 8.88443492740047e-09 1.03147507508066e-07
"1944" 57655 1.33011111960119e-09 1.29329477549505e-09 2.98917661150199e-09 1.16645290066423e-08 1.19497873446516e-07 1.07308683750407e-07 8.89536604851965e-09 1.02958390579261e-07
"1945" 57656 1.32050690784347e-09 1.29268665691478e-09 2.98828821181044e-09 1.16770621236478e-08 1.18423369423321e-07 1.06991142404796e-07 8.90629716963884e-09 1.02769273650455e-07
"1946" 57657 1.31526908175523e-09 1.29178249141073e-09 2.9864365925822e-09 1.17024478732709e-08 1.18174806230146e-07 1.06991142404796e-07 8.96329272199673e-09 1.02588393944009e-07
"1947" 57658 1.30740958755016e-09 1.29178249141073e-09 2.98458497335396e-09 1.17222440901313e-08 1.17185646591646e-07 1.06976384321824e-07 8.9568503789324e-09 1.02482153870211e-07
"1948" 57659 1.29842835801017e-09 1.29298270383856e-09 2.98625891264389e-09 1.17309527899834e-08 1.16108483862609e-07 1.06704145919112e-07 9.00601831663426e-09 1.02534451926517e-07
"1949" 57660 1.29131974855362e-09 1.29207853833451e-09 2.98625891264389e-09 1.17877346563133e-08 1.16742665685513e-07 1.08773392361417e-07 9.05991174613379e-09 1.02192992192714e-07
"1950" 57661 1.28421113909707e-09 1.29117437283045e-09 2.98625891264389e-09 1.18445165226432e-08 1.17376847508417e-07 1.10842638803722e-07 9.11380517563332e-09 1.0185153245891e-07
"1951" 57662 1.27710252964052e-09 1.2902702073264e-09 2.98625891264389e-09 1.19012983889732e-08 1.18011029331321e-07 1.12911885246027e-07 9.16769860513285e-09 1.01510072725107e-07
"1952" 57663 1.26999392018397e-09 1.28936604182235e-09 2.98625891264389e-09 1.19580802553031e-08 1.18645211154226e-07 1.14981131688332e-07 9.22159203463239e-09 1.01168612991304e-07
"1953" 57664 1.26064000334242e-09 1.29263858271667e-09 2.99695094119098e-09 1.1958988142785e-08 1.17903665204043e-07 1.15080338413493e-07 9.2131961265586e-09 1.00818292219524e-07
"1954" 57665 1.25128608650087e-09 1.29591112361099e-09 3.00764296973806e-09 1.19598960302669e-08 1.1716211925386e-07 1.15179545138654e-07 9.20480021848482e-09 1.00467971447745e-07
"1955" 57666 1.24193216965932e-09 1.29918366450531e-09 3.01833499828515e-09 1.19608039177487e-08 1.16420573303677e-07 1.15278751863814e-07 9.19640431041104e-09 1.00117650675965e-07
"1956" 57667 1.23257825281777e-09 1.30245620539963e-09 3.02902702683223e-09 1.19617118052306e-08 1.15679027353495e-07 1.15377958588975e-07 9.18800840233725e-09 9.97673299041853e-08
"1957" 57668 1.22322433597622e-09 1.30572874629395e-09 3.03971905537932e-09 1.19626196927124e-08 1.14937481403312e-07 1.15477165314136e-07 9.17961249426347e-09 9.94170091324057e-08
"1958" 57669 1.22322433597622e-09 1.30990545269233e-09 3.04998090420463e-09 1.19542811678269e-08 1.15291266236018e-07 1.15898069474785e-07 9.16671445351663e-09 9.94723337756491e-08
"1959" 57670 1.2167387087374e-09 1.30990545269233e-09 3.06024275302995e-09 1.19245215885787e-08 1.15601688348353e-07 1.16064940558946e-07 9.16233666322168e-09 9.92955520679077e-08
"1960" 57671 1.2167387087374e-09 1.31317799358665e-09 3.07210996774976e-09 1.18699918910189e-08 1.15736167549192e-07 1.16064940558946e-07 9.13642959396809e-09 9.88016940999563e-08
"1961" 57672 1.2167387087374e-09 1.31645053448097e-09 3.08397718246957e-09 1.18154621934592e-08 1.15870646750032e-07 1.16064940558946e-07 9.11052252471451e-09 9.83078361320049e-08
"1962" 57673 1.2167387087374e-09 1.31972307537529e-09 3.09584439718937e-09 1.17609324958994e-08 1.16005125950871e-07 1.16064940558946e-07 9.08461545546092e-09 9.78139781640535e-08
"1963" 57674 1.2167387087374e-09 1.32299561626961e-09 3.10771161190918e-09 1.17064027983396e-08 1.16139605151711e-07 1.16064940558946e-07 9.05870838620733e-09 9.7320120196102e-08
"1964" 57675 1.2167387087374e-09 1.32626815716393e-09 3.11957882662899e-09 1.16518731007798e-08 1.16274084352551e-07 1.16064940558946e-07 9.03280131695375e-09 9.68262622281506e-08
"1965" 57676 1.2167387087374e-09 1.32954069805825e-09 3.13144604134879e-09 1.15973434032201e-08 1.1640856355339e-07 1.16064940558946e-07 9.00689424770016e-09 9.63324042601992e-08
"1966" 57677 1.2167387087374e-09 1.33281323895257e-09 3.1433132560686e-09 1.15428137056603e-08 1.1654304275423e-07 1.16064940558946e-07 8.98098717844657e-09 9.58385462922478e-08
"1967" 57678 1.2167387087374e-09 1.33608577984689e-09 3.15518047078841e-09 1.14882840081005e-08 1.16677521955069e-07 1.16064940558946e-07 8.95508010919299e-09 9.53446883242963e-08
"1968" 57679 1.2167387087374e-09 1.33935832074121e-09 3.16091925486114e-09 1.14534492086923e-08 1.16540970939558e-07 1.16005713765852e-07 8.98382864553533e-09 9.47768841726647e-08
"1969" 57680 1.2167387087374e-09 1.34263086163553e-09 3.16665803893388e-09 1.1418614409284e-08 1.16404419924047e-07 1.15946486972758e-07 9.01257718187767e-09 9.42090800210331e-08
"1970" 57681 1.2167387087374e-09 1.34590340252986e-09 3.17239682300661e-09 1.13837796098758e-08 1.16267868908535e-07 1.15887260179664e-07 9.04132571822001e-09 9.36412758694016e-08
"1971" 57682 1.2167387087374e-09 1.34917594342418e-09 3.17813560707935e-09 1.13489448104675e-08 1.16131317893024e-07 1.15828033386569e-07 9.07007425456235e-09 9.307347171777e-08
"1972" 57683 1.21761198587129e-09 1.35207512139706e-09 3.18315742494914e-09 1.13022159252779e-08 1.15911310166684e-07 1.16307375810995e-07 9.04431962052805e-09 9.25266805582278e-08
"1973" 57684 1.21063311566067e-09 1.35567575868057e-09 3.1870040566462e-09 1.12626741509116e-08 1.1462917691025e-07 1.16556876639156e-07 8.94278260551945e-09 9.2544617194064e-08
"1974" 57685 1.21175668771073e-09 1.35838825519273e-09 3.19173908803482e-09 1.12672135883209e-08 1.13781707226062e-07 1.17451096391441e-07 8.75013817629466e-09 9.25652806317531e-08
"1975" 57686 1.21175668771073e-09 1.36189555174589e-09 3.1933382074796e-09 1.1275922288173e-08 1.12801237135411e-07 1.18047309760454e-07 8.74454090424547e-09 9.25168646266174e-08
"1976" 57687 1.21175668771073e-09 1.36540284829904e-09 3.19493732692438e-09 1.1284630988025e-08 1.11820767044759e-07 1.18643523129466e-07 8.73894363219629e-09 9.24684486214817e-08
"1977" 57688 1.21175668771073e-09 1.36891014485219e-09 3.19653644636916e-09 1.12933396878771e-08 1.10840296954108e-07 1.19239736498479e-07 8.7333463601471e-09 9.2420032616346e-08
"1978" 57689 1.21175668771073e-09 1.37241744140535e-09 3.19813556581394e-09 1.13020483877292e-08 1.09859826863456e-07 1.19835949867491e-07 8.72774908809791e-09 9.23716166112103e-08
"1979" 57690 1.21175668771073e-09 1.3759247379585e-09 3.19973468525872e-09 1.13107570875812e-08 1.08879356772804e-07 1.20432163236504e-07 8.72215181604872e-09 9.23232006060747e-08
"1980" 57691 1.21611756323481e-09 1.37583139722814e-09 3.1956355537782e-09 1.13145678750138e-08 1.07900179600147e-07 1.20140640085458e-07 8.71835567378971e-09 9.23711647428766e-08
"1981" 57692 1.22047843875888e-09 1.37573805649778e-09 3.19153642229767e-09 1.13183786624463e-08 1.0692100242749e-07 1.19849116934412e-07 8.7145595315307e-09 9.24191288796785e-08
"1982" 57693 1.22483931428296e-09 1.37564471576742e-09 3.18743729081715e-09 1.13221894498789e-08 1.05941825254833e-07 1.19557593783366e-07 8.71076338927169e-09 9.24670930164805e-08
"1983" 57694 1.22920018980703e-09 1.37555137503706e-09 3.18333815933662e-09 1.13260002373114e-08 1.04962648082176e-07 1.1926607063232e-07 8.70696724701269e-09 9.25150571532824e-08
"1984" 57695 1.23356106533111e-09 1.3754580343067e-09 3.1792390278561e-09 1.1329811024744e-08 1.03983470909519e-07 1.18974547481275e-07 8.70317110475368e-09 9.25630212900844e-08
"1985" 57696 1.23792194085519e-09 1.37536469357634e-09 3.17513989637557e-09 1.13336218121765e-08 1.03004293736862e-07 1.18683024330229e-07 8.69937496249467e-09 9.26109854268863e-08
"1986" 57697 1.24228281637926e-09 1.37527135284598e-09 3.17104076489505e-09 1.13374325996091e-08 1.02025116564205e-07 1.18391501179183e-07 8.69557882023566e-09 9.26589495636882e-08
"1987" 57698 1.24140953924537e-09 1.37915201232057e-09 3.18329762618919e-09 1.13416018620518e-08 1.01082329168554e-07 1.18357668999683e-07 8.70272715371403e-09 9.49226351041403e-08
"1988" 57699 1.24053626211147e-09 1.38303267179517e-09 3.19555448748334e-09 1.13457711244946e-08 1.00139541772902e-07 1.18323836820183e-07 8.7098754871924e-09 9.71863206445923e-08
"1989" 57700 1.23966298497757e-09 1.38691333126976e-09 3.20781134877749e-09 1.13499403869373e-08 9.91967543772504e-08 1.18290004640683e-07 8.71702382067077e-09 9.94500061850443e-08
"1990" 57701 1.23878970784368e-09 1.39079399074435e-09 3.22006821007163e-09 1.13541096493801e-08 9.82539669815988e-08 1.18256172461183e-07 8.72417215414914e-09 1.01713691725496e-07
"1991" 57702 1.23791643070978e-09 1.39467465021894e-09 3.23232507136578e-09 1.13582789118229e-08 9.73111795859472e-08 1.18222340281683e-07 8.73132048762751e-09 1.03977377265948e-07
"1992" 57703 1.23704315357589e-09 1.39855530969353e-09 3.24458193265992e-09 1.13624481742656e-08 9.63683921902955e-08 1.18188508102183e-07 8.73846882110588e-09 1.062410628064e-07
"1993" 57704 1.23616987644199e-09 1.40243596916813e-09 3.25683879395407e-09 1.13666174367084e-08 9.54256047946439e-08 1.18154675922683e-07 8.74561715458425e-09 1.08504748346852e-07
"1994" 57705 1.23529659930810e-09 1.40631662864272e-09 3.26909565524821e-09 1.13707866991512e-08 9.44828173989923e-08 1.18120843743183e-07 8.75276548806261e-09 1.10768433887304e-07
"1995" 57706 1.21434529495513e-09 1.40631662864272e-09 3.28530825478229e-09 1.1264039902348e-08 9.31066790108409e-08 1.16463526138604e-07 8.76447213989639e-09 1.12973066204242e-07
"1996" 57707 1.19339399060217e-09 1.40631662864272e-09 3.30152085431638e-09 1.11572931055448e-08 9.17305406226895e-08 1.14806208534026e-07 8.77617879173017e-09 1.1517769852118e-07
"1997" 57708 1.19339399060217e-09 1.41029062884767e-09 3.31217859616574e-09 1.11495565822499e-08 9.17549699251573e-08 1.15040001151329e-07 8.73884184824019e-09 1.17511078775708e-07
"1998" 57709 1.19339399060217e-09 1.41426462905262e-09 3.3228363380151e-09 1.1141820058955e-08 9.17793992276251e-08 1.15273793768632e-07 8.70150490475021e-09 1.19844459030235e-07
"1999" 57710 1.19339399060217e-09 1.41823862925757e-09 3.33349407986447e-09 1.11340835356602e-08 9.18038285300929e-08 1.15507586385935e-07 8.66416796126023e-09 1.22177839284763e-07
"2000" 57711 1.19339399060217e-09 1.42221262946252e-09 3.34415182171383e-09 1.11263470123653e-08 9.18282578325606e-08 1.15741379003239e-07 8.62683101777025e-09 1.2451121953929e-07
"2001" 57712 1.19339399060217e-09 1.42618662966747e-09 3.3548095635632e-09 1.11186104890704e-08 9.18526871350284e-08 1.15975171620542e-07 8.58949407428027e-09 1.26844599793818e-07
"2002" 57713 1.19339399060217e-09 1.43016062987243e-09 3.36546730541256e-09 1.11108739657756e-08 9.18771164374962e-08 1.16208964237845e-07 8.55215713079029e-09 1.29177980048345e-07
"2003" 57714 1.19339399060217e-09 1.43413463007738e-09 3.37612504726192e-09 1.11031374424807e-08 9.1901545739964e-08 1.16442756855149e-07 8.51482018730031e-09 1.31511360302873e-07
"2004" 57715 1.19339399060217e-09 1.43810863028233e-09 3.38678278911129e-09 1.10954009191858e-08 9.19259750424318e-08 1.16676549472452e-07 8.47748324381033e-09 1.338447405574e-07
"2005" 57716 1.19339399060217e-09 1.44208263048728e-09 3.39744053096065e-09 1.1087664395891e-08 9.19504043448995e-08 1.16910342089755e-07 8.44014630032035e-09 1.36178120811928e-07
"2006" 57717 1.19339399060217e-09 1.44605663069223e-09 3.40809827281002e-09 1.10799278725961e-08 9.19748336473673e-08 1.17144134707058e-07 8.40280935683037e-09 1.38511501066455e-07
"2007" 57718 1.19339399060217e-09 1.45003063089718e-09 3.41875601465938e-09 1.10721913493012e-08 9.19992629498351e-08 1.17377927324362e-07 8.36547241334039e-09 1.40844881320982e-07
"2008" 57719 1.19339399060217e-09 1.45400463110214e-09 3.42941375650875e-09 1.10644548260064e-08 9.20236922523029e-08 1.17611719941665e-07 8.32813546985041e-09 1.4317826157551e-07
"2009" 57720 1.19114868321717e-09 1.45797863130709e-09 3.44562635604283e-09 1.10684195212668e-08 9.09518198696978e-08 1.16889529894323e-07 8.30395999008646e-09 1.45488149276562e-07
"2010" 57721 1.18890337583217e-09 1.46195263151204e-09 3.46183895557691e-09 1.10723842165272e-08 8.98799474870927e-08 1.1616733984698e-07 8.27978451032251e-09 1.47798036977614e-07
"2011" 57722 1.18628354443049e-09 1.46284077228339e-09 3.46397736128633e-09 1.10732667743319e-08 8.89992624886335e-08 1.15204666648081e-07 8.24846069708019e-09 1.47787577366353e-07
"2012" 57723 1.1836637130288e-09 1.4664414095669e-09 3.46568558727397e-09 1.10855953241551e-08 8.79642882364264e-08 1.15168305048875e-07 8.30325399967241e-09 1.47792681415658e-07
"2013" 57724 1.18104388162711e-09 1.47004204685041e-09 3.46739381326163e-09 1.10979238739783e-08 8.69293139842193e-08 1.15131943449669e-07 8.35804730226464e-09 1.47797785464964e-07
"2014" 57725 1.17842405022542e-09 1.47364268413393e-09 3.46910203924928e-09 1.11102524238014e-08 8.58943397320121e-08 1.15095581850463e-07 8.41284060485686e-09 1.47802889514269e-07
"2015" 57726 1.17580421882374e-09 1.47724332141744e-09 3.47081026523693e-09 1.11225809736246e-08 8.4859365479805e-08 1.15059220251257e-07 8.46763390744909e-09 1.47807993563575e-07
"2016" 57727 1.17443218857263e-09 1.48121732162239e-09 3.47708208912459e-09 1.12039809802028e-08 8.41547211311691e-08 1.14261177934715e-07 8.47144478793108e-09 1.47816020498234e-07
"2017" 57728 1.17306015832153e-09 1.48519132182734e-09 3.48335391301225e-09 1.1285380986781e-08 8.34500767825332e-08 1.13463135618174e-07 8.47525566841307e-09 1.47824047432892e-07
"2018" 57729 1.17168812807043e-09 1.48916532203229e-09 3.48962573689991e-09 1.13667809933592e-08 8.27454324338974e-08 1.12665093301633e-07 8.47906654889507e-09 1.47832074367551e-07
"2019" 57730 1.17031609781932e-09 1.49313932223725e-09 3.49589756078757e-09 1.14481809999374e-08 8.20407880852615e-08 1.11867050985092e-07 8.48287742937706e-09 1.4784010130221e-07
"2020" 57731 1.16894406756822e-09 1.4971133224422e-09 3.50216938467523e-09 1.15295810065156e-08 8.13361437366256e-08 1.11069008668551e-07 8.48668830985905e-09 1.47848128236869e-07
"2021" 57732 1.16757203731712e-09 1.50108732264715e-09 3.50844120856290e-09 1.16109810130938e-08 8.06314993879897e-08 1.1027096635201e-07 8.49049919034104e-09 1.47856155171527e-07
"2022" 57733 1.16620000706602e-09 1.5050613228521e-09 3.51471303245056e-09 1.1692381019672e-08 7.99268550393539e-08 1.09472924035468e-07 8.49431007082304e-09 1.47864182106186e-07
"2023" 57734 1.16482797681491e-09 1.50903532305705e-09 3.52098485633822e-09 1.17737810262501e-08 7.9222210690718e-08 1.08674881718927e-07 8.49812095130503e-09 1.47872209040845e-07
"2024" 57735 1.16345594656381e-09 1.513009323262e-09 3.52725668022588e-09 1.18551810328283e-08 7.85175663420821e-08 1.07876839402386e-07 8.50193183178702e-09 1.47880235975504e-07
"2025" 57736 1.16345594656381e-09 1.513009323262e-09 3.5203084232827e-09 1.18190019521318e-08 7.85651416292984e-08 1.07562332929159e-07 8.52768646582133e-09 1.47674837800948e-07
"2026" 57737 1.15896533179381e-09 1.5143028764202e-09 3.51749358451777e-09 1.17785386605627e-08 7.89670982406658e-08 1.08369067491983e-07 8.56228095896907e-09 1.48103111870078e-07
"2027" 57738 1.15447471702382e-09 1.5155964295784e-09 3.51467874575284e-09 1.17380753689936e-08 7.93690548520332e-08 1.09175802054807e-07 8.5968754521168e-09 1.48531385939208e-07
"2028" 57739 1.14998410225382e-09 1.5168899827366e-09 3.5118639069879e-09 1.16976120774245e-08 7.97710114634006e-08 1.09982536617631e-07 8.63146994526454e-09 1.48959660008339e-07
"2029" 57740 1.14549348748382e-09 1.51818353589479e-09 3.50904906822297e-09 1.16571487858554e-08 8.01729680747679e-08 1.10789271180454e-07 8.66606443841228e-09 1.49387934077469e-07
"2030" 57741 1.14100287271382e-09 1.51947708905299e-09 3.50623422945804e-09 1.16166854942863e-08 8.05749246861353e-08 1.11596005743278e-07 8.70065893156002e-09 1.49816208146599e-07
"2031" 57742 1.13651225794383e-09 1.52077064221119e-09 3.5034193906931e-09 1.15762222027172e-08 8.09768812975027e-08 1.12402740306102e-07 8.73525342470776e-09 1.5024448221573e-07
"2032" 57743 1.13202164317383e-09 1.52206419536938e-09 3.50060455192817e-09 1.15357589111481e-08 8.13788379088701e-08 1.13209474868926e-07 8.76984791785549e-09 1.5067275628486e-07
"2033" 57744 1.12753102840383e-09 1.52335774852758e-09 3.49778971316324e-09 1.1495295619579e-08 8.17807945202375e-08 1.1401620943175e-07 8.80444241100323e-09 1.5110103035399e-07
"2034" 57745 1.12304041363383e-09 1.52465130168578e-09 3.49497487439831e-09 1.14548323280099e-08 8.21827511316048e-08 1.14822943994574e-07 8.83903690415097e-09 1.51529304423121e-07
"2035" 57746 1.11854979886384e-09 1.52594485484398e-09 3.49216003563337e-09 1.14143690364408e-08 8.25847077429722e-08 1.15629678557398e-07 8.87363139729871e-09 1.51957578492251e-07
"2036" 57747 1.11405918409384e-09 1.52723840800217e-09 3.48934519686844e-09 1.13739057448717e-08 8.29866643543396e-08 1.16436413120222e-07 8.90822589044644e-09 1.52385852561381e-07
"2037" 57748 1.10956856932384e-09 1.52853196116037e-09 3.48653035810351e-09 1.13334424533026e-08 8.3388620965707e-08 1.17243147683046e-07 8.94282038359418e-09 1.52814126630512e-07
"2038" 57749 1.10507795455384e-09 1.52982551431857e-09 3.48371551933858e-09 1.12929791617335e-08 8.37905775770744e-08 1.1804988224587e-07 8.97741487674192e-09 1.53242400699642e-07
"2039" 57750 1.10245812315216e-09 1.5284065709646e-09 3.48443248554152e-09 1.12796160760423e-08 8.39666583635736e-08 1.18816799591788e-07 9.00962659206353e-09 1.53417443179748e-07
"2040" 57751 1.09983829175047e-09 1.52698762761064e-09 3.48514945174446e-09 1.12662529903512e-08 8.41427391500728e-08 1.19583716937705e-07 9.04183830738515e-09 1.53592485659854e-07
"2041" 57752 1.09161162038926e-09 1.52846786222955e-09 3.4908882358172e-09 1.11933980056054e-08 8.38846725824188e-08 1.19436175747042e-07 9.0753938468391e-09 1.54187320521565e-07
"2042" 57753 1.08338494902804e-09 1.52994809684847e-09 3.49662701988993e-09 1.11205430208597e-08 8.36266060147649e-08 1.19288634556379e-07 9.10894938629306e-09 1.54782155383276e-07
"2043" 57754 1.07515827766683e-09 1.53142833146739e-09 3.50236580396267e-09 1.10476880361139e-08 8.33685394471109e-08 1.19141093365716e-07 9.14250492574702e-09 1.55376990244987e-07
"2044" 57755 1.06693160630562e-09 1.5329085660863e-09 3.5081045880354e-09 1.09748330513682e-08 8.31104728794569e-08 1.18993552175053e-07 9.17606046520097e-09 1.55971825106698e-07
"2045" 57756 1.0587049349444e-09 1.53438880070522e-09 3.51384337210814e-09 1.09019780666224e-08 8.2852406311803e-08 1.1884601098439e-07 9.20961600465493e-09 1.56566659968408e-07
"2046" 57757 1.05047826358319e-09 1.53586903532414e-09 3.51958215618087e-09 1.08291230818766e-08 8.2594339744149e-08 1.18698469793726e-07 9.24317154410888e-09 1.57161494830119e-07
"2047" 57758 1.04225159222198e-09 1.53734926994305e-09 3.52532094025361e-09 1.07562680971309e-08 8.23362731764951e-08 1.18550928603063e-07 9.27672708356284e-09 1.5775632969183e-07
"2048" 57759 1.03402492086076e-09 1.53882950456197e-09 3.53105972432634e-09 1.06834131123851e-08 8.20782066088411e-08 1.184033874124e-07 9.3102826230168e-09 1.58351164553541e-07
"2049" 57760 1.02579824949955e-09 1.54030973918089e-09 3.53679850839908e-09 1.06105581276394e-08 8.18201400411871e-08 1.18255846221737e-07 9.34383816247075e-09 1.58945999415252e-07
"2050" 57761 1.01757157813833e-09 1.5417899737998e-09 3.54253729247181e-09 1.05377031428936e-08 8.15620734735331e-08 1.18108305031074e-07 9.37739370192471e-09 1.59540834276963e-07
"2051" 57762 1.00934490677712e-09 1.54327020841872e-09 3.54827607654454e-09 1.04648481581479e-08 8.13040069058792e-08 1.17960763840411e-07 9.41094924137866e-09 1.60135669138674e-07
"2052" 57763 1.00111823541591e-09 1.54475044303764e-09 3.55401486061728e-09 1.03919931734021e-08 8.10459403382252e-08 1.17813222649748e-07 9.44450478083262e-09 1.60730504000385e-07
"2053" 57764 9.92891564054695e-10 1.54623067765655e-09 3.55975364469001e-09 1.03191381886563e-08 8.07878737705713e-08 1.17665681459085e-07 9.47806032028657e-09 1.61325338862096e-07
"2054" 57765 9.84664892693481e-10 1.54771091227547e-09 3.56549242876275e-09 1.02462832039106e-08 8.05298072029173e-08 1.17518140268421e-07 9.51161585974053e-09 1.61920173723807e-07
"2055" 57766 9.76438221332268e-10 1.54919114689439e-09 3.57123121283548e-09 1.01734282191648e-08 8.02717406352633e-08 1.17370599077758e-07 9.54517139919449e-09 1.62515008585518e-07
"2056" 57767 9.68211549971054e-10 1.5506713815133e-09 3.57696999690822e-09 1.01005732344191e-08 8.00136740676093e-08 1.17223057887095e-07 9.57872693864844e-09 1.63109843447229e-07
"2057" 57768 9.59984878609841e-10 1.55215161613222e-09 3.58270878098095e-09 1.00277182496733e-08 7.97556074999554e-08 1.17075516696432e-07 9.6122824781024e-09 1.6370467830894e-07
"2058" 57769 9.51758207248627e-10 1.55363185075114e-09 3.58844756505369e-09 9.95486326492756e-09 7.94975409323014e-08 1.16927975505769e-07 9.64583801755635e-09 1.6429951317065e-07
"2059" 57770 9.43531535887414e-10 1.55511208537005e-09 3.59418634912642e-09 9.8820082801818e-09 7.92394743646475e-08 1.16780434315106e-07 9.67939355701031e-09 1.64894348032361e-07
"2060" 57771 9.353048645262e-10 1.55659231998897e-09 3.59992513319916e-09 9.80915329543605e-09 7.89814077969935e-08 1.16632893124443e-07 9.71294909646427e-09 1.65489182894072e-07
"2061" 57772 9.353048645262e-10 1.55788587314717e-09 3.60619695708682e-09 9.81901340935041e-09 7.95989810949745e-08 1.17166564542821e-07 9.7393001167575e-09 1.66130919025184e-07
"2062" 57773 9.25576423667962e-10 1.53486591375799e-09 3.52140268071192e-09 9.39354974093106e-09 7.92620465296503e-08 1.18220016392019e-07 9.7393001167575e-09 1.6676720155259e-07
"2063" 57774 9.26699995718029e-10 1.53178005432439e-09 3.51712586929309e-09 9.40550618602313e-09 7.9263746130359e-08 1.18213574396878e-07 9.82184306585286e-09 1.66778024922452e-07
"2064" 57775 9.28444713270686e-10 1.52780605411944e-09 3.51302673781256e-09 9.39297306901762e-09 7.92663319663482e-08 1.18249816751198e-07 9.83023897392664e-09 1.66961635702934e-07
"2065" 57776 9.28320484170168e-10 1.52383205391449e-09 3.50907099957263e-09 9.4002361688725e-09 7.93277074005907e-08 1.18894120512972e-07 9.97620646382602e-09 1.6727186441402e-07
"2066" 57777 9.2819625506965e-10 1.51985805370953e-09 3.50511526133269e-09 9.40749926872737e-09 7.93890828348333e-08 1.19538424274747e-07 1.01221739537254e-08 1.67582093125106e-07
"2067" 57778 9.28072025969132e-10 1.51588405350458e-09 3.50115952309276e-09 9.41476236858225e-09 7.94504582690758e-08 1.20182728036522e-07 1.02681414436248e-08 1.67892321836192e-07
"2068" 57779 9.28322320885303e-10 1.51588405350458e-09 3.50347560874048e-09 9.42283203721012e-09 7.94549374468553e-08 1.20370634808745e-07 1.02717437032051e-08 1.67895430873028e-07
"2069" 57780 9.28945303103028e-10 1.51551069058314e-09 3.50290203577813e-09 9.41410970763716e-09 7.94660212863877e-08 1.20704053221636e-07 1.03088172237159e-08 1.6797043992411e-07
"2070" 57781 9.29568285320753e-10 1.5151373276617e-09 3.50232846281577e-09 9.40538737806420e-09 7.94771051259202e-08 1.21037471634528e-07 1.03458907442267e-08 1.68045448975191e-07
"2071" 57782 9.30191267538478e-10 1.51476396474027e-09 3.50175488985341e-09 9.39666504849123e-09 7.94881889654526e-08 1.21370890047419e-07 1.03829642647375e-08 1.68120458026272e-07
"2072" 57783 9.30814249756203e-10 1.51439060181883e-09 3.50118131689106e-09 9.38794271891827e-09 7.9499272804985e-08 1.2170430846031e-07 1.04200377852483e-08 1.68195467077354e-07
"2073" 57784 9.31437231973928e-10 1.51401723889739e-09 3.5006077439287e-09 9.37922038934531e-09 7.95103566445175e-08 1.22037726873201e-07 1.04571113057591e-08 1.68270476128435e-07
"2074" 57785 9.32060214191653e-10 1.51364387597595e-09 3.50003417096635e-09 9.37049805977235e-09 7.95214404840499e-08 1.22371145286093e-07 1.04941848262699e-08 1.68345485179516e-07
"2075" 57786 9.32683196409378e-10 1.51327051305451e-09 3.49946059800399e-09 9.36177573019938e-09 7.95325243235823e-08 1.22704563698984e-07 1.05312583467807e-08 1.68420494230598e-07
"2076" 57787 9.33306178627103e-10 1.51289715013307e-09 3.49888702504164e-09 9.35305340062642e-09 7.95436081631147e-08 1.23037982111875e-07 1.05683318672915e-08 1.68495503281679e-07
"2077" 57788 9.34053389945347e-10 1.51579632810596e-09 3.50173615050429e-09 9.35595630057711e-09 7.95540915788514e-08 1.23000159907437e-07 1.06028701747568e-08 1.68531674950785e-07
"2078" 57789 9.3480060126359e-10 1.51869550607884e-09 3.50458527596694e-09 9.35885920052780e-09 7.95645749945882e-08 1.22962337703e-07 1.06374084822222e-08 1.68567846619891e-07
"2079" 57790 9.35547812581833e-10 1.52159468405172e-09 3.50743440142960e-09 9.36176210047848e-09 7.95750584103249e-08 1.22924515498562e-07 1.06719467896876e-08 1.68604018288997e-07
"2080" 57791 9.36295023900076e-10 1.5244938620246e-09 3.51028352689225e-09 9.36466500042917e-09 7.95855418260616e-08 1.22886693294124e-07 1.0706485097153e-08 1.68640189958103e-07
"2081" 57792 9.37042235218319e-10 1.52739303999748e-09 3.5131326523549e-09 9.36756790037986e-09 7.95960252417983e-08 1.22848871089687e-07 1.07410234046184e-08 1.68676361627209e-07
"2082" 57793 9.37789446536563e-10 1.53029221797037e-09 3.51598177781755e-09 9.37047080033055e-09 7.9606508657535e-08 1.22811048885249e-07 1.07755617120838e-08 1.68712533296315e-07
"2083" 57794 9.38536657854806e-10 1.53319139594325e-09 3.51883090328021e-09 9.37337370028124e-09 7.96169920732717e-08 1.22773226680811e-07 1.08101000195492e-08 1.68748704965421e-07
"2084" 57795 9.43027272624803e-10 1.53228723043919e-09 3.51829786346528e-09 9.37892427364585e-09 7.96166870612361e-08 1.22416117215705e-07 1.08159607145775e-08 1.68900918435736e-07
"2085" 57796 9.47517887394801e-10 1.53138306493514e-09 3.51776482365035e-09 9.38447484701046e-09 7.96163820492006e-08 1.22059007750598e-07 1.08218214096059e-08 1.69053131906051e-07
"2086" 57797 9.47642116495319e-10 1.53156974639586e-09 3.51937018954484e-09 9.38773622197136e-09 7.97752329508558e-08 1.21681532998452e-07 1.08260053172222e-08 1.70004259760398e-07
"2087" 57798 9.47766345595837e-10 1.53175642785658e-09 3.52097555543933e-09 9.39099759693227e-09 7.9934083852511e-08 1.21304058246306e-07 1.08301892248385e-08 1.70955387614746e-07
"2088" 57799 9.47890574696355e-10 1.5319431093173e-09 3.52258092133382e-09 9.39425897189317e-09 8.00929347541662e-08 1.20926583494161e-07 1.08343731324548e-08 1.71906515469093e-07
"2089" 57800 9.47640279780184e-10 1.5319431093173e-09 3.52504040022214e-09 9.39842823433594e-09 8.02122632883328e-08 1.20920764521695e-07 1.08200202798157e-08 1.72885657335554e-07
"2090" 57801 9.18966567328619e-10 1.52433642236343e-09 3.51578230408094e-09 9.34715991173707e-09 8.01940088320027e-08 1.20890341139842e-07 1.08008323312238e-08 1.73878232855596e-07
"2091" 57802 9.19090796429137e-10 1.51895950353721e-09 3.51578230408094e-09 9.33501059941899e-09 8.03026161403246e-08 1.20409582697051e-07 1.07600308251498e-08 1.74684587311437e-07
"2092" 57803 9.19215025529655e-10 1.513582584711e-09 3.51578230408094e-09 9.32286128710092e-09 8.04112234486465e-08 1.1992882425426e-07 1.07192293190758e-08 1.75490941767278e-07
"2093" 57804 9.19339254630173e-10 1.50820566588479e-09 3.51578230408094e-09 9.31071197478284e-09 8.05198307569683e-08 1.19448065811469e-07 1.06784278130017e-08 1.76297296223118e-07
"2094" 57805 9.19463483730692e-10 1.50282874705857e-09 3.51578230408094e-09 9.29856266246477e-09 8.06284380652902e-08 1.18967307368678e-07 1.06376263069277e-08 1.77103650678959e-07
"2095" 57806 9.1958771283121e-10 1.49745182823236e-09 3.51578230408094e-09 9.28641335014669e-09 8.07370453736121e-08 1.18486548925887e-07 1.05968248008536e-08 1.77910005134799e-07
"2096" 57807 9.19711941931728e-10 1.49207490940615e-09 3.51578230408094e-09 9.27426403782862e-09 8.0845652681934e-08 1.18005790483097e-07 1.05560232947796e-08 1.7871635959064e-07
"2097" 57808 9.19836171032246e-10 1.48669799057994e-09 3.51578230408094e-09 9.26211472551054e-09 8.09542599902559e-08 1.17525032040306e-07 1.05152217887055e-08 1.7952271404648e-07
"2098" 57809 9.21705117685421e-10 1.48023022478895e-09 3.51417693818645e-09 9.24600071793203e-09 8.09221844507744e-08 1.17351005089707e-07 1.04805992027166e-08 1.79365238783777e-07
"2099" 57810 9.23574064338597e-10 1.47376245899796e-09 3.51257157229196e-09 9.22988671035351e-09 8.0890108911293e-08 1.17176978139109e-07 1.04459766167277e-08 1.79207763521073e-07
"2100" 57811 9.25443010991772e-10 1.46729469320698e-09 3.51096620639747e-09 9.213772702775e-09 8.08580333718115e-08 1.1700295118851e-07 1.04113540307388e-08 1.79050288258369e-07
"2101" 57812 9.27311957644947e-10 1.46082692741599e-09 3.50936084050298e-09 9.19765869519649e-09 8.082595783233e-08 1.16828924237912e-07 1.03767314447499e-08 1.78892812995665e-07
"2102" 57813 9.29180904298122e-10 1.454359161625e-09 3.50775547460849e-09 9.18154468761797e-09 8.07938822928486e-08 1.16654897287313e-07 1.0342108858761e-08 1.78735337732961e-07
"2103" 57814 9.31049850951298e-10 1.44789139583402e-09 3.506150108714e-09 9.16543068003946e-09 8.07618067533671e-08 1.16480870336714e-07 1.03074862727721e-08 1.78577862470257e-07
"2104" 57815 9.32918797604473e-10 1.44142363004303e-09 3.50454474281951e-09 9.14931667246095e-09 8.07297312138856e-08 1.16306843386116e-07 1.02728636867831e-08 1.78420387207553e-07
"2105" 57816 9.3740941237447e-10 1.43734026437501e-09 3.50867816099776e-09 9.13329228363499e-09 8.08784325126657e-08 1.16285189141752e-07 1.02957648827153e-08 1.78341361110785e-07
"2106" 57817 9.41900027144468e-10 1.433256898707e-09 3.512811579176e-09 9.11726789480903e-09 8.10271338114458e-08 1.16263534897389e-07 1.03186660786474e-08 1.78262335014016e-07
"2107" 57818 9.46390641914465e-10 1.42917353303898e-09 3.51694499735425e-09 9.10124350598307e-09 8.1175835110226e-08 1.16241880653026e-07 1.03415672745796e-08 1.78183308917247e-07
"2108" 57819 9.50881256684462e-10 1.42509016737097e-09 3.52107841553249e-09 9.08521911715711e-09 8.13245364090061e-08 1.16220226408662e-07 1.03644684705117e-08 1.78104282820478e-07
"2109" 57820 9.5537187145446e-10 1.42100680170295e-09 3.52521183371074e-09 9.06919472833115e-09 8.14732377077862e-08 1.16198572164299e-07 1.03873696664439e-08 1.7802525672371e-07
"2110" 57821 9.59862486224457e-10 1.41692343603494e-09 3.52934525188898e-09 9.05317033950519e-09 8.16219390065663e-08 1.16176917919935e-07 1.04102708623761e-08 1.77946230626941e-07
"2111" 57822 9.64353100994455e-10 1.41284007036692e-09 3.53347867006723e-09 9.03714595067923e-09 8.17706403053464e-08 1.16155263675572e-07 1.04331720583082e-08 1.77867204530172e-07
"2112" 57823 9.64353100994455e-10 1.41492842356611e-09 3.53579475571495e-09 9.02819372424673e-09 8.1951417143608e-08 1.16274715326291e-07 1.04019044307482e-08 1.77887420371711e-07
"2113" 57824 9.67595914613867e-10 1.41622197672431e-09 3.54124675330651e-09 9.02819372424673e-09 8.21506670477569e-08 1.1673190754472e-07 1.04432180445577e-08 1.7799754249668e-07
"2114" 57825 9.66477852709204e-10 1.41650199891539e-09 3.5324531235848e-09 8.99880624972963e-09 8.23314438860185e-08 1.17134487134259e-07 1.04634048829888e-08 1.77736187318897e-07
"2115" 57826 9.65359790804541e-10 1.41678202110646e-09 3.52365949386309e-09 8.96941877521254e-09 8.25122207242801e-08 1.17537066723799e-07 1.04835917214199e-08 1.77474832141114e-07
"2116" 57827 9.64241728899878e-10 1.41706204329754e-09 3.51486586414139e-09 8.94003130069544e-09 8.26929975625417e-08 1.17939646313338e-07 1.05037785598509e-08 1.77213476963331e-07
"2117" 57828 9.63123666995215e-10 1.41734206548862e-09 3.50607223441968e-09 8.91064382617835e-09 8.28737744008032e-08 1.18342225902878e-07 1.0523965398282e-08 1.76952121785548e-07
"2118" 57829 9.62005605090552e-10 1.4176220876797e-09 3.49727860469797e-09 8.88125635166125e-09 8.30545512390648e-08 1.18744805492417e-07 1.05441522367131e-08 1.76690766607765e-07
"2119" 57830 9.60887543185889e-10 1.41790210987078e-09 3.48848497497626e-09 8.85186887714416e-09 8.32353280773264e-08 1.19147385081957e-07 1.05643390751442e-08 1.76429411429983e-07
"2120" 57831 9.57147813164404e-10 1.41960107541583e-09 3.47680168664447e-09 8.90217865290673e-09 8.33811961297339e-08 1.20315503886355e-07 1.05794955513391e-08 1.76059812621566e-07
"2121" 57832 9.53408083142918e-10 1.42130004096087e-09 3.46511839831268e-09 8.9524884286693e-09 8.35270641821415e-08 1.21483622690754e-07 1.05946520275339e-08 1.75690213813149e-07
"2122" 57833 9.47799406468258e-10 1.4193983692224e-09 3.44973187152441e-09 8.9231009541522e-09 8.35916507446446e-08 1.21433332216683e-07 1.05573150840439e-08 1.75330990778443e-07
"2123" 57834 9.42190729793598e-10 1.41749669748393e-09 3.43434534473615e-09 8.89371347963511e-09 8.36562373071476e-08 1.21383041742612e-07 1.0519978140554e-08 1.74971767743737e-07
"2124" 57835 9.36582053118937e-10 1.41559502574547e-09 3.41895881794788e-09 8.86432600511801e-09 8.37208238696507e-08 1.21332751268541e-07 1.0482641197064e-08 1.74612544709032e-07
"2125" 57836 9.30973376444277e-10 1.413693354007e-09 3.40357229115961e-09 8.83493853060092e-09 8.37854104321538e-08 1.2128246079447e-07 1.0445304253574e-08 1.74253321674326e-07
"2126" 57837 9.25364699769616e-10 1.41179168226853e-09 3.38818576437134e-09 8.80555105608383e-09 8.38499969946568e-08 1.21232170320398e-07 1.0407967310084e-08 1.7389409863962e-07
"2127" 57838 9.19756023094956e-10 1.40989001053006e-09 3.37279923758308e-09 8.77616358156673e-09 8.39145835571599e-08 1.21181879846327e-07 1.0370630366594e-08 1.73534875604915e-07
"2128" 57839 9.14147346420296e-10 1.40798833879159e-09 3.35741271079481e-09 8.74677610704964e-09 8.3979170119663e-08 1.21131589372256e-07 1.03332934231041e-08 1.73175652570209e-07
"2129" 57840 9.08538669745635e-10 1.40608666705312e-09 3.34202618400654e-09 8.71738863253254e-09 8.40437566821661e-08 1.21081298898185e-07 1.02959564796141e-08 1.72816429535503e-07
"2130" 57841 9.02929993070975e-10 1.40418499531466e-09 3.32663965721827e-09 8.68800115801545e-09 8.41083432446691e-08 1.21031008424114e-07 1.02586195361241e-08 1.72457206500797e-07
"2131" 57842 8.97321316396314e-10 1.40228332357619e-09 3.31125313043e-09 8.65861368349835e-09 8.41729298071722e-08 1.20980717950043e-07 1.02212825926341e-08 1.72097983466092e-07
"2132" 57843 8.91712639721654e-10 1.40038165183772e-09 3.29586660364174e-09 8.62922620898126e-09 8.42375163696753e-08 1.20930427475972e-07 1.01839456491441e-08 1.71738760431386e-07
"2133" 57844 8.86103963046993e-10 1.39847998009925e-09 3.28048007685347e-09 8.59983873446416e-09 8.43021029321783e-08 1.208801370019e-07 1.01466087056542e-08 1.7137953739668e-07
"2134" 57845 8.80495286372333e-10 1.39657830836078e-09 3.2650935500652e-09 8.57045125994707e-09 8.43666894946814e-08 1.20829846527829e-07 1.01092717621642e-08 1.71020314361975e-07
"2135" 57846 8.74886609697673e-10 1.39467663662231e-09 3.24970702327693e-09 8.54106378542997e-09 8.44312760571845e-08 1.20779556053758e-07 1.00719348186742e-08 1.70661091327269e-07
"2136" 57847 8.69277933023012e-10 1.39277496488385e-09 3.23432049648867e-09 8.51167631091288e-09 8.44958626196876e-08 1.20729265579687e-07 1.00345978751842e-08 1.70301868292563e-07
"2137" 57848 8.63669256348352e-10 1.39087329314538e-09 3.2189339697004e-09 8.48228883639578e-09 8.45604491821906e-08 1.20678975105616e-07 9.99726093169425e-09 1.69942645257858e-07
"2138" 57849 8.58060579673691e-10 1.38897162140691e-09 3.20354744291213e-09 8.45290136187869e-09 8.46250357446937e-08 1.20628684631545e-07 9.95992398820427e-09 1.69583422223152e-07
"2139" 57850 8.52451902999031e-10 1.38706994966844e-09 3.18816091612386e-09 8.42351388736160e-09 8.46896223071968e-08 1.20578394157474e-07 9.92258704471429e-09 1.69224199188446e-07
"2140" 57851 8.4684322632437e-10 1.38516827792997e-09 3.17277438933559e-09 8.3941264128445e-09 8.47542088696999e-08 1.20528103683402e-07 9.88525010122431e-09 1.6886497615374e-07
"2141" 57852 8.4123454964971e-10 1.3832666061915e-09 3.15738786254733e-09 8.3647389383274e-09 8.48187954322029e-08 1.20477813209331e-07 9.84791315773433e-09 1.68505753119035e-07
"2142" 57853 8.39740127013224e-10 1.38247180615051e-09 3.15738786254733e-09 8.36691318830134e-09 8.45045329669857e-08 1.20645312340836e-07 9.84898020426929e-09 1.68491270802252e-07
"2143" 57854 8.38245704376737e-10 1.39063853748655e-09 3.17709173390186e-09 8.39737608784909e-09 8.42335027506348e-08 1.21510942683467e-07 1.01314282874325e-08 1.68700691682329e-07
"2144" 57855 8.36376757723562e-10 1.39045185602583e-09 3.17680494742068e-09 8.39737608784909e-09 8.38961575702462e-08 1.21512023222172e-07 1.01499650476879e-08 1.69000097023554e-07
"2145" 57856 8.34507811070387e-10 1.39026517456511e-09 3.1765181609395e-09 8.39737608784909e-09 8.35588123898575e-08 1.21513103760876e-07 1.01685018079433e-08 1.69299502364778e-07
"2146" 57857 8.32638864417211e-10 1.39007849310439e-09 3.17623137445832e-09 8.39737608784909e-09 8.32214672094688e-08 1.21514184299581e-07 1.01870385681987e-08 1.69598907706002e-07
"2147" 57858 8.30769917764036e-10 1.38989181164367e-09 3.17594458797715e-09 8.39737608784909e-09 8.28841220290801e-08 1.21515264838285e-07 1.02055753284541e-08 1.69898313047226e-07
"2148" 57859 8.28900971110861e-10 1.38970513018295e-09 3.17565780149597e-09 8.39737608784909e-09 8.25467768486914e-08 1.2151634537699e-07 1.02241120887095e-08 1.70197718388451e-07
"2149" 57860 8.27032024457685e-10 1.38951844872223e-09 3.17537101501479e-09 8.39737608784909e-09 8.22094316683027e-08 1.21517425915694e-07 1.02426488489649e-08 1.70497123729675e-07
"2150" 57861 8.26657500440996e-10 1.37787647029845e-09 3.14526190159435e-09 8.34079878870147e-09 8.2198023616184e-08 1.20992735403206e-07 1.02521799602694e-08 1.7073234338968e-07
"2151" 57862 8.25910289122753e-10 1.3668878769872e-09 3.12656178292395e-09 8.3388933949852e-09 8.21936365088077e-08 1.20957407522651e-07 1.02720605446571e-08 1.71050370271341e-07
"2152" 57863 8.2516307780451e-10 1.35589928367594e-09 3.10786166425354e-09 8.33698800126892e-09 8.21892494014313e-08 1.20922079642096e-07 1.02919411290448e-08 1.71368397153002e-07
"2153" 57864 8.24415866486267e-10 1.34491069036468e-09 3.08916154558313e-09 8.33508260755265e-09 8.2184862294055e-08 1.20886751761541e-07 1.03118217134326e-08 1.71686424034663e-07
"2154" 57865 8.23668655168024e-10 1.33392209705342e-09 3.07046142691272e-09 8.33317721383638e-09 8.21804751866786e-08 1.20851423880986e-07 1.03317022978203e-08 1.72004450916324e-07
"2155" 57866 8.16808503912509e-10 1.33453021563369e-09 3.06885606101823e-09 8.29693384406447e-09 8.20118333634856e-08 1.20455162575327e-07 1.03360386406559e-08 1.71417132916487e-07
"2156" 57867 8.09948352656995e-10 1.33513833421396e-09 3.06725069512374e-09 8.26069047429257e-09 8.18431915402926e-08 1.20058901269667e-07 1.03403749834915e-08 1.7082981491665e-07
"2157" 57868 8.03088201401481e-10 1.33574645279423e-09 3.06564532922925e-09 8.22444710452067e-09 8.16745497170995e-08 1.19662639964008e-07 1.03447113263271e-08 1.70242496916814e-07
"2158" 57869 7.96228050145967e-10 1.33635457137451e-09 3.06403996333476e-09 8.18820373474877e-09 8.15059078939065e-08 1.19266378658349e-07 1.03490476691626e-08 1.69655178916977e-07
"2159" 57870 7.89367898890453e-10 1.33696268995478e-09 3.06243459744027e-09 8.15196036497687e-09 8.13372660707135e-08 1.1887011735269e-07 1.03533840119982e-08 1.69067860917141e-07
"2160" 57871 7.82507747634939e-10 1.33757080853505e-09 3.06082923154578e-09 8.11571699520497e-09 8.11686242475204e-08 1.1847385604703e-07 1.03577203548338e-08 1.68480542917304e-07
"2161" 57872 7.75647596379425e-10 1.33817892711532e-09 3.05922386565129e-09 8.07947362543307e-09 8.09999824243274e-08 1.18077594741371e-07 1.03620566976694e-08 1.67893224917467e-07
"2162" 57873 7.6878744512391e-10 1.33878704569559e-09 3.0576184997568e-09 8.04323025566117e-09 8.08313406011344e-08 1.17681333435712e-07 1.0366393040505e-08 1.67305906917631e-07
"2163" 57874 7.61927293868396e-10 1.33939516427586e-09 3.05601313386232e-09 8.00698688588927e-09 8.06626987779414e-08 1.17285072130052e-07 1.03707293833406e-08 1.66718588917794e-07
"2164" 57875 7.55814353931125e-10 1.3393018235455e-09 3.053553654974e-09 8.00698688588927e-09 8.04824110925216e-08 1.17564203344375e-07 1.03973986286905e-08 1.6585327928019e-07
"2165" 57876 7.49701413993854e-10 1.33920848281514e-09 3.05109417608569e-09 8.00698688588927e-09 8.03021234071019e-08 1.17843334558697e-07 1.04240678740405e-08 1.64987969642585e-07
"2166" 57877 7.4284126273834e-10 1.33911514208478e-09 3.05233793565385e-09 7.97053894893504e-09 8.01334815839089e-08 1.17826913593136e-07 1.04507371193905e-08 1.64093531968499e-07
"2167" 57878 7.35981111482826e-10 1.33902180135442e-09 3.05358169522201e-09 7.93409101198082e-09 7.99648397607159e-08 1.17810492627575e-07 1.04774063647405e-08 1.63199094294413e-07
"2168" 57879 7.29120960227312e-10 1.33892846062406e-09 3.05482545479017e-09 7.89764307502659e-09 7.97961979375228e-08 1.17794071662014e-07 1.05040756100905e-08 1.62304656620328e-07
"2169" 57880 7.22260808971798e-10 1.3388351198937e-09 3.05606921435834e-09 7.86119513807236e-09 7.96275561143298e-08 1.17777650696453e-07 1.05307448554405e-08 1.61410218946242e-07
"2170" 57881 7.15400657716284e-10 1.33874177916334e-09 3.0573129739265e-09 7.82474720111813e-09 7.94589142911368e-08 1.17761229730891e-07 1.05574141007905e-08 1.60515781272156e-07
"2171" 57882 7.0854050646077e-10 1.33864843843298e-09 3.05855673349466e-09 7.78829926416391e-09 7.92902724679437e-08 1.1774480876533e-07 1.05840833461404e-08 1.5962134359807e-07
"2172" 57883 7.01680355205255e-10 1.33855509770262e-09 3.05980049306283e-09 7.75185132720968e-09 7.91216306447507e-08 1.17728387799769e-07 1.06107525914904e-08 1.58726905923984e-07
"2173" 57884 6.94820203949741e-10 1.33846175697226e-09 3.06104425263099e-09 7.71540339025545e-09 7.89529888215577e-08 1.17711966834208e-07 1.06374218368404e-08 1.57832468249898e-07
"2174" 57885 6.87960052694227e-10 1.3383684162419e-09 3.06228801219915e-09 7.67895545330123e-09 7.87843469983647e-08 1.17695545868647e-07 1.06640910821904e-08 1.56938030575812e-07
"2175" 57886 6.81099901438713e-10 1.33827507551154e-09 3.06353177176732e-09 7.642507516347e-09 7.86157051751716e-08 1.17679124903086e-07 1.06907603275404e-08 1.56043592901726e-07
"2176" 57887 6.74239750183199e-10 1.33818173478119e-09 3.06477553133548e-09 7.60605957939277e-09 7.84470633519786e-08 1.17662703937525e-07 1.07174295728904e-08 1.5514915522764e-07
"2177" 57888 6.71619918781511e-10 1.33600004085164e-09 3.04763399896243e-09 7.59045795465236e-09 7.8258762883507e-08 1.17490800735325e-07 1.07479364079587e-08 1.55141440894615e-07
"2178" 57889 6.56660998695571e-10 1.32061601021588e-09 3.01628737242353e-09 7.45956837080549e-09 7.75832342888259e-08 1.17630783738023e-07 1.06330574011637e-08 1.55034954968e-07
"2179" 57890 6.55166576059084e-10 1.32279770414542e-09 3.02288026949009e-09 7.46135881609199e-09 7.75680050843756e-08 1.17737474551425e-07 1.08255332733414e-08 1.54897961263685e-07
"2180" 57891 6.53421858506427e-10 1.32289104487578e-09 3.02715708090893e-09 7.46006712392270e-09 7.75884002928794e-08 1.18409791520234e-07 1.0834968135109e-08 1.54916690777889e-07
"2181" 57892 6.53421858506427e-10 1.32268833868236e-09 3.02733476084724e-09 7.46006712392270e-09 7.78552868798868e-08 1.19077790800597e-07 1.08311719928499e-08 1.54776970271721e-07
"2182" 57893 6.53421858506427e-10 1.32248563248894e-09 3.02751244078555e-09 7.46006712392270e-09 7.81221734668943e-08 1.19745790080961e-07 1.08273758505909e-08 1.54637249765553e-07
"2183" 57894 6.53421858506427e-10 1.32228292629551e-09 3.02769012072385e-09 7.46006712392270e-09 7.83890600539017e-08 1.20413789361325e-07 1.08235797083319e-08 1.54497529259385e-07
"2184" 57895 6.53421858506427e-10 1.32208022010209e-09 3.02786780066216e-09 7.46006712392270e-09 7.86559466409091e-08 1.21081788641689e-07 1.08197835660729e-08 1.54357808753217e-07
"2185" 57896 6.53421858506427e-10 1.32187751390867e-09 3.02804548060047e-09 7.46006712392270e-09 7.89228332279166e-08 1.21749787922052e-07 1.08159874238139e-08 1.54218088247049e-07
"2186" 57897 6.53421858506427e-10 1.32167480771524e-09 3.02822316053878e-09 7.46006712392270e-09 7.9189719814924e-08 1.22417787202416e-07 1.08121912815549e-08 1.54078367740881e-07
"2187" 57898 6.53421858506427e-10 1.32147210152182e-09 3.02840084047709e-09 7.46006712392270e-09 7.94566064019315e-08 1.2308578648278e-07 1.08083951392959e-08 1.53938647234713e-07
"2188" 57899 6.53421858506427e-10 1.32126939532839e-09 3.0285785204154e-09 7.46006712392270e-09 7.97234929889389e-08 1.23753785763143e-07 1.08045989970369e-08 1.53798926728545e-07
"2189" 57900 6.53421858506427e-10 1.32106668913497e-09 3.02875620035371e-09 7.46006712392270e-09 7.99903795759464e-08 1.24421785043507e-07 1.08008028547779e-08 1.53659206222377e-07
"2190" 57901 6.53421858506427e-10 1.32086398294155e-09 3.02893388029202e-09 7.46006712392270e-09 8.02572661629538e-08 1.25089784323871e-07 1.07970067125189e-08 1.53519485716209e-07
"2191" 57902 6.53421858506427e-10 1.32066127674812e-09 3.02911156023033e-09 7.46006712392270e-09 8.05241527499612e-08 1.25757783604234e-07 1.07932105702599e-08 1.53379765210041e-07
"2192" 57903 6.53421858506427e-10 1.3204585705547e-09 3.02928924016864e-09 7.46006712392270e-09 8.07910393369687e-08 1.26425782884598e-07 1.07894144280009e-08 1.53240044703874e-07
"2193" 57904 6.54916281142914e-10 1.2998390360212e-09 2.99850369369268e-09 7.43706019145584e-09 8.09247876425079e-08 1.27017887542083e-07 1.07209461703424e-08 1.53240659975124e-07
"2194" 57905 6.564107037794e-10 1.2792195014877e-09 2.96771814721673e-09 7.41405325898898e-09 8.10585359480472e-08 1.27609992199568e-07 1.0652477912684e-08 1.53241275246375e-07
"2195" 57906 6.55659819030888e-10 1.27831533598364e-09 2.96201989629143e-09 7.39663585928486e-09 8.10851404714397e-08 1.28112489594082e-07 1.0625323268835e-08 1.528956947653e-07
"2196" 57907 6.54908934282376e-10 1.27741117047959e-09 2.95632164536612e-09 7.37921845958073e-09 8.11117449948321e-08 1.28614986988596e-07 1.0598168624986e-08 1.52550114284226e-07
"2197" 57908 6.54158049533863e-10 1.27650700497553e-09 2.95062339444081e-09 7.3618010598766e-09 8.11383495182246e-08 1.29117484383111e-07 1.0571013981137e-08 1.52204533803151e-07
"2198" 57909 6.53407164785351e-10 1.27560283947148e-09 2.94492514351551e-09 7.34438366017247e-09 8.1164954041617e-08 1.29619981777625e-07 1.0543859337288e-08 1.51858953322077e-07
"2199" 57910 6.52656280036839e-10 1.27469867396743e-09 2.9392268925902e-09 7.32696626046835e-09 8.11915585650095e-08 1.3012247917214e-07 1.0516704693439e-08 1.51513372841002e-07
"2200" 57911 6.51905395288327e-10 1.27379450846337e-09 2.9335286416649e-09 7.30954886076422e-09 8.12181630884019e-08 1.30624976566654e-07 1.048955004959e-08 1.51167792359928e-07
"2201" 57912 6.60628983051613e-10 1.28158787687796e-09 2.96886529314144e-09 7.61133152630798e-09 8.28261470706277e-08 1.31131791649613e-07 1.04975153612423e-08 1.5083125479613e-07
"2202" 57913 6.69352570814899e-10 1.28938124529256e-09 3.00420194461799e-09 7.91311419185174e-09 8.44341310528535e-08 1.31638606732572e-07 1.05054806728946e-08 1.50494717232332e-07
"2203" 57914 6.68601686066386e-10 1.29058145772039e-09 3.00035531292092e-09 7.9733094112059e-09 8.61296001719475e-08 1.32094465965106e-07 1.0489270504783e-08 1.50180040968141e-07
"2204" 57915 6.67850801317874e-10 1.29178167014823e-09 2.99650868122386e-09 8.03350463056005e-09 8.78250692910415e-08 1.3255032519764e-07 1.04730603366714e-08 1.4986536470395e-07
"2205" 57916 6.67099916569362e-10 1.29298188257607e-09 2.99266204952679e-09 8.09369984991421e-09 8.95205384101355e-08 1.33006184430174e-07 1.04568501685597e-08 1.49550688439759e-07
"2206" 57917 6.6634903182085e-10 1.29418209500391e-09 2.98881541782972e-09 8.15389506926837e-09 9.12160075292295e-08 1.33462043662707e-07 1.04406400004481e-08 1.49236012175568e-07
"2207" 57918 6.67843454457336e-10 1.29519562597102e-09 2.99052364381737e-09 8.23359231954803e-09 9.31119697335159e-08 1.33906886298093e-07 1.04477883339265e-08 1.49267531663702e-07
"2208" 57919 6.67843454457336e-10 1.29700395697913e-09 2.99255294298392e-09 8.31337918858025e-09 9.5072334359499e-08 1.34520474668627e-07 1.04131657479376e-08 1.49158715374417e-07
"2209" 57920 6.67092569708824e-10 1.28985075661022e-09 2.96892762008717e-09 8.36270315806472e-09 9.69510435460401e-08 1.35143622939156e-07 1.04145229266881e-08 1.49156035457348e-07
"2210" 57921 6.66341684960312e-10 1.28269755624131e-09 2.94530229719043e-09 8.4120271275492e-09 9.88297527325812e-08 1.35766771209684e-07 1.04158801054386e-08 1.49153355540278e-07
"2211" 57922 6.65590800211799e-10 1.2755443558724e-09 2.92167697429368e-09 8.46135109703367e-09 1.00708461919122e-07 1.36389919480213e-07 1.04172372841892e-08 1.49150675623209e-07
"2212" 57923 6.64839915463287e-10 1.26839115550348e-09 2.89805165139694e-09 8.51067506651815e-09 1.02587171105663e-07 1.37013067750741e-07 1.04185944629397e-08 1.49147995706139e-07
"2213" 57924 6.64089030714775e-10 1.26123795513457e-09 2.87442632850019e-09 8.55999903600262e-09 1.04465880292205e-07 1.37636216021269e-07 1.04199516416902e-08 1.4914531578907e-07
"2214" 57925 6.64089030714775e-10 1.25227642375755e-09 2.85123118532521e-09 8.53171038642882e-09 1.04410973380285e-07 1.37828195850901e-07 1.04085632149132e-08 1.49134608937342e-07
"2215" 57926 6.64089030714775e-10 1.24331489238053e-09 2.82803604215023e-09 8.50342173685501e-09 1.04356066468366e-07 1.38020175680532e-07 1.03971747881362e-08 1.49123902085613e-07
"2216" 57927 6.64089030714775e-10 1.23435336100351e-09 2.80484089897525e-09 8.4751330872812e-09 1.04301159556447e-07 1.38212155510163e-07 1.03857863613592e-08 1.49113195233885e-07
"2217" 57928 6.64089030714775e-10 1.22539182962648e-09 2.78164575580028e-09 8.44684443770739e-09 1.04246252644528e-07 1.38404135339795e-07 1.03743979345821e-08 1.49102488382157e-07
"2218" 57929 6.64089030714775e-10 1.21643029824946e-09 2.7584506126253e-09 8.41855578813359e-09 1.04191345732609e-07 1.38596115169426e-07 1.03630095078051e-08 1.49091781530429e-07
"2219" 57930 6.64089030714775e-10 1.20746876687244e-09 2.73525546945032e-09 8.39026713855978e-09 1.0413643882069e-07 1.38788094999057e-07 1.03516210810281e-08 1.490810746787e-07
"2220" 57931 6.64089030714775e-10 1.19850723549542e-09 2.71206032627534e-09 8.36197848898597e-09 1.04081531908771e-07 1.38980074828689e-07 1.03402326542511e-08 1.49070367826972e-07
"2221" 57932 6.64089030714775e-10 1.1895457041184e-09 2.68886518310036e-09 8.33368983941216e-09 1.04026624996852e-07 1.3917205465832e-07 1.0328844227474e-08 1.49059660975244e-07
"2222" 57933 6.64089030714775e-10 1.18058417274138e-09 2.66567003992538e-09 8.30540118983836e-09 1.03971718084933e-07 1.39364034487951e-07 1.0317455800697e-08 1.49048954123516e-07
"2223" 57934 6.61593428413605e-10 1.17241744140535e-09 2.64660831492865e-09 8.27502790904317e-09 1.04132491129204e-07 1.3938149140535e-07 1.03350231475592e-08 1.49408326356938e-07
"2224" 57935 6.59097826112436e-10 1.16425071006932e-09 2.62754658993191e-09 8.24465462824798e-09 1.04293264173476e-07 1.39398948322749e-07 1.03525904944213e-08 1.49767698590361e-07
"2225" 57936 6.56602223811267e-10 1.15608397873328e-09 2.60848486493518e-09 8.21428134745279e-09 1.04454037217747e-07 1.39416405240148e-07 1.03701578412835e-08 1.50127070823783e-07
"2226" 57937 6.54106621510097e-10 1.14791724739725e-09 2.58942313993844e-09 8.1839080666576e-09 1.04614810262019e-07 1.39433862157547e-07 1.03877251881456e-08 1.50486443057206e-07
"2227" 57938 6.51611019208928e-10 1.13975051606122e-09 2.57036141494171e-09 8.15353478586241e-09 1.04775583306291e-07 1.39451319074946e-07 1.04052925350078e-08 1.50845815290628e-07
"2228" 57939 6.49115416907758e-10 1.13158378472519e-09 2.55129968994498e-09 8.12316150506722e-09 1.04936356350562e-07 1.39468775992345e-07 1.042285988187e-08 1.51205187524051e-07
"2229" 57940 6.47991844857692e-10 1.13267463168997e-09 2.55586328784499e-09 8.09377403055013e-09 1.05142903410663e-07 1.39464079353966e-07 1.04518156555091e-08 1.51581852713659e-07
"2230" 57941 6.46868272807625e-10 1.13376547865474e-09 2.560426885745e-09 8.06438655603303e-09 1.05349450470764e-07 1.39459382715588e-07 1.04807714291483e-08 1.51958517903267e-07
"2231" 57942 6.45123555254968e-10 1.13105298214258e-09 2.5584724064236e-09 8.02311862545552e-09 1.04674760109986e-07 1.39098287691917e-07 1.04786387196832e-08 1.52344025654467e-07
"2232" 57943 6.39639107680826e-10 1.11236436114709e-09 2.53001543849479e-09 7.91437874594808e-09 1.04822193359247e-07 1.38985238474141e-07 1.05010278078799e-08 1.52667902579018e-07
"2233" 57944 6.34154660106683e-10 1.09367574015159e-09 2.50155847056598e-09 7.80563886644064e-09 1.04969626608509e-07 1.38872189256365e-07 1.05234168960767e-08 1.52991779503569e-07
"2234" 57945 6.28670212532541e-10 1.0749871191561e-09 2.47310150263717e-09 7.6968989869332e-09 1.0511705985777e-07 1.38759140038589e-07 1.05458059842735e-08 1.5331565642812e-07
"2235" 57946 6.23185764958399e-10 1.05629849816061e-09 2.44464453470836e-09 7.58815910742576e-09 1.05264493107031e-07 1.38646090820814e-07 1.05681950724702e-08 1.53639533352671e-07
"2236" 57947 6.17701317384257e-10 1.03760987716512e-09 2.41618756677955e-09 7.47941922791832e-09 1.05411926356292e-07 1.38533041603038e-07 1.0590584160667e-08 1.53963410277221e-07
"2237" 57948 6.12216869810114e-10 1.01892125616963e-09 2.38773059885074e-09 7.37067934841088e-09 1.05559359605553e-07 1.38419992385262e-07 1.06129732488637e-08 1.54287287201772e-07
"2238" 57949 6.13468344390968e-10 1.00152618833234e-09 2.35695754527421e-09 7.28703103259167e-09 1.05739008466076e-07 1.38290941272352e-07 1.0610631918497e-08 1.54230625429911e-07
"2239" 57950 6.12350282486305e-10 9.82042767295857e-10 2.32222875345774e-09 7.19859975278273e-09 1.05789397799114e-07 1.39145226237734e-07 1.06743346205032e-08 1.54160930715835e-07
"2240" 57951 6.07488817129888e-10 9.64367677267485e-10 2.29889646349188e-09 7.09337647477295e-09 1.05736666108119e-07 1.39032924312189e-07 1.0693522569095e-08 1.54095640942265e-07
"2241" 57952 6.0262735177347e-10 9.46692587239113e-10 2.27556417352602e-09 6.98815319676318e-09 1.05683934417125e-07 1.38920622386644e-07 1.07127105176869e-08 1.54030351168694e-07
"2242" 57953 5.97765886417053e-10 9.2901749721074e-10 2.25223188356016e-09 6.8829299187534e-09 1.0563120272613e-07 1.38808320461099e-07 1.07318984662788e-08 1.53965061395123e-07
"2243" 57954 5.92904421060636e-10 9.11342407182368e-10 2.2288995935943e-09 6.77770664074363e-09 1.05578471035136e-07 1.38696018535554e-07 1.07510864148707e-08 1.53899771621553e-07
"2244" 57955 5.88042955704219e-10 8.93667317153995e-10 2.20556730362844e-09 6.67248336273385e-09 1.05525739344142e-07 1.38583716610009e-07 1.07702743634626e-08 1.53834481847982e-07
"2245" 57956 5.83181490347802e-10 8.75992227125623e-10 2.18223501366258e-09 6.56726008472408e-09 1.05473007653147e-07 1.38471414684464e-07 1.07894623120545e-08 1.53769192074411e-07
"2246" 57957 5.78320024991384e-10 8.58317137097251e-10 2.15890272369672e-09 6.46203680671431e-09 1.05420275962153e-07 1.38359112758919e-07 1.08086502606463e-08 1.53703902300841e-07
"2247" 57958 5.73458559634967e-10 8.40642047068878e-10 2.13557043373086e-09 6.35681352870453e-09 1.05367544271158e-07 1.38246810833374e-07 1.08278382092382e-08 1.5363861252727e-07
"2248" 57959 5.6859709427855e-10 8.22966957040506e-10 2.112238143765e-09 6.25159025069476e-09 1.05314812580164e-07 1.38134508907829e-07 1.08470261578301e-08 1.535733227537e-07
"2249" 57960 5.63735628922133e-10 8.05291867012133e-10 2.08890585379914e-09 6.14636697268498e-09 1.05262080889169e-07 1.38022206982284e-07 1.0866214106422e-08 1.53508032980129e-07
"2250" 57961 5.58874163565716e-10 7.87616776983761e-10 2.06557356383328e-09 6.04114369467521e-09 1.05209349198175e-07 1.37909905056739e-07 1.08854020550139e-08 1.53442743206558e-07
"2251" 57962 5.54012698209298e-10 7.69941686955389e-10 2.04224127386742e-09 5.93592041666543e-09 1.0515661750718e-07 1.37797603131194e-07 1.09045900036057e-08 1.53377453432988e-07
"2252" 57963 5.49151232852881e-10 7.52266596927016e-10 2.01890898390156e-09 5.83069713865566e-09 1.05103885816186e-07 1.37685301205649e-07 1.09237779521976e-08 1.53312163659417e-07
"2253" 57964 5.44289767496464e-10 7.34591506898644e-10 1.9955766939357e-09 5.72547386064589e-09 1.05051154125192e-07 1.37572999280104e-07 1.09429659007895e-08 1.53246873885846e-07
"2254" 57965 5.39428302140047e-10 7.16916416870271e-10 1.97224440396984e-09 5.62025058263611e-09 1.04998422434197e-07 1.37460697354559e-07 1.09621538493814e-08 1.53181584112276e-07
"2255" 57966 5.3456683678363e-10 6.99241326841899e-10 1.94891211400399e-09 5.51502730462634e-09 1.04945690743203e-07 1.37348395429014e-07 1.09813417979733e-08 1.53116294338705e-07
"2256" 57967 5.29705371427212e-10 6.81566236813527e-10 1.92557982403813e-09 5.40980402661656e-09 1.04892959052208e-07 1.37236093503469e-07 1.10005297465651e-08 1.53051004565134e-07
"2257" 57968 5.24843906070795e-10 6.63891146785154e-10 1.90224753407227e-09 5.30458074860679e-09 1.04840227361214e-07 1.37123791577924e-07 1.1019717695157e-08 1.52985714791564e-07
"2258" 57969 5.19982440714378e-10 6.46216056756782e-10 1.87891524410641e-09 5.19935747059701e-09 1.04787495670219e-07 1.37011489652379e-07 1.10389056437489e-08 1.52920425017993e-07
"2259" 57970 5.20355128015932e-10 6.472295877239e-10 1.88635600771708e-09 5.16044109773397e-09 1.04520904494972e-07 1.3694124905362e-07 1.10646602777832e-08 1.52784494181079e-07
"2260" 57971 5.19980603999244e-10 6.4643478768291e-10 1.88322009577325e-09 5.13403251219922e-09 1.04236663219541e-07 1.36851515846203e-07 1.10670430556093e-08 1.52648563344165e-07
"2261" 57972 5.19357621781518e-10 6.51531684318044e-10 1.88322009577325e-09 5.30271238452405e-09 1.04987334662314e-07 1.36861283048223e-07 1.10018040303969e-08 1.5373224728174e-07
"2262" 57973 5.18734639563793e-10 6.56628580953178e-10 1.88322009577325e-09 5.47139225684889e-09 1.05738006105088e-07 1.36871050250244e-07 1.09365650051845e-08 1.54815931219314e-07
"2263" 57974 5.18111657346068e-10 6.61725477588311e-10 1.88322009577325e-09 5.64007212917372e-09 1.06488677547861e-07 1.36880817452265e-07 1.08713259799721e-08 1.55899615156888e-07
"2264" 57975 5.17488675128343e-10 6.66822374223445e-10 1.88322009577325e-09 5.80875200149855e-09 1.07239348990634e-07 1.36890584654285e-07 1.08060869547598e-08 1.56983299094462e-07
"2265" 57976 5.16865692910618e-10 6.71919270858579e-10 1.88322009577325e-09 5.97743187382339e-09 1.07990020433408e-07 1.36900351856306e-07 1.07408479295474e-08 1.58066983032036e-07
"2266" 57977 5.14370090609449e-10 6.77624286073984e-10 1.88795512716186e-09 6.1542067444533e-09 1.09088157858619e-07 1.36881147907255e-07 1.05136532218438e-08 1.59064200801033e-07
"2267" 57978 5.11874488308279e-10 6.83329301289389e-10 1.89269015855048e-09 6.33098161508322e-09 1.1018629528383e-07 1.36861943958204e-07 1.02864585141402e-08 1.60061418570031e-07
"2268" 57979 5.0937888600711e-10 6.89034316504793e-10 1.89742518993909e-09 6.50775648571314e-09 1.11284432709041e-07 1.36842740009153e-07 1.00592638064366e-08 1.61058636339028e-07
"2269" 57980 5.0688328370594e-10 6.94739331720198e-10 1.9021602213277e-09 6.68453135634306e-09 1.12382570134252e-07 1.36823536060102e-07 9.83206909873306e-09 1.62055854108025e-07
"2270" 57981 5.04387681404771e-10 7.00444346935603e-10 1.90689525271631e-09 6.86130622697297e-09 1.13480707559463e-07 1.36804332111052e-07 9.60487439102948e-09 1.63053071877022e-07
"2271" 57982 5.01892079103602e-10 7.06149362151008e-10 1.91163028410493e-09 7.03808109760289e-09 1.14578844984674e-07 1.36785128162001e-07 9.3776796833259e-09 1.64050289646019e-07
"2272" 57983 5.01269096885876e-10 7.12150424290196e-10 1.91732853503023e-09 7.21866675566536e-09 1.15697343149637e-07 1.36884628571439e-07 9.37748580064726e-09 1.65185024008666e-07
"2273" 57984 5.00646114668151e-10 7.18151486429384e-10 1.92302678595554e-09 7.39925241372782e-09 1.16815841314601e-07 1.36984128980876e-07 9.37729191796861e-09 1.66319758371312e-07
"2274" 57985 5.00023132450426e-10 7.24152548568572e-10 1.92872503688084e-09 7.57983807179029e-09 1.17934339479565e-07 1.37083629390314e-07 9.37709803528996e-09 1.67454492733958e-07
"2275" 57986 4.99400150232701e-10 7.3015361070776e-10 1.93442328780615e-09 7.76042372985275e-09 1.19052837644529e-07 1.37183129799752e-07 9.37690415261132e-09 1.68589227096604e-07
"2276" 57987 4.98777168014976e-10 7.36154672846949e-10 1.94012153873145e-09 7.94100938791522e-09 1.20171335809493e-07 1.3728263020919e-07 9.37671026993267e-09 1.69723961459251e-07
"2277" 57988 4.98154185797251e-10 7.42155734986137e-10 1.94581978965676e-09 8.12159504597768e-09 1.21289833974456e-07 1.37382130618628e-07 9.37651638725402e-09 1.70858695821897e-07
"2278" 57989 4.97531203579526e-10 7.48156797125325e-10 1.95151804058207e-09 8.30218070404015e-09 1.2240833213942e-07 1.37481631028065e-07 9.37632250457537e-09 1.71993430184543e-07
"2279" 57990 4.96908221361801e-10 7.54157859264513e-10 1.95721629150737e-09 8.48276636210261e-09 1.23526830304384e-07 1.37581131437503e-07 9.37612862189672e-09 1.7312816454719e-07
"2280" 57991 4.96285239144076e-10 7.60158921403701e-10 1.96291454243268e-09 8.66335202016508e-09 1.24645328469348e-07 1.37680631846941e-07 9.37593473921808e-09 1.74262898909836e-07
"2281" 57992 4.95662256926351e-10 7.66159983542889e-10 1.96861279335798e-09 8.84393767822755e-09 1.25763826634312e-07 1.37780132256379e-07 9.37574085653943e-09 1.75397633272482e-07
"2282" 57993 4.96783992261283e-10 7.66362689736313e-10 1.97698248980763e-09 8.85584346396518e-09 1.25633738473199e-07 1.38220695648923e-07 9.39472156783447e-09 1.75336300843266e-07
"2283" 57994 4.97905727596215e-10 7.66565395929736e-10 1.98535218625728e-09 8.86774924970281e-09 1.25503650312086e-07 1.38661259041467e-07 9.41370227912951e-09 1.75274968414049e-07
"2284" 57995 5.01649131047969e-10 7.70742102328112e-10 1.99458224215047e-09 8.90419718665704e-09 1.25489786895483e-07 1.38815000946013e-07 9.41695822081195e-09 1.75391462083592e-07
"2285" 57996 5.05392534499723e-10 7.74918808726487e-10 2.00381229804365e-09 8.94064512361126e-09 1.25475923478879e-07 1.3896874285056e-07 9.42021416249438e-09 1.75507955753135e-07
"2286" 57997 5.09135937951477e-10 7.79095515124862e-10 2.01304235393683e-09 8.97709306056549e-09 1.25462060062276e-07 1.39122484755106e-07 9.42347010417681e-09 1.75624449422678e-07
"2287" 57998 5.12879341403231e-10 7.83272221523237e-10 2.02227240983002e-09 9.01354099751972e-09 1.25448196645673e-07 1.39276226659653e-07 9.42672604585925e-09 1.75740943092221e-07
"2288" 57999 5.16622744854985e-10 7.87448927921612e-10 2.0315024657232e-09 9.04998893447394e-09 1.2543433322907e-07 1.39429968564199e-07 9.42998198754168e-09 1.75857436761764e-07
"2289" 58000 5.20366148306739e-10 7.91625634319988e-10 2.04073252161638e-09 9.08643687142817e-09 1.25420469812466e-07 1.39583710468746e-07 9.43323792922411e-09 1.75973930431306e-07
"2290" 58001 5.24109551758494e-10 7.95802340718363e-10 2.04996257750957e-09 9.1228848083824e-09 1.25406606395863e-07 1.39737452373293e-07 9.43649387090655e-09 1.76090424100849e-07
"2291" 58002 5.27852955210248e-10 7.99979047116738e-10 2.05919263340275e-09 9.15933274533663e-09 1.2539274297926e-07 1.39891194277839e-07 9.43974981258898e-09 1.76206917770392e-07
"2292" 58003 5.31596358662002e-10 8.04155753515113e-10 2.06842268929594e-09 9.19578068229085e-09 1.25378879562656e-07 1.40044936182386e-07 9.44300575427141e-09 1.76323411439935e-07
"2293" 58004 5.35339762113756e-10 8.08332459913488e-10 2.07765274518912e-09 9.23222861924508e-09 1.25365016146053e-07 1.40198678086932e-07 9.44626169595385e-09 1.76439905109478e-07
"2294" 58005 5.3908316556551e-10 8.12509166311863e-10 2.0868828010823e-09 9.26867655619931e-09 1.2535115272945e-07 1.40352419991479e-07 9.44951763763628e-09 1.7655639877902e-07
"2295" 58006 5.42325979184923e-10 8.07988338791592e-10 2.08774316052584e-09 9.26356237664115e-09 1.24107762943827e-07 1.39782302266534e-07 9.45058468417124e-09 1.76569482878201e-07
"2296" 58007 5.46442069938231e-10 8.11260879685913e-10 2.09512159719078e-09 9.29076390122799e-09 1.23474902839744e-07 1.38886207304964e-07 9.34624764953326e-09 1.75258907497248e-07
"2297" 58008 5.43573780335507e-10 8.17728645476899e-10 2.10250003385572e-09 9.28687712476378e-09 1.2310582160066e-07 1.39677773088838e-07 9.40853698710657e-09 1.7335354841155e-07
"2298" 58009 5.40705490732784e-10 8.24196411267886e-10 2.10987847052067e-09 9.28299034829958e-09 1.22736740361577e-07 1.40469338872712e-07 9.47082632467988e-09 1.71448189325852e-07
"2299" 58010 5.31724261192789e-10 8.2510057677194e-10 2.10802685129243e-09 9.2606107471006e-09 1.2244104303265e-07 1.40585921715988e-07 9.47922223275367e-09 1.69515100421274e-07
"2300" 58011 5.22743031652794e-10 8.26004742275994e-10 2.10617523206419e-09 9.23823114590162e-09 1.22145345703723e-07 1.40702504559265e-07 9.48761814082745e-09 1.67582011516697e-07
"2301" 58012 5.137618021128e-10 8.26908907780049e-10 2.10432361283595e-09 9.21585154470264e-09 1.21849648374797e-07 1.40819087402541e-07 9.49601404890123e-09 1.65648922612119e-07
"2302" 58013 5.04780572572805e-10 8.27813073284103e-10 2.10247199360771e-09 9.19347194350366e-09 1.2155395104587e-07 1.40935670245817e-07 9.50440995697502e-09 1.63715833707541e-07
"2303" 58014 4.9579934303281e-10 8.28717238788157e-10 2.10062037437947e-09 9.17109234230469e-09 1.21258253716943e-07 1.41052253089094e-07 9.5128058650488e-09 1.61782744802963e-07
"2304" 58015 4.86818113492815e-10 8.29621404292212e-10 2.09876875515124e-09 9.14871274110571e-09 1.20962556388017e-07 1.4116883593237e-07 9.52120177312258e-09 1.59849655898385e-07
"2305" 58016 4.77836883952821e-10 8.30525569796266e-10 2.096917135923e-09 9.12633313990673e-09 1.2066685905909e-07 1.41285418775646e-07 9.52959768119637e-09 1.57916566993807e-07
"2306" 58017 4.68855654412826e-10 8.3142973530032e-10 2.09506551669476e-09 9.10395353870775e-09 1.20371161730163e-07 1.41402001618922e-07 9.53799358927015e-09 1.5598347808923e-07
"2307" 58018 4.59874424872831e-10 8.32333900804374e-10 2.09321389746652e-09 9.08157393750877e-09 1.20075464401237e-07 1.41518584462199e-07 9.54638949734393e-09 1.54050389184652e-07
"2308" 58019 4.50893195332837e-10 8.33238066308429e-10 2.09136227823828e-09 9.05919433630979e-09 1.1977976707231e-07 1.41635167305475e-07 9.55478540541772e-09 1.52117300280074e-07
"2309" 58020 4.41911965792842e-10 8.34142231812483e-10 2.08951065901004e-09 9.03681473511081e-09 1.19484069743383e-07 1.41751750148751e-07 9.5631813134915e-09 1.50184211375496e-07
"2310" 58021 4.41911965792842e-10 8.35046397316537e-10 2.08968833894835e-09 9.03246623516294e-09 1.19477570684659e-07 1.41868332992028e-07 9.56003635956898e-09 1.50188415960317e-07
"2311" 58022 4.41911965792842e-10 8.35950562820592e-10 2.08986601888666e-09 9.02811773521507e-09 1.19471071625935e-07 1.41984915835304e-07 9.55689140564646e-09 1.50192620545139e-07
"2312" 58023 4.42534948010567e-10 8.36558681400863e-10 2.08890279934996e-09 9.01769457910816e-09 1.1956699149677e-07 1.42113634818333e-07 9.54596028452727e-09 1.49966862990161e-07
"2313" 58024 4.43157930228292e-10 8.37166799981134e-10 2.08793957981327e-09 9.00727142300125e-09 1.19662911367604e-07 1.42242353801363e-07 9.53502916340808e-09 1.49741105435183e-07
"2314" 58025 4.43780912446017e-10 8.37774918561405e-10 2.08697636027658e-09 8.99684826689434e-09 1.19758831238439e-07 1.42371072784392e-07 9.5240980422889e-09 1.49515347880205e-07
"2315" 58026 4.44403894663742e-10 8.38383037141676e-10 2.08601314073988e-09 8.98642511078743e-09 1.19854751109273e-07 1.42499791767422e-07 9.51316692116971e-09 1.49289590325228e-07
"2316" 58027 4.45026876881468e-10 8.38991155721947e-10 2.08504992120319e-09 8.97600195468052e-09 1.19950670980107e-07 1.42628510750451e-07 9.50223580005053e-09 1.4906383277025e-07
"2317" 58028 4.45649859099193e-10 8.39599274302218e-10 2.08408670166649e-09 8.96557879857361e-09 1.20046590850942e-07 1.42757229733481e-07 9.49130467893134e-09 1.48838075215272e-07
"2318" 58029 4.46272841316918e-10 8.40207392882489e-10 2.0831234821298e-09 8.9551556424667e-09 1.20142510721776e-07 1.4288594871651e-07 9.48037355781216e-09 1.48612317660294e-07
"2319" 58030 4.46895823534643e-10 8.4081551146276e-10 2.08216026259311e-09 8.94473248635979e-09 1.20238430592611e-07 1.43014667699539e-07 9.46944243669297e-09 1.48386560105317e-07
"2320" 58031 4.47146118450814e-10 8.41423630043031e-10 2.0810193631181e-09 8.93820973643798e-09 1.20408277195746e-07 1.43011426083426e-07 9.46301344824684e-09 1.48205144692987e-07
