"time" "channel1" "channel2" "channel3" "channel4" "channel5" "channel6" "channel7" "channel8"
"1" 10143 1.36519824536002e-07 6.38962513820214e-09 1.31067696594348e-09 2.21008186447713e-09 4.16039758155924e-09 1.40098275573991e-08 1.67400620545423e-08 8.0028059030281e-08
"2" 10144 1.36389435670076e-07 6.35433297001655e-09 1.31280852572409e-09 2.21257531759792e-09 4.15705839243194e-09 1.40078132111433e-08 1.65991939343068e-08 7.9966432779529e-08
"3" 10145 1.3625904680415e-07 6.31904080183096e-09 1.31494008550469e-09 2.21506877071871e-09 4.15371920330464e-09 1.40057988648875e-08 1.64583258140714e-08 7.9904806528777e-08
"4" 10146 1.36609241640877e-07 6.35409999788328e-09 1.31565407835256e-09 2.21457017383413e-09 4.14884030262767e-09 1.4023695975746e-08 1.63338749692972e-08 7.98611258405255e-08
"5" 10147 1.36959436477604e-07 6.38915919393559e-09 1.31636807120043e-09 2.21407157694954e-09 4.14396140195071e-09 1.40415930866044e-08 1.6209424124523e-08 7.98174451522739e-08
"6" 10148 1.3730963131433e-07 6.4242183899879e-09 1.31708206404829e-09 2.21357298006496e-09 4.13908250127374e-09 1.40594901974629e-08 1.60849732797488e-08 7.97737644640223e-08
"7" 10149 1.37659826151057e-07 6.45927758604022e-09 1.31779605689616e-09 2.21307438318037e-09 4.13420360059678e-09 1.40773873083214e-08 1.59605224349746e-08 7.97300837757707e-08
"8" 10150 1.38010020987784e-07 6.49433678209253e-09 1.31851004974402e-09 2.21257578629579e-09 4.12932469991981e-09 1.40952844191798e-08 1.58360715902004e-08 7.96864030875192e-08
"9" 10151 1.3836021582451e-07 6.52939597814485e-09 1.31922404259189e-09 2.2120771894112e-09 4.12444579924284e-09 1.41131815300383e-08 1.57116207454262e-08 7.96427223992676e-08
"10" 10152 1.38710410661237e-07 6.56445517419716e-09 1.31993803543976e-09 2.21157859252662e-09 4.11956689856588e-09 1.41310786408968e-08 1.5587169900652e-08 7.9599041711016e-08
"11" 10153 1.39060605497964e-07 6.59951437024947e-09 1.32065202828762e-09 2.21107999564203e-09 4.11468799788891e-09 1.41489757517552e-08 1.54627190558778e-08 7.95553610227645e-08
"12" 10154 1.3941080033469e-07 6.63457356630179e-09 1.32136602113549e-09 2.21058139875745e-09 4.10980909721195e-09 1.41668728626137e-08 1.53382682111036e-08 7.95116803345129e-08
"13" 10155 1.39900392097872e-07 6.69957418781469e-09 1.32229525371401e-09 2.20758825512372e-09 4.10245815704797e-09 1.41232657989853e-08 1.53546854865648e-08 7.94510961553508e-08
"14" 10156 1.40064105137994e-07 6.77007733204503e-09 1.31716075646717e-09 2.19362191798094e-09 4.1009184454983e-09 1.41371632180127e-08 1.53657233408504e-08 7.91481466103832e-08
"15" 10157 1.40475669515745e-07 6.80552128022306e-09 1.31750212474662e-09 2.18464248707975e-09 4.11750765496026e-09 1.4203056630845e-08 1.54145892921865e-08 7.91851721209245e-08
"16" 10158 1.40189589617796e-07 6.8612785646423e-09 1.32389680408844e-09 2.18114902800259e-09 4.1190256404109e-09 1.41967980496461e-08 1.54114067555565e-08 7.88869591389506e-08
"17" 10159 1.39903509719848e-07 6.91703584906155e-09 1.33029148343026e-09 2.17765556892543e-09 4.12054362586154e-09 1.41905394684473e-08 1.54082242189265e-08 7.85887461569766e-08
"18" 10160 1.39617429821899e-07 6.97279313348079e-09 1.33668616277208e-09 2.17416210984827e-09 4.12206161131219e-09 1.41842808872485e-08 1.54050416822966e-08 7.82905331750026e-08
"19" 10161 1.3933134992395e-07 7.02855041790003e-09 1.3430808421139e-09 2.17066865077112e-09 4.12357959676283e-09 1.41780223060496e-08 1.54018591456666e-08 7.79923201930286e-08
"20" 10162 1.38905108946262e-07 7.07602409245908e-09 1.35525573789453e-09 2.17615321650155e-09 4.1128460152735e-09 1.4088089203882e-08 1.53026369985988e-08 7.78486219969588e-08
"21" 10163 1.38478867968574e-07 7.12349776701813e-09 1.36743063367517e-09 2.18163778223198e-09 4.10211243378418e-09 1.39981561017144e-08 1.5203414851531e-08 7.7704923800889e-08
"22" 10164 1.38052626990886e-07 7.17097144157718e-09 1.3796055294558e-09 2.18712234796241e-09 4.09137885229485e-09 1.39082229995467e-08 1.51041927044632e-08 7.75612256048192e-08
"23" 10165 1.37626386013197e-07 7.21844511613624e-09 1.39178042523644e-09 2.19260691369285e-09 4.08064527080553e-09 1.38182898973791e-08 1.50049705573953e-08 7.74175274087495e-08
"24" 10166 1.37200145035509e-07 7.26591879069529e-09 1.40395532101707e-09 2.19809147942328e-09 4.0699116893162e-09 1.37283567952114e-08 1.49057484103275e-08 7.72738292126797e-08
"25" 10167 1.36773904057821e-07 7.31339246525434e-09 1.41613021679771e-09 2.20357604515371e-09 4.05917810782688e-09 1.36384236930438e-08 1.48065262632597e-08 7.71301310166099e-08
"26" 10168 1.36347663080133e-07 7.36086613981339e-09 1.42830511257834e-09 2.20906061088415e-09 4.04844452633756e-09 1.35484905908762e-08 1.47073041161919e-08 7.69864328205401e-08
"27" 10169 1.35921422102445e-07 7.40833981437244e-09 1.44048000835898e-09 2.21454517661458e-09 4.03771094484823e-09 1.34585574887085e-08 1.46080819691241e-08 7.68427346244703e-08
"28" 10170 1.35495181124757e-07 7.45581348893149e-09 1.45265490413961e-09 2.22002974234501e-09 4.02697736335891e-09 1.33686243865409e-08 1.45088598220562e-08 7.66990364284005e-08
"29" 10171 1.35068940147069e-07 7.50328716349054e-09 1.46482979992025e-09 2.22551430807544e-09 4.01624378186958e-09 1.32786912843733e-08 1.44096376749884e-08 7.65553382323307e-08
"30" 10172 1.34642699169381e-07 7.55076083804959e-09 1.47700469570088e-09 2.23099887380588e-09 4.00551020038026e-09 1.31887581822056e-08 1.43104155279206e-08 7.64116400362609e-08
"31" 10173 1.34216458191692e-07 7.59823451260864e-09 1.48917959148152e-09 2.23648343953631e-09 3.99477661889093e-09 1.3098825080038e-08 1.42111933808528e-08 7.62679418401911e-08
"32" 10174 1.33790217214004e-07 7.64570818716769e-09 1.50135448726216e-09 2.24196800526674e-09 3.98404303740161e-09 1.30088919778703e-08 1.4111971233785e-08 7.61242436441213e-08
"33" 10175 1.33363976236316e-07 7.69318186172674e-09 1.51352938304279e-09 2.24745257099718e-09 3.97330945591228e-09 1.29189588757027e-08 1.40127490867171e-08 7.59805454480515e-08
"34" 10176 1.32937735258628e-07 7.74065553628579e-09 1.52570427882343e-09 2.25293713672761e-09 3.96257587442296e-09 1.28290257735351e-08 1.39135269396493e-08 7.58368472519817e-08
"35" 10177 1.3251149428094e-07 7.78812921084484e-09 1.53787917460406e-09 2.25842170245804e-09 3.95184229293363e-09 1.27390926713674e-08 1.38143047925815e-08 7.56931490559119e-08
"36" 10178 1.32085253303252e-07 7.83560288540389e-09 1.5500540703847e-09 2.26390626818847e-09 3.94110871144431e-09 1.26491595691998e-08 1.37150826455137e-08 7.55494508598422e-08
"37" 10179 1.31659012325564e-07 7.88307655996294e-09 1.56222896616533e-09 2.26939083391891e-09 3.93037512995499e-09 1.25592264670321e-08 1.36158604984458e-08 7.54057526637724e-08
"38" 10180 1.31232771347876e-07 7.93055023452199e-09 1.57440386194597e-09 2.27487539964934e-09 3.91964154846566e-09 1.24692933648645e-08 1.3516638351378e-08 7.52620544677026e-08
"39" 10181 1.30806530370187e-07 7.97802390908104e-09 1.5865787577266e-09 2.28035996537977e-09 3.90890796697634e-09 1.23793602626969e-08 1.34174162043102e-08 7.51183562716328e-08
"40" 10182 1.30380289392499e-07 8.02549758364009e-09 1.59875365350724e-09 2.28584453111021e-09 3.89817438548701e-09 1.22894271605292e-08 1.33181940572424e-08 7.4974658075563e-08
"41" 10183 1.29954048414811e-07 8.07297125819914e-09 1.61092854928787e-09 2.29132909684064e-09 3.88744080399769e-09 1.21994940583616e-08 1.32189719101746e-08 7.48309598794932e-08
"42" 10184 1.29527807437123e-07 8.12044493275820e-09 1.62310344506851e-09 2.29681366257107e-09 3.87670722250836e-09 1.21095609561939e-08 1.31197497631067e-08 7.46872616834234e-08
"43" 10185 1.29101566459435e-07 8.16791860731725e-09 1.63527834084914e-09 2.3022982283015e-09 3.86597364101904e-09 1.20196278540263e-08 1.30205276160389e-08 7.45435634873536e-08
"44" 10186 1.28675325481747e-07 8.2153922818763e-09 1.64745323662978e-09 2.30778279403194e-09 3.85524005952971e-09 1.19296947518587e-08 1.29213054689711e-08 7.43998652912838e-08
"45" 10187 1.28249084504059e-07 8.26286595643535e-09 1.65962813241041e-09 2.31326735976237e-09 3.84450647804039e-09 1.1839761649691e-08 1.28220833219033e-08 7.4256167095214e-08
"46" 10188 1.27822843526371e-07 8.3103396309944e-09 1.67180302819105e-09 2.3187519254928e-09 3.83377289655106e-09 1.17498285475234e-08 1.27228611748355e-08 7.41124688991442e-08
"47" 10189 1.27396602548682e-07 8.35781330555345e-09 1.68397792397169e-09 2.32423649122324e-09 3.82303931506174e-09 1.16598954453557e-08 1.26236390277676e-08 7.39687707030744e-08
"48" 10190 1.26970361570994e-07 8.4052869801125e-09 1.69615281975232e-09 2.32972105695367e-09 3.81230573357241e-09 1.15699623431881e-08 1.25244168806998e-08 7.38250725070046e-08
"49" 10191 1.26544120593306e-07 8.45276065467155e-09 1.70832771553296e-09 2.3352056226841e-09 3.80157215208309e-09 1.14800292410205e-08 1.2425194733632e-08 7.36813743109349e-08
"50" 10192 1.26117879615618e-07 8.5002343292306e-09 1.72050261131359e-09 2.34069018841454e-09 3.79083857059377e-09 1.13900961388528e-08 1.23259725865642e-08 7.3537676114865e-08
"51" 10193 1.2569163863793e-07 8.54770800378965e-09 1.73267750709423e-09 2.34617475414497e-09 3.78010498910444e-09 1.13001630366852e-08 1.22267504394963e-08 7.33939779187953e-08
"52" 10194 1.25265397660242e-07 8.5951816783487e-09 1.74485240287486e-09 2.3516593198754e-09 3.76937140761512e-09 1.12102299345175e-08 1.21275282924285e-08 7.32502797227255e-08
"53" 10195 1.25105918680413e-07 8.58618788381081e-09 1.7644611592837e-09 2.35714591662992e-09 3.76045902980245e-09 1.11213040054778e-08 1.20283061453607e-08 7.32772155742943e-08
"54" 10196 1.24672461034736e-07 8.58618788381081e-09 1.76524342578745e-09 2.35265620117933e-09 3.74972544831313e-09 1.10336007919974e-08 1.19265368011501e-08 7.32293289085631e-08
"55" 10197 1.24239003389058e-07 8.58618788381081e-09 1.76602569229121e-09 2.34816648572873e-09 3.7389918668238e-09 1.09458975785169e-08 1.18247674569394e-08 7.31814422428319e-08
"56" 10198 1.2380554574338e-07 8.58618788381081e-09 1.76680795879496e-09 2.34367677027813e-09 3.72825828533448e-09 1.08581943650364e-08 1.17229981127288e-08 7.31335555771006e-08
"57" 10199 1.23372088097702e-07 8.58618788381081e-09 1.76759022529872e-09 2.33918705482754e-09 3.71752470384515e-09 1.0770491151556e-08 1.16212287685181e-08 7.30856689113694e-08
"58" 10200 1.22938630452024e-07 8.58618788381081e-09 1.76837249180247e-09 2.33469733937694e-09 3.70679112235583e-09 1.06827879380755e-08 1.15194594243075e-08 7.30377822456382e-08
"59" 10201 1.22924461744813e-07 8.58204607888071e-09 1.77201072969769e-09 2.3416809766462e-09 3.70516450641008e-09 1.06635327751488e-08 1.14606184106273e-08 7.29898828469483e-08
"60" 10202 1.22292449260655e-07 8.4605130345582e-09 1.77173763507413e-09 2.34417630455845e-09 3.61141969931392e-09 1.05437160242972e-08 1.09490935694939e-08 7.29659299643636e-08
"61" 10203 1.22227214797964e-07 8.41110399909837e-09 1.7112045244504e-09 2.29181050813678e-09 3.60224660831301e-09 1.05424449742704e-08 1.09598108344387e-08 7.25679918248657e-08
"62" 10204 1.22161980335274e-07 8.36169496363855e-09 1.65067141382667e-09 2.23944471171512e-09 3.59307351731209e-09 1.05411739242437e-08 1.09705280993836e-08 7.21700536853677e-08
"63" 10205 1.22096745872584e-07 8.31228592817872e-09 1.59013830320294e-09 2.18707891529345e-09 3.58390042631118e-09 1.05399028742169e-08 1.09812453643284e-08 7.17721155458697e-08
"64" 10206 1.22002929188717e-07 8.30624123920419e-09 1.58201128725286e-09 2.19156800581356e-09 3.57798056720176e-09 1.04848534895733e-08 1.09924079508337e-08 7.17571434026345e-08
"65" 10207 1.21988760481506e-07 8.30019655022965e-09 1.58564952514808e-09 2.19755351191791e-09 3.57943337435534e-09 1.04699198967376e-08 1.09995270808445e-08 7.17571434026345e-08
"66" 10208 1.21808660279761e-07 8.28824271384485e-09 1.58736102423036e-09 2.20353901802226e-09 3.57327452815669e-09 1.03710604437021e-08 1.10102443457894e-08 7.17459134993982e-08
"67" 10209 1.21628560078016e-07 8.27628887746005e-09 1.58907252331264e-09 2.20952452412661e-09 3.56711568195804e-09 1.02722009906667e-08 1.10209616107342e-08 7.17346835961618e-08
"68" 10210 1.21448459876271e-07 8.26433504107525e-09 1.59078402239492e-09 2.21551003023096e-09 3.56095683575939e-09 1.01733415376312e-08 1.10316788756791e-08 7.17234536929255e-08
"69" 10211 1.21268359674526e-07 8.25238120469045e-09 1.5924955214772e-09 2.22149553633531e-09 3.55479798956074e-09 1.00744820845958e-08 1.10423961406239e-08 7.17122237896891e-08
"70" 10212 1.2108825947278e-07 8.24042736830565e-09 1.59420702055948e-09 2.22748104243966e-09 3.54863914336209e-09 9.97562263156032e-09 1.10531134055688e-08 7.17009938864528e-08
"71" 10213 1.20908159271035e-07 8.22847353192085e-09 1.59591851964176e-09 2.23346654854401e-09 3.54248029716344e-09 9.87676317852487e-09 1.10638306705136e-08 7.16897639832164e-08
"72" 10214 1.2072805906929e-07 8.21651969553605e-09 1.59763001872404e-09 2.23945205464836e-09 3.53632145096479e-09 9.77790372548942e-09 1.10745479354585e-08 7.16785340799801e-08
"73" 10215 1.20547958867545e-07 8.20456585915125e-09 1.59934151780632e-09 2.24543756075271e-09 3.53016260476614e-09 9.67904427245397e-09 1.10852652004033e-08 7.16673041767437e-08
"74" 10216 1.203678586658e-07 8.19261202276645e-09 1.6010530168886e-09 2.25142306685706e-09 3.52400375856749e-09 9.58018481941852e-09 1.10959824653482e-08 7.16560742735074e-08
"75" 10217 1.20187758464055e-07 8.18065818638164e-09 1.60276451597088e-09 2.25740857296141e-09 3.51784491236884e-09 9.48132536638307e-09 1.1106699730293e-08 7.1644844370271e-08
"76" 10218 1.2000765826231e-07 8.16870434999684e-09 1.60447601505316e-09 2.26339407906576e-09 3.51168606617019e-09 9.38246591334763e-09 1.11174169952379e-08 7.16336144670347e-08
"77" 10219 1.20023496344382e-07 8.15995446387578e-09 1.60804597929249e-09 2.2708763132196e-09 3.50576620706076e-09 9.37126813544421e-09 1.11277305160289e-08 7.14248433137479e-08
"78" 10220 1.20039334426455e-07 8.15120457775471e-09 1.61161594353181e-09 2.27835854737344e-09 3.49984634795134e-09 9.3600703575408e-09 1.11380440368198e-08 7.12160721604612e-08
"79" 10221 1.20055172508528e-07 8.14245469163365e-09 1.61518590777114e-09 2.28584078152727e-09 3.49392648884192e-09 9.34887257963738e-09 1.11483575576108e-08 7.10073010071744e-08
"80" 10222 1.200710105906e-07 8.13370480551258e-09 1.61875587201047e-09 2.29332301568111e-09 3.4880066297325e-09 9.33767480173397e-09 1.11586710784018e-08 7.07985298538876e-08
"81" 10223 1.20086848672673e-07 8.12495491939152e-09 1.6223258362498e-09 2.30080524983495e-09 3.48208677062308e-09 9.32647702383055e-09 1.11689845991928e-08 7.05897587006009e-08
"82" 10224 1.20102686754746e-07 8.11620503327045e-09 1.62589580048913e-09 2.30828748398879e-09 3.47616691151366e-09 9.31527924592714e-09 1.11792981199838e-08 7.03809875473141e-08
"83" 10225 1.20118524836819e-07 8.10745514714939e-09 1.62946576472846e-09 2.31576971814263e-09 3.47024705240424e-09 9.30408146802372e-09 1.11896116407748e-08 7.01722163940274e-08
"84" 10226 1.20134362918891e-07 8.09870526102832e-09 1.63303572896779e-09 2.32325195229646e-09 3.46432719329481e-09 9.2928836901203e-09 1.11999251615658e-08 6.99634452407406e-08
"85" 10227 1.20150201000964e-07 8.08995537490726e-09 1.63660569320712e-09 2.3307341864503e-09 3.45840733418539e-09 9.28168591221689e-09 1.12102386823568e-08 6.97546740874538e-08
"86" 10228 1.20166039083037e-07 8.08120548878619e-09 1.64017565744645e-09 2.33821642060414e-09 3.45248747507597e-09 9.27048813431348e-09 1.12205522031478e-08 6.95459029341671e-08
"87" 10229 1.20181877165109e-07 8.07245560266513e-09 1.64374562168578e-09 2.34569865475798e-09 3.44656761596655e-09 9.25929035641006e-09 1.12308657239388e-08 6.93371317808803e-08
"88" 10230 1.20197715247182e-07 8.06370571654406e-09 1.64731558592511e-09 2.35318088891181e-09 3.44064775685713e-09 9.24809257850665e-09 1.12411792447298e-08 6.91283606275936e-08
"89" 10231 1.20213553329255e-07 8.05495583042300e-09 1.65088555016444e-09 2.36066312306565e-09 3.43472789774771e-09 9.23689480060323e-09 1.12514927655208e-08 6.89195894743068e-08
"90" 10232 1.20229391411327e-07 8.04620594430193e-09 1.65445551440377e-09 2.36814535721949e-09 3.42880803863829e-09 9.22569702269982e-09 1.12618062863118e-08 6.871081832102e-08
"91" 10233 1.202452294934e-07 8.03745605818086e-09 1.65802547864309e-09 2.37562759137333e-09 3.42288817952887e-09 9.2144992447964e-09 1.12721198071028e-08 6.85020471677333e-08
"92" 10234 1.20261067575473e-07 8.0287061720598e-09 1.66159544288242e-09 2.38310982552717e-09 3.41696832041944e-09 9.20330146689299e-09 1.12824333278938e-08 6.82932760144465e-08
"93" 10235 1.20276905657546e-07 8.01995628593873e-09 1.66516540712175e-09 2.390592059681e-09 3.41104846131002e-09 9.19210368898957e-09 1.12927468486848e-08 6.80845048611598e-08
"94" 10236 1.20292743739618e-07 8.01120639981767e-09 1.66873537136108e-09 2.39807429383484e-09 3.4051286022006e-09 9.18090591108616e-09 1.13030603694758e-08 6.7875733707873e-08
"95" 10237 1.20308581821691e-07 8.0024565136966e-09 1.67230533560041e-09 2.40555652798868e-09 3.39920874309118e-09 9.16970813318274e-09 1.13133738902668e-08 6.76669625545863e-08
"96" 10238 1.20324419903764e-07 7.99370662757554e-09 1.67587529983974e-09 2.41303876214252e-09 3.39328888398176e-09 9.15851035527933e-09 1.13236874110578e-08 6.74581914012995e-08
"97" 10239 1.20340257985836e-07 7.98495674145447e-09 1.67944526407907e-09 2.42052099629635e-09 3.38736902487234e-09 9.14731257737591e-09 1.13340009318488e-08 6.72494202480127e-08
"98" 10240 1.20356096067909e-07 7.97620685533341e-09 1.6830152283184e-09 2.42800323045019e-09 3.38144916576292e-09 9.1361147994725e-09 1.13443144526398e-08 6.7040649094726e-08
"99" 10241 1.20371934149982e-07 7.96745696921234e-09 1.68658519255773e-09 2.43548546460403e-09 3.37552930665349e-09 9.12491702156908e-09 1.13546279734308e-08 6.68318779414392e-08
"100" 10242 1.20387772232055e-07 7.95870708309128e-09 1.69015515679706e-09 2.44296769875787e-09 3.36960944754407e-09 9.11371924366567e-09 1.13649414942218e-08 6.66231067881525e-08
"101" 10243 1.20403610314127e-07 7.94995719697021e-09 1.69372512103639e-09 2.45044993291171e-09 3.36368958843465e-09 9.10252146576225e-09 1.13752550150128e-08 6.64143356348657e-08
"102" 10244 1.204194483962e-07 7.94120731084915e-09 1.69729508527572e-09 2.45793216706554e-09 3.35776972932523e-09 9.09132368785884e-09 1.13855685358038e-08 6.6205564481579e-08
"103" 10245 1.20628731767903e-07 8.00517231513236e-09 1.7011381441386e-09 2.46291907330712e-09 3.35347648616156e-09 9.09929407084065e-09 1.13855685358038e-08 6.59997762972764e-08
"104" 10246 1.20629759778557e-07 7.99663386057179e-09 1.70691836057742e-09 2.46341813888958e-09 3.34903116030473e-09 9.09936173909513e-09 1.13911082516499e-08 6.58201615102884e-08
"105" 10247 1.20685640721097e-07 7.98809540601122e-09 1.71048832481675e-09 2.46641128252331e-09 3.34458583444791e-09 9.08940601053799e-09 1.14066764613968e-08 6.56305748441958e-08
"106" 10248 1.20741521663636e-07 7.97955695145065e-09 1.71405828905608e-09 2.46940442615704e-09 3.34014050859109e-09 9.07945028198084e-09 1.14222446711438e-08 6.54409881781033e-08
"107" 10249 1.20797402606176e-07 7.97101849689008e-09 1.71762825329541e-09 2.47239756979077e-09 3.33569518273427e-09 9.06949455342370e-09 1.14378128808908e-08 6.52514015120108e-08
"108" 10250 1.20799601238574e-07 8.00490653414843e-09 1.71969153942012e-09 2.47389429784025e-09 3.33569518273427e-09 9.147242038347e-09 1.15595323497897e-08 6.54016689383196e-08
"109" 10251 1.20318335756288e-07 8.01778728891604e-09 1.72203833893139e-09 2.47040411964816e-09 3.33272439013005e-09 9.18113791653008e-09 1.16728680246595e-08 6.57607138843944e-08
"110" 10252 1.20300472157327e-07 8.05438052332092e-09 1.71832140861729e-09 2.4539443293846e-09 3.3395548510778e-09 9.16099445397187e-09 1.17483221709219e-08 6.59251973661634e-08
"111" 10253 1.20047797264426e-07 8.09287664177025e-09 1.71960242823825e-09 2.4549424605495e-09 3.34638531202555e-09 9.25068301302765e-09 1.18501330925391e-08 6.6269289268441e-08
"112" 10254 1.19795122371526e-07 8.13137276021957e-09 1.72088344785921e-09 2.4559405917144e-09 3.35321577297331e-09 9.34037157208344e-09 1.19519440141564e-08 6.66133811707187e-08
"113" 10255 1.19542447478626e-07 8.1698688786689e-09 1.72216446748018e-09 2.45693872287931e-09 3.36004623392106e-09 9.43006013113922e-09 1.20537549357736e-08 6.69574730729964e-08
"114" 10256 1.1906118199634e-07 8.19685026228258e-09 1.72422775360489e-09 2.43100559180863e-09 3.36433947708473e-09 9.5160225421562e-09 1.21476095158159e-08 6.72075707037384e-08
"115" 10257 1.18579916514053e-07 8.22383164589625e-09 1.72629103972961e-09 2.40507246073796e-09 3.36863272024841e-09 9.60198495317318e-09 1.22414640958582e-08 6.74576683344805e-08
"116" 10258 1.18098651031766e-07 8.25081302950993e-09 1.72835432585433e-09 2.37913932966728e-09 3.37292596341208e-09 9.68794736419015e-09 1.23353186759005e-08 6.77077659652225e-08
"117" 10259 1.17617385549479e-07 8.27779441312361e-09 1.73041761197904e-09 2.35320619859661e-09 3.37721920657576e-09 9.77390977520713e-09 1.24291732559428e-08 6.79578635959646e-08
"118" 10260 1.17136120067193e-07 8.30477579673729e-09 1.73248089810376e-09 2.32727306752593e-09 3.38151244973943e-09 9.85987218622411e-09 1.25230278359852e-08 6.82079612267066e-08
"119" 10261 1.16654854584906e-07 8.33175718035097e-09 1.73454418422848e-09 2.30133993645526e-09 3.38580569290311e-09 9.94583459724109e-09 1.26168824160275e-08 6.84580588574487e-08
"120" 10262 1.16173589102619e-07 8.35873856396465e-09 1.7366074703532e-09 2.27540680538458e-09 3.39009893606679e-09 1.00317970082581e-08 1.27107369960698e-08 6.87081564881907e-08
"121" 10263 1.15692323620333e-07 8.38571994757832e-09 1.73867075647791e-09 2.24947367431391e-09 3.39439217923046e-09 1.0117759419275e-08 1.28045915761121e-08 6.89582541189328e-08
"122" 10264 1.15211058138046e-07 8.412701331192e-09 1.74073404260263e-09 2.22354054324323e-09 3.39868542239414e-09 1.0203721830292e-08 1.28984461561544e-08 6.92083517496748e-08
"123" 10265 1.14729792655759e-07 8.43968271480568e-09 1.74279732872735e-09 2.19760741217256e-09 3.40297866555781e-09 1.0289684241309e-08 1.29923007361967e-08 6.94584493804169e-08
"124" 10266 1.14248527173473e-07 8.46666409841936e-09 1.74486061485207e-09 2.17167428110188e-09 3.40727190872149e-09 1.0375646652326e-08 1.30861553162391e-08 6.97085470111589e-08
"125" 10267 1.1416041107623e-07 8.49364548203304e-09 1.74614163447303e-09 2.17267241226678e-09 3.41462284888547e-09 1.04234979508974e-08 1.3197561264347e-08 7.00196861920645e-08
"126" 10268 1.14072294978987e-07 8.52062686564672e-09 1.74742265409399e-09 2.17367054343169e-09 3.42197378904945e-09 1.04713492494687e-08 1.33089672124549e-08 7.033082537297e-08
"127" 10269 1.13984178881745e-07 8.54760824926039e-09 1.74870367371495e-09 2.17466867459659e-09 3.42932472921343e-09 1.05192005480401e-08 1.34203731605628e-08 7.06419645538756e-08
"128" 10270 1.13896062784502e-07 8.57458963287407e-09 1.74998469333591e-09 2.17566680576149e-09 3.43667566937741e-09 1.05670518466115e-08 1.35317791086707e-08 7.09531037347812e-08
"129" 10271 1.13807946687259e-07 8.60157101648775e-09 1.75126571295688e-09 2.1766649369264e-09 3.44402660954139e-09 1.06149031451829e-08 1.36431850567787e-08 7.12642429156867e-08
"130" 10272 1.13719830590016e-07 8.62855240010143e-09 1.75254673257784e-09 2.1776630680913e-09 3.45137754970537e-09 1.06627544437543e-08 1.37545910048866e-08 7.15753820965923e-08
"131" 10273 1.13631714492774e-07 8.6555337837151e-09 1.7538277521988e-09 2.1786611992562e-09 3.45872848986935e-09 1.07106057423256e-08 1.38659969529945e-08 7.18865212774979e-08
"132" 10274 1.13543598395531e-07 8.68251516732878e-09 1.75510877181976e-09 2.1796593304211e-09 3.46607943003333e-09 1.0758457040897e-08 1.39774029011024e-08 7.21976604584034e-08
"133" 10275 1.13455482298288e-07 8.70949655094246e-09 1.75638979144072e-09 2.18065746158601e-09 3.47343037019731e-09 1.08063083394684e-08 1.40888088492103e-08 7.2508799639309e-08
"134" 10276 1.13367366201046e-07 8.73647793455614e-09 1.75767081106169e-09 2.18165559275091e-09 3.48078131036129e-09 1.08541596380398e-08 1.42002147973183e-08 7.28199388202145e-08
"135" 10277 1.13279250103803e-07 8.76345931816982e-09 1.75895183068265e-09 2.18265372391581e-09 3.48813225052527e-09 1.09020109366112e-08 1.43116207454262e-08 7.31310780011201e-08
"136" 10278 1.1319113400656e-07 8.79044070178350e-09 1.76023285030361e-09 2.18365185508071e-09 3.49548319068924e-09 1.09498622351825e-08 1.44230266935341e-08 7.34422171820257e-08
"137" 10279 1.13103017909318e-07 8.81742208539717e-09 1.76151386992457e-09 2.18464998624562e-09 3.50283413085322e-09 1.09977135337539e-08 1.4534432641642e-08 7.37533563629312e-08
"138" 10280 1.13014901812075e-07 8.84440346901085e-09 1.76279488954553e-09 2.18564811741052e-09 3.5101850710172e-09 1.10455648323253e-08 1.46458385897499e-08 7.40644955438368e-08
"139" 10281 1.12926785714832e-07 8.87138485262453e-09 1.7640759091665e-09 2.18664624857542e-09 3.51753601118118e-09 1.10934161308967e-08 1.47572445378579e-08 7.43756347247423e-08
"140" 10282 1.12838669617589e-07 8.89836623623821e-09 1.76535692878746e-09 2.18764437974032e-09 3.52488695134516e-09 1.1141267429468e-08 1.48686504859658e-08 7.46867739056479e-08
"141" 10283 1.12750553520347e-07 8.92534761985189e-09 1.76663794840842e-09 2.18864251090523e-09 3.53223789150914e-09 1.11891187280394e-08 1.49800564340737e-08 7.49979130865535e-08
"142" 10284 1.12662437423104e-07 8.95232900346556e-09 1.76791896802938e-09 2.18964064207013e-09 3.53958883167312e-09 1.12369700266108e-08 1.50914623821816e-08 7.5309052267459e-08
"143" 10285 1.12574321325861e-07 8.97931038707924e-09 1.76919998765034e-09 2.19063877323503e-09 3.5469397718371e-09 1.12848213251822e-08 1.52028683302896e-08 7.56201914483646e-08
"144" 10286 1.12486205228619e-07 9.00629177069292e-09 1.77048100727131e-09 2.19163690439993e-09 3.55429071200108e-09 1.13326726237536e-08 1.53142742783975e-08 7.59313306292701e-08
"145" 10287 1.12398089131376e-07 9.0332731543066e-09 1.77176202689227e-09 2.19263503556484e-09 3.56164165216506e-09 1.13805239223249e-08 1.54256802265054e-08 7.62424698101757e-08
"146" 10288 1.12309973034133e-07 9.06025453792028e-09 1.77304304651323e-09 2.19363316672974e-09 3.56899259232904e-09 1.14283752208963e-08 1.55370861746133e-08 7.65536089910813e-08
"147" 10289 1.12221856936891e-07 9.08723592153395e-09 1.77432406613419e-09 2.19463129789464e-09 3.57634353249302e-09 1.14762265194677e-08 1.56484921227212e-08 7.68647481719868e-08
"148" 10290 1.12133740839648e-07 9.11421730514763e-09 1.77560508575516e-09 2.19562942905955e-09 3.583694472657e-09 1.15240778180391e-08 1.57598980708292e-08 7.71758873528924e-08
"149" 10291 1.1209251744643e-07 9.10460545435643e-09 1.77866587811429e-09 2.20261134776995e-09 3.66037304327303e-09 1.172179672411e-08 1.57483851717268e-08 7.71691525941903e-08
"150" 10292 1.12002202716789e-07 9.08916034615118e-09 1.77788361161053e-09 2.20211275088537e-09 3.66082834419219e-09 1.16819738098814e-08 1.57388138535365e-08 7.7145206078085e-08
"151" 10293 1.11911887987148e-07 9.07371523794593e-09 1.77710134510678e-09 2.20161415400079e-09 3.66128364511136e-09 1.16421508956528e-08 1.57292425353462e-08 7.71212595619797e-08
"152" 10294 1.11821573257507e-07 9.05827012974068e-09 1.77631907860302e-09 2.2011155571162e-09 3.66173894603052e-09 1.16023279814242e-08 1.57196712171559e-08 7.70973130458744e-08
"153" 10295 1.11851621233616e-07 9.06315459620481e-09 1.78165839681753e-09 2.21857082259009e-09 3.66327865758018e-09 1.15624760665152e-08 1.57394431780677e-08 7.70843422815873e-08
"154" 10296 1.11881669209725e-07 9.06803906266894e-09 1.78699771503204e-09 2.23602608806398e-09 3.66481836912985e-09 1.15226241516061e-08 1.57592151389795e-08 7.70713715173003e-08
"155" 10297 1.11911717185834e-07 9.07292352913307e-09 1.79233703324654e-09 2.25348135353787e-09 3.66635808067951e-09 1.1482772236697e-08 1.57789870998913e-08 7.70584007530132e-08
"156" 10298 1.11964677300915e-07 9.05818860560552e-09 1.7973349831816e-09 2.25597590028701e-09 3.66789779222917e-09 1.14469006798321e-08 1.57758461406679e-08 7.70157430369135e-08
"157" 10299 1.12017637415995e-07 9.04345368207797e-09 1.80233293311666e-09 2.25847044703616e-09 3.66943750377883e-09 1.14110291229672e-08 1.57727051814445e-08 7.69730853208137e-08
"158" 10300 1.12070597531076e-07 9.02871875855042e-09 1.80733088305173e-09 2.2609649937853e-09 3.6709772153285e-09 1.13751575661023e-08 1.57695642222211e-08 7.6930427604714e-08
"159" 10301 1.12123557646157e-07 9.01398383502288e-09 1.81232883298679e-09 2.26345954053445e-09 3.67251692687816e-09 1.13392860092374e-08 1.57664232629977e-08 7.68877698886142e-08
"160" 10302 1.12176517761238e-07 8.99924891149533e-09 1.81732678292185e-09 2.2659540872836e-09 3.67405663842782e-09 1.13034144523724e-08 1.57632823037743e-08 7.68451121725145e-08
"161" 10303 1.12229477876319e-07 8.98451398796778e-09 1.82232473285691e-09 2.26844863403274e-09 3.67559634997748e-09 1.12675428955075e-08 1.5760141344551e-08 7.68024544564148e-08
"162" 10304 1.122824379914e-07 8.96977906444023e-09 1.82732268279197e-09 2.27094318078189e-09 3.67713606152715e-09 1.12316713386426e-08 1.57570003853276e-08 7.6759796740315e-08
"163" 10305 1.12323692660437e-07 8.96660759103283e-09 1.82732268279197e-09 2.27194131194679e-09 3.67713606152715e-09 1.11898340781582e-08 1.57801864782026e-08 7.6759796740315e-08
"164" 10306 1.12364947329473e-07 8.96343611762542e-09 1.82732268279197e-09 2.27293944311169e-09 3.67713606152715e-09 1.11479968176738e-08 1.58033725710776e-08 7.6759796740315e-08
"165" 10307 1.12406201998509e-07 8.96026464421802e-09 1.82732268279197e-09 2.2739375742766e-09 3.67713606152715e-09 1.11061595571894e-08 1.58265586639526e-08 7.6759796740315e-08
"166" 10308 1.12447456667546e-07 8.95709317081062e-09 1.82732268279197e-09 2.2749357054415e-09 3.67713606152715e-09 1.1064322296705e-08 1.58497447568277e-08 7.6759796740315e-08
"167" 10309 1.12488711336582e-07 8.95392169740322e-09 1.82732268279197e-09 2.2759338366064e-09 3.67713606152715e-09 1.10224850362206e-08 1.58729308497027e-08 7.6759796740315e-08
"168" 10310 1.12464039080888e-07 8.95998262480593e-09 1.82198336457746e-09 2.27743056465589e-09 3.66978512136317e-09 1.10164709981336e-08 1.59050826445372e-08 7.67964885184463e-08
"169" 10311 1.12439366825195e-07 8.96604355220863e-09 1.81664404636295e-09 2.27892729270538e-09 3.66243418119919e-09 1.10104569600466e-08 1.59372344393718e-08 7.68331802965777e-08
"170" 10312 1.12414694569502e-07 8.97210447961133e-09 1.81130472814845e-09 2.28042402075486e-09 3.65508324103521e-09 1.10044429219597e-08 1.59693862342063e-08 7.6869872074709e-08
"171" 10313 1.12390022313808e-07 8.97816540701404e-09 1.80596540993394e-09 2.28192074880435e-09 3.64773230087123e-09 1.09984288838727e-08 1.60015380290408e-08 7.69065638528403e-08
"172" 10314 1.10503014286674e-07 8.97816540701404e-09 1.80488921128065e-09 2.28192074880435e-09 3.64773230087123e-09 1.09984288838727e-08 1.6036088580498e-08 7.54767877703167e-08
"173" 10315 1.08616006259539e-07 8.97816540701404e-09 1.80381301262735e-09 2.28192074880435e-09 3.64773230087123e-09 1.09984288838727e-08 1.60706391319553e-08 7.4047011687793e-08
"174" 10316 1.06728998232405e-07 8.97816540701404e-09 1.80273681397406e-09 2.28192074880435e-09 3.64773230087123e-09 1.09984288838727e-08 1.61051896834125e-08 7.26172356052694e-08
"175" 10317 1.0484199020527e-07 8.97816540701404e-09 1.80166061532076e-09 2.28192074880435e-09 3.64773230087123e-09 1.09984288838727e-08 1.61397402348697e-08 7.11874595227458e-08
"176" 10318 1.02954982178136e-07 8.97816540701404e-09 1.80058441666747e-09 2.28192074880435e-09 3.64773230087123e-09 1.09984288838727e-08 1.61742907863269e-08 6.97576834402221e-08
"177" 10319 1.01067974151001e-07 8.97816540701404e-09 1.79950821801417e-09 2.28192074880435e-09 3.64773230087123e-09 1.09984288838727e-08 1.62088413377841e-08 6.83279073576985e-08
"178" 10320 9.91809661238668e-08 8.97816540701404e-09 1.79843201936088e-09 2.28192074880435e-09 3.64773230087123e-09 1.09984288838727e-08 1.62433918892413e-08 6.68981312751749e-08
"179" 10321 9.72939580967323e-08 8.97816540701404e-09 1.79735582070759e-09 2.28192074880435e-09 3.64773230087123e-09 1.09984288838727e-08 1.62779424406986e-08 6.54683551926512e-08
"180" 10322 9.54069500695978e-08 8.97816540701404e-09 1.79627962205429e-09 2.28192074880435e-09 3.64773230087123e-09 1.09984288838727e-08 1.63124929921558e-08 6.40385791101276e-08
"181" 10323 9.52335670113266e-08 8.94801254999296e-09 1.78488699277741e-09 2.2694534832004e-09 3.63361513089629e-09 1.09347556928341e-08 1.63404528899757e-08 6.40572871268824e-08
"182" 10324 9.50601839530555e-08 8.91785969297188e-09 1.77349436350053e-09 2.25698621759645e-09 3.61949796092135e-09 1.08710825017955e-08 1.63684127877957e-08 6.40759951436371e-08
"183" 10325 9.5036274307849e-08 8.91785969297188e-09 1.77363091081231e-09 2.25549089564056e-09 3.6053807909464e-09 1.08511710446812e-08 1.62185909955126e-08 6.40827299023393e-08
"184" 10326 9.50123646626426e-08 8.91785969297188e-09 1.77376745812409e-09 2.25399557368467e-09 3.59126362097146e-09 1.08312595875669e-08 1.60687692032296e-08 6.40894646610414e-08
"185" 10327 9.49884550174361e-08 8.91785969297188e-09 1.77390400543587e-09 2.25250025172878e-09 3.57714645099652e-09 1.08113481304526e-08 1.59189474109465e-08 6.40961994197435e-08
"186" 10328 9.49645453722297e-08 8.91785969297188e-09 1.77404055274764e-09 2.25100492977289e-09 3.56302928102158e-09 1.07914366733383e-08 1.57691256186634e-08 6.41029341784457e-08
"187" 10329 9.49406357270232e-08 8.91785969297188e-09 1.77417710005942e-09 2.24950960781701e-09 3.54891211104664e-09 1.0771525216224e-08 1.56193038263804e-08 6.41096689371478e-08
"188" 10330 9.49167260818168e-08 8.91785969297188e-09 1.7743136473712e-09 2.24801428586112e-09 3.5347949410717e-09 1.07516137591097e-08 1.54694820340973e-08 6.41164036958499e-08
"189" 10331 9.48928164366103e-08 8.91785969297188e-09 1.77445019468298e-09 2.24651896390523e-09 3.52067777109676e-09 1.07317023019954e-08 1.53196602418142e-08 6.41231384545521e-08
"190" 10332 9.48689067914038e-08 8.91785969297188e-09 1.77458674199476e-09 2.24502364194934e-09 3.50656060112182e-09 1.07117908448811e-08 1.51698384495312e-08 6.41298732132542e-08
"191" 10333 9.48449971461974e-08 8.91785969297188e-09 1.77472328930654e-09 2.24352831999345e-09 3.49244343114687e-09 1.06918793877668e-08 1.50200166572481e-08 6.41366079719563e-08
"192" 10334 9.4698404145165e-08 8.90537462661354e-09 1.77400929645867e-09 2.24203221687446e-09 3.49645518218355e-09 1.07526083945697e-08 1.48547869498884e-08 6.41583085074144e-08
"193" 10335 9.45518111441326e-08 8.89288956025519e-09 1.77329530361081e-09 2.24053611375546e-09 3.50046693322023e-09 1.08133374013725e-08 1.46895572425287e-08 6.41800090428724e-08
"194" 10336 9.44052181431002e-08 8.88040449389685e-09 1.77258131076294e-09 2.23904001063646e-09 3.5044786842569e-09 1.08740664081754e-08 1.4524327535169e-08 6.42017095783304e-08
"195" 10337 9.43394742448873e-08 8.868130859099e-09 1.77550555581029e-09 2.25400447894413e-09 3.49326712858912e-09 1.08628589633785e-08 1.43527327545494e-08 6.42234101137884e-08
"196" 10338 9.42480796353619e-08 8.88540296135247e-09 1.77671830177537e-09 2.25101242893876e-09 3.48068967016384e-09 1.08489615443512e-08 1.41717982510728e-08 6.42114018400993e-08
"197" 10339 9.41566850258366e-08 8.90267506360595e-09 1.77793104774044e-09 2.24802037893338e-09 3.46811221173856e-09 1.08350641253239e-08 1.39908637475962e-08 6.41993935664102e-08
"198" 10340 9.40652904163112e-08 8.91994716585942e-09 1.77914379370551e-09 2.24502832892801e-09 3.45553475331328e-09 1.08211667062965e-08 1.38099292441195e-08 6.41873852927212e-08
"199" 10341 9.39738958067858e-08 8.93721926811289e-09 1.78035653967058e-09 2.24203627892263e-09 3.44295729488801e-09 1.08072692872692e-08 1.36289947406429e-08 6.41753770190321e-08
"200" 10342 9.38825011972605e-08 8.95449137036636e-09 1.78156928563566e-09 2.23904422891726e-09 3.43037983646273e-09 1.07933718682419e-08 1.34480602371663e-08 6.4163368745343e-08
"201" 10343 9.37911065877351e-08 8.97176347261983e-09 1.78278203160073e-09 2.23605217891188e-09 3.41780237803745e-09 1.07794744492146e-08 1.32671257336897e-08 6.41513604716539e-08
"202" 10344 9.36997119782097e-08 8.98903557487330e-09 1.7839947775658e-09 2.23306012890651e-09 3.40522491961217e-09 1.07655770301873e-08 1.30861912302131e-08 6.41393521979648e-08
"203" 10345 9.36083173686844e-08 9.00630767712677e-09 1.78520752353088e-09 2.23006807890113e-09 3.39264746118689e-09 1.07516796111599e-08 1.29052567267365e-08 6.41273439242757e-08
"204" 10346 9.3516922759159e-08 9.02357977938024e-09 1.78642026949595e-09 2.22707602889576e-09 3.38007000276161e-09 1.07377821921326e-08 1.27243222232599e-08 6.41153356505866e-08
"205" 10347 9.34255281496336e-08 9.0408518816337e-09 1.78763301546102e-09 2.22408397889038e-09 3.36749254433633e-09 1.07238847731053e-08 1.25433877197832e-08 6.41033273768975e-08
"206" 10348 9.33603638353908e-08 9.04032065166017e-09 1.78763301546102e-09 2.22408507251874e-09 3.35825427503836e-09 1.07126773283084e-08 1.23592172481199e-08 6.41249769805207e-08
"207" 10349 9.32951995211481e-08 9.03978942168662e-09 1.78763301546102e-09 2.22408616614709e-09 3.34901600574038e-09 1.07014698835115e-08 1.21750467764565e-08 6.41466265841439e-08
"208" 10350 9.32300352069053e-08 9.03925819171308e-09 1.78763301546102e-09 2.22408725977545e-09 3.33977773644241e-09 1.06902624387146e-08 1.19908763047932e-08 6.41682761877671e-08
"209" 10351 9.31648708926625e-08 9.03872696173954e-09 1.78763301546102e-09 2.2240883534038e-09 3.33053946714443e-09 1.06790549939177e-08 1.18067058331298e-08 6.41899257913903e-08
"210" 10352 9.30997065784197e-08 9.038195731766e-09 1.78763301546102e-09 2.22408944703216e-09 3.32130119784646e-09 1.06678475491208e-08 1.16225353614665e-08 6.42115753950135e-08
"211" 10353 9.30345422641769e-08 9.03766450179246e-09 1.78763301546102e-09 2.22409054066051e-09 3.31206292854848e-09 1.06566401043238e-08 1.14383648898031e-08 6.42332249986367e-08
"212" 10354 9.30829106341405e-08 9.0472601141555e-09 1.78621544852828e-09 2.21960316869925e-09 3.31540211767578e-09 1.06406993383602e-08 1.14096509352322e-08 6.42880719253311e-08
"213" 10355 9.3131279004104e-08 9.05685572651854e-09 1.78479788159554e-09 2.21511579673798e-09 3.31874130680309e-09 1.06247585723966e-08 1.13809369806614e-08 6.43429188520254e-08
"214" 10356 9.32015315023857e-08 9.06852224134662e-09 1.78358513563047e-09 2.2076360623061e-09 3.32208049593039e-09 1.06327192884849e-08 1.13787400961156e-08 6.43346910172114e-08
"215" 10357 9.32717840006674e-08 9.08018875617471e-09 1.78237238966539e-09 2.20015632787422e-09 3.32541968505769e-09 1.06406800045732e-08 1.13765432115698e-08 6.43264631823973e-08
"216" 10358 9.33420364989491e-08 9.0918552710028e-09 1.78115964370032e-09 2.19267659344234e-09 3.328758874185e-09 1.06486407206615e-08 1.13743463270241e-08 6.43182353475832e-08
"217" 10359 9.34122889972308e-08 9.10352178583089e-09 1.77994689773525e-09 2.18519685901045e-09 3.3320980633123e-09 1.06566014367499e-08 1.13721494424783e-08 6.43100075127691e-08
"218" 10360 9.34825414955124e-08 9.11518830065897e-09 1.77873415177018e-09 2.17771712457857e-09 3.3354372524396e-09 1.06645621528382e-08 1.13699525579326e-08 6.43017796779551e-08
"219" 10361 9.35718892233384e-08 9.1066011308139e-09 1.7785976044584e-09 2.14779068768517e-09 3.30765916056916e-09 1.06673004615361e-08 1.11912326323462e-08 6.37422327955233e-08
"220" 10362 9.1901321769855e-08 9.06301441648457e-09 1.76383983190986e-09 2.12335069131368e-09 3.2604948754247e-09 1.05863159147977e-08 1.11907873107858e-08 6.31056333313426e-08
"221" 10363 9.02307543163715e-08 9.01942770215523e-09 1.74908205936131e-09 2.09891069494218e-09 3.21333059028025e-09 1.05053313680593e-08 1.11903419892253e-08 6.24690338671619e-08
"222" 10364 8.85601868628881e-08 8.9758409878259e-09 1.73432428681277e-09 2.07447069857068e-09 3.16616630513579e-09 1.04243468213209e-08 1.11898966676649e-08 6.18324344029813e-08
"223" 10365 8.68896194094046e-08 8.93225427349656e-09 1.71956651426423e-09 2.05003070219918e-09 3.11900201999134e-09 1.03433622745824e-08 1.11894513461045e-08 6.11958349388006e-08
"224" 10366 8.52190519559212e-08 8.88866755916723e-09 1.70480874171569e-09 2.02559070582769e-09 3.07183773484688e-09 1.0262377727844e-08 1.11890060245441e-08 6.05592354746199e-08
"225" 10367 8.35484845024377e-08 8.8450808448379e-09 1.69005096916715e-09 2.00115070945619e-09 3.02467344970243e-09 1.01813931811056e-08 1.11885607029836e-08 5.99226360104392e-08
"226" 10368 8.18779170489543e-08 8.80149413050856e-09 1.6752931966186e-09 1.97671071308469e-09 2.97750916455797e-09 1.01004086343672e-08 1.11881153814232e-08 5.92860365462585e-08
"227" 10369 8.02073495954709e-08 8.75790741617923e-09 1.66053542407006e-09 1.95227071671319e-09 2.93034487941352e-09 1.00194240876288e-08 1.11876700598628e-08 5.86494370820778e-08
"228" 10370 7.85367821419874e-08 8.71432070184989e-09 1.64577765152152e-09 1.9278307203417e-09 2.88318059426906e-09 9.93843954089042e-09 1.11872247383024e-08 5.80128376178971e-08
"229" 10371 7.6866214688504e-08 8.67073398752056e-09 1.63101987897298e-09 1.9033907239702e-09 2.83601630912461e-09 9.85745499415202e-09 1.11867794167419e-08 5.73762381537164e-08
"230" 10372 7.51956472350205e-08 8.62714727319123e-09 1.61626210642444e-09 1.8789507275987e-09 2.78885202398015e-09 9.77647044741361e-09 1.11863340951815e-08 5.67396386895357e-08
"231" 10373 7.35250797815371e-08 8.58356055886189e-09 1.6015043338759e-09 1.8545107312272e-09 2.7416877388357e-09 9.69548590067521e-09 1.11858887736211e-08 5.6103039225355e-08
"232" 10374 7.18545123280536e-08 8.53997384453256e-09 1.58674656132735e-09 1.83007073485571e-09 2.69452345369124e-09 9.6145013539368e-09 1.11854434520607e-08 5.54664397611743e-08
"233" 10375 7.01839448745702e-08 8.49638713020322e-09 1.57198878877881e-09 1.80563073848421e-09 2.64735916854679e-09 9.5335168071984e-09 1.11849981305003e-08 5.48298402969936e-08
"234" 10376 6.85133774210867e-08 8.45280041587389e-09 1.55723101623027e-09 1.78119074211271e-09 2.60019488340233e-09 9.45253226045999e-09 1.11845528089398e-08 5.41932408328129e-08
"235" 10377 6.68428099676033e-08 8.40921370154456e-09 1.54247324368173e-09 1.75675074574122e-09 2.55303059825788e-09 9.37154771372159e-09 1.11841074873794e-08 5.35566413686322e-08
"236" 10378 6.51722425141198e-08 8.36562698721522e-09 1.52771547113319e-09 1.73231074936972e-09 2.50586631311342e-09 9.29056316698318e-09 1.1183662165819e-08 5.29200419044515e-08
"237" 10379 6.35016750606364e-08 8.32204027288589e-09 1.51295769858465e-09 1.70787075299822e-09 2.45870202796897e-09 9.20957862024478e-09 1.11832168442586e-08 5.22834424402709e-08
"238" 10380 6.1740792877512e-08 8.27033796711697e-09 1.49727069345758e-09 1.68343075662672e-09 2.42045012063717e-09 9.1236162092278e-09 1.11891603042585e-08 5.1607949782667e-08
"239" 10381 5.99799106943877e-08 8.21863566134805e-09 1.48158368833051e-09 1.65899076025523e-09 2.38219821330538e-09 9.03765379821082e-09 1.11951037642584e-08 5.09324571250632e-08
"240" 10382 5.82190285112633e-08 8.16693335557913e-09 1.46589668320345e-09 1.63455076388373e-09 2.34394630597359e-09 8.95169138719385e-09 1.12010472242583e-08 5.02569644674594e-08
"241" 10383 5.6458146328139e-08 8.11523104981021e-09 1.45020967807638e-09 1.61011076751223e-09 2.3056943986418e-09 8.86572897617687e-09 1.12069906842582e-08 4.95814718098556e-08
"242" 10384 5.46972641450146e-08 8.06352874404130e-09 1.43452267294931e-09 1.58567077114073e-09 2.26744249131001e-09 8.77976656515989e-09 1.12129341442581e-08 4.89059791522518e-08
"243" 10385 5.29363819618903e-08 8.01182643827238e-09 1.41883566782225e-09 1.56123077476924e-09 2.22919058397821e-09 8.69380415414291e-09 1.1218877604258e-08 4.8230486494648e-08
"244" 10386 5.11754997787659e-08 7.96012413250346e-09 1.40314866269518e-09 1.53679077839774e-09 2.19093867664642e-09 8.60784174312593e-09 1.12248210642579e-08 4.75549938370442e-08
"245" 10387 4.94146175956415e-08 7.90842182673454e-09 1.38746165756811e-09 1.51235078202624e-09 2.15268676931463e-09 8.52187933210896e-09 1.12307645242578e-08 4.68795011794404e-08
"246" 10388 4.79258098077578e-08 7.85671952096562e-09 1.37412145195231e-09 1.49888163567445e-09 2.10116406270944e-09 8.43219077305317e-09 1.12335551708841e-08 4.61800811051694e-08
"247" 10389 4.81818020855699e-08 7.85671952096562e-09 1.3726147738377e-09 1.51234703244331e-09 2.10025346087111e-09 8.4261767349662e-09 1.12327476825764e-08 4.61651280613722e-08
"248" 10390 4.84377943633819e-08 7.85671952096562e-09 1.37110809572309e-09 1.52581242921217e-09 2.09934285903278e-09 8.42016269687922e-09 1.12319401942687e-08 4.6150175017575e-08
"249" 10391 4.8693786641194e-08 7.85671952096562e-09 1.36960141760848e-09 1.53927782598102e-09 2.09843225719445e-09 8.41414865879225e-09 1.1231132705961e-08 4.61352219737778e-08
"250" 10392 4.89497789190061e-08 7.85671952096562e-09 1.36809473949387e-09 1.55274322274988e-09 2.09752165535611e-09 8.40813462070527e-09 1.12303252176533e-08 4.61202689299806e-08
"251" 10393 4.92057711968181e-08 7.85671952096562e-09 1.36658806137925e-09 1.56620861951873e-09 2.09661105351778e-09 8.4021205826183e-09 1.12295177293457e-08 4.61053158861835e-08
"252" 10394 4.94617634746302e-08 7.85671952096562e-09 1.36508138326464e-09 1.57967401628759e-09 2.09570045167945e-09 8.39610654453132e-09 1.1228710241038e-08 4.60903628423863e-08
"253" 10395 4.97177557524423e-08 7.85671952096562e-09 1.36357470515003e-09 1.59313941305644e-09 2.09478984984112e-09 8.39009250644435e-09 1.12279027527303e-08 4.60754097985891e-08
"254" 10396 4.99737480302543e-08 7.85671952096562e-09 1.36206802703542e-09 1.6066048098253e-09 2.09387924800279e-09 8.38407846835738e-09 1.12270952644226e-08 4.60604567547919e-08
"255" 10397 5.02297403080664e-08 7.85671952096562e-09 1.3605613489208e-09 1.62007020659415e-09 2.09296864616446e-09 8.3780644302704e-09 1.12262877761149e-08 4.60455037109947e-08
"256" 10398 5.0262636648991e-08 7.8299658073406e-09 1.35878157618264e-09 1.6265536846526e-09 2.07084970021519e-09 8.35806597111464e-09 1.1172250290636e-08 4.6046247065811e-08
"257" 10399 5.01916405908377e-08 7.82469095461182e-09 1.35700180344447e-09 1.61957176594219e-09 2.05881444710516e-09 8.38003044205874e-09 1.11849804371558e-08 4.60619689303419e-08
"258" 10400 4.9752615058619e-08 7.8242356146345e-09 1.35728531683102e-09 1.62455851595115e-09 2.06234917112365e-09 8.40477188927472e-09 1.11283125997209e-08 4.58711242401175e-08
"259" 10401 4.93135895264004e-08 7.82378027465718e-09 1.35756883021756e-09 1.62954526596011e-09 2.06588389514214e-09 8.4295133364907e-09 1.1071644762286e-08 4.56802795498931e-08
"260" 10402 4.88745639941818e-08 7.82332493467986e-09 1.35785234360411e-09 1.63453201596907e-09 2.06941861916063e-09 8.45425478370668e-09 1.10149769248512e-08 4.54894348596687e-08
"261" 10403 4.84355384619631e-08 7.82286959470253e-09 1.35813585699066e-09 1.63951876597803e-09 2.07295334317912e-09 8.47899623092265e-09 1.09583090874163e-08 4.52985901694443e-08
"262" 10404 4.79965129297445e-08 7.82241425472521e-09 1.35841937037721e-09 1.64450551598699e-09 2.07648806719761e-09 8.50373767813863e-09 1.09016412499814e-08 4.51077454792199e-08
"263" 10405 4.76559148771256e-08 7.81867907448794e-09 1.35229778565895e-09 1.64650037222319e-09 2.0801314217112e-09 8.50856766824032e-09 1.09274398257062e-08 4.50465925156677e-08
"264" 10406 4.72156081592888e-08 7.80757096434511e-09 1.34872782141962e-09 1.65148727846477e-09 2.08475055636019e-09 8.50866433717529e-09 1.09404608383104e-08 4.491369550099e-08
"265" 10407 4.67753014414521e-08 7.79646285420228e-09 1.34515785718029e-09 1.65647418470635e-09 2.08936969100918e-09 8.50876100611026e-09 1.09534818509146e-08 4.47807984863122e-08
"266" 10408 4.63349947236153e-08 7.78535474405946e-09 1.34158789294096e-09 1.66146109094794e-09 2.09398882565817e-09 8.50885767504523e-09 1.09665028635187e-08 4.46479014716345e-08
"267" 10409 4.58946880057785e-08 7.77424663391663e-09 1.33801792870163e-09 1.66644799718952e-09 2.09860796030716e-09 8.50895434398019e-09 1.09795238761229e-08 4.45150044569567e-08
"268" 10410 4.54543812879418e-08 7.7631385237738e-09 1.3344479644623e-09 1.6714349034311e-09 2.10322709495614e-09 8.50905101291516e-09 1.0992544888727e-08 4.43821074422789e-08
"269" 10411 4.5014074570105e-08 7.75203041363098e-09 1.33087800022297e-09 1.67642180967268e-09 2.10784622960513e-09 8.50914768185013e-09 1.10055659013312e-08 4.42492104276012e-08
"270" 10412 4.45737678522683e-08 7.74092230348815e-09 1.32730803598364e-09 1.68140871591426e-09 2.11246536425412e-09 8.5092443507851e-09 1.10185869139354e-08 4.41163134129234e-08
"271" 10413 4.41334611344315e-08 7.72981419334532e-09 1.32373807174431e-09 1.68639562215584e-09 2.11708449890311e-09 8.50934101972007e-09 1.10316079265395e-08 4.39834163982456e-08
"272" 10414 4.36931544165948e-08 7.7187060832025e-09 1.32016810750498e-09 1.69138252839742e-09 2.12170363355209e-09 8.50943768865504e-09 1.10446289391437e-08 4.38505193835679e-08
"273" 10415 4.3252847698758e-08 7.70759797305967e-09 1.31659814326565e-09 1.696369434639e-09 2.12632276820108e-09 8.50953435759001e-09 1.10576499517479e-08 4.37176223688901e-08
"274" 10416 4.28125409809212e-08 7.69648986291684e-09 1.31302817902632e-09 1.70135634088058e-09 2.13094190285007e-09 8.50963102652498e-09 1.1070670964352e-08 4.35847253542124e-08
"275" 10417 4.23722342630845e-08 7.68538175277402e-09 1.30945821478699e-09 1.70634324712217e-09 2.13556103749906e-09 8.50972769545995e-09 1.10836919769562e-08 4.34518283395346e-08
"276" 10418 4.19319275452477e-08 7.67427364263119e-09 1.30588825054767e-09 1.71133015336375e-09 2.14018017214805e-09 8.50982436439492e-09 1.10967129895604e-08 4.33189313248568e-08
"277" 10419 4.1491620827411e-08 7.66316553248836e-09 1.30231828630834e-09 1.71631705960533e-09 2.14479930679703e-09 8.50992103332989e-09 1.11097340021645e-08 4.31860343101791e-08
"278" 10420 4.10513141095742e-08 7.65205742234553e-09 1.29874832206901e-09 1.72130396584691e-09 2.14941844144602e-09 8.51001770226485e-09 1.11227550147687e-08 4.30531372955013e-08
"279" 10421 4.06110073917375e-08 7.64094931220271e-09 1.29517835782968e-09 1.72629087208849e-09 2.15403757609501e-09 8.51011437119982e-09 1.11357760273729e-08 4.29202402808235e-08
"280" 10422 4.01707006739007e-08 7.62984120205988e-09 1.29160839359035e-09 1.73127777833007e-09 2.158656710744e-09 8.51021104013479e-09 1.1148797039977e-08 4.27873432661458e-08
"281" 10423 3.9730393956064e-08 7.61873309191705e-09 1.28803842935102e-09 1.73626468457165e-09 2.16327584539298e-09 8.51030770906976e-09 1.11618180525812e-08 4.2654446251468e-08
"282" 10424 3.93995078798179e-08 7.59979671189135e-09 1.2844001914558e-09 1.73776063145803e-09 2.18545996963932e-09 8.52138661347678e-09 1.11963567498882e-08 4.25288273139651e-08
"283" 10425 3.90686218035719e-08 7.58086033186566e-09 1.28076195356058e-09 1.73925657834441e-09 2.20764409388566e-09 8.5324655178838e-09 1.12308954471952e-08 4.24032083764621e-08
"284" 10426 3.87377357273259e-08 7.56192395183996e-09 1.27712371566536e-09 1.74075252523078e-09 2.22982821813199e-09 8.54354442229082e-09 1.12654341445022e-08 4.22775894389592e-08
"285" 10427 3.84068496510799e-08 7.54298757181426e-09 1.27348547777014e-09 1.74224847211716e-09 2.25201234237833e-09 8.55462332669784e-09 1.12999728418092e-08 4.21519705014562e-08
"286" 10428 3.80759635748339e-08 7.52405119178856e-09 1.26984723987493e-09 1.74374441900354e-09 2.27419646662467e-09 8.56570223110486e-09 1.13345115391162e-08 4.20263515639533e-08
"287" 10429 3.77450774985879e-08 7.50511481176286e-09 1.26620900197971e-09 1.74524036588991e-09 2.296380590871e-09 8.57678113551188e-09 1.13690502364232e-08 4.19007326264503e-08
"288" 10430 3.74141914223419e-08 7.48617843173717e-09 1.26257076408449e-09 1.74673631277629e-09 2.31856471511734e-09 8.5878600399189e-09 1.14035889337302e-08 4.17751136889474e-08
"289" 10431 3.70833053460959e-08 7.46724205171147e-09 1.25893252618927e-09 1.74823225966267e-09 2.34074883936367e-09 8.59893894432592e-09 1.14381276310373e-08 4.16494947514444e-08
"290" 10432 3.67524192698499e-08 7.44830567168577e-09 1.25529428829405e-09 1.74972820654904e-09 2.36293296361001e-09 8.61001784873294e-09 1.14726663283443e-08 4.15238758139415e-08
"291" 10433 3.64215331936038e-08 7.42936929166007e-09 1.25165605039883e-09 1.75122415343542e-09 2.38511708785635e-09 8.62109675313996e-09 1.15072050256513e-08 4.13982568764385e-08
"292" 10434 3.60906471173578e-08 7.41043291163437e-09 1.24801781250362e-09 1.75272010032180e-09 2.40730121210268e-09 8.63217565754698e-09 1.15417437229583e-08 4.12726379389356e-08
"293" 10435 3.57597610411118e-08 7.39149653160867e-09 1.2443795746084e-09 1.75421604720817e-09 2.42948533634902e-09 8.643254561954e-09 1.15762824202653e-08 4.11470190014327e-08
"294" 10436 3.54288749648658e-08 7.37256015158298e-09 1.24074133671318e-09 1.75571199409455e-09 2.45166946059536e-09 8.65433346636102e-09 1.16108211175723e-08 4.10214000639297e-08
"295" 10437 3.50979888886198e-08 7.35362377155728e-09 1.23710309881796e-09 1.75720794098092e-09 2.47385358484169e-09 8.66541237076804e-09 1.16453598148793e-08 4.08957811264268e-08
"296" 10438 3.46584760570881e-08 7.3376040202386e-09 1.23324962119208e-09 1.76219484722251e-09 2.50104696635912e-09 8.74037034175154e-09 1.16391729053959e-08 4.07230156947692e-08
"297" 10439 3.42181998436708e-08 7.31774602397471e-09 1.22961138329686e-09 1.76219484722251e-09 2.51091339820815e-09 8.73140245253531e-09 1.16430144898134e-08 4.05534937499933e-08
"298" 10440 3.37779236302535e-08 7.29788802771082e-09 1.22597314540165e-09 1.76219484722251e-09 2.52077983005719e-09 8.72243456331908e-09 1.16468560742309e-08 4.03839718052175e-08
"299" 10441 3.33376474168362e-08 7.27803003144692e-09 1.22233490750643e-09 1.76219484722251e-09 2.53064626190623e-09 8.71346667410285e-09 1.16506976586484e-08 4.02144498604416e-08
"300" 10442 3.2897371203419e-08 7.25817203518303e-09 1.21869666961121e-09 1.76219484722251e-09 2.54051269375526e-09 8.70449878488662e-09 1.1654539243066e-08 4.00449279156657e-08
"301" 10443 3.24570949900017e-08 7.23831403891914e-09 1.21505843171599e-09 1.76219484722251e-09 2.5503791256043e-09 8.69553089567039e-09 1.16583808274835e-08 3.98754059708899e-08
"302" 10444 3.24550694731134e-08 7.20285915445756e-09 1.20650093630459e-09 1.75920170358878e-09 2.5330521759359e-09 8.64753459369656e-09 1.16739490372304e-08 3.98836401721833e-08
"303" 10445 3.24196069039597e-08 7.20193753821936e-09 1.2064326626487e-09 1.7562096535834e-09 2.5403162117038e-09 8.65120274037439e-09 1.16907166252888e-08 3.98058155864609e-08
"304" 10446 3.22995088269782e-08 7.18139653198949e-09 1.2043011028681e-09 1.75471370669702e-09 2.54556350890385e-09 8.60320643840055e-09 1.16248693596672e-08 3.95297127623512e-08
"305" 10447 3.21794107499967e-08 7.16085552575962e-09 1.20216954308749e-09 1.75321775981065e-09 2.5508108061039e-09 8.55521013642672e-09 1.15590220940457e-08 3.92536099382415e-08
"306" 10448 3.20593126730153e-08 7.14031451952974e-09 1.20003798330688e-09 1.75172181292427e-09 2.55605810330395e-09 8.50721383445289e-09 1.14931748284242e-08 3.89775071141318e-08
"307" 10449 3.20109130272337e-08 7.13939290329155e-09 1.19918744314724e-09 1.73775781927083e-09 2.54825091506053e-09 8.50713649930491e-09 1.1505548647391e-08 3.89775071141318e-08
"308" 10450 3.19625133814521e-08 7.13847128705336e-09 1.19833690298759e-09 1.72379382561739e-09 2.54044372681711e-09 8.50705916415694e-09 1.15179224663578e-08 3.89775071141318e-08
"309" 10451 3.19386342406651e-08 7.13776110237566e-09 1.19820035567582e-09 1.71032842884853e-09 2.53643197578043e-09 8.52128812833758e-09 1.15154702781784e-08 3.91338964571532e-08
"310" 10452 3.19147550998781e-08 7.13705091769796e-09 1.19806380836404e-09 1.69686303207968e-09 2.53242022474376e-09 8.53551709251822e-09 1.15130180899989e-08 3.92902858001745e-08
"311" 10453 3.18908759590912e-08 7.13634073302026e-09 1.19792726105226e-09 1.68339763531082e-09 2.52840847370708e-09 8.54974605669887e-09 1.15105659018194e-08 3.94466751431958e-08
"312" 10454 3.18669968183042e-08 7.13563054834255e-09 1.19779071374048e-09 1.66993223854197e-09 2.5243967226704e-09 8.56397502087951e-09 1.150811371364e-08 3.96030644862171e-08
"313" 10455 3.18895833196689e-08 7.13584197990305e-09 1.19231484821419e-09 1.66544392918497e-09 2.5243967226704e-09 8.56397502087951e-09 1.14219481416269e-08 3.93317173245391e-08
"314" 10456 3.12392611240616e-08 7.13513179522535e-09 1.19217830090242e-09 1.66444657918318e-09 2.53853561874437e-09 8.53043968853025e-09 1.14235394099419e-08 3.88517900039549e-08
"315" 10457 3.05889389284542e-08 7.13442161054765e-09 1.19204175359064e-09 1.66344922918139e-09 2.55267451481833e-09 8.49690435618099e-09 1.14251306782569e-08 3.83718626833708e-08
"316" 10458 2.99386167328469e-08 7.13371142586995e-09 1.19190520627886e-09 1.6624518791796e-09 2.56681341089229e-09 8.46336902383172e-09 1.14267219465719e-08 3.78919353627866e-08
"317" 10459 2.92882945372395e-08 7.13300124119225e-09 1.19176865896708e-09 1.6614545291778e-09 2.58095230696625e-09 8.42983369148246e-09 1.14283132148869e-08 3.74120080422024e-08
"318" 10460 2.91448976748398e-08 7.11694901301724e-09 1.1926978915456e-09 1.65696481372721e-09 2.58999504137304e-09 8.41111594924695e-09 1.14109637188982e-08 3.74486711711767e-08
"319" 10461 2.900150081244e-08 7.10089678484223e-09 1.19362712412413e-09 1.65247509827661e-09 2.59903777577983e-09 8.39239820701145e-09 1.13936142229095e-08 3.74853343001509e-08
"320" 10462 2.88423878856454e-08 7.09067781408126e-09 1.19748060175001e-09 1.64748694217405e-09 2.60131428037566e-09 8.35240128869992e-09 1.13744715865289e-08 3.74022330162019e-08
"321" 10463 2.86832749588509e-08 7.08045884332029e-09 1.20133407937588e-09 1.6424987860715e-09 2.60359078497148e-09 8.31240437038839e-09 1.13553289501483e-08 3.73191317322529e-08
"322" 10464 2.85241620320563e-08 7.07023987255932e-09 1.20518755700176e-09 1.63751062996894e-09 2.60586728956731e-09 8.27240745207686e-09 1.13361863137678e-08 3.72360304483039e-08
"323" 10465 2.83650491052617e-08 7.06002090179836e-09 1.20904103462764e-09 1.63252247386638e-09 2.60814379416314e-09 8.23241053376533e-09 1.13170436773872e-08 3.7152929164355e-08
"324" 10466 2.82059361784671e-08 7.04980193103739e-09 1.21289451225352e-09 1.62753431776382e-09 2.61042029875896e-09 8.19241361545381e-09 1.12979010410066e-08 3.7069827880406e-08
"325" 10467 2.80468232516726e-08 7.03958296027642e-09 1.21674798987939e-09 1.62254616166126e-09 2.61269680335479e-09 8.15241669714228e-09 1.1278758404626e-08 3.6986726596457e-08
"326" 10468 2.7887710324878e-08 7.02936398951546e-09 1.22060146750527e-09 1.6175580055587e-09 2.61497330795062e-09 8.11241977883075e-09 1.12596157682454e-08 3.6903625312508e-08
"327" 10469 2.77285973980834e-08 7.01914501875449e-09 1.22445494513115e-09 1.61256984945614e-09 2.61724981254644e-09 8.07242286051923e-09 1.12404731318648e-08 3.6820524028559e-08
"328" 10470 2.75694844712889e-08 7.00892604799352e-09 1.22830842275703e-09 1.60758169335359e-09 2.61952631714227e-09 8.0324259422077e-09 1.12213304954843e-08 3.673742274461e-08
"329" 10471 2.74103715444943e-08 6.99870707723255e-09 1.2321619003829e-09 1.60259353725103e-09 2.6218028217381e-09 7.99242902389617e-09 1.12021878591037e-08 3.66543214606611e-08
"330" 10472 2.72512586176997e-08 6.98848810647159e-09 1.23601537800878e-09 1.59760538114847e-09 2.62407932633392e-09 7.95243210558464e-09 1.11830452227231e-08 3.65712201767121e-08
"331" 10473 2.70921456909052e-08 6.97826913571062e-09 1.23986885563466e-09 1.59261722504591e-09 2.62635583092975e-09 7.91243518727311e-09 1.11639025863425e-08 3.64881188927631e-08
"332" 10474 2.69330327641106e-08 6.96805016494965e-09 1.24372233326054e-09 1.58762906894335e-09 2.62863233552558e-09 7.87243826896159e-09 1.11447599499619e-08 3.64050176088141e-08
"333" 10475 2.6773919837316e-08 6.95783119418869e-09 1.24757581088641e-09 1.58264091284079e-09 2.6309088401214e-09 7.83244135065006e-09 1.11256173135814e-08 3.63219163248651e-08
"334" 10476 2.66148069105215e-08 6.94761222342772e-09 1.25142928851229e-09 1.57765275673823e-09 2.63318534471723e-09 7.79244443233853e-09 1.11064746772008e-08 3.62388150409162e-08
"335" 10477 2.64556939837269e-08 6.93739325266675e-09 1.25528276613817e-09 1.57266460063568e-09 2.63546184931306e-09 7.752447514027e-09 1.10873320408202e-08 3.61557137569672e-08
"336" 10478 2.62965810569323e-08 6.92717428190578e-09 1.25913624376404e-09 1.56767644453312e-09 2.63773835390888e-09 7.71245059571548e-09 1.10681894044396e-08 3.60726124730182e-08
"337" 10479 2.61374681301378e-08 6.91695531114482e-09 1.26298972138992e-09 1.56268828843056e-09 2.64001485850471e-09 7.67245367740395e-09 1.1049046768059e-08 3.59895111890692e-08
"338" 10480 2.59703141446289e-08 6.90069165140931e-09 1.26405550128023e-09 1.55819904167783e-09 2.64001485850471e-09 7.6437512059308e-09 1.1049046768059e-08 3.58637808381776e-08
"339" 10481 2.58031601591201e-08 6.88442799167381e-09 1.26512128117053e-09 1.5537097949251e-09 2.64001485850471e-09 7.61504873445766e-09 1.1049046768059e-08 3.57380504872859e-08
"340" 10482 2.56360061736112e-08 6.8681643319383e-09 1.26618706106083e-09 1.54922054817237e-09 2.64001485850471e-09 7.58634626298452e-09 1.1049046768059e-08 3.56123201363943e-08
"341" 10483 2.54688521881024e-08 6.8519006722028e-09 1.26725284095113e-09 1.54473130141964e-09 2.64001485850471e-09 7.55764379151137e-09 1.1049046768059e-08 3.54865897855027e-08
"342" 10484 2.53016982025936e-08 6.8356370124673e-09 1.26831862084144e-09 1.54024205466691e-09 2.64001485850471e-09 7.52894132003823e-09 1.1049046768059e-08 3.5360859434611e-08
"343" 10485 2.52607798535701e-08 6.83179876752208e-09 1.26724242218814e-09 1.54024252336478e-09 2.6435495825232e-09 7.54521363115519e-09 1.10208731440119e-08 3.5360859434611e-08
"344" 10486 2.52417456328647e-08 6.8225935414237e-09 1.26830820207845e-09 1.5377484453135e-09 2.64864574419037e-09 7.56521209031095e-09 1.10382226400006e-08 3.53182303676684e-08
"345" 10487 2.52227114121594e-08 6.81338831532531e-09 1.26937398196875e-09 1.53525436726222e-09 2.65374190585755e-09 7.58521054946671e-09 1.10555721359893e-08 3.52756013007257e-08
"346" 10488 2.52036771914541e-08 6.80418308922692e-09 1.27043976185905e-09 1.53276028921094e-09 2.65883806752472e-09 7.60520900862248e-09 1.1072921631978e-08 3.52329722337831e-08
"347" 10489 2.51846429707487e-08 6.79497786312854e-09 1.27150554174936e-09 1.53026621115966e-09 2.6639342291919e-09 7.62520746777824e-09 1.10902711279666e-08 3.51903431668404e-08
"348" 10490 2.51656087500434e-08 6.78577263703015e-09 1.27257132163966e-09 1.52777213310838e-09 2.66903039085907e-09 7.64520592693401e-09 1.11076206239553e-08 3.51477140998978e-08
"349" 10491 2.51465745293381e-08 6.77656741093177e-09 1.27363710152996e-09 1.5252780550571e-09 2.67412655252624e-09 7.66520438608977e-09 1.1124970119944e-08 3.51050850329551e-08
"350" 10492 2.51275403086327e-08 6.76736218483338e-09 1.27470288142027e-09 1.52278397700582e-09 2.67922271419342e-09 7.68520284524553e-09 1.11423196159327e-08 3.50624559660125e-08
"351" 10493 2.49334841592142e-08 6.76628878860274e-09 1.27576866131057e-09 1.51580252699328e-09 2.68429714976157e-09 7.70445800817223e-09 1.11604113145221e-08 3.50646987634201e-08
"352" 10494 2.50166340900959e-08 6.78813086105191e-09 1.2783202817895e-09 1.513308448942e-09 2.68293124700407e-09 7.70470255128409e-09 1.11931687255874e-08 3.50557180240707e-08
"353" 10495 2.50997840209776e-08 6.80997293350108e-09 1.28087190226844e-09 1.51081437089072e-09 2.68156534424658e-09 7.70494709439595e-09 1.12259261366527e-08 3.50467372847213e-08
"354" 10496 2.5069401267653e-08 6.82176405360989e-09 1.28342352274737e-09 1.50931717414337e-09 2.68624965719263e-09 7.7052013044013e-09 1.12243348683377e-08 3.50577130365395e-08
"355" 10497 2.50390185143284e-08 6.8335551737187e-09 1.2859751432263e-09 1.50781997739601e-09 2.69093397013868e-09 7.70545551440665e-09 1.12227436000227e-08 3.50686887883577e-08
"356" 10498 2.50086357610038e-08 6.8453462938275e-09 1.28852676370523e-09 1.50632278064866e-09 2.69561828308473e-09 7.705709724412e-09 1.12211523317078e-08 3.5079664540176e-08
"357" 10499 2.49782530076792e-08 6.85713741393631e-09 1.29107838418417e-09 1.50482558390131e-09 2.70030259603078e-09 7.70596393441735e-09 1.12195610633928e-08 3.50906402919942e-08
"358" 10500 2.49478702543546e-08 6.86892853404512e-09 1.2936300046631e-09 1.50332838715395e-09 2.70498690897683e-09 7.7062181444227e-09 1.12179697950778e-08 3.51016160438124e-08
"359" 10501 2.491748750103e-08 6.88071965415393e-09 1.29618162514203e-09 1.5018311904066e-09 2.70967122192288e-09 7.70647235442806e-09 1.12163785267628e-08 3.51125917956306e-08
"360" 10502 2.48871047477054e-08 6.89251077426274e-09 1.29873324562097e-09 1.50033399365925e-09 2.71435553486893e-09 7.70672656443341e-09 1.12147872584478e-08 3.51235675474489e-08
"361" 10503 2.49287864786144e-08 6.90430189437155e-09 1.3012848660999e-09 1.50033321249613e-09 2.70418588479387e-09 7.69479515719443e-09 1.11648466610201e-08 3.49498173425156e-08
"362" 10504 2.49704682095235e-08 6.91609301448035e-09 1.30383648657883e-09 1.50033243133302e-09 2.69401623471882e-09 7.68286374995545e-09 1.11149060635925e-08 3.47760671375824e-08
"363" 10505 2.50121499404325e-08 6.92788413458916e-09 1.30638810705777e-09 1.50033165016991e-09 2.68384658464376e-09 7.67093234271647e-09 1.10649654661648e-08 3.46023169326491e-08
"364" 10506 2.50538316713415e-08 6.93967525469797e-09 1.3089397275367e-09 1.5003308690068e-09 2.67367693456871e-09 7.65900093547749e-09 1.10150248687371e-08 3.44285667277158e-08
"365" 10507 2.52349507441322e-08 6.94287920496171e-09 1.30722822845442e-09 1.4993327378419e-09 2.65637265815961e-09 7.64780315757407e-09 1.09691277278038e-08 3.42348600316149e-08
"366" 10508 2.54160698169228e-08 6.94608315522544e-09 1.30551672937214e-09 1.498334606677e-09 2.63906838175051e-09 7.63660537967066e-09 1.09232305868706e-08 3.4041153335514e-08
"367" 10509 2.55971888897134e-08 6.94928710548918e-09 1.30380523028986e-09 1.49733647551209e-09 2.62176410534141e-09 7.62540760176724e-09 1.08773334459373e-08 3.38474466394132e-08
"368" 10510 2.57783079625041e-08 6.95249105575291e-09 1.30209373120758e-09 1.49633834434719e-09 2.60445982893232e-09 7.61420982386383e-09 1.08314363050041e-08 3.36537399433123e-08
"369" 10511 2.59594270352947e-08 6.95569500601665e-09 1.3003822321253e-09 1.49534021318229e-09 2.58715555252322e-09 7.60301204596041e-09 1.07855391640708e-08 3.34600332472114e-08
"370" 10512 2.61405461080853e-08 6.95889895628038e-09 1.29867073304302e-09 1.49434208201739e-09 2.56985127611412e-09 7.591814268057e-09 1.07396420231376e-08 3.32663265511105e-08
"371" 10513 2.61413094899709e-08 6.95398731510453e-09 1.29716405492841e-09 1.51528783814861e-09 2.56269587084133e-09 7.57987319392452e-09 1.06901467472703e-08 3.30768608481257e-08
"372" 10514 2.61420728718564e-08 6.94907567392868e-09 1.2956573768138e-09 1.53623359427984e-09 2.55554046556853e-09 7.56793211979205e-09 1.06406514714031e-08 3.28873951451409e-08
"373" 10515 2.6142836253742e-08 6.94416403275283e-09 1.29415069869918e-09 1.55717935041107e-09 2.54838506029574e-09 7.55599104565957e-09 1.05911561955358e-08 3.26979294421561e-08
"374" 10516 2.61435996356275e-08 6.93925239157698e-09 1.29264402058457e-09 1.57812510654229e-09 2.54122965502295e-09 7.54404997152709e-09 1.05416609196685e-08 3.25084637391713e-08
"375" 10517 2.61443630175131e-08 6.93434075040113e-09 1.29113734246996e-09 1.59907086267352e-09 2.53407424975016e-09 7.53210889739462e-09 1.04921656438013e-08 3.23189980361865e-08
"376" 10518 2.61451263993986e-08 6.92942910922528e-09 1.28963066435535e-09 1.62001661880475e-09 2.52691884447736e-09 7.52016782326214e-09 1.0442670367934e-08 3.21295323332017e-08
"377" 10519 2.61458897812842e-08 6.92451746804944e-09 1.28812398624074e-09 1.64096237493598e-09 2.51976343920457e-09 7.50822674912966e-09 1.03931750920667e-08 3.19400666302169e-08
"378" 10520 2.61466531631697e-08 6.91960582687359e-09 1.28661730812612e-09 1.6619081310672e-09 2.51260803393178e-09 7.49628567499719e-09 1.03436798161995e-08 3.17506009272321e-08
"379" 10521 2.61474165450553e-08 6.91469418569774e-09 1.28511063001151e-09 1.68285388719843e-09 2.50545262865899e-09 7.48434460086471e-09 1.02941845403322e-08 3.15611352242473e-08
"380" 10522 2.61481799269408e-08 6.90978254452189e-09 1.2836039518969e-09 1.70379964332966e-09 2.49829722338619e-09 7.47240352673223e-09 1.02446892644649e-08 3.13716695212625e-08
"381" 10523 2.61489433088264e-08 6.90487090334604e-09 1.28209727378229e-09 1.72474539946089e-09 2.4911418181134e-09 7.46046245259975e-09 1.01951939885977e-08 3.11822038182777e-08
"382" 10524 2.61497066907119e-08 6.89995926217019e-09 1.28059059566768e-09 1.74569115559211e-09 2.48398641284061e-09 7.44852137846728e-09 1.01456987127304e-08 3.09927381152929e-08
"383" 10525 2.61504700725975e-08 6.89504762099434e-09 1.27908391755306e-09 1.76663691172334e-09 2.47683100756782e-09 7.4365803043348e-09 1.00962034368631e-08 3.08032724123081e-08
"384" 10526 2.6151233454483e-08 6.89013597981849e-09 1.27757723943845e-09 1.78758266785457e-09 2.46967560229502e-09 7.42463923020232e-09 1.00467081609959e-08 3.06138067093233e-08
"385" 10527 2.61519968363686e-08 6.88522433864264e-09 1.27607056132384e-09 1.80852842398579e-09 2.46252019702223e-09 7.41269815606985e-09 9.99721288512862e-09 3.04243410063386e-08
"386" 10528 2.61527602182541e-08 6.88031269746679e-09 1.27456388320923e-09 1.82947418011702e-09 2.45536479174944e-09 7.40075708193737e-09 9.94771760926135e-09 3.02348753033538e-08
"387" 10529 2.61535236001397e-08 6.87540105629094e-09 1.27305720509462e-09 1.85041993624825e-09 2.44820938647665e-09 7.38881600780489e-09 9.89822233339409e-09 3.0045409600369e-08
"388" 10530 2.61542869820252e-08 6.87048941511509e-09 1.27155052698e-09 1.87136569237948e-09 2.44105398120385e-09 7.37687493367242e-09 9.84872705752682e-09 2.98559438973842e-08
"389" 10531 2.61550503639108e-08 6.86557777393924e-09 1.27004384886539e-09 1.8923114485107e-09 2.43389857593106e-09 7.36493385953994e-09 9.79923178165956e-09 2.96664781943994e-08
"390" 10532 2.61558137457963e-08 6.86066613276339e-09 1.26853717075078e-09 1.91325720464193e-09 2.42674317065827e-09 7.35299278540746e-09 9.7497365057923e-09 2.94770124914146e-08
"391" 10533 2.61565771276819e-08 6.85575449158754e-09 1.26703049263617e-09 1.93420296077316e-09 2.41958776538548e-09 7.34105171127499e-09 9.70024122992503e-09 2.92875467884298e-08
"392" 10534 2.61573405095674e-08 6.85084285041169e-09 1.26552381452156e-09 1.95514871690438e-09 2.41243236011269e-09 7.32911063714251e-09 9.65074595405777e-09 2.9098081085445e-08
"393" 10535 2.6158103891453e-08 6.84593120923584e-09 1.26401713640694e-09 1.97609447303561e-09 2.40527695483989e-09 7.31716956301003e-09 9.6012506781905e-09 2.89086153824602e-08
"394" 10536 2.61588672733385e-08 6.84101956805999e-09 1.26251045829233e-09 1.99704022916684e-09 2.3981215495671e-09 7.30522848887755e-09 9.55175540232324e-09 2.87191496794754e-08
"395" 10537 2.62586583122064e-08 6.83610792688414e-09 1.258940494053e-09 1.99554350111735e-09 2.38179305329339e-09 7.34908009561778e-09 9.53858594919893e-09 2.85732850837503e-08
"396" 10538 2.63584493510742e-08 6.83119628570829e-09 1.25537052981367e-09 1.99404677306786e-09 2.36546455701969e-09 7.39293170235801e-09 9.52541649607463e-09 2.84274204880251e-08
"397" 10539 2.64582403899421e-08 6.82628464453244e-09 1.25180056557434e-09 1.99255004501838e-09 2.34913606074598e-09 7.43678330909824e-09 9.51224704295032e-09 2.82815558923e-08
"398" 10540 2.65580314288099e-08 6.82137300335659e-09 1.24823060133501e-09 1.99105331696889e-09 2.33280756447228e-09 7.48063491583846e-09 9.49907758982601e-09 2.81356912965748e-08
"399" 10541 2.66578224676777e-08 6.81646136218074e-09 1.24466063709568e-09 1.9895565889194e-09 2.31647906819857e-09 7.52448652257869e-09 9.48590813670171e-09 2.79898267008497e-08
"400" 10542 2.67327879573562e-08 6.81922621089532e-09 1.24259735097097e-09 1.98656453891403e-09 2.31637043770347e-09 7.58027920345139e-09 9.52267928100509e-09 2.80514020197668e-08
"401" 10543 2.68077534470346e-08 6.8219910596099e-09 1.24053406484625e-09 1.98357248890865e-09 2.31626180720836e-09 7.6360718843241e-09 9.55945042530847e-09 2.8112977338684e-08
"402" 10544 2.68827189367131e-08 6.82475590832449e-09 1.23847077872153e-09 1.98058043890328e-09 2.31615317671326e-09 7.6918645651968e-09 9.59622156961186e-09 2.81745526576012e-08
"403" 10545 2.69576844263915e-08 6.82752075703907e-09 1.23640749259682e-09 1.9775883888979e-09 2.31604454621816e-09 7.7476572460695e-09 9.63299271391524e-09 2.82361279765183e-08
"404" 10546 2.703264991607e-08 6.83028560575365e-09 1.2343442064721e-09 1.97459633889252e-09 2.31593591572305e-09 7.80344992694221e-09 9.66976385821862e-09 2.82977032954355e-08
"405" 10547 2.66270317030958e-08 6.76269909023033e-09 1.23369848728012e-09 1.97459633889252e-09 2.31736699677761e-09 7.83933115070062e-09 9.69011772706075e-09 2.83413330518522e-08
"406" 10548 2.62214134901216e-08 6.69511257470701e-09 1.23305276808815e-09 1.97459633889252e-09 2.31879807783217e-09 7.87521237445903e-09 9.71047159590288e-09 2.8384962808269e-08
"407" 10549 2.58157952771475e-08 6.62752605918368e-09 1.23240704889617e-09 1.97459633889252e-09 2.32022915888673e-09 7.91109359821744e-09 9.730825464745e-09 2.84285925646857e-08
"408" 10550 2.54101770641733e-08 6.55993954366036e-09 1.23176132970419e-09 1.97459633889252e-09 2.32166023994129e-09 7.94697482197585e-09 9.75117933358713e-09 2.84722223211025e-08
"409" 10551 2.51137865552661e-08 6.49772000929021e-09 1.23104733685633e-09 1.98207857304636e-09 2.32166023994129e-09 7.93307740294854e-09 9.87563017836133e-09 2.85957162410659e-08
"410" 10552 2.48173960463588e-08 6.43550047492006e-09 1.23033334400846e-09 1.9895608072002e-09 2.32166023994129e-09 7.91917998392122e-09 1.00000810231355e-08 2.87192101610293e-08
"411" 10553 2.45210055374515e-08 6.37328094054991e-09 1.22961935116059e-09 1.99704304135404e-09 2.32166023994129e-09 7.9052825648939e-09 1.01245318679097e-08 2.88427040809927e-08
"412" 10554 2.42246150285443e-08 6.31106140617975e-09 1.22890535831273e-09 2.00452527550788e-09 2.32166023994129e-09 7.89138514586659e-09 1.02489827126839e-08 2.8966198000956e-08
"413" 10555 2.3928224519637e-08 6.2488418718096e-09 1.22819136546486e-09 2.01200750966171e-09 2.32166023994129e-09 7.87748772683927e-09 1.03734335574581e-08 2.90896919209194e-08
"414" 10556 2.36318340107297e-08 6.18662233743945e-09 1.227477372617e-09 2.01948974381555e-09 2.32166023994129e-09 7.86359030781195e-09 1.04978844022323e-08 2.92131858408828e-08
"415" 10557 2.33354435018225e-08 6.1244028030693e-09 1.22676337976913e-09 2.02697197796939e-09 2.32166023994129e-09 7.84969288878464e-09 1.06223352470065e-08 2.93366797608462e-08
"416" 10558 2.27912016552857e-08 6.09724246475146e-09 1.22057352139498e-09 2.02946730588165e-09 2.30353131892967e-09 7.78379947595233e-09 1.07089579947302e-08 2.91201986253007e-08
"417" 10559 2.27514028301745e-08 6.04077499565452e-09 1.2091808921181e-09 2.01899442781603e-09 2.30099410114559e-09 7.78780883467698e-09 1.07121405313602e-08 2.90955278538171e-08
"418" 10560 2.27116040050634e-08 5.98430752655758e-09 1.19778826284122e-09 2.00852154975042e-09 2.29845688336151e-09 7.79181819340163e-09 1.07153230679901e-08 2.90708570823336e-08
"419" 10561 2.26718051799522e-08 5.92784005746063e-09 1.18639563356434e-09 1.9980486716848e-09 2.29591966557744e-09 7.79582755212628e-09 1.07185056046201e-08 2.90461863108501e-08
"420" 10562 2.26320063548411e-08 5.87137258836369e-09 1.17500300428746e-09 1.98757579361919e-09 2.29338244779336e-09 7.79983691085093e-09 1.072168814125e-08 2.90215155393666e-08
"421" 10563 2.25922075297299e-08 5.81490511926675e-09 1.16361037501058e-09 1.97710291555358e-09 2.29084523000929e-09 7.80384626957558e-09 1.072487067788e-08 2.8996844767883e-08
"422" 10564 2.25524087046188e-08 5.7584376501698e-09 1.1522177457337e-09 1.96663003748796e-09 2.28830801222521e-09 7.80785562830023e-09 1.07280532145099e-08 2.89721739963995e-08
"423" 10565 2.25126098795076e-08 5.70197018107286e-09 1.14082511645682e-09 1.95615715942235e-09 2.28577079444113e-09 7.81186498702488e-09 1.07312357511399e-08 2.8947503224916e-08
"424" 10566 2.24728110543965e-08 5.64550271197592e-09 1.12943248717994e-09 1.94568428135674e-09 2.28323357665706e-09 7.81587434574953e-09 1.07344182877699e-08 2.89228324534325e-08
"425" 10567 2.24330122292853e-08 5.58903524287897e-09 1.11803985790306e-09 1.93521140329112e-09 2.28069635887298e-09 7.81988370447418e-09 1.07376008243998e-08 2.8898161681949e-08
"426" 10568 2.23932134041742e-08 5.53256777378203e-09 1.10664722862618e-09 1.92473852522551e-09 2.2781591410889e-09 7.82389306319883e-09 1.07407833610298e-08 2.88734909104654e-08
"427" 10569 2.2353414579063e-08 5.47610030468509e-09 1.0952545993493e-09 1.9142656471599e-09 2.27562192330483e-09 7.82790242192348e-09 1.07439658976597e-08 2.88488201389819e-08
"428" 10570 2.23136157539519e-08 5.41963283558814e-09 1.08386197007242e-09 1.90379276909428e-09 2.27308470552075e-09 7.83191178064813e-09 1.07471484342897e-08 2.88241493674984e-08
"429" 10571 2.22738169288407e-08 5.3631653664912e-09 1.07246934079554e-09 1.89331989102867e-09 2.27054748773667e-09 7.83592113937278e-09 1.07503309709197e-08 2.87994785960149e-08
"430" 10572 2.22340181037296e-08 5.30669789739426e-09 1.06107671151866e-09 1.88284701296305e-09 2.2680102699526e-09 7.83993049809743e-09 1.07535135075496e-08 2.87748078245313e-08
"431" 10573 2.21942192786184e-08 5.25023042829731e-09 1.04968408224178e-09 1.87237413489744e-09 2.26547305216852e-09 7.84393985682208e-09 1.07566960441796e-08 2.87501370530478e-08
"432" 10574 2.21544204535073e-08 5.19376295920037e-09 1.0382914529649e-09 1.86190125683183e-09 2.26293583438444e-09 7.84794921554673e-09 1.07598785808095e-08 2.87254662815643e-08
"433" 10575 2.22540185548513e-08 5.13815745477357e-09 1.02583304379771e-09 1.85292432565259e-09 2.27399530735908e-09 7.86020250104554e-09 1.07812596791424e-08 2.88212778119029e-08
"434" 10576 2.23536166561953e-08 5.08255195034677e-09 1.01337463463053e-09 1.84394739447335e-09 2.28505478033372e-09 7.87245578654435e-09 1.08026407774754e-08 2.89170893422414e-08
"435" 10577 2.24532147575393e-08 5.02694644591996e-09 1.00091622546335e-09 1.83497046329412e-09 2.29611425330835e-09 7.88470907204316e-09 1.08240218758083e-08 2.901290087258e-08
"436" 10578 2.25528128588833e-08 4.97134094149316e-09 9.88457816296162e-10 1.82599353211488e-09 2.30717372628299e-09 7.89696235754197e-09 1.08454029741412e-08 2.91087124029186e-08
"437" 10579 2.26524109602273e-08 4.91573543706636e-09 9.75999407128979e-10 1.81701660093564e-09 2.31823319925763e-09 7.90921564304078e-09 1.08667840724741e-08 2.92045239332571e-08
"438" 10580 2.27520090615713e-08 4.86012993263956e-09 9.63540997961795e-10 1.80803966975641e-09 2.32929267223226e-09 7.92146892853959e-09 1.0888165170807e-08 2.93003354635957e-08
"439" 10581 2.28516071629153e-08 4.80452442821275e-09 9.51082588794612e-10 1.79906273857717e-09 2.3403521452069e-09 7.9337222140384e-09 1.09095462691399e-08 2.93961469939343e-08
"440" 10582 2.29512052642593e-08 4.74891892378595e-09 9.38624179627429e-10 1.79008580739793e-09 2.35141161818154e-09 7.94597549953721e-09 1.09309273674728e-08 2.94919585242728e-08
"441" 10583 2.2901482474636e-08 4.70472508948686e-09 9.30019248086122e-10 1.78110965738181e-09 2.34833219508221e-09 7.96189693171384e-09 1.09351192644874e-08 2.94692763987788e-08
"442" 10584 2.28517596850127e-08 4.66053125518776e-09 9.21414316544816e-10 1.77213350736568e-09 2.34525277198289e-09 7.97781836389048e-09 1.0939311161502e-08 2.94465942732847e-08
"443" 10585 2.28020368953894e-08 4.61633742088867e-09 9.1280938500351e-10 1.76315735734955e-09 2.34217334888356e-09 7.99373979606712e-09 1.09435030585166e-08 2.94239121477907e-08
"444" 10586 2.27523141057661e-08 4.57214358658957e-09 9.04204453462204e-10 1.75418120733343e-09 2.33909392578424e-09 8.00966122824375e-09 1.09476949555311e-08 2.94012300222966e-08
"445" 10587 2.27025913161427e-08 4.52794975229048e-09 8.95599521920898e-10 1.7452050573173e-09 2.33601450268491e-09 8.02558266042039e-09 1.09518868525457e-08 2.93785478968026e-08
"446" 10588 2.26528685265194e-08 4.48375591799138e-09 8.86994590379592e-10 1.73622890730117e-09 2.33293507958559e-09 8.04150409259702e-09 1.09560787495603e-08 2.93558657713085e-08
"447" 10589 2.26031457368961e-08 4.43956208369229e-09 8.78389658838286e-10 1.72725275728505e-09 2.32985565648626e-09 8.05742552477366e-09 1.09602706465749e-08 2.93331836458145e-08
"448" 10590 2.25534229472728e-08 4.39536824939319e-09 8.6978472729698e-10 1.71827660726892e-09 2.32677623338694e-09 8.07334695695030e-09 1.09644625435895e-08 2.93105015203204e-08
"449" 10591 2.25037001576495e-08 4.3511744150941e-09 8.61179795755674e-10 1.7093004572528e-09 2.32369681028761e-09 8.08926838912693e-09 1.0968654440604e-08 2.92878193948264e-08
"450" 10592 2.24539773680262e-08 4.306980580795e-09 8.52574864214368e-10 1.70032430723667e-09 2.32061738718829e-09 8.10518982130357e-09 1.09728463376186e-08 2.92651372693323e-08
"451" 10593 2.24042545784029e-08 4.26278674649591e-09 8.43969932673061e-10 1.69134815722054e-09 2.31753796408896e-09 8.1211112534802e-09 1.09770382346332e-08 2.92424551438383e-08
"452" 10594 2.23545317887796e-08 4.21859291219681e-09 8.35365001131755e-10 1.68237200720442e-09 2.31445854098964e-09 8.13703268565684e-09 1.09812301316478e-08 2.92197730183442e-08
"453" 10595 2.23048089991563e-08 4.17439907789772e-09 8.26760069590449e-10 1.67339585718829e-09 2.31137911789031e-09 8.15295411783348e-09 1.09854220286624e-08 2.91970908928502e-08
"454" 10596 2.19883242116732e-08 4.18667271269556e-09 8.10721277420945e-10 1.66441767614808e-09 2.30647849111432e-09 8.1678683768822e-09 1.09896139256769e-08 2.90037747197175e-08
"455" 10597 2.19458180900397e-08 4.18995255295552e-09 8.1350897515652e-10 1.66541580731298e-09 2.303399068015e-09 8.18155992037165e-09 1.09963530198343e-08 2.88852810638849e-08
"456" 10598 2.19033119684061e-08 4.19323239321547e-09 8.16296672892094e-10 1.66641393847788e-09 2.30031964491567e-09 8.1952514638611e-09 1.10030921139917e-08 2.87667874080523e-08
"457" 10599 2.18608058467726e-08 4.19651223347543e-09 8.19084370627668e-10 1.66741206964279e-09 2.29724022181635e-09 8.20894300735055e-09 1.10098312081491e-08 2.86482937522197e-08
"458" 10600 2.18182997251391e-08 4.19979207373539e-09 8.21872068363242e-10 1.66841020080769e-09 2.29416079871702e-09 8.22263455084e-09 1.10165703023065e-08 2.8529800096387e-08
"459" 10601 2.17857175680177e-08 4.19166024386763e-09 8.27211386577749e-10 1.66940755080948e-09 2.2910813756177e-09 8.22941121894303e-09 1.10201565830903e-08 2.84093146113253e-08
"460" 10602 2.17859616033735e-08 4.19273364009827e-09 8.29763007056682e-10 1.66342126354202e-09 2.28962856846412e-09 8.23742993639233e-09 1.10122299647718e-08 2.84085617067899e-08
"461" 10603 2.17862056387293e-08 4.1938070363289e-09 8.32314627535615e-10 1.65743497627456e-09 2.28817576131054e-09 8.24544865384163e-09 1.10043033464533e-08 2.84078088022546e-08
"462" 10604 2.17864496740852e-08 4.19488043255954e-09 8.34866248014548e-10 1.6514486890071e-09 2.28672295415696e-09 8.25346737129093e-09 1.09963767281348e-08 2.84070558977193e-08
"463" 10605 2.1786693709441e-08 4.19595382879017e-09 8.37417868493482e-10 1.64546240173964e-09 2.28527014700338e-09 8.26148608874023e-09 1.09884501098162e-08 2.8406302993184e-08
"464" 10606 2.17869377447968e-08 4.1970272250208e-09 8.39969488972415e-10 1.63947611447217e-09 2.2838173398498e-09 8.26950480618953e-09 1.09805234914977e-08 2.84055500886486e-08
"465" 10607 2.17871817801527e-08 4.19810062125144e-09 8.42521109451348e-10 1.63348982720471e-09 2.28236453269622e-09 8.27752352363883e-09 1.09725968731792e-08 2.84047971841133e-08
"466" 10608 2.17874258155085e-08 4.19917401748207e-09 8.45072729930281e-10 1.62750353993725e-09 2.28091172554264e-09 8.28554224108812e-09 1.09646702548606e-08 2.8404044279578e-08
"467" 10609 2.17876698508643e-08 4.20024741371271e-09 8.47624350409214e-10 1.62151725266979e-09 2.27945891838906e-09 8.29356095853742e-09 1.09567436365421e-08 2.84032913750427e-08
"468" 10610 2.17879138862202e-08 4.20132080994334e-09 8.50175970888147e-10 1.61553096540233e-09 2.27800611123548e-09 8.30157967598672e-09 1.09488170182236e-08 2.84025384705073e-08
"469" 10611 2.1788157921576e-08 4.20239420617397e-09 8.5272759136708e-10 1.60954467813487e-09 2.27655330408191e-09 8.30959839343602e-09 1.0940890399905e-08 2.8401785565972e-08
"470" 10612 2.17884019569318e-08 4.20346760240461e-09 8.55279211846013e-10 1.60355839086741e-09 2.27510049692833e-09 8.31761711088532e-09 1.09329637815865e-08 2.84010326614367e-08
"471" 10613 2.17886459922877e-08 4.20454099863524e-09 8.57830832324946e-10 1.59757210359995e-09 2.27364768977475e-09 8.32563582833462e-09 1.0925037163268e-08 2.84002797569014e-08
"472" 10614 2.17888900276435e-08 4.20561439486588e-09 8.60382452803879e-10 1.59158581633248e-09 2.27219488262117e-09 8.33365454578392e-09 1.09171105449495e-08 2.8399526852366e-08
"473" 10615 2.17891340629993e-08 4.20668779109651e-09 8.62934073282812e-10 1.58559952906502e-09 2.27074207546759e-09 8.34167326323322e-09 1.09091839266309e-08 2.83987739478307e-08
"474" 10616 2.17893780983552e-08 4.20776118732715e-09 8.65485693761745e-10 1.57961324179756e-09 2.26928926831401e-09 8.34969198068252e-09 1.09012573083124e-08 2.83980210432954e-08
"475" 10617 2.1789622133711e-08 4.20883458355778e-09 8.68037314240678e-10 1.5736269545301e-09 2.26783646116043e-09 8.35771069813182e-09 1.08933306899939e-08 2.83972681387601e-08
"476" 10618 2.17898661690668e-08 4.20990797978841e-09 8.70588934719611e-10 1.56764066726264e-09 2.26638365400685e-09 8.36572941558112e-09 1.08854040716753e-08 2.83965152342247e-08
"477" 10619 2.17901102044227e-08 4.21098137601905e-09 8.73140555198544e-10 1.56165437999518e-09 2.26493084685327e-09 8.37374813303042e-09 1.08774774533568e-08 2.83957623296894e-08
"478" 10620 2.17903542397785e-08 4.21205477224968e-09 8.75692175677477e-10 1.55566809272772e-09 2.26347803969969e-09 8.38176685047972e-09 1.08695508350383e-08 2.83950094251541e-08
"479" 10621 2.17905982751343e-08 4.21312816848032e-09 8.7824379615641e-10 1.54968180546026e-09 2.26202523254611e-09 8.38978556792902e-09 1.08616242167198e-08 2.83942565206188e-08
"480" 10622 2.17908423104902e-08 4.21420156471095e-09 8.80795416635343e-10 1.5436955181928e-09 2.26057242539253e-09 8.39780428537831e-09 1.08536975984012e-08 2.83935036160834e-08
"481" 10623 2.1791086345846e-08 4.21527496094158e-09 8.83347037114277e-10 1.53770923092533e-09 2.25911961823895e-09 8.40582300282762e-09 1.08457709800827e-08 2.83927507115481e-08
"482" 10624 2.17913303812018e-08 4.21634835717222e-09 8.8589865759321e-10 1.53172294365787e-09 2.25766681108537e-09 8.41384172027691e-09 1.08378443617642e-08 2.83919978070128e-08
"483" 10625 2.17915744165577e-08 4.21742175340285e-09 8.88450278072143e-10 1.52573665639041e-09 2.25621400393180e-09 8.42186043772621e-09 1.08299177434456e-08 2.83912449024774e-08
"484" 10626 2.17918184519135e-08 4.21849514963349e-09 8.91001898551076e-10 1.51975036912295e-09 2.25476119677822e-09 8.42987915517551e-09 1.08219911251271e-08 2.83904919979421e-08
"485" 10627 2.17920624872693e-08 4.21956854586412e-09 8.93553519030009e-10 1.51376408185549e-09 2.25330838962464e-09 8.43789787262481e-09 1.08140645068086e-08 2.83897390934068e-08
"486" 10628 2.18185673223272e-08 4.22561323483866e-09 8.93553519030009e-10 1.50628184770165e-09 2.25185558247106e-09 8.47276225636182e-09 1.08851664613861e-08 2.85094716739332e-08
"487" 10629 2.18388224912103e-08 4.22797145886042e-09 8.96105139508942e-10 1.5037865197894e-09 2.26454167139144e-09 8.48777318434551e-09 1.08748529405951e-08 2.85124673758762e-08
"488" 10630 2.18590776600934e-08 4.23032968288218e-09 8.98656759987875e-10 1.50129119187714e-09 2.27722776031182e-09 8.5027841123292e-09 1.08645394198041e-08 2.85154630778191e-08
"489" 10631 2.18793328289764e-08 4.23268790690394e-09 9.01208380466808e-10 1.49879586396488e-09 2.28991384923221e-09 8.5177950403129e-09 1.08542258990131e-08 2.8518458779762e-08
"490" 10632 2.18995879978595e-08 4.2350461309257e-09 9.03760000945741e-10 1.49630053605263e-09 2.30259993815259e-09 8.53280596829659e-09 1.08439123782221e-08 2.85214544817049e-08
"491" 10633 2.18839840401357e-08 4.24109081990024e-09 9.00190036706412e-10 1.50677216425726e-09 2.30851979726201e-09 8.54773956113231e-09 1.08343410600318e-08 2.85207015771696e-08
"492" 10634 2.20114208027848e-08 4.24751495885588e-09 8.96336559080534e-10 1.49978899568588e-09 2.30851979726201e-09 8.56690772201754e-09 1.08541130209436e-08 2.85917977706692e-08
"493" 10635 2.2138857565434e-08 4.25393909781152e-09 8.92483081454657e-10 1.49280582711449e-09 2.30851979726201e-09 8.58607588290277e-09 1.08738849818554e-08 2.86628939641687e-08
"494" 10636 2.22662943280831e-08 4.26036323676715e-09 8.8862960382878e-10 1.4858226585431e-09 2.30851979726201e-09 8.605244043788e-09 1.08936569427671e-08 2.87339901576683e-08
"495" 10637 2.23937310907323e-08 4.26678737572279e-09 8.84776126202902e-10 1.47883948997172e-09 2.30851979726201e-09 8.62441220467323e-09 1.09134289036789e-08 2.88050863511679e-08
"496" 10638 2.25211678533814e-08 4.27321151467843e-09 8.80922648577025e-10 1.47185632140033e-09 2.30851979726201e-09 8.64358036555846e-09 1.09332008645907e-08 2.88761825446674e-08
"497" 10639 2.26486046160306e-08 4.27963565363407e-09 8.77069170951148e-10 1.46487315282894e-09 2.30851979726201e-09 8.66274852644369e-09 1.09529728255024e-08 2.8947278738167e-08
"498" 10640 2.27760413786797e-08 4.2860597925897e-09 8.7321569332527e-10 1.45788998425756e-09 2.30851979726201e-09 8.68191668732892e-09 1.09727447864142e-08 2.90183749316666e-08
"499" 10641 2.29034781413289e-08 4.29248393154534e-09 8.69362215699393e-10 1.45090681568617e-09 2.30851979726201e-09 8.70108484821415e-09 1.0992516747326e-08 2.90894711251662e-08
"500" 10642 2.3030914903978e-08 4.29890807050098e-09 8.65508738073515e-10 1.44392364711478e-09 2.30851979726201e-09 8.72025300909938e-09 1.10122887082377e-08 2.91605673186657e-08
"501" 10643 2.31583516666272e-08 4.30533220945662e-09 8.61655260447638e-10 1.4369404785434e-09 2.30851979726201e-09 8.73942116998461e-09 1.10320606691495e-08 2.92316635121653e-08
"502" 10644 2.32857884292764e-08 4.31175634841226e-09 8.57801782821761e-10 1.42995730997201e-09 2.30851979726201e-09 8.75858933086984e-09 1.10518326300613e-08 2.93027597056649e-08
"503" 10645 2.34132251919255e-08 4.31818048736789e-09 8.53948305195883e-10 1.42297414140062e-09 2.30851979726201e-09 8.77775749175507e-09 1.10716045909731e-08 2.93738558991644e-08
"504" 10646 2.33472166649443e-08 4.25188973591925e-09 8.49821732946449e-10 1.41848630074149e-09 2.30689318131626e-09 8.77775749175507e-09 1.11016900726758e-08 2.94419691236798e-08
"505" 10647 2.34894634990123e-08 4.25810244331439e-09 8.43758003121085e-10 1.41848630074149e-09 2.30541864806366e-09 8.7856602064824e-09 1.11262358385325e-08 2.94839089508807e-08
"506" 10648 2.35768574011944e-08 4.26431515070954e-09 8.39904525495208e-10 1.41599222269022e-09 2.30394411481106e-09 8.80358631802136e-09 1.11407531104883e-08 2.9535820657186e-08
"507" 10649 2.36642513033766e-08 4.27052785810468e-09 8.3605104786933e-10 1.41349814463894e-09 2.30246958155846e-09 8.82151242956032e-09 1.11552703824441e-08 2.95877323634913e-08
"508" 10650 2.37516452055588e-08 4.27674056549983e-09 8.32197570243453e-10 1.41100406658766e-09 2.30099504830586e-09 8.83943854109929e-09 1.11697876543999e-08 2.96396440697966e-08
"509" 10651 2.38927214178824e-08 4.24052678107604e-09 8.29850770732188e-10 1.41000640412062e-09 2.29507518919644e-09 8.76966143915779e-09 1.10781536672037e-08 2.93517016837007e-08
"510" 10652 2.40337976302061e-08 4.20431299665226e-09 8.27503971220922e-10 1.40900874165358e-09 2.28915533008702e-09 8.6998843372163e-09 1.09865196800076e-08 2.90637592976048e-08
"511" 10653 2.42138063186928e-08 4.18623327915209e-09 8.26086404288182e-10 1.41249891984568e-09 2.28178266382402e-09 8.61620981624749e-09 1.08671871135811e-08 2.87458439758813e-08
"512" 10654 2.43938150071795e-08 4.16815356165191e-09 8.24668837355441e-10 1.41598909803777e-09 2.27440999756102e-09 8.53253529527868e-09 1.07478545471547e-08 2.84279286541578e-08
"513" 10655 2.45738236956662e-08 4.15007384415174e-09 8.232512704227e-10 1.41947927622987e-09 2.26703733129802e-09 8.44886077430987e-09 1.06285219807282e-08 2.81100133324343e-08
"514" 10656 2.47538323841529e-08 4.13199412665157e-09 8.2183370348996e-10 1.42296945442196e-09 2.25966466503502e-09 8.36518625334106e-09 1.05091894143018e-08 2.77920980107108e-08
"515" 10657 2.49338410726396e-08 4.1139144091514e-09 8.20416136557219e-10 1.42645963261405e-09 2.25229199877202e-09 8.28151173237225e-09 1.03898568478753e-08 2.74741826889873e-08
"516" 10658 2.51138497611263e-08 4.09583469165122e-09 8.18998569624479e-10 1.42994981080615e-09 2.24491933250902e-09 8.19783721140344e-09 1.02705242814489e-08 2.71562673672638e-08
"517" 10659 2.5293858449613e-08 4.07775497415105e-09 8.17581002691738e-10 1.43343998899824e-09 2.23754666624602e-09 8.11416269043463e-09 1.01511917150224e-08 2.68383520455403e-08
"518" 10660 2.54738671380997e-08 4.05967525665088e-09 8.16163435758998e-10 1.43693016719033e-09 2.23017399998302e-09 8.03048816946582e-09 1.0031859148596e-08 2.65204367238169e-08
"519" 10661 2.56538758265864e-08 4.04159553915071e-09 8.14745868826257e-10 1.44042034538243e-09 2.22280133372002e-09 7.94681364849701e-09 9.91252658216954e-09 2.62025214020934e-08
"520" 10662 2.58338845150731e-08 4.02351582165053e-09 8.13328301893516e-10 1.44391052357452e-09 2.21542866745701e-09 7.8631391275282e-09 9.79319401574309e-09 2.58846060803699e-08
"521" 10663 2.60138932035598e-08 4.00543610415036e-09 8.11910734960776e-10 1.44740070176662e-09 2.20805600119401e-09 7.77946460655939e-09 9.67386144931664e-09 2.55666907586464e-08
"522" 10664 2.61939018920465e-08 3.98735638665019e-09 8.10493168028035e-10 1.45089087995871e-09 2.20068333493101e-09 7.69579008559058e-09 9.55452888289019e-09 2.52487754369229e-08
"523" 10665 2.63739105805332e-08 3.96927666915002e-09 8.09075601095295e-10 1.4543810581508e-09 2.19331066866801e-09 7.61211556462177e-09 9.43519631646374e-09 2.49308601151994e-08
"524" 10666 2.65539192690199e-08 3.95119695164984e-09 8.07658034162554e-10 1.4578712363429e-09 2.18593800240501e-09 7.52844104365296e-09 9.31586375003730e-09 2.46129447934759e-08
"525" 10667 2.67339279575066e-08 3.93311723414967e-09 8.06240467229813e-10 1.46136141453499e-09 2.17856533614201e-09 7.44476652268415e-09 9.19653118361085e-09 2.42950294717524e-08
"526" 10668 2.69139366459933e-08 3.9150375166495e-09 8.04822900297073e-10 1.46485159272708e-09 2.17119266987901e-09 7.36109200171534e-09 9.0771986171844e-09 2.39771141500289e-08
"527" 10669 2.709394533448e-08 3.89695779914933e-09 8.03405333364332e-10 1.46834177091918e-09 2.16382000361601e-09 7.27741748074653e-09 8.95786605075795e-09 2.36591988283054e-08
"528" 10670 2.72739540229667e-08 3.87887808164915e-09 8.01987766431592e-10 1.47183194911127e-09 2.15644733735301e-09 7.19374295977772e-09 8.8385334843315e-09 2.33412835065819e-08
"529" 10671 2.74539627114534e-08 3.86079836414898e-09 8.00570199498851e-10 1.47532212730336e-09 2.14907467109001e-09 7.1100684388089e-09 8.71920091790505e-09 2.30233681848584e-08
"530" 10672 2.76766605480905e-08 3.84791760938137e-09 7.98438639718245e-10 1.47382539925388e-09 2.14170200482701e-09 7.02114250976918e-09 8.64374677164261e-09 2.27952125080338e-08
"531" 10673 2.78993583847276e-08 3.83503685461376e-09 7.96307079937638e-10 1.47232867120439e-09 2.13432933856401e-09 6.93221658072945e-09 8.56829262538016e-09 2.25670568312092e-08
"532" 10674 2.81220562213647e-08 3.82215609984615e-09 7.94175520157032e-10 1.4708319431549e-09 2.12695667230101e-09 6.84329065168972e-09 8.49283847911772e-09 2.23389011543846e-08
"533" 10675 2.83447540580018e-08 3.80927534507854e-09 7.92043960376425e-10 1.46933521510541e-09 2.11958400603801e-09 6.75436472264999e-09 8.41738433285528e-09 2.211074547756e-08
"534" 10676 2.8567451894639e-08 3.79639459031093e-09 7.89912400595819e-10 1.46783848705593e-09 2.11221133977501e-09 6.66543879361026e-09 8.34193018659284e-09 2.18825898007354e-08
"535" 10677 2.87901497312761e-08 3.78351383554332e-09 7.87780840815212e-10 1.46634175900644e-09 2.104838673512e-09 6.57651286457053e-09 8.2664760403304e-09 2.16544341239107e-08
"536" 10678 2.90128475679132e-08 3.77063308077572e-09 7.85649281034606e-10 1.46484503095695e-09 2.097466007249e-09 6.4875869355308e-09 8.19102189406795e-09 2.14262784470861e-08
"537" 10679 2.90128475679132e-08 3.72820658895679e-09 7.89366211348705e-10 1.46634144654120e-09 2.10390634557465e-09 6.41780983358931e-09 8.08739412375842e-09 2.10662391780165e-08
"538" 10680 2.90128475679132e-08 3.68578009713786e-09 7.93083141662804e-10 1.46783786212544e-09 2.1103466839003e-09 6.34803273164782e-09 7.98376635344889e-09 2.07061999089469e-08
"539" 10681 2.90128475679132e-08 3.64335360531893e-09 7.96800071976903e-10 1.46933427770968e-09 2.11678702222595e-09 6.27825562970632e-09 7.88013858313936e-09 2.03461606398774e-08
"540" 10682 2.90128475679132e-08 3.6009271135e-09 8.00517002291001e-10 1.47083069329392e-09 2.1232273605516e-09 6.20847852776483e-09 7.77651081282982e-09 1.99861213708078e-08
"541" 10683 2.90128475679132e-08 3.55850062168108e-09 8.042339326051e-10 1.47232710887817e-09 2.12966769887725e-09 6.13870142582334e-09 7.67288304252029e-09 1.96260821017382e-08
"542" 10684 2.92355454045503e-08 3.51799325233476e-09 8.02170646480383e-10 1.47132897771327e-09 2.14044567972489e-09 6.07899605516095e-09 7.56511680675296e-09 1.92700264911269e-08
"543" 10685 2.92756896892827e-08 3.47627694519353e-09 8.00039086699777e-10 1.4698324058964e-09 2.15573416472641e-09 5.98930749610517e-09 7.45512396318351e-09 1.89302010478828e-08
"544" 10686 2.93158339740151e-08 3.4345606380523e-09 7.9790752691917e-10 1.46833583407953e-09 2.17102264972793e-09 5.89961893704938e-09 7.34513111961406e-09 1.85903756046386e-08
"545" 10687 2.93559782587475e-08 3.39284433091108e-09 7.95775967138564e-10 1.46683926226267e-09 2.18631113472945e-09 5.8099303779936e-09 7.23513827604461e-09 1.82505501613945e-08
"546" 10688 2.93961225434799e-08 3.35112802376985e-09 7.93644407357957e-10 1.4653426904458e-09 2.20159961973098e-09 5.72024181893781e-09 7.12514543247516e-09 1.79107247181503e-08
"547" 10689 2.94362668282123e-08 3.30941171662862e-09 7.91512847577351e-10 1.46384611862894e-09 2.2168881047325e-09 5.63055325988203e-09 7.01515258890571e-09 1.75708992749061e-08
"548" 10690 2.94764111129446e-08 3.26769540948739e-09 7.89381287796744e-10 1.46234954681207e-09 2.23217658973402e-09 5.54086470082624e-09 6.90515974533626e-09 1.7231073831662e-08
"549" 10691 2.9516555397677e-08 3.22597910234617e-09 7.87249728016138e-10 1.46085297499521e-09 2.24746507473554e-09 5.45117614177046e-09 6.7951669017668e-09 1.68912483884178e-08
"550" 10692 2.9509806978385e-08 3.22085602960982e-09 7.83338395497363e-10 1.45337261563284e-09 2.19342592928502e-09 5.21161997521516e-09 6.80809290540761e-09 1.68692968847814e-08
"551" 10693 2.95521498955156e-08 3.22156621428753e-09 7.83270121841473e-10 1.45337277186546e-09 2.21561005353136e-09 5.20960562895934e-09 6.81907732813637e-09 1.68645571385481e-08
"552" 10694 2.95944928126462e-08 3.22227639896523e-09 7.83201848185584e-10 1.45337292809808e-09 2.23779417777769e-09 5.20759128270352e-09 6.83006175086513e-09 1.68598173923148e-08
"553" 10695 2.96368357297768e-08 3.22298658364293e-09 7.83133574529695e-10 1.4533730843307e-09 2.25997830202403e-09 5.20557693644769e-09 6.84104617359389e-09 1.68550776460815e-08
"554" 10696 2.95588159411576e-08 3.20336719365125e-09 7.76943716155543e-10 1.43541937820485e-09 2.28107801563987e-09 5.20359159087236e-09 6.82268731722059e-09 1.68393621480299e-08
"555" 10697 2.94807961525384e-08 3.18374780365957e-09 7.70753857781392e-10 1.417465672079e-09 2.30217772925571e-09 5.20160624529703e-09 6.80432846084729e-09 1.68236466499784e-08
"556" 10698 2.94027763639192e-08 3.16412841366789e-09 7.6456399940724e-10 1.39951196595315e-09 2.32327744287155e-09 5.1996208997217e-09 6.78596960447399e-09 1.68079311519269e-08
"557" 10699 2.93018444363279e-08 3.16412841366789e-09 7.58715509312535e-10 1.39651897855204e-09 2.34437715648738e-09 5.19365519610221e-09 6.79052366823585e-09 1.6821902605688e-08
"558" 10700 2.92009125087367e-08 3.16412841366789e-09 7.5286701921783e-10 1.39352599115093e-09 2.36547687010322e-09 5.18768949248272e-09 6.7950777319977e-09 1.68358740594492e-08
"559" 10701 2.90999805811454e-08 3.16412841366789e-09 7.47018529123124e-10 1.39053300374982e-09 2.38657658371906e-09 5.18172378886323e-09 6.79963179575955e-09 1.68498455132103e-08
"560" 10702 2.89990486535541e-08 3.16412841366789e-09 7.41170039028419e-10 1.38754001634871e-09 2.4076762973349e-09 5.17575808524374e-09 6.80418585952141e-09 1.68638169669714e-08
"561" 10703 2.88981167259629e-08 3.16412841366789e-09 7.35321548933714e-10 1.38454702894761e-09 2.42877601095074e-09 5.16979238162425e-09 6.80873992328326e-09 1.68777884207326e-08
"562" 10704 2.87971847983716e-08 3.16412841366789e-09 7.29473058839008e-10 1.3815540415465e-09 2.44987572456658e-09 5.16382667800476e-09 6.81329398704511e-09 1.68917598744937e-08
"563" 10705 2.89249777030476e-08 3.18852390327114e-09 7.23624568744303e-10 1.37856089791277e-09 2.4483142869179e-09 5.15761643127342e-09 6.87527595994871e-09 1.68857684706079e-08
"564" 10706 2.90644760537681e-08 3.20135594275425e-09 7.22774028584659e-10 1.37706416986328e-09 2.44829256081888e-09 5.15737188816156e-09 6.91093088075391e-09 1.68371193506223e-08
"565" 10707 2.92039744044887e-08 3.21418798223736e-09 7.21923488425014e-10 1.37556744181379e-09 2.44827083471985e-09 5.1571273450497e-09 6.9465858015591e-09 1.67884702306368e-08
"566" 10708 2.93434727552092e-08 3.22702002172047e-09 7.2107294826537e-10 1.3740707137643e-09 2.44824910862083e-09 5.15688280193785e-09 6.9822407223643e-09 1.67398211106512e-08
"567" 10709 2.94829711059298e-08 3.23985206120358e-09 7.20222408105726e-10 1.37257398571482e-09 2.44822738252181e-09 5.15663825882599e-09 7.01789564316949e-09 1.66911719906656e-08
"568" 10710 2.96224694566504e-08 3.25268410068668e-09 7.19371867946081e-10 1.37107725766533e-09 2.44820565642279e-09 5.15639371571414e-09 7.05355056397469e-09 1.664252287068e-08
"569" 10711 2.97619678073709e-08 3.26551614016979e-09 7.18521327786437e-10 1.36958052961584e-09 2.44818393032377e-09 5.15614917260228e-09 7.08920548477989e-09 1.65938737506944e-08
"570" 10712 2.99014661580915e-08 3.2783481796529e-09 7.17670787626793e-10 1.36808380156635e-09 2.44816220422475e-09 5.15590462949043e-09 7.12486040558508e-09 1.65452246307089e-08
"571" 10713 3.0040964508812e-08 3.29118021913601e-09 7.16820247467148e-10 1.36658707351687e-09 2.44814047812573e-09 5.15566008637857e-09 7.16051532639028e-09 1.64965755107233e-08
"572" 10714 3.01804628595326e-08 3.30401225861912e-09 7.15969707307504e-10 1.36509034546738e-09 2.44811875202671e-09 5.15541554326672e-09 7.19617024719547e-09 1.64479263907377e-08
"573" 10715 3.03199612102532e-08 3.31684429810223e-09 7.1511916714786e-10 1.36359361741789e-09 2.44809702592769e-09 5.15517100015486e-09 7.23182516800067e-09 1.63992772707521e-08
"574" 10716 3.04594595609737e-08 3.32967633758533e-09 7.14268626988215e-10 1.3620968893684e-09 2.44807529982867e-09 5.15492645704301e-09 7.26748008880586e-09 1.63506281507665e-08
"575" 10717 3.05989579116943e-08 3.34250837706844e-09 7.13418086828571e-10 1.36060016131892e-09 2.44805357372965e-09 5.15468191393115e-09 7.30313500961106e-09 1.6301979030781e-08
"576" 10718 3.07384562624148e-08 3.35534041655155e-09 7.12567546668927e-10 1.35910343326943e-09 2.44803184763063e-09 5.1544373708193e-09 7.33878993041625e-09 1.62533299107954e-08
"577" 10719 3.08779546131354e-08 3.36817245603466e-09 7.11717006509282e-10 1.35760670521994e-09 2.44801012153161e-09 5.15419282770744e-09 7.37444485122145e-09 1.62046807908098e-08
"578" 10720 3.1017452963856e-08 3.38100449551777e-09 7.10866466349638e-10 1.35610997717045e-09 2.44798839543258e-09 5.15394828459559e-09 7.41009977202665e-09 1.61560316708242e-08
"579" 10721 3.11569513145765e-08 3.39383653500088e-09 7.10015926189994e-10 1.35461324912097e-09 2.44796666933356e-09 5.15370374148373e-09 7.44575469283184e-09 1.61073825508386e-08
"580" 10722 3.12964496652971e-08 3.40666857448398e-09 7.09165386030349e-10 1.35311652107148e-09 2.44794494323454e-09 5.15345919837188e-09 7.48140961363704e-09 1.60587334308531e-08
"581" 10723 3.14359480160176e-08 3.41950061396709e-09 7.08314845870705e-10 1.35161979302199e-09 2.44792321713552e-09 5.15321465526002e-09 7.51706453444223e-09 1.60100843108675e-08
"582" 10724 3.15754463667382e-08 3.4323326534502e-09 7.0746430571106e-10 1.3501230649725e-09 2.4479014910365e-09 5.15297011214817e-09 7.55271945524743e-09 1.59614351908819e-08
"583" 10725 3.15336121137318e-08 3.48429510606411e-09 7.31677549960553e-10 1.38154232409983e-09 2.49357046398961e-09 5.27353015922887e-09 7.52375019704285e-09 1.59686687027012e-08
"584" 10726 3.14917778607253e-08 3.53625755867803e-09 7.55890794210045e-10 1.41296158322716e-09 2.53923943694271e-09 5.39409020630957e-09 7.49478093883827e-09 1.59759022145206e-08
"585" 10727 3.14499436077189e-08 3.58822001129194e-09 7.80104038459537e-10 1.44438084235449e-09 2.58490840989582e-09 5.51465025339027e-09 7.46581168063369e-09 1.59831357263399e-08
"586" 10728 3.14178197882883e-08 3.5919986046691e-09 7.91496667736417e-10 1.44338271118959e-09 2.58542888911205e-09 5.52061595700976e-09 7.4570597049013e-09 1.59831357263399e-08
"587" 10729 3.13856959688576e-08 3.59577719804627e-09 8.02889297013298e-10 1.44238458002469e-09 2.58594936832828e-09 5.52658166062925e-09 7.44830772916891e-09 1.59831357263399e-08
"588" 10730 3.1353572149427e-08 3.59955579142343e-09 8.14281926290178e-10 1.44138644885978e-09 2.5864698475445e-09 5.53254736424874e-09 7.43955575343653e-09 1.59831357263399e-08
"589" 10731 3.13214483299964e-08 3.60333438480059e-09 8.25674555567058e-10 1.44038831769488e-09 2.58699032676073e-09 5.53851306786823e-09 7.43080377770414e-09 1.59831357263399e-08
"590" 10732 3.12893245105658e-08 3.60711297817775e-09 8.37067184843938e-10 1.43939018652998e-09 2.58751080597696e-09 5.54447877148772e-09 7.42205180197175e-09 1.59831357263399e-08
"591" 10733 3.12572006911351e-08 3.61089157155491e-09 8.48459814120818e-10 1.43839205536508e-09 2.58803128519319e-09 5.55044447510721e-09 7.41329982623937e-09 1.59831357263399e-08
"592" 10734 3.15661721346435e-08 3.72945396974129e-09 8.67286304025896e-10 1.44188363965077e-09 2.59835301796139e-09 5.55245882136303e-09 7.38218711504582e-09 1.59404620940418e-08
"593" 10735 3.20407502064771e-08 3.76490885420287e-09 8.82758069422304e-10 1.4508626018541e-09 2.58757503711375e-09 5.47258098746194e-09 7.36862577191787e-09 1.58925690618312e-08
"594" 10736 3.25153282783107e-08 3.80036373866445e-09 8.98229834818711e-10 1.45984156405742e-09 2.57679705626611e-09 5.39270315356085e-09 7.35506442878992e-09 1.58446760296206e-08
"595" 10737 3.29899063501443e-08 3.83581862312603e-09 9.13701600215119e-10 1.46882052626075e-09 2.56601907541847e-09 5.31282531965976e-09 7.34150308566197e-09 1.57967829974101e-08
"596" 10738 3.33836353191584e-08 3.87106207602712e-09 9.25535127716308e-10 1.4613389170374e-09 2.57046440127529e-09 5.30488393735843e-09 7.33430681579395e-09 1.57488899651995e-08
"597" 10739 3.3803014999485e-08 3.87675979187689e-09 9.39080154299777e-10 1.4718138261271e-09 2.57627562988961e-09 5.29963252928751e-09 7.33645026878291e-09 1.5734705742136e-08
"598" 10740 3.42223946798116e-08 3.88245750772666e-09 9.52625180883246e-10 1.4822887352168e-09 2.58208685850393e-09 5.29438112121659e-09 7.33859372177188e-09 1.57205215190725e-08
"599" 10741 3.46417743601381e-08 3.88815522357643e-09 9.66170207466715e-10 1.4927636443065e-09 2.58789808711825e-09 5.28912971314568e-09 7.34073717476085e-09 1.57063372960091e-08
"600" 10742 3.50611540404647e-08 3.8938529394262e-09 9.79715234050184e-10 1.5032385533962e-09 2.59370931573256e-09 5.28387830507476e-09 7.34288062774982e-09 1.56921530729456e-08
"601" 10743 3.54805337207913e-08 3.89955065527597e-09 9.93260260633653e-10 1.51371346248591e-09 2.59952054434688e-09 5.27862689700384e-09 7.34502408073879e-09 1.56779688498821e-08
"602" 10744 3.58999134011179e-08 3.90524837112574e-09 1.00680528721712e-09 1.52418837157561e-09 2.6053317729612e-09 5.27337548893292e-09 7.34716753372776e-09 1.56637846268187e-08
"603" 10745 3.63192930814444e-08 3.91094608697551e-09 1.02035031380059e-09 1.53466328066531e-09 2.61114300157551e-09 5.268124080862e-09 7.34931098671673e-09 1.56496004037552e-08
"604" 10746 3.6738672761771e-08 3.91664380282528e-09 1.03389534038406e-09 1.54513818975501e-09 2.61695423018983e-09 5.26287267279108e-09 7.3514544397057e-09 1.56354161806917e-08
"605" 10747 3.71580524420976e-08 3.92234151867505e-09 1.04744036696753e-09 1.55561309884471e-09 2.62276545880415e-09 5.25762126472016e-09 7.35359789269467e-09 1.56212319576282e-08
"606" 10748 3.75774321224242e-08 3.92803923452482e-09 1.060985393551e-09 1.56608800793442e-09 2.62857668741847e-09 5.25236985664925e-09 7.35574134568364e-09 1.56070477345648e-08
"607" 10749 3.79705815074681e-08 3.95154028260161e-09 1.07574316609954e-09 1.57356977339039e-09 2.63104872690548e-09 5.24442847434792e-09 7.36112076685935e-09 1.5559205634189e-08
"608" 10750 3.83637308925121e-08 3.97504133067839e-09 1.09050093864808e-09 1.58105153884636e-09 2.63352076639249e-09 5.2364870920466e-09 7.36650018803506e-09 1.55113635338133e-08
"609" 10751 3.87568802775561e-08 3.99854237875517e-09 1.10525871119662e-09 1.58853330430233e-09 2.63599280587951e-09 5.22854570974527e-09 7.37187960921077e-09 1.54635214334375e-08
"610" 10752 3.91500296626001e-08 4.02204342683195e-09 1.12001648374516e-09 1.5960150697583e-09 2.63846484536652e-09 5.22060432744395e-09 7.37725903038648e-09 1.54156793330618e-08
"611" 10753 3.95431790476441e-08 4.04554447490873e-09 1.13477425629371e-09 1.60349683521427e-09 2.64093688485354e-09 5.21266294514262e-09 7.38263845156219e-09 1.5367837232686e-08
"612" 10754 3.99363284326881e-08 4.06904552298551e-09 1.14953202884225e-09 1.61097860067024e-09 2.64340892434055e-09 5.2047215628413e-09 7.3880178727379e-09 1.53199951323103e-08
"613" 10755 4.03294778177321e-08 4.09254657106229e-09 1.16428980139079e-09 1.61846036612621e-09 2.64588096382756e-09 5.19678018053998e-09 7.39339729391362e-09 1.52721530319345e-08
"614" 10756 4.07226272027761e-08 4.11604761913907e-09 1.17904757393933e-09 1.62594213158219e-09 2.64835300331458e-09 5.18883879823865e-09 7.39877671508933e-09 1.52243109315588e-08
"615" 10757 4.11157765878201e-08 4.13954866721586e-09 1.19380534648787e-09 1.63342389703816e-09 2.65082504280159e-09 5.18089741593733e-09 7.40415613626504e-09 1.5176468831183e-08
"616" 10758 4.11151970038499e-08 4.12780626239155e-09 1.19380534648787e-09 1.63043075340443e-09 2.64748585367429e-09 5.25265986345415e-09 7.57500871428395e-09 1.51216219044887e-08
"617" 10759 4.11146174198798e-08 4.11606385756724e-09 1.19380534648787e-09 1.6274376097707e-09 2.64414666454699e-09 5.32442231097098e-09 7.74586129230286e-09 1.50667749777943e-08
"618" 10760 4.10403848076675e-08 4.16734330021517e-09 1.19672959153523e-09 1.62594119418645e-09 2.639246037771e-09 5.31572796554709e-09 7.74671035801713e-09 1.50039607341833e-08
"619" 10761 4.09661521954551e-08 4.21862274286311e-09 1.19965383658258e-09 1.62444477860221e-09 2.63434541099501e-09 5.30703362012321e-09 7.7475594237314e-09 1.49411464905723e-08
"620" 10762 4.08919195832427e-08 4.26990218551104e-09 1.20257808162993e-09 1.62294836301797e-09 2.62944478421903e-09 5.29833927469933e-09 7.74840848944568e-09 1.48783322469613e-08
"621" 10763 4.08176869710304e-08 4.32118162815897e-09 1.20550232667728e-09 1.62145194743372e-09 2.62454415744304e-09 5.28964492927544e-09 7.74925755515995e-09 1.48155180033503e-08
"622" 10764 4.0743454358818e-08 4.3724610708069e-09 1.20842657172464e-09 1.61995553184948e-09 2.61964353066705e-09 5.28095058385156e-09 7.75010662087422e-09 1.47527037597393e-08
"623" 10765 4.06692217466056e-08 4.42374051345483e-09 1.21135081677199e-09 1.61845911626524e-09 2.61474290389107e-09 5.27225623842768e-09 7.75095568658849e-09 1.46898895161283e-08
"624" 10766 4.05949891343932e-08 4.47501995610277e-09 1.21427506181934e-09 1.61696270068099e-09 2.60984227711508e-09 5.26356189300380e-09 7.75180475230277e-09 1.46270752725173e-08
"625" 10767 4.05207565221809e-08 4.5262993987507e-09 1.21719930686669e-09 1.61546628509675e-09 2.60494165033909e-09 5.25486754757991e-09 7.75265381801704e-09 1.45642610289064e-08
"626" 10768 4.04465239099685e-08 4.57757884139863e-09 1.22012355191405e-09 1.61396986951251e-09 2.60004102356311e-09 5.24617320215603e-09 7.75350288373131e-09 1.45014467852954e-08
"627" 10769 4.03722912977561e-08 4.62885828404656e-09 1.2230477969614e-09 1.61247345392826e-09 2.59514039678712e-09 5.23747885673215e-09 7.75435194944558e-09 1.44386325416844e-08
"628" 10770 4.02980586855437e-08 4.68013772669449e-09 1.22597204200875e-09 1.61097703834402e-09 2.59023977001113e-09 5.22878451130826e-09 7.75520101515986e-09 1.43758182980734e-08
"629" 10771 4.02238260733314e-08 4.73141716934243e-09 1.2288962870561e-09 1.60948062275978e-09 2.58533914323515e-09 5.22009016588438e-09 7.75605008087413e-09 1.43130040544624e-08
"630" 10772 4.0149593461119e-08 4.78269661199036e-09 1.23182053210346e-09 1.60798420717553e-09 2.58043851645916e-09 5.2113958204605e-09 7.7568991465884e-09 1.42501898108514e-08
"631" 10773 4.00753608489066e-08 4.83397605463829e-09 1.23474477715081e-09 1.60648779159129e-09 2.57553788968318e-09 5.20270147503661e-09 7.75774821230267e-09 1.41873755672404e-08
"632" 10774 4.00011282366943e-08 4.88525549728622e-09 1.23766902219816e-09 1.60499137600705e-09 2.57063726290719e-09 5.19400712961273e-09 7.75859727801695e-09 1.41245613236294e-08
"633" 10775 3.99268956244819e-08 4.93653493993415e-09 1.24059326724551e-09 1.60349496042281e-09 2.5657366361312e-09 5.18531278418885e-09 7.75944634373122e-09 1.40617470800184e-08
"634" 10776 3.98526630122695e-08 4.98781438258209e-09 1.24351751229287e-09 1.60199854483856e-09 2.56083600935522e-09 5.17661843876496e-09 7.76029540944549e-09 1.39989328364075e-08
"635" 10777 3.97784304000571e-08 5.03909382523002e-09 1.24644175734022e-09 1.60050212925432e-09 2.55593538257923e-09 5.16792409334108e-09 7.76114447515977e-09 1.39361185927965e-08
"636" 10778 3.97041977878448e-08 5.09037326787795e-09 1.24936600238757e-09 1.59900571367008e-09 2.55103475580324e-09 5.1592297479172e-09 7.76199354087404e-09 1.38733043491855e-08
"637" 10779 3.96299651756324e-08 5.14165271052588e-09 1.25229024743493e-09 1.59750929808583e-09 2.54613412902726e-09 5.15053540249332e-09 7.76284260658831e-09 1.38104901055745e-08
"638" 10780 3.955573256342e-08 5.19293215317381e-09 1.25521449248228e-09 1.59601288250159e-09 2.54123350225127e-09 5.14184105706943e-09 7.76369167230258e-09 1.37476758619635e-08
"639" 10781 3.95760693345546e-08 5.19001552446679e-09 1.25906797010816e-09 1.59800805120304e-09 2.52789752468081e-09 5.17995216951503e-09 7.75889415905723e-09 1.37947968902007e-08
"640" 10782 3.96478798724254e-08 5.20671828575145e-09 1.2593514834947e-09 1.59551350445389e-09 2.53633287547528e-09 5.34443436236487e-09 7.81761044051772e-09 1.38336900836238e-08
"641" 10783 3.97196904102962e-08 5.22342104703611e-09 1.25963499688125e-09 1.59301895770475e-09 2.54476822626976e-09 5.50891655521471e-09 7.87632672197821e-09 1.38725832770469e-08
"642" 10784 3.97915009481671e-08 5.24012380832077e-09 1.2599185102678e-09 1.5905244109556e-09 2.55320357706424e-09 5.67339874806455e-09 7.9350430034387e-09 1.391147647047e-08
"643" 10785 3.98633114860379e-08 5.25682656960543e-09 1.26020202365435e-09 1.58802986420646e-09 2.56163892785871e-09 5.83788094091438e-09 7.99375928489919e-09 1.39503696638931e-08
"644" 10786 3.99351220239087e-08 5.27352933089008e-09 1.2604855370409e-09 1.58553531745731e-09 2.57007427865319e-09 6.00236313376422e-09 8.05247556635968e-09 1.39892628573163e-08
"645" 10787 4.00069325617796e-08 5.29023209217474e-09 1.26076905042744e-09 1.58304077070817e-09 2.57850962944767e-09 6.16684532661406e-09 8.11119184782017e-09 1.40281560507394e-08
"646" 10788 4.00787430996504e-08 5.3069348534594e-09 1.26105256381399e-09 1.58054622395902e-09 2.58694498024215e-09 6.3313275194639e-09 8.16990812928066e-09 1.40670492441625e-08
"647" 10789 3.98784792422807e-08 5.32363761474406e-09 1.25898927768928e-09 1.56708082719016e-09 2.60865113031002e-09 6.49953586035254e-09 8.23177722411474e-09 1.41298698542528e-08
"648" 10790 3.9607371848855e-08 5.32008669135555e-09 1.26049595580389e-09 1.56359174262643e-09 2.63532308545095e-09 6.54137312083695e-09 8.27565564427875e-09 1.41648048551351e-08
"649" 10791 3.93476236704541e-08 5.32039025134043e-09 1.25814915629262e-09 1.55461606130817e-09 2.63623368728928e-09 6.79664484403102e-09 8.27286499765243e-09 1.4172778538531e-08
"650" 10792 3.90878754920533e-08 5.32069381132532e-09 1.25580235678136e-09 1.54564037998991e-09 2.63714428912761e-09 7.05191656722509e-09 8.27007435102611e-09 1.4180752221927e-08
"651" 10793 3.88281273136524e-08 5.3209973713102e-09 1.25345555727009e-09 1.53666469867165e-09 2.63805489096594e-09 7.30718829041916e-09 8.26728370439979e-09 1.41887259053229e-08
"652" 10794 3.85683791352515e-08 5.32130093129508e-09 1.25110875775883e-09 1.52768901735339e-09 2.63896549280427e-09 7.56246001361323e-09 8.26449305777348e-09 1.41966995887189e-08
"653" 10795 3.83086309568507e-08 5.32160449127996e-09 1.24876195824756e-09 1.51871333603513e-09 2.6398760946426e-09 7.8177317368073e-09 8.26170241114716e-09 1.42046732721149e-08
"654" 10796 3.80488827784498e-08 5.32190805126484e-09 1.2464151587363e-09 1.50973765471687e-09 2.64078669648093e-09 8.07300346000137e-09 8.25891176452084e-09 1.42126469555108e-08
"655" 10797 3.7789134600049e-08 5.32221161124972e-09 1.24406835922503e-09 1.50076197339861e-09 2.64169729831927e-09 8.32827518319544e-09 8.25612111789452e-09 1.42206206389068e-08
"656" 10798 3.75293864216481e-08 5.3225151712346e-09 1.24172155971376e-09 1.49178629208035e-09 2.6426079001576e-09 8.58354690638951e-09 8.2533304712682e-09 1.42285943223027e-08
"657" 10799 3.72696382432472e-08 5.32281873121948e-09 1.2393747602025e-09 1.48281061076209e-09 2.64351850199593e-09 8.83881862958358e-09 8.25053982464189e-09 1.42365680056987e-08
"658" 10800 3.71137824639243e-08 5.30164343030813e-09 1.23702796069123e-09 1.48730032621268e-09 2.63434541099501e-09 9.05212742267779e-09 8.18098154601682e-09 1.422956317938e-08
"659" 10801 3.71258745564151e-08 5.29703534911716e-09 1.23674444730469e-09 1.48730173230628e-09 2.63070205648142e-09 9.28265769865588e-09 8.15583016392934e-09 1.41896756629622e-08
"660" 10802 3.7137966648906e-08 5.29242726792619e-09 1.23646093391814e-09 1.48730313839988e-09 2.62705870196782e-09 9.51318797463397e-09 8.13067878184186e-09 1.41497881465443e-08
"661" 10803 3.71500587413969e-08 5.28781918673522e-09 1.23617742053159e-09 1.48730454449348e-09 2.62341534745423e-09 9.74371825061207e-09 8.10552739975438e-09 1.41099006301265e-08
"662" 10804 3.71621508338878e-08 5.28321110554425e-09 1.23589390714504e-09 1.48730595058708e-09 2.61977199294063e-09 9.97424852659016e-09 8.0803760176669e-09 1.40700131137086e-08
"663" 10805 3.71742429263787e-08 5.27860302435328e-09 1.23561039375849e-09 1.48730735668068e-09 2.61612863842704e-09 1.02047788025682e-08 8.05522463557942e-09 1.40301255972908e-08
"664" 10806 3.71863350188696e-08 5.27399494316231e-09 1.23532688037195e-09 1.48730876277428e-09 2.61248528391345e-09 1.04353090785463e-08 8.03007325349194e-09 1.39902380808729e-08
"665" 10807 3.71984271113604e-08 5.26938686197134e-09 1.2350433669854e-09 1.48731016886788e-09 2.60884192939985e-09 1.06658393545244e-08 8.00492187140446e-09 1.39503505644551e-08
"666" 10808 3.72105192038513e-08 5.26477878078037e-09 1.23475985359885e-09 1.48731157496148e-09 2.60519857488626e-09 1.08963696305025e-08 7.97977048931698e-09 1.39104630480372e-08
"667" 10809 3.72226112963422e-08 5.2601706995894e-09 1.2344763402123e-09 1.48731298105508e-09 2.60155522037266e-09 1.11268999064806e-08 7.9546191072295e-09 1.38705755316194e-08
"668" 10810 3.72347033888331e-08 5.25556261839844e-09 1.23419282682575e-09 1.48731438714868e-09 2.59791186585907e-09 1.13574301824587e-08 7.92946772514202e-09 1.38306880152015e-08
"669" 10811 3.7246795481324e-08 5.25095453720747e-09 1.2339093134392e-09 1.48731579324228e-09 2.59426851134547e-09 1.15879604584368e-08 7.90431634305454e-09 1.37908004987837e-08
"670" 10812 3.72588875738149e-08 5.2463464560165e-09 1.23362580005266e-09 1.48731719933588e-09 2.59062515683188e-09 1.18184907344149e-08 7.87916496096706e-09 1.37509129823658e-08
