"time" "channel1" "channel2" "channel3" "channel4" "channel5" "channel6" "channel7" "channel8"
"1668" 47087 6.96861252019636e-08 5.02484879792629e-08 9.68087031827069e-09 1.46056153850128e-07 8.70470856606723e-08 1.34159784526517e-08 3.51935219457087e-09 2.08940256339067e-09
"1669" 47088 6.96457901648846e-08 4.89159051095035e-08 9.62719756049878e-09 1.46509406404755e-07 8.73405690756505e-08 1.34333435683278e-08 3.54428390037461e-09 2.0934785551152e-09
"1670" 47089 6.96054551278056e-08 4.75833222397442e-08 9.57352480272688e-09 1.46962658959382e-07 8.76340524906288e-08 1.34507086840038e-08 3.56921560617835e-09 2.09755454683973e-09
"1671" 47090 6.95651200907266e-08 4.62507393699848e-08 9.51985204495497e-09 1.47415911514009e-07 8.7927535905607e-08 1.34680737996798e-08 3.59414731198209e-09 2.10163053856427e-09
"1672" 47091 6.95247850536476e-08 4.49181565002255e-08 9.46617928718307e-09 1.47869164068636e-07 8.82210193205853e-08 1.34854389153558e-08 3.61907901778583e-09 2.1057065302888e-09
"1673" 47092 6.94844500165686e-08 4.35855736304661e-08 9.41250652941117e-09 1.48322416623263e-07 8.85145027355635e-08 1.35028040310318e-08 3.64401072358958e-09 2.10978252201333e-09
"1674" 47093 6.94441149794896e-08 4.22529907607068e-08 9.35883377163926e-09 1.48775669177889e-07 8.88079861505418e-08 1.35201691467079e-08 3.66894242939332e-09 2.11385851373786e-09
"1675" 47094 6.94037799424106e-08 4.09204078909474e-08 9.30516101386736e-09 1.49228921732516e-07 8.91014695655201e-08 1.35375342623839e-08 3.69387413519706e-09 2.11793450546239e-09
"1676" 47095 6.93634449053316e-08 3.95878250211881e-08 9.25148825609545e-09 1.49682174287143e-07 8.93949529804983e-08 1.35548993780599e-08 3.7188058410008e-09 2.12201049718693e-09
"1677" 47096 6.93231098682526e-08 3.82552421514287e-08 9.19781549832355e-09 1.5013542684177e-07 8.96884363954766e-08 1.35722644937359e-08 3.74373754680454e-09 2.12608648891146e-09
"1678" 47097 6.92827748311736e-08 3.69226592816694e-08 9.14414274055165e-09 1.50588679396397e-07 8.99819198104548e-08 1.35896296094119e-08 3.76866925260828e-09 2.13016248063599e-09
"1679" 47098 6.92424397940946e-08 3.559007641191e-08 9.09046998277974e-09 1.51041931951024e-07 9.02754032254331e-08 1.3606994725088e-08 3.79360095841202e-09 2.13423847236052e-09
"1680" 47099 6.91514698675257e-08 3.5612624995506e-08 9.07429350391623e-09 1.51499682333326e-07 9.08498220225198e-08 1.3624359840764e-08 3.81775748715084e-09 2.13499025509434e-09
"1681" 47100 6.90604999409568e-08 3.56351735791019e-08 9.05811702505272e-09 1.51957432715629e-07 9.14242408196066e-08 1.364172495644e-08 3.84191401588966e-09 2.13574203782817e-09
"1682" 47101 6.83354042534379e-08 3.56433822495244e-08 9.06631345404092e-09 1.52387043970295e-07 9.19880273913528e-08 1.36727043643549e-08 3.8632403102599e-09 2.13649382056199e-09
"1683" 47102 6.7610308565919e-08 3.56515909199469e-08 9.07450988302912e-09 1.52816655224961e-07 9.2551813963099e-08 1.37036837722699e-08 3.88456660463014e-09 2.13724560329581e-09
"1684" 47103 6.68852128784001e-08 3.56597995903694e-08 9.08270631201731e-09 1.53246266479626e-07 9.31156005348452e-08 1.37346631801848e-08 3.90589289900038e-09 2.13799738602963e-09
"1685" 47104 6.61601171908812e-08 3.56680082607919e-08 9.09090274100551e-09 1.53675877734292e-07 9.36793871065914e-08 1.37656425880998e-08 3.92721919337062e-09 2.13874916876345e-09
"1686" 47105 6.5750485091645e-08 3.57140391440764e-08 9.09909916999371e-09 1.55029304851588e-07 9.58928163013328e-08 1.37656425880998e-08 3.92333735798941e-09 2.14207824849818e-09
"1687" 47106 6.49469159248199e-08 3.59065566296323e-08 9.17098291086902e-09 1.55187896276698e-07 9.64323978767473e-08 1.39370108234504e-08 3.93186430570354e-09 2.13917169658181e-09
"1688" 47107 6.41433467579948e-08 3.60990741151882e-08 9.24286665174433e-09 1.55346487701809e-07 9.69719794521618e-08 1.41083790588011e-08 3.94039125341767e-09 2.13626514466545e-09
"1689" 47108 6.33397775911697e-08 3.62915916007441e-08 9.31475039261964e-09 1.55505079126919e-07 9.75115610275763e-08 1.42797472941517e-08 3.9489182011318e-09 2.13335859274908e-09
"1690" 47109 6.25362084243446e-08 3.64841090863e-08 9.38663413349495e-09 1.5566367055203e-07 9.80511426029907e-08 1.44511155295024e-08 3.95744514884593e-09 2.13045204083271e-09
"1691" 47110 6.17326392575194e-08 3.66766265718558e-08 9.45851787437026e-09 1.5582226197714e-07 9.85907241784052e-08 1.46224837648531e-08 3.96597209656006e-09 2.12754548891635e-09
"1692" 47111 6.09290700906943e-08 3.68691440574117e-08 9.53040161524557e-09 1.55980853402251e-07 9.91303057538197e-08 1.47938520002037e-08 3.9744990442742e-09 2.12463893699998e-09
"1693" 47112 6.01255009238692e-08 3.70616615429676e-08 9.60228535612089e-09 1.56139444827361e-07 9.96698873292342e-08 1.49652202355544e-08 3.98302599198833e-09 2.12173238508362e-09
"1694" 47113 5.93219317570441e-08 3.72541790285235e-08 9.6741690969962e-09 1.56298036252472e-07 1.00209468904649e-07 1.5136588470905e-08 3.99155293970246e-09 2.11882583316725e-09
"1695" 47114 5.8518362590219e-08 3.74466965140794e-08 9.74605283787151e-09 1.56456627677582e-07 1.00749050480063e-07 1.53079567062557e-08 4.00007988741659e-09 2.11591928125089e-09
"1696" 47115 5.77147934233939e-08 3.76392139996353e-08 9.81793657874682e-09 1.56615219102693e-07 1.01288632055478e-07 1.54793249416064e-08 4.00860683513072e-09 2.11301272933452e-09
"1697" 47116 5.69112242565688e-08 3.78317314851912e-08 9.88982031962213e-09 1.56773810527803e-07 1.01828213630892e-07 1.5650693176957e-08 4.01713378284485e-09 2.11010617741815e-09
"1698" 47117 5.61076550897437e-08 3.80242489707471e-08 9.96170406049744e-09 1.56932401952914e-07 1.02367795206307e-07 1.58220614123077e-08 4.02566073055898e-09 2.10719962550179e-09
"1699" 47118 5.53040859229186e-08 3.8216766456303e-08 1.00335878013728e-08 1.57090993378024e-07 1.02907376781721e-07 1.59934296476583e-08 4.03418767827311e-09 2.10429307358542e-09
"1700" 47119 5.45005167560935e-08 3.84092839418589e-08 1.01054715422481e-08 1.57249584803135e-07 1.03446958357136e-07 1.6164797883009e-08 4.04271462598725e-09 2.10138652166906e-09
"1701" 47120 5.36969475892684e-08 3.86018014274148e-08 1.01773552831234e-08 1.57408176228245e-07 1.0398653993255e-07 1.63361661183597e-08 4.05124157370138e-09 2.09847996975269e-09
"1702" 47121 5.28933784224433e-08 3.87943189129707e-08 1.02492390239987e-08 1.57566767653356e-07 1.04526121507964e-07 1.65075343537103e-08 4.05976852141551e-09 2.09557341783633e-09
"1703" 47122 5.28933784224433e-08 3.90442140674383e-08 1.0321122764874e-08 1.57749000378427e-07 1.04478759776902e-07 1.6690450975521e-08 4.07217730451085e-09 2.09723674001769e-09
"1704" 47123 5.27472163796164e-08 3.93002398558139e-08 1.03854592140998e-08 1.58059616580127e-07 1.05028973577657e-07 1.68618192108716e-08 4.0725559679584e-09 2.09433018810132e-09
"1705" 47124 5.26010543367894e-08 3.95562656441894e-08 1.04497956633255e-08 1.58370232781827e-07 1.05579187378412e-07 1.70331874462223e-08 4.07293463140595e-09 2.09142363618495e-09
"1706" 47125 5.24548922939625e-08 3.9812291432565e-08 1.05141321125513e-08 1.58680848983526e-07 1.06129401179167e-07 1.72045556815729e-08 4.0733132948535e-09 2.08851708426859e-09
"1707" 47126 5.23087302511355e-08 4.00683172209406e-08 1.05784685617771e-08 1.58991465185226e-07 1.06679614979922e-07 1.73759239169236e-08 4.07369195830104e-09 2.08561053235222e-09
"1708" 47127 5.21625682083086e-08 4.03243430093162e-08 1.06428050110028e-08 1.59302081386926e-07 1.07229828780677e-07 1.75472921522743e-08 4.07407062174859e-09 2.08270398043586e-09
"1709" 47128 5.20164061654817e-08 4.05803687976918e-08 1.07071414602286e-08 1.59612697588626e-07 1.07780042581432e-07 1.77186603876249e-08 4.07444928519614e-09 2.07979742851949e-09
"1710" 47129 5.18532041383666e-08 4.06007551030415e-08 1.0702262118613e-08 1.59613893992799e-07 1.08153333911978e-07 1.77105890943234e-08 4.06630100092955e-09 2.07979742851949e-09
"1711" 47130 5.16900021112515e-08 4.06211414083912e-08 1.06973827769974e-08 1.59615090396972e-07 1.08526625242524e-07 1.77025178010218e-08 4.05815271666297e-09 2.07979742851949e-09
"1712" 47131 5.15268000841364e-08 4.06415277137409e-08 1.06925034353817e-08 1.59616286801145e-07 1.08899916573071e-07 1.76944465077203e-08 4.05000443239639e-09 2.07979742851949e-09
"1713" 47132 5.13635980570213e-08 4.06619140190906e-08 1.06876240937661e-08 1.59617483205319e-07 1.09273207903617e-07 1.76863752144188e-08 4.0418561481298e-09 2.07979742851949e-09
"1714" 47133 5.12003960299062e-08 4.06823003244403e-08 1.06827447521505e-08 1.59618679609492e-07 1.09646499234163e-07 1.76783039211172e-08 4.03370786386322e-09 2.07979742851949e-09
"1715" 47134 5.10371940027911e-08 4.070268662979e-08 1.06778654105348e-08 1.59619876013665e-07 1.10019790564709e-07 1.76702326278157e-08 4.02555957959664e-09 2.07979742851949e-09
"1716" 47135 5.0873991975676e-08 4.07230729351397e-08 1.06729860689192e-08 1.59621072417838e-07 1.10393081895255e-07 1.76621613345142e-08 4.01741129533005e-09 2.07979742851949e-09
"1717" 47136 5.08136291587513e-08 4.0612016429251e-08 1.06641615999249e-08 1.59378085731113e-07 1.10063448150298e-07 1.76533520865949e-08 4.00888434761592e-09 2.07339229866666e-09
"1718" 47137 5.07532663418266e-08 4.05009599233622e-08 1.06553371309305e-08 1.59135099044388e-07 1.0973381440534e-07 1.76445428386756e-08 4.00035739990179e-09 2.06698716881382e-09
"1719" 47138 5.06929035249019e-08 4.03899034174735e-08 1.06465126619362e-08 1.58892112357662e-07 1.09404180660383e-07 1.76357335907563e-08 3.99183045218766e-09 2.06058203896098e-09
"1720" 47139 5.06325407079772e-08 4.02788469115847e-08 1.06376881929418e-08 1.58649125670937e-07 1.09074546915426e-07 1.7626924342837e-08 3.98330350447353e-09 2.05417690910815e-09
"1721" 47140 5.05721778910525e-08 4.0167790405696e-08 1.06288637239475e-08 1.58406138984212e-07 1.08744913170468e-07 1.76181150949176e-08 3.9747765567594e-09 2.04777177925531e-09
"1722" 47141 5.05118150741278e-08 4.00567338998072e-08 1.06200392549531e-08 1.58163152297487e-07 1.08415279425511e-07 1.76093058469983e-08 3.96624960904527e-09 2.04136664940247e-09
"1723" 47142 5.04514522572031e-08 3.99456773939184e-08 1.06112147859588e-08 1.57920165610761e-07 1.08085645680554e-07 1.7600496599079e-08 3.95772266133114e-09 2.03496151954964e-09
"1724" 47143 5.04041988817452e-08 4.02550065845364e-08 1.07926132392946e-08 1.58993902236164e-07 1.0800546769914e-07 1.78743952966439e-08 3.96105759887353e-09 2.02664490864284e-09
"1725" 47144 5.03569455062873e-08 4.05643357751543e-08 1.09740116926304e-08 1.60067638861567e-07 1.07925289717725e-07 1.81482939942088e-08 3.96439253641592e-09 2.01832829773605e-09
"1726" 47145 5.03096921308295e-08 4.08736649657723e-08 1.11554101459663e-08 1.6114137548697e-07 1.07845111736311e-07 1.84221926917737e-08 3.96772747395832e-09 2.01001168682925e-09
"1727" 47146 5.02624387553716e-08 4.11829941563902e-08 1.13368085993021e-08 1.62215112112372e-07 1.07764933754897e-07 1.86960913893386e-08 3.97106241150071e-09 2.00169507592246e-09
"1728" 47147 5.02151853799137e-08 4.14923233470082e-08 1.15182070526379e-08 1.63288848737775e-07 1.07684755773483e-07 1.89699900869035e-08 3.97439734904311e-09 1.99337846501566e-09
"1729" 47148 5.01679320044558e-08 4.18016525376261e-08 1.16996055059738e-08 1.64362585363178e-07 1.07604577792068e-07 1.92438887844684e-08 3.9777322865855e-09 1.98506185410887e-09
"1730" 47149 5.01206786289979e-08 4.21109817282441e-08 1.18810039593096e-08 1.65436321988581e-07 1.07524399810654e-07 1.95177874820333e-08 3.98106722412789e-09 1.97674524320207e-09
"1731" 47150 5.007342525354e-08 4.2420310918862e-08 1.20624024126454e-08 1.66510058613984e-07 1.0744422182924e-07 1.97916861795982e-08 3.98440216167029e-09 1.96842863229528e-09
"1732" 47151 5.00261718780821e-08 4.272964010948e-08 1.22438008659812e-08 1.67583795239386e-07 1.07364043847826e-07 2.00655848771631e-08 3.98773709921268e-09 1.96011202138848e-09
"1733" 47152 4.99789185026242e-08 4.30389693000979e-08 1.24251993193171e-08 1.68657531864789e-07 1.07283865866411e-07 2.0339483574728e-08 3.99107203675508e-09 1.95179541048169e-09
"1734" 47153 4.99316651271663e-08 4.33482984907159e-08 1.26065977726529e-08 1.69731268490192e-07 1.07203687884997e-07 2.06133822722929e-08 3.99440697429747e-09 1.94347879957489e-09
"1735" 47154 4.98844117517085e-08 4.36576276813339e-08 1.27879962259887e-08 1.70805005115595e-07 1.07123509903583e-07 2.08872809698578e-08 3.99774191183986e-09 1.9351621886681e-09
"1736" 47155 4.98371583762506e-08 4.39669568719518e-08 1.29693946793245e-08 1.71878741740998e-07 1.07043331922169e-07 2.11611796674227e-08 4.00107684938226e-09 1.9268455777613e-09
"1737" 47156 4.97899050007927e-08 4.42762860625698e-08 1.31507931326604e-08 1.729524783664e-07 1.06963153940754e-07 2.14350783649876e-08 4.00441178692465e-09 1.91852896685451e-09
"1738" 47157 4.96523407251909e-08 4.46866551847095e-08 1.33436840050245e-08 1.74204266838106e-07 1.07454746289369e-07 2.17008915905889e-08 4.01987908361468e-09 1.91952403771691e-09
"1739" 47158 4.96658299555423e-08 4.51212965526579e-08 1.35258397852554e-08 1.75076110413793e-07 1.07970309727904e-07 2.19849761946745e-08 4.03562280425242e-09 1.92218243076068e-09
"1740" 47159 4.96793191858937e-08 4.55559379206064e-08 1.37079955654863e-08 1.7594795398948e-07 1.08485873166439e-07 2.226906079876e-08 4.05136652489016e-09 1.92484082380445e-09
"1741" 47160 4.96928084162451e-08 4.59905792885548e-08 1.38901513457172e-08 1.76819797565167e-07 1.09001436604974e-07 2.25531454028455e-08 4.0671102455279e-09 1.92749921684821e-09
"1742" 47161 4.97062976465965e-08 4.64252206565033e-08 1.40723071259482e-08 1.77691641140854e-07 1.09517000043509e-07 2.28372300069311e-08 4.08285396616563e-09 1.93015760989198e-09
"1743" 47162 4.97197868769479e-08 4.68598620244517e-08 1.42544629061791e-08 1.78563484716541e-07 1.10032563482044e-07 2.31213146110166e-08 4.09859768680337e-09 1.93281600293574e-09
"1744" 47163 4.97332761072993e-08 4.72945033924002e-08 1.443661868641e-08 1.79435328292228e-07 1.10548126920579e-07 2.34053992151021e-08 4.11434140744111e-09 1.93547439597951e-09
"1745" 47164 4.97654800276394e-08 4.74315155119737e-08 1.44249731802664e-08 1.79076338065726e-07 1.10440943265024e-07 2.34032987805451e-08 4.11650465430121e-09 1.93672006108652e-09
"1746" 47165 4.97884592569604e-08 4.74253848780657e-08 1.44196372801985e-08 1.78630860629955e-07 1.11363288771805e-07 2.34919227058795e-08 4.12891343739656e-09 1.94461901491897e-09
"1747" 47166 4.98114384862814e-08 4.74192542441577e-08 1.44143013801307e-08 1.78185383194184e-07 1.12285634278585e-07 2.3580546631214e-08 4.1413222204919e-09 1.95251796875142e-09
"1748" 47167 4.98344177156024e-08 4.74131236102498e-08 1.44089654800629e-08 1.77739905758413e-07 1.13207979785365e-07 2.36691705565484e-08 4.15373100358725e-09 1.96041692258387e-09
"1749" 47168 4.98573969449234e-08 4.74069929763418e-08 1.4403629579995e-08 1.77294428322642e-07 1.14130325292145e-07 2.37577944818829e-08 4.16613978668259e-09 1.96831587641632e-09
"1750" 47169 4.98803761742444e-08 4.74008623424338e-08 1.43982936799272e-08 1.76848950886871e-07 1.15052670798925e-07 2.38464184072173e-08 4.17854856977794e-09 1.97621483024877e-09
"1751" 47170 4.99033554035654e-08 4.73947317085259e-08 1.43929577798594e-08 1.764034734511e-07 1.15975016305705e-07 2.39350423325517e-08 4.19095735287328e-09 1.98411378408122e-09
"1752" 47171 4.99263346328864e-08 4.73886010746179e-08 1.43876218797916e-08 1.75957996015329e-07 1.16897361812486e-07 2.40236662578862e-08 4.20336613596863e-09 1.99201273791367e-09
"1753" 47172 4.99493138622074e-08 4.738247044071e-08 1.43822859797237e-08 1.75512518579558e-07 1.17819707319266e-07 2.41122901832206e-08 4.21577491906397e-09 1.99991169174612e-09
"1754" 47173 4.99722930915284e-08 4.7376339806802e-08 1.43769500796559e-08 1.75067041143787e-07 1.18742052826046e-07 2.42009141085551e-08 4.22818370215932e-09 2.00781064557857e-09
"1755" 47174 4.99952723208494e-08 4.7370209172894e-08 1.43716141795881e-08 1.74621563708016e-07 1.19664398332826e-07 2.42895380338895e-08 4.24059248525466e-09 2.01570959941102e-09
"1756" 47175 5.00182515501704e-08 4.73640785389861e-08 1.43662782795202e-08 1.74176086272245e-07 1.20586743839606e-07 2.4378161959224e-08 4.25300126835001e-09 2.02360855324347e-09
"1757" 47176 5.00412307794913e-08 4.73579479050781e-08 1.43609423794524e-08 1.73730608836474e-07 1.21509089346386e-07 2.44667858845584e-08 4.26541005144535e-09 2.03150750707592e-09
"1758" 47177 5.00642100088123e-08 4.73518172711702e-08 1.43556064793846e-08 1.73285131400703e-07 1.22431434853167e-07 2.45554098098929e-08 4.2778188345407e-09 2.03940646090837e-09
"1759" 47178 5.00871892381333e-08 4.73456866372622e-08 1.43502705793167e-08 1.72839653964932e-07 1.23353780359947e-07 2.46440337352273e-08 4.29022761763604e-09 2.04730541474082e-09
"1760" 47179 5.01101684674543e-08 4.73395560033542e-08 1.43449346792489e-08 1.72394176529161e-07 1.24276125866727e-07 2.47326576605618e-08 4.30263640073139e-09 2.05520436857327e-09
"1761" 47180 4.96853313629382e-08 4.73307029833131e-08 1.43259609634625e-08 1.72235279215792e-07 1.25074890745674e-07 2.48233820204533e-08 4.30622991205167e-09 2.04980648644288e-09
"1762" 47181 4.96124173397802e-08 4.72410724098743e-08 1.43324658513187e-08 1.71692128021532e-07 1.25961335935551e-07 2.49106292871864e-08 4.31841636597752e-09 2.05770544027533e-09
"1763" 47182 4.95395033166222e-08 4.71514418364355e-08 1.43389707391749e-08 1.71148976827273e-07 1.26847781125428e-07 2.49978765539195e-08 4.33060281990337e-09 2.06560439410778e-09
"1764" 47183 4.94665892934642e-08 4.70618112629967e-08 1.43454756270311e-08 1.70605825633014e-07 1.27734226315306e-07 2.50851238206526e-08 4.34278927382922e-09 2.07350334794023e-09
"1765" 47184 4.93936752703063e-08 4.69721806895579e-08 1.43519805148873e-08 1.70062674438754e-07 1.28620671505183e-07 2.51723710873857e-08 4.35497572775508e-09 2.08140230177268e-09
"1766" 47185 4.93207612471483e-08 4.68825501161192e-08 1.43584854027435e-08 1.69519523244495e-07 1.29507116695061e-07 2.52596183541188e-08 4.36716218168093e-09 2.08930125560513e-09
"1767" 47186 4.92478472239903e-08 4.67929195426804e-08 1.43649902905997e-08 1.68976372050235e-07 1.30393561884938e-07 2.53468656208519e-08 4.37934863560678e-09 2.09720020943758e-09
"1768" 47187 4.92767704214898e-08 4.67071959701335e-08 1.43714951784559e-08 1.68445787624605e-07 1.30356949941265e-07 2.53451726959858e-08 4.38128955329739e-09 2.09711667802271e-09
"1769" 47188 4.92089034116202e-08 4.79846873764529e-08 1.4395891886534e-08 1.67910018780891e-07 1.30288833637861e-07 2.53611186170744e-08 4.38494905950911e-09 2.09836234312972e-09
"1770" 47189 4.91410364017506e-08 4.92621787827724e-08 1.44202885946122e-08 1.67374249937178e-07 1.30220717334456e-07 2.5377064538163e-08 4.38860856572083e-09 2.09960800823674e-09
"1771" 47190 4.9073169391881e-08 5.05396701890918e-08 1.44446853026903e-08 1.66838481093464e-07 1.30152601031052e-07 2.53930104592516e-08 4.39226807193255e-09 2.10085367334375e-09
"1772" 47191 4.90053023820113e-08 5.18171615954112e-08 1.44690820107684e-08 1.6630271224975e-07 1.30084484727648e-07 2.54089563803402e-08 4.39592757814427e-09 2.10209933845076e-09
"1773" 47192 4.90224979164616e-08 5.30738726365853e-08 1.44910720454845e-08 1.66308997142334e-07 1.30104025211695e-07 2.54160930535095e-08 4.39748388233072e-09 2.10068661051401e-09
"1774" 47193 4.90396934509118e-08 5.43305836777594e-08 1.45130620802005e-08 1.66315282034919e-07 1.30123565695742e-07 2.54232297266788e-08 4.39904018651717e-09 2.09927388257726e-09
"1775" 47194 4.9056888985362e-08 5.55872947189335e-08 1.45350521149166e-08 1.66321566927504e-07 1.30143106179788e-07 2.54303663998481e-08 4.40059649070362e-09 2.09786115464051e-09
"1776" 47195 4.90740845198122e-08 5.68440057601076e-08 1.45570421496326e-08 1.66327851820089e-07 1.30162646663835e-07 2.54375030730174e-08 4.40215279489007e-09 2.09644842670376e-09
"1777" 47196 4.90912800542625e-08 5.81007168012817e-08 1.45790321843487e-08 1.66334136712674e-07 1.30182187147882e-07 2.54446397461867e-08 4.40370909907652e-09 2.095035698767e-09
"1778" 47197 4.91084755887127e-08 5.93574278424558e-08 1.46010222190647e-08 1.66340421605259e-07 1.30201727631929e-07 2.5451776419356e-08 4.40526540326297e-09 2.09362297083025e-09
"1779" 47198 4.91256711231629e-08 6.061413888363e-08 1.46230122537807e-08 1.66346706497844e-07 1.30221268115976e-07 2.54589130925253e-08 4.40682170744942e-09 2.0922102428935e-09
"1780" 47199 4.91428666576132e-08 6.18708499248041e-08 1.46450022884968e-08 1.66352991390429e-07 1.30240808600022e-07 2.54660497656946e-08 4.40837801163587e-09 2.09079751495675e-09
"1781" 47200 4.91325941846875e-08 6.18328616638506e-08 1.46512486025751e-08 1.6639139739148e-07 1.30232621875623e-07 2.54830560791197e-08 4.40993431582233e-09 2.08805559049811e-09
"1782" 47201 4.91223217117619e-08 6.17948734028972e-08 1.46574949166534e-08 1.66429803392532e-07 1.30224435151223e-07 2.55000623925449e-08 4.41149062000878e-09 2.08531366603948e-09
"1783" 47202 4.91120492388363e-08 6.17568851419438e-08 1.46637412307317e-08 1.66468209393584e-07 1.30216248426823e-07 2.55170687059701e-08 4.41304692419523e-09 2.08257174158084e-09
"1784" 47203 4.91017767659106e-08 6.17188968809903e-08 1.466998754481e-08 1.66506615394636e-07 1.30208061702423e-07 2.55340750193953e-08 4.41460322838168e-09 2.07982981712221e-09
"1785" 47204 4.9091504292985e-08 6.16809086200369e-08 1.46762338588883e-08 1.66545021395688e-07 1.30199874978024e-07 2.55510813328205e-08 4.41615953256813e-09 2.07708789266357e-09
"1786" 47205 4.90812318200594e-08 6.16429203590835e-08 1.46824801729666e-08 1.6658342739674e-07 1.30191688253624e-07 2.55680876462456e-08 4.41771583675458e-09 2.07434596820494e-09
"1787" 47206 4.90709593471338e-08 6.16049320981301e-08 1.46887264870449e-08 1.66621833397791e-07 1.30183501529224e-07 2.55850939596708e-08 4.41927214094103e-09 2.0716040437463e-09
"1788" 47207 4.90606868742081e-08 6.15669438371766e-08 1.46949728011232e-08 1.66660239398843e-07 1.30175314804824e-07 2.5602100273096e-08 4.42082844512748e-09 2.06886211928767e-09
"1789" 47208 4.91271765889587e-08 6.15660720846968e-08 1.47089589857375e-08 1.68072393288893e-07 1.3043676416666e-07 2.56541956201241e-08 4.42082844512748e-09 2.06678601077598e-09
"1790" 47209 4.91936663037093e-08 6.15652003322169e-08 1.47229451703518e-08 1.69484547178943e-07 1.30698213528496e-07 2.57062909671521e-08 4.42082844512748e-09 2.06470990226429e-09
"1791" 47210 4.92601560184599e-08 6.1564328579737e-08 1.47369313549661e-08 1.70896701068994e-07 1.30959662890331e-07 2.57583863141802e-08 4.42082844512748e-09 2.0626337937526e-09
"1792" 47211 4.93266457332105e-08 6.15634568272572e-08 1.47509175395804e-08 1.72308854959044e-07 1.31221112252167e-07 2.58104816612082e-08 4.42082844512748e-09 2.06055768524091e-09
"1793" 47212 4.93931354479611e-08 6.15625850747773e-08 1.47649037241947e-08 1.73721008849094e-07 1.31482561614003e-07 2.58625770082363e-08 4.42082844512748e-09 2.05848157672922e-09
"1794" 47213 4.94596251627117e-08 6.15617133222975e-08 1.4778889908809e-08 1.75133162739144e-07 1.31744010975838e-07 2.59146723552644e-08 4.42082844512748e-09 2.05640546821753e-09
"1795" 47214 4.94410523331425e-08 6.16355913560999e-08 1.47755701185425e-08 1.7533562734484e-07 1.31917803550223e-07 2.59706948411279e-08 4.40697749745873e-09 2.04243794556373e-09
"1796" 47215 4.94787562275145e-08 6.17151842947387e-08 1.47916595051821e-08 1.76544184983777e-07 1.32116502840174e-07 2.59723815945399e-08 4.4083596171973e-09 2.04243794556373e-09
"1797" 47216 4.95164601218865e-08 6.17947772333776e-08 1.48077488918216e-08 1.77752742622713e-07 1.32315202130125e-07 2.5974068347952e-08 4.40974173693587e-09 2.04243794556373e-09
"1798" 47217 4.95541640162585e-08 6.18743701720165e-08 1.48238382784612e-08 1.78961300261649e-07 1.32513901420075e-07 2.5975755101364e-08 4.41112385667445e-09 2.04243794556373e-09
"1799" 47218 4.95918679106305e-08 6.19539631106553e-08 1.48399276651008e-08 1.80169857900586e-07 1.32712600710026e-07 2.5977441854776e-08 4.41250597641302e-09 2.04243794556373e-09
"1800" 47219 4.96295718050025e-08 6.20335560492942e-08 1.48560170517403e-08 1.81378415539522e-07 1.32911299999977e-07 2.59791286081881e-08 4.41388809615159e-09 2.04243794556373e-09
"1801" 47220 4.96672756993745e-08 6.21131489879331e-08 1.48721064383799e-08 1.82586973178458e-07 1.33109999289927e-07 2.59808153616001e-08 4.41527021589016e-09 2.04243794556373e-09
"1802" 47221 4.97049795937465e-08 6.21927419265719e-08 1.48881958250195e-08 1.83795530817395e-07 1.33308698579878e-07 2.59825021150121e-08 4.41665233562873e-09 2.04243794556373e-09
"1803" 47222 4.97426834881186e-08 6.22723348652108e-08 1.4904285211659e-08 1.85004088456331e-07 1.33507397869829e-07 2.59841888684242e-08 4.4180344553673e-09 2.04243794556373e-09
"1804" 47223 4.97058215498189e-08 6.22423886177455e-08 1.49039817403222e-08 1.84984526072386e-07 1.33670155995046e-07 2.59235943682875e-08 4.4173133730806e-09 2.04310132613867e-09
"1805" 47224 4.96739837286208e-08 6.22324550674242e-08 1.49039817403222e-08 1.86061143198605e-07 1.33797946938285e-07 2.58803224478408e-08 4.4165922907939e-09 2.04310132613867e-09
"1806" 47225 4.96421459074226e-08 6.22225215171029e-08 1.49039817403222e-08 1.87137760324823e-07 1.33925737881524e-07 2.58370505273941e-08 4.4158712085072e-09 2.04310132613867e-09
"1807" 47226 4.96103080862245e-08 6.22125879667816e-08 1.49039817403222e-08 1.88214377451042e-07 1.34053528824763e-07 2.57937786069473e-08 4.4151501262205e-09 2.04310132613867e-09
"1808" 47227 4.95784702650264e-08 6.22026544164603e-08 1.49039817403222e-08 1.8929099457726e-07 1.34181319768002e-07 2.57505066865006e-08 4.4144290439338e-09 2.04310132613867e-09
"1809" 47228 4.95466324438283e-08 6.2192720866139e-08 1.49039817403222e-08 1.90367611703479e-07 1.34309110711241e-07 2.57072347660539e-08 4.4137079616471e-09 2.04310132613867e-09
"1810" 47229 4.95147946226301e-08 6.21827873158177e-08 1.49039817403222e-08 1.91444228829698e-07 1.3443690165448e-07 2.56639628456071e-08 4.4129868793604e-09 2.04310132613867e-09
"1811" 47230 4.9482956801432e-08 6.21728537654964e-08 1.49039817403222e-08 1.92520845955916e-07 1.34564692597719e-07 2.56206909251604e-08 4.4122657970737e-09 2.04310132613867e-09
"1812" 47231 4.94511189802339e-08 6.21629202151751e-08 1.49039817403222e-08 1.93597463082135e-07 1.34692483540958e-07 2.55774190047137e-08 4.411544714787e-09 2.04310132613867e-09
"1813" 47232 4.94192811590358e-08 6.21529866648539e-08 1.49039817403222e-08 1.94674080208353e-07 1.34820274484197e-07 2.5534147084267e-08 4.4108236325003e-09 2.04310132613867e-09
"1814" 47233 4.93874433378377e-08 6.21430531145326e-08 1.49039817403222e-08 1.95750697334572e-07 1.34948065427436e-07 2.54908751638202e-08 4.4101025502136e-09 2.04310132613867e-09
"1815" 47234 4.93556055166395e-08 6.21331195642113e-08 1.49039817403222e-08 1.96827314460791e-07 1.35075856370675e-07 2.54476032433735e-08 4.4093814679269e-09 2.04310132613867e-09
"1816" 47235 4.93237676954414e-08 6.212318601389e-08 1.49039817403222e-08 1.97903931587009e-07 1.35203647313913e-07 2.54043313229268e-08 4.4086603856402e-09 2.04310132613867e-09
"1817" 47236 4.92919298742433e-08 6.21132524635687e-08 1.49039817403222e-08 1.98980548713228e-07 1.35331438257152e-07 2.536105940248e-08 4.4079393033535e-09 2.04310132613867e-09
"1818" 47237 4.91634802920249e-08 6.2102862280996e-08 1.48690241245588e-08 1.99849482628209e-07 1.35434322484825e-07 2.53563739589107e-08 4.39241791188525e-09 2.03379451511348e-09
"1819" 47238 4.90350307098065e-08 6.20924720984234e-08 1.48340665087954e-08 2.0071841654319e-07 1.35537206712498e-07 2.53516885153414e-08 4.37689652041701e-09 2.02448770408829e-09
"1820" 47239 4.89065811275881e-08 6.20820819158508e-08 1.47991088930319e-08 2.01587350458172e-07 1.35640090940171e-07 2.5347003071772e-08 4.36137512894876e-09 2.0151808930631e-09
"1821" 47240 4.87781315453697e-08 6.20716917332781e-08 1.47641512772685e-08 2.02456284373153e-07 1.35742975167844e-07 2.53423176282027e-08 4.34585373748051e-09 2.00587408203792e-09
"1822" 47241 4.86496819631513e-08 6.20613015507055e-08 1.47291936615051e-08 2.03325218288135e-07 1.35845859395517e-07 2.53376321846333e-08 4.33033234601227e-09 1.99656727101273e-09
"1823" 47242 4.85212323809329e-08 6.20509113681328e-08 1.46942360457417e-08 2.04194152203116e-07 1.3594874362319e-07 2.5332946741064e-08 4.31481095454402e-09 1.98726045998754e-09
"1824" 47243 4.83927827987146e-08 6.20405211855602e-08 1.46592784299782e-08 2.05063086118097e-07 1.36051627850863e-07 2.53282612974947e-08 4.29928956307577e-09 1.97795364896235e-09
"1825" 47244 4.82643332164962e-08 6.20301310029875e-08 1.46243208142148e-08 2.05932020033079e-07 1.36154512078536e-07 2.53235758539253e-08 4.28376817160753e-09 1.96864683793717e-09
"1826" 47245 4.81358836342778e-08 6.20197408204149e-08 1.45893631984514e-08 2.0680095394806e-07 1.36257396306209e-07 2.5318890410356e-08 4.26824678013928e-09 1.95934002691198e-09
"1827" 47246 4.80024099349578e-08 6.19932449415901e-08 1.46094004153636e-08 2.07306693630962e-07 1.36898562616933e-07 2.5318890410356e-08 4.25250305950154e-09 1.94945093135472e-09
"1828" 47247 4.78689362356379e-08 6.19667490627654e-08 1.46294376322758e-08 2.07812433313863e-07 1.37539728927657e-07 2.5318890410356e-08 4.2367593388638e-09 1.93956183579745e-09
"1829" 47248 4.7735462536318e-08 6.19402531839407e-08 1.46494748491881e-08 2.08318172996765e-07 1.38180895238382e-07 2.5318890410356e-08 4.22101561822607e-09 1.92967274024019e-09
"1830" 47249 4.7601988836998e-08 6.19137573051159e-08 1.46695120661003e-08 2.08823912679667e-07 1.38822061549106e-07 2.5318890410356e-08 4.20527189758833e-09 1.91978364468293e-09
"1831" 47250 4.74685151376781e-08 6.18872614262912e-08 1.46895492830125e-08 2.09329652362568e-07 1.3946322785983e-07 2.5318890410356e-08 4.18952817695059e-09 1.90989454912566e-09
"1832" 47251 4.74612122872689e-08 6.18660232112085e-08 1.4681872704474e-08 2.10235202197152e-07 1.40104394170554e-07 2.5105284125325e-08 4.15394252118101e-09 1.9000054535684e-09
"1833" 47252 4.74539094368597e-08 6.18447849961259e-08 1.46741961259355e-08 2.11140752031736e-07 1.40745560481278e-07 2.48916778402941e-08 4.11835686541143e-09 1.89011635801114e-09
"1834" 47253 4.74466065864505e-08 6.18235467810432e-08 1.4666519547397e-08 2.1204630186632e-07 1.41386726792002e-07 2.46780715552631e-08 4.08277120964186e-09 1.88022726245387e-09
"1835" 47254 4.74393037360413e-08 6.18023085659606e-08 1.46588429688585e-08 2.12951851700903e-07 1.42027893102726e-07 2.44644652702321e-08 4.04718555387228e-09 1.87033816689661e-09
"1836" 47255 4.74320008856321e-08 6.1781070350878e-08 1.46511663903201e-08 2.13857401535487e-07 1.4266905941345e-07 2.42508589852012e-08 4.01159989810271e-09 1.86044907133935e-09
"1837" 47256 4.74246980352228e-08 6.17598321357953e-08 1.46434898117816e-08 2.14762951370071e-07 1.43310225724175e-07 2.40372527001702e-08 3.97601424233313e-09 1.85055997578208e-09
"1838" 47257 4.74173951848136e-08 6.17385939207127e-08 1.46358132332431e-08 2.15668501204655e-07 1.43951392034899e-07 2.38236464151393e-08 3.94042858656355e-09 1.84067088022482e-09
"1839" 47258 4.74100923344044e-08 6.171735570563e-08 1.46281366547046e-08 2.16574051039239e-07 1.44592558345623e-07 2.36100401301083e-08 3.90484293079398e-09 1.83078178466756e-09
"1840" 47259 4.74135241241086e-08 6.17557187924751e-08 1.45806891136785e-08 2.16712910342355e-07 1.44695442573296e-07 2.34201631505268e-08 3.86953369897212e-09 1.82355108215406e-09
"1841" 47260 4.74169559138127e-08 6.17940818793202e-08 1.45332415726524e-08 2.16851769645472e-07 1.44798326800969e-07 2.32302861709453e-08 3.83422446715025e-09 1.81632037964056e-09
"1842" 47261 4.74203877035169e-08 6.18324449661653e-08 1.44857940316263e-08 2.16990628948588e-07 1.44901211028642e-07 2.30404091913637e-08 3.79891523532839e-09 1.80908967712706e-09
"1843" 47262 4.7423819493221e-08 6.18708080530104e-08 1.44383464906002e-08 2.17129488251705e-07 1.45004095256315e-07 2.28505322117822e-08 3.76360600350653e-09 1.80185897461357e-09
"1844" 47263 4.74272512829252e-08 6.19091711398554e-08 1.43908989495741e-08 2.17268347554821e-07 1.45106979483988e-07 2.26606552322007e-08 3.72829677168467e-09 1.79462827210007e-09
"1845" 47264 4.74306830726293e-08 6.19475342267005e-08 1.4343451408548e-08 2.17407206857937e-07 1.45209863711661e-07 2.24707782526191e-08 3.6929875398628e-09 1.78739756958657e-09
"1846" 47265 4.74341148623335e-08 6.19858973135456e-08 1.42960038675219e-08 2.17546066161054e-07 1.45312747939334e-07 2.22809012730376e-08 3.65767830804094e-09 1.78016686707307e-09
"1847" 47266 4.74375466520376e-08 6.20242604003907e-08 1.42485563264958e-08 2.1768492546417e-07 1.45415632167007e-07 2.20910242934561e-08 3.62236907621908e-09 1.77293616455957e-09
"1848" 47267 4.74409784417418e-08 6.20626234872358e-08 1.42011087854697e-08 2.17823784767287e-07 1.4551851639468e-07 2.19011473138746e-08 3.58705984439722e-09 1.76570546204608e-09
"1849" 47268 4.74823978466568e-08 6.20465803634395e-08 1.41440978429927e-08 2.18103879088138e-07 1.45622421652067e-07 2.16795122715282e-08 3.55363743548774e-09 1.76570546204608e-09
"1850" 47269 4.75238172515718e-08 6.20305372396432e-08 1.40870869005157e-08 2.18383973408988e-07 1.45726326909454e-07 2.14578772291817e-08 3.52021502657827e-09 1.76570546204608e-09
"1851" 47270 4.75652366564868e-08 6.20144941158468e-08 1.40300759580388e-08 2.18664067729839e-07 1.45830232166841e-07 2.12362421868353e-08 3.48679261766879e-09 1.76570546204608e-09
"1852" 47271 4.76066560614018e-08 6.19984509920505e-08 1.39730650155618e-08 2.1894416205069e-07 1.45934137424228e-07 2.10146071444889e-08 3.45337020875931e-09 1.76570546204608e-09
"1853" 47272 4.76480754663168e-08 6.19824078682542e-08 1.39160540730848e-08 2.19224256371541e-07 1.46038042681615e-07 2.07929721021425e-08 3.41994779984984e-09 1.76570546204608e-09
"1854" 47273 4.73277159316094e-08 6.14874564497745e-08 1.39220180131588e-08 2.19062944128529e-07 1.46285341314402e-07 2.07381801525599e-08 3.41329577493487e-09 1.77501227307126e-09
"1855" 47274 4.64397385237437e-08 6.14714133259782e-08 1.39186798284537e-08 2.19286774271295e-07 1.461388551826e-07 2.07524756847684e-08 3.40305023869963e-09 1.78323804644717e-09
"1856" 47275 4.5551761115878e-08 6.14553702021819e-08 1.39153416437487e-08 2.1951060441406e-07 1.45992369050799e-07 2.0766771216977e-08 3.39280470246438e-09 1.79146381982307e-09
"1857" 47276 4.46637837080124e-08 6.14393270783855e-08 1.39120034590436e-08 2.19734434556825e-07 1.45845882918997e-07 2.07810667491856e-08 3.38255916622914e-09 1.79968959319898e-09
"1858" 47277 4.37758063001467e-08 6.14232839545892e-08 1.39086652743385e-08 2.19958264699591e-07 1.45699396787195e-07 2.07953622813942e-08 3.37231362999389e-09 1.80791536657488e-09
"1859" 47278 4.2887828892281e-08 6.14072408307929e-08 1.39053270896334e-08 2.20182094842356e-07 1.45552910655393e-07 2.08096578136028e-08 3.36206809375865e-09 1.81614113995079e-09
"1860" 47279 4.19998514844153e-08 6.13911977069966e-08 1.39019889049284e-08 2.20405924985122e-07 1.45406424523592e-07 2.08239533458113e-08 3.3518225575234e-09 1.82436691332669e-09
"1861" 47280 4.11118740765496e-08 6.13751545832003e-08 1.38986507202233e-08 2.20629755127887e-07 1.4525993839179e-07 2.08382488780199e-08 3.34157702128816e-09 1.8325926867026e-09
"1862" 47281 4.02238966686839e-08 6.13591114594039e-08 1.38953125355182e-08 2.20853585270652e-07 1.45113452259988e-07 2.08525444102285e-08 3.33133148505291e-09 1.8408184600785e-09
"1863" 47282 3.93124686578654e-08 6.13897646289437e-08 1.40309495831721e-08 2.23096654815375e-07 1.44751226318904e-07 2.08546590234476e-08 3.32302091645167e-09 1.8408184600785e-09
"1864" 47283 3.86030906583334e-08 6.13655754071807e-08 1.40712825907744e-08 2.24190403307682e-07 1.45115569815948e-07 2.08722978694023e-08 3.31061213335632e-09 1.86076371402276e-09
"1865" 47284 3.78937126588015e-08 6.13413861854177e-08 1.41116155983767e-08 2.25284151799988e-07 1.45479913312993e-07 2.0889936715357e-08 3.29820335026098e-09 1.88070896796703e-09
"1866" 47285 3.71843346592696e-08 6.13171969636546e-08 1.41519486059791e-08 2.26377900292294e-07 1.45844256810038e-07 2.09075755613117e-08 3.28579456716563e-09 1.90065422191129e-09
"1867" 47286 3.64749566597377e-08 6.12930077418916e-08 1.41922816135814e-08 2.27471648784601e-07 1.46208600307083e-07 2.09252144072664e-08 3.27338578407029e-09 1.92059947585556e-09
"1868" 47287 3.57655786602057e-08 6.12688185201286e-08 1.42326146211837e-08 2.28565397276907e-07 1.46572943804127e-07 2.09428532532211e-08 3.26097700097494e-09 1.94054472979982e-09
"1869" 47288 3.50562006606738e-08 6.12446292983655e-08 1.42729476287861e-08 2.29659145769214e-07 1.46937287301172e-07 2.09604920991758e-08 3.2485682178796e-09 1.96048998374409e-09
"1870" 47289 3.43468226611419e-08 6.12204400766025e-08 1.43132806363884e-08 2.3075289426152e-07 1.47301630798217e-07 2.09781309451305e-08 3.23615943478425e-09 1.98043523768835e-09
"1871" 47290 3.36374446616099e-08 6.11962508548394e-08 1.43536136439907e-08 2.31846642753826e-07 1.47665974295262e-07 2.09957697910852e-08 3.22375065168891e-09 2.00038049163262e-09
"1872" 47291 3.2928066662078e-08 6.11720616330764e-08 1.4393946651593e-08 2.32940391246133e-07 1.48030317792306e-07 2.10134086370398e-08 3.21134186859356e-09 2.02032574557688e-09
"1873" 47292 3.22186886625461e-08 6.11478724113134e-08 1.44342796591954e-08 2.34034139738439e-07 1.48394661289351e-07 2.10310474829945e-08 3.19893308549822e-09 2.04027099952115e-09
"1874" 47293 3.15093106630141e-08 6.11236831895503e-08 1.44746126667977e-08 2.35127888230746e-07 1.48759004786396e-07 2.10486863289492e-08 3.18652430240287e-09 2.06021625346541e-09
"1875" 47294 3.07999326634822e-08 6.10994939677873e-08 1.45149456744e-08 2.36221636723052e-07 1.49123348283441e-07 2.10663251749039e-08 3.17411551930753e-09 2.08016150740968e-09
"1876" 47295 3.00905546639503e-08 6.10753047460242e-08 1.45552786820024e-08 2.37315385215358e-07 1.49487691780485e-07 2.10839640208586e-08 3.16170673621218e-09 2.10010676135394e-09
"1877" 47296 3.02810143893086e-08 6.10045437669936e-08 1.45620659438629e-08 2.37315385215358e-07 1.50101622219065e-07 2.11036891227084e-08 3.16143031226447e-09 2.12171533747957e-09
"1878" 47297 3.04714741146669e-08 6.0933782787963e-08 1.45688532057234e-08 2.37315385215358e-07 1.50715552657645e-07 2.11234142245581e-08 3.16115388831675e-09 2.14332391360519e-09
"1879" 47298 3.06619338400252e-08 6.08630218089324e-08 1.45756404675839e-08 2.37315385215358e-07 1.51329483096226e-07 2.11431393264079e-08 3.16087746436904e-09 2.16493248973081e-09
"1880" 47299 3.08523935653835e-08 6.07922608299018e-08 1.45824277294444e-08 2.37315385215358e-07 1.51943413534806e-07 2.11628644282576e-08 3.16060104042133e-09 2.18654106585644e-09
"1881" 47300 3.10428532907418e-08 6.07214998508712e-08 1.45892149913049e-08 2.37315385215358e-07 1.52557343973386e-07 2.11825895301074e-08 3.16032461647361e-09 2.20814964198206e-09
"1882" 47301 3.12333130161001e-08 6.06507388718406e-08 1.45960022531654e-08 2.37315385215358e-07 1.53171274411966e-07 2.12023146319571e-08 3.1600481925259e-09 2.22975821810769e-09
"1883" 47302 3.14237727414584e-08 6.05799778928099e-08 1.4602789515026e-08 2.37315385215358e-07 1.53785204850546e-07 2.12220397338069e-08 3.15977176857818e-09 2.25136679423331e-09
"1884" 47303 3.16142324668167e-08 6.05092169137793e-08 1.46095767768865e-08 2.37315385215358e-07 1.54399135289126e-07 2.12417648356566e-08 3.15949534463047e-09 2.27297537035893e-09
"1885" 47304 3.16681893882224e-08 6.07437126852263e-08 1.46220272103781e-08 2.3843601669994e-07 1.55557952871737e-07 2.12573032470542e-08 3.15944124985225e-09 2.27422103546595e-09
"1886" 47305 3.1656599102294e-08 6.06741778329773e-08 1.45910201277812e-08 2.37472433721604e-07 1.5550933000542e-07 2.13559996496131e-08 3.1679800976796e-09 2.27413750405108e-09
"1887" 47306 3.16450088163656e-08 6.06046429807282e-08 1.45600130451844e-08 2.36508850743267e-07 1.55460707139104e-07 2.1454696052172e-08 3.17651894550695e-09 2.27405397263621e-09
"1888" 47307 3.16334185304373e-08 6.05351081284792e-08 1.45290059625876e-08 2.35545267764931e-07 1.55412084272787e-07 2.15533924547309e-08 3.18505779333429e-09 2.27397044122134e-09
"1889" 47308 3.16218282445089e-08 6.04655732762302e-08 1.44979988799907e-08 2.34581684786594e-07 1.5536346140647e-07 2.16520888572897e-08 3.19359664116164e-09 2.27388690980647e-09
"1890" 47309 3.16102379585806e-08 6.03960384239812e-08 1.44669917973939e-08 2.33618101808258e-07 1.55314838540154e-07 2.17507852598486e-08 3.20213548898899e-09 2.2738033783916e-09
"1891" 47310 3.14616553220266e-08 6.03347122421546e-08 1.43569442458329e-08 2.31917265793018e-07 1.54906804026504e-07 2.17998659023034e-08 3.21095076076405e-09 2.27371984697673e-09
"1892" 47311 3.13130726854725e-08 6.02733860603281e-08 1.4246896694272e-08 2.30216429777777e-07 1.54498769512855e-07 2.18489465447583e-08 3.21976603253912e-09 2.27363631556186e-09
"1893" 47312 3.11644900489185e-08 6.02120598785016e-08 1.41368491427111e-08 2.28515593762536e-07 1.54090734999206e-07 2.18980271872131e-08 3.22858130431418e-09 2.27355278414699e-09
"1894" 47313 3.10159074123645e-08 6.0150733696675e-08 1.40268015911502e-08 2.26814757747296e-07 1.53682700485557e-07 2.19471078296679e-08 3.23739657608924e-09 2.27346925273213e-09
"1895" 47314 3.08673247758104e-08 6.00894075148485e-08 1.39167540395892e-08 2.25113921732055e-07 1.53274665971907e-07 2.19961884721227e-08 3.2462118478643e-09 2.27338572131726e-09
"1896" 47315 3.07187421392564e-08 6.0028081333022e-08 1.38067064880283e-08 2.23413085716814e-07 1.52866631458258e-07 2.20452691145776e-08 3.25502711963937e-09 2.27330218990239e-09
"1897" 47316 3.05701595027024e-08 5.99667551511954e-08 1.36966589364674e-08 2.21712249701574e-07 1.52458596944609e-07 2.20943497570324e-08 3.26384239141443e-09 2.27321865848752e-09
"1898" 47317 3.04215768661483e-08 5.99054289693689e-08 1.35866113849064e-08 2.20011413686333e-07 1.52050562430959e-07 2.21434303994872e-08 3.27265766318949e-09 2.27313512707265e-09
"1899" 47318 3.02593494490808e-08 5.98666507622953e-08 1.3501282407199e-08 2.18161852306979e-07 1.51762300453565e-07 2.21192794056848e-08 3.27265766318949e-09 2.27305159565778e-09
"1900" 47319 3.00971220320133e-08 5.98278725552217e-08 1.34159534294916e-08 2.16312290927625e-07 1.5147403847617e-07 2.20951284118823e-08 3.27265766318949e-09 2.27296806424291e-09
"1901" 47320 2.99348946149458e-08 5.97890943481481e-08 1.33306244517842e-08 2.14462729548271e-07 1.51185776498775e-07 2.20709774180799e-08 3.27265766318949e-09 2.27288453282804e-09
"1902" 47321 2.97726671978783e-08 5.97503161410745e-08 1.32452954740768e-08 2.12613168168917e-07 1.5089751452138e-07 2.20468264242774e-08 3.27265766318949e-09 2.27280100141317e-09
"1903" 47322 2.96104397808108e-08 5.97115379340009e-08 1.31599664963694e-08 2.10763606789562e-07 1.50609252543986e-07 2.2022675430475e-08 3.27265766318949e-09 2.2727174699983e-09
"1904" 47323 2.94482123637433e-08 5.96727597269273e-08 1.3074637518662e-08 2.08914045410208e-07 1.50320990566591e-07 2.19985244366726e-08 3.27265766318949e-09 2.27263393858344e-09
"1905" 47324 2.92859849466758e-08 5.96339815198537e-08 1.29893085409546e-08 2.07064484030854e-07 1.50032728589196e-07 2.19743734428701e-08 3.27265766318949e-09 2.27255040716857e-09
"1906" 47325 2.91237575296083e-08 5.95952033127801e-08 1.29039795632472e-08 2.052149226515e-07 1.49744466611801e-07 2.19502224490677e-08 3.27265766318949e-09 2.2724668757537e-09
"1907" 47326 2.89615301125407e-08 5.95564251057066e-08 1.28186505855398e-08 2.03365361272146e-07 1.49456204634407e-07 2.19260714552653e-08 3.27265766318949e-09 2.27238334433883e-09
"1908" 47327 2.87862390463801e-08 5.95353312694394e-08 1.2721158954133e-08 2.01465228941042e-07 1.48936882586624e-07 2.18857495175357e-08 3.2729340871372e-09 2.27238334433883e-09
"1909" 47328 2.86109479802194e-08 5.95142374331722e-08 1.26236673227262e-08 1.99565096609938e-07 1.48417560538841e-07 2.18454275798061e-08 3.27321051108492e-09 2.27238334433883e-09
"1910" 47329 2.84356569140588e-08 5.9493143596905e-08 1.25261756913194e-08 1.97664964278834e-07 1.47898238491059e-07 2.18051056420765e-08 3.27348693503263e-09 2.27238334433883e-09
"1911" 47330 2.82603658478981e-08 5.94720497606379e-08 1.24286840599126e-08 1.9576483194773e-07 1.47378916443276e-07 2.1764783704347e-08 3.27376335898035e-09 2.27238334433883e-09
"1912" 47331 2.7996438587294e-08 5.94986701755312e-08 1.24412399800667e-08 1.95339902335977e-07 1.47177812500215e-07 2.17737754391187e-08 3.26994156843396e-09 2.26706168750728e-09
"1913" 47332 2.79899776929571e-08 5.95389025210905e-08 1.24360571671142e-08 1.95175607629397e-07 1.47054606864322e-07 2.17806667393334e-08 3.26999566321218e-09 2.26672999721981e-09
"1914" 47333 2.79835167986203e-08 5.95791348666499e-08 1.24308743541618e-08 1.95011312922816e-07 1.46931401228428e-07 2.17875580395481e-08 3.2700497579904e-09 2.26639830693234e-09
"1915" 47334 2.79770559042834e-08 5.96193672122092e-08 1.24256915412093e-08 1.94847018216236e-07 1.46808195592534e-07 2.17944493397628e-08 3.27010385276863e-09 2.26606661664488e-09
"1916" 47335 2.79705950099465e-08 5.96595995577686e-08 1.24205087282569e-08 1.94682723509655e-07 1.46684989956641e-07 2.18013406399774e-08 3.27015794754685e-09 2.26573492635741e-09
"1917" 47336 2.79641341156097e-08 5.9699831903328e-08 1.24153259153044e-08 1.94518428803075e-07 1.46561784320747e-07 2.18082319401921e-08 3.27021204232507e-09 2.26540323606994e-09
"1918" 47337 2.79576732212728e-08 5.97400642488873e-08 1.2410143102352e-08 1.94354134096494e-07 1.46438578684854e-07 2.18151232404068e-08 3.27026613710329e-09 2.26507154578247e-09
"1919" 47338 2.79512123269359e-08 5.97802965944467e-08 1.24049602893995e-08 1.94189839389913e-07 1.4631537304896e-07 2.18220145406214e-08 3.27032023188151e-09 2.264739855495e-09
"1920" 47339 2.79447514325991e-08 5.98205289400061e-08 1.23997774764471e-08 1.94025544683333e-07 1.46192167413066e-07 2.18289058408361e-08 3.27037432665973e-09 2.26440816520753e-09
"1921" 47340 2.79369727252595e-08 5.98602216292684e-08 1.23820387433405e-08 1.94127491228209e-07 1.46215364995628e-07 2.18895003409728e-08 3.27403383287145e-09 2.26407647492006e-09
"1922" 47341 2.79521732472409e-08 5.98827696040213e-08 1.23820387433405e-08 1.94793033823096e-07 1.46238562578189e-07 2.18963916411875e-08 3.27403383287145e-09 2.26432706916467e-09
"1923" 47342 2.79673737692223e-08 5.99053175787742e-08 1.23820387433405e-08 1.95458576417983e-07 1.4626176016075e-07 2.19032829414021e-08 3.27403383287145e-09 2.26457766340928e-09
"1924" 47343 2.79825742912037e-08 5.99278655535272e-08 1.23820387433405e-08 1.9612411901287e-07 1.46284957743311e-07 2.19101742416168e-08 3.27403383287145e-09 2.26482825765388e-09
"1925" 47344 2.79977748131851e-08 5.99504135282801e-08 1.23820387433405e-08 1.96789661607757e-07 1.46308155325872e-07 2.19170655418315e-08 3.27403383287145e-09 2.26507885189849e-09
"1926" 47345 2.80129753351665e-08 5.99729615030331e-08 1.23820387433405e-08 1.97455204202644e-07 1.46331352908433e-07 2.19239568420461e-08 3.27403383287145e-09 2.2653294461431e-09
"1927" 47346 2.80281758571479e-08 5.9995509477786e-08 1.23820387433405e-08 1.98120746797531e-07 1.46354550490995e-07 2.19308481422608e-08 3.27403383287145e-09 2.2655800403877e-09
"1928" 47347 2.80433763791293e-08 6.0018057452539e-08 1.23820387433405e-08 1.98786289392418e-07 1.46377748073556e-07 2.19377394424755e-08 3.27403383287145e-09 2.26583063463231e-09
"1929" 47348 2.80585769011107e-08 6.00406054272919e-08 1.23820387433405e-08 1.99451831987305e-07 1.46400945656117e-07 2.19446307426902e-08 3.27403383287145e-09 2.26608122887692e-09
"1930" 47349 2.80737774230921e-08 6.00631534020448e-08 1.23820387433405e-08 2.00117374582192e-07 1.46424143238678e-07 2.19515220429048e-08 3.27403383287145e-09 2.26633182312153e-09
"1931" 47350 2.80889779450735e-08 6.00857013767978e-08 1.23820387433405e-08 2.00782917177079e-07 1.46447340821239e-07 2.19584133431195e-08 3.27403383287145e-09 2.26658241736613e-09
"1932" 47351 2.81041784670549e-08 6.01082493515507e-08 1.23820387433405e-08 2.01448459771966e-07 1.46470538403801e-07 2.19653046433342e-08 3.27403383287145e-09 2.26683301161074e-09
"1933" 47352 2.81193789890363e-08 6.01307973263037e-08 1.23820387433405e-08 2.02114002366853e-07 1.46493735986362e-07 2.19721959435489e-08 3.27403383287145e-09 2.26708360585535e-09
"1934" 47353 2.81345795110177e-08 6.01533453010566e-08 1.23820387433405e-08 2.0277954496174e-07 1.46516933568923e-07 2.19790872437635e-08 3.27403383287145e-09 2.26733420009995e-09
"1935" 47354 2.78275900025819e-08 6.01056527191721e-08 1.24107289476931e-08 2.0338982490683e-07 1.4619029483339e-07 2.19880789785353e-08 3.27331275058475e-09 2.26525809158827e-09
"1936" 47355 2.76900210038343e-08 6.01052375989436e-08 1.24394191520458e-08 2.04175973848462e-07 1.46296674041291e-07 2.19809910128061e-08 3.27331275058475e-09 2.26127050202262e-09
"1937" 47356 2.75524520050868e-08 6.01048224787151e-08 1.24681093563984e-08 2.04962122790095e-07 1.46403053249192e-07 2.1973903047077e-08 3.27331275058475e-09 2.25728291245697e-09
"1938" 47357 2.74148830063392e-08 6.01044073584865e-08 1.2496799560751e-08 2.05748271731727e-07 1.46509432457093e-07 2.19668150813478e-08 3.27331275058475e-09 2.25329532289132e-09
"1939" 47358 2.72773140075917e-08 6.0103992238258e-08 1.25254897651036e-08 2.0653442067336e-07 1.46615811664993e-07 2.19597271156187e-08 3.27331275058475e-09 2.24930773332567e-09
"1940" 47359 2.71397450088442e-08 6.01035771180295e-08 1.25541799694562e-08 2.07320569614993e-07 1.46722190872894e-07 2.19526391498895e-08 3.27331275058475e-09 2.24532014376002e-09
"1941" 47360 2.70021760100966e-08 6.0103161997801e-08 1.25828701738088e-08 2.08106718556625e-07 1.46828570080795e-07 2.19455511841604e-08 3.27331275058475e-09 2.24133255419437e-09
"1942" 47361 2.68646070113491e-08 6.01027468775725e-08 1.26115603781615e-08 2.08892867498258e-07 1.46934949288696e-07 2.19384632184312e-08 3.27331275058475e-09 2.23734496462872e-09
"1943" 47362 2.67270380126016e-08 6.0102331757344e-08 1.26402505825141e-08 2.0967901643989e-07 1.47041328496597e-07 2.19313752527021e-08 3.27331275058475e-09 2.23335737506308e-09
"1944" 47363 2.66600632344764e-08 6.0102331757344e-08 1.2784300438269e-08 2.12668822369338e-07 1.47921107962591e-07 2.20060199120927e-08 3.27718863590936e-09 2.23003316607237e-09
"1945" 47364 2.65011302299921e-08 6.01576109381513e-08 1.30094728676808e-08 2.13857140083542e-07 1.47953090042681e-07 2.20626040371756e-08 3.28937508983521e-09 2.23078494880619e-09
"1946" 47365 2.63421972255078e-08 6.02128901189586e-08 1.32346452970926e-08 2.15045457797747e-07 1.47985072122771e-07 2.21191881622585e-08 3.30156154376106e-09 2.23153673154001e-09
"1947" 47366 2.61832642210235e-08 6.02681692997658e-08 1.34598177265044e-08 2.16233775511951e-07 1.48017054202861e-07 2.21757722873415e-08 3.31374799768691e-09 2.23228851427383e-09
"1948" 47367 2.60243312165392e-08 6.03234484805731e-08 1.36849901559162e-08 2.17422093226155e-07 1.48049036282951e-07 2.22323564124244e-08 3.32593445161276e-09 2.23304029700765e-09
"1949" 47368 2.58653982120548e-08 6.03787276613804e-08 1.3910162585328e-08 2.18610410940359e-07 1.48081018363041e-07 2.22889405375073e-08 3.33812090553862e-09 2.23379207974147e-09
"1950" 47369 2.56483308482814e-08 6.02642220045371e-08 1.41198314734414e-08 2.19457686501687e-07 1.47486976168561e-07 2.2240048553359e-08 3.30803343417153e-09 2.22456392938714e-09
"1951" 47370 2.54312634845079e-08 6.01497163476937e-08 1.43295003615548e-08 2.20304962063015e-07 1.4689293397408e-07 2.21911565692107e-08 3.27794596280445e-09 2.21533577903281e-09
"1952" 47371 2.52141961207345e-08 6.00352106908503e-08 1.45391692496682e-08 2.21152237624343e-07 1.462988917796e-07 2.21422645850624e-08 3.24785849143737e-09 2.20610762867847e-09
"1953" 47372 2.4997128756961e-08 5.9920705034007e-08 1.47488381377816e-08 2.2199951318567e-07 1.45704849585119e-07 2.20933726009141e-08 3.21777102007029e-09 2.19687947832414e-09
"1954" 47373 2.47800613931876e-08 5.98061993771636e-08 1.4958507025895e-08 2.22846788746998e-07 1.45110807390639e-07 2.20444806167657e-08 3.18768354870321e-09 2.18765132796981e-09
"1955" 47374 2.45629940294141e-08 5.96916937203203e-08 1.51681759140083e-08 2.23694064308326e-07 1.44516765196158e-07 2.19955886326174e-08 3.15759607733612e-09 2.17842317761547e-09
"1956" 47375 2.43459266656407e-08 5.95771880634769e-08 1.53778448021217e-08 2.24541339869654e-07 1.43922723001678e-07 2.19466966484691e-08 3.12750860596904e-09 2.16919502726114e-09
"1957" 47376 2.41407333086344e-08 5.95263970518815e-08 1.54921279637475e-08 2.24875323659486e-07 1.43686854842755e-07 2.19793813241583e-08 3.11488939381742e-09 2.16162532834415e-09
"1958" 47377 2.39355399516282e-08 5.94756060402861e-08 1.56064111253733e-08 2.25209307449318e-07 1.43450986683833e-07 2.20120659998475e-08 3.1022701816658e-09 2.15405562942717e-09
"1959" 47378 2.37303465946219e-08 5.94248150286907e-08 1.5720694286999e-08 2.2554329123915e-07 1.43215118524911e-07 2.20447506755366e-08 3.08965096951418e-09 2.14648593051018e-09
"1960" 47379 2.35251532376156e-08 5.93740240170953e-08 1.58349774486248e-08 2.25877275028981e-07 1.42979250365988e-07 2.20774353512258e-08 3.07703175736256e-09 2.13891623159319e-09
"1961" 47380 2.33199598806094e-08 5.93232330054999e-08 1.59492606102506e-08 2.26211258818813e-07 1.42743382207066e-07 2.2110120026915e-08 3.06441254521094e-09 2.1313465326762e-09
"1962" 47381 2.31147665236031e-08 5.92724419939044e-08 1.60635437718763e-08 2.26545242608645e-07 1.42507514048143e-07 2.21428047026041e-08 3.05179333305932e-09 2.12377683375921e-09
"1963" 47382 2.29095731665969e-08 5.9221650982309e-08 1.61778269335021e-08 2.26879226398477e-07 1.42271645889221e-07 2.21754893782933e-08 3.0391741209077e-09 2.11620713484222e-09
"1964" 47383 2.35477071255256e-08 6.02125705594067e-08 1.61617375468625e-08 2.26590859211166e-07 1.41598725205689e-07 2.20950908757888e-08 3.00549313822033e-09 2.1033206498377e-09
"1965" 47384 2.41858410844544e-08 6.12034901365043e-08 1.6145648160223e-08 2.26302492023856e-07 1.40925804522158e-07 2.20146923732843e-08 2.97181215553297e-09 2.09043416483319e-09
"1966" 47385 2.48239750433831e-08 6.2194409713602e-08 1.61295587735834e-08 2.26014124836545e-07 1.40252883838627e-07 2.19342938707798e-08 2.9381311728456e-09 2.07754767982867e-09
"1967" 47386 2.54621090023118e-08 6.31853292906996e-08 1.61134693869438e-08 2.25725757649235e-07 1.39579963155095e-07 2.18538953682752e-08 2.90445019015824e-09 2.06466119482415e-09
"1968" 47387 2.61002429612406e-08 6.41762488677973e-08 1.60973800003043e-08 2.25437390461925e-07 1.38907042471564e-07 2.17734968657707e-08 2.87076920747087e-09 2.05177470981963e-09
"1969" 47388 2.67383769201693e-08 6.51671684448949e-08 1.60812906136647e-08 2.25149023274614e-07 1.38234121788032e-07 2.16930983632662e-08 2.83708822478351e-09 2.03888822481511e-09
"1970" 47389 2.73765108790981e-08 6.61580880219926e-08 1.60652012270251e-08 2.24860656087304e-07 1.37561201104501e-07 2.16126998607617e-08 2.80340724209614e-09 2.02600173981059e-09
"1971" 47390 2.82198381950331e-08 6.72797651575302e-08 1.58983326089798e-08 2.24068628093071e-07 1.37499806206439e-07 2.16377774674884e-08 2.78701438411975e-09 2.02774859340681e-09
"1972" 47391 2.89491615961076e-08 6.84404695722785e-08 1.58984407985362e-08 2.24013265491548e-07 1.37501770278614e-07 2.1676834340159e-08 2.78668981545042e-09 2.0011451799931e-09
"1973" 47392 2.96784849971821e-08 6.96011739870267e-08 1.58985489880926e-08 2.23957902890025e-07 1.37503734350788e-07 2.17158912128295e-08 2.7863652467811e-09 1.97454176657938e-09
"1974" 47393 3.04078083982566e-08 7.0761878401775e-08 1.58986571776491e-08 2.23902540288501e-07 1.37505698422963e-07 2.17549480855e-08 2.78604067811177e-09 1.94793835316567e-09
"1975" 47394 3.11371317993311e-08 7.19225828165233e-08 1.58987653672055e-08 2.23847177686978e-07 1.37507662495137e-07 2.17940049581706e-08 2.78571610944244e-09 1.92133493975195e-09
"1976" 47395 3.18664552004056e-08 7.30832872312716e-08 1.5898873556762e-08 2.23791815085454e-07 1.37509626567311e-07 2.18330618308411e-08 2.78539154077312e-09 1.89473152633824e-09
"1977" 47396 3.25957786014801e-08 7.42439916460198e-08 1.58989817463184e-08 2.23736452483931e-07 1.37511590639486e-07 2.18721187035117e-08 2.78506697210379e-09 1.86812811292452e-09
"1978" 47397 3.33251020025545e-08 7.54046960607681e-08 1.58990899358748e-08 2.23681089882407e-07 1.3751355471166e-07 2.19111755761822e-08 2.78474240343446e-09 1.84152469951081e-09
"1979" 47398 3.31981670925761e-08 7.54094970922589e-08 1.59009767587872e-08 2.23575751011924e-07 1.37634359402851e-07 2.19206235280851e-08 2.78441783476514e-09 1.81325796391573e-09
"1980" 47399 3.32312221754328e-08 7.54845176199542e-08 1.59049878810574e-08 2.23436891708807e-07 1.37714645038778e-07 2.2085429072394e-08 2.78730811396855e-09 1.79488032387792e-09
"1981" 47400 3.32642772582894e-08 7.55595381476495e-08 1.59089990033275e-08 2.23298032405691e-07 1.37794930674705e-07 2.22502346167028e-08 2.79019839317195e-09 1.77650268384011e-09
"1982" 47401 3.3297332341146e-08 7.56345586753448e-08 1.59130101255977e-08 2.23159173102574e-07 1.37875216310632e-07 2.24150401610117e-08 2.79308867237536e-09 1.7581250438023e-09
"1983" 47402 3.33303874240026e-08 7.57095792030401e-08 1.59170212478679e-08 2.23020313799458e-07 1.37955501946558e-07 2.25798457053206e-08 2.79597895157877e-09 1.73974740376449e-09
"1984" 47403 3.33634425068592e-08 7.57845997307354e-08 1.5921032370138e-08 2.22881454496342e-07 1.38035787582485e-07 2.27446512496295e-08 2.79886923078218e-09 1.72136976372668e-09
"1985" 47404 3.33964975897158e-08 7.58596202584307e-08 1.59250434924082e-08 2.22742595193225e-07 1.38116073218412e-07 2.29094567939383e-08 2.80175950998559e-09 1.70299212368887e-09
"1986" 47405 3.34295526725724e-08 7.5934640786126e-08 1.59290546146783e-08 2.22603735890109e-07 1.38196358854339e-07 2.30742623382472e-08 2.804649789189e-09 1.68461448365106e-09
"1987" 47406 3.3462607755429e-08 7.60096613138213e-08 1.59330657369485e-08 2.22464876586992e-07 1.38276644490266e-07 2.32390678825561e-08 2.8075400683924e-09 1.66623684361324e-09
"1988" 47407 3.34956628382857e-08 7.60846818415166e-08 1.59370768592187e-08 2.22326017283876e-07 1.38356930126193e-07 2.34038734268649e-08 2.81043034759581e-09 1.64785920357543e-09
"1989" 47408 3.35287179211423e-08 7.61597023692119e-08 1.59410879814888e-08 2.22187157980759e-07 1.38437215762119e-07 2.35686789711738e-08 2.81332062679922e-09 1.62948156353762e-09
"1990" 47409 3.35617730039989e-08 7.62347228969072e-08 1.5945099103759e-08 2.22048298677643e-07 1.38517501398046e-07 2.37334845154827e-08 2.81621090600263e-09 1.61110392349981e-09
"1991" 47410 3.35948280868555e-08 7.63097434246025e-08 1.59491102260291e-08 2.21909439374526e-07 1.38597787033973e-07 2.38982900597916e-08 2.81910118520604e-09 1.592726283462e-09
"1992" 47411 3.36278831697121e-08 7.63847639522978e-08 1.59531213482993e-08 2.2177058007141e-07 1.386780726699e-07 2.40630956041004e-08 2.82199146440945e-09 1.57434864342419e-09
"1993" 47412 3.36609382525687e-08 7.64597844799931e-08 1.59571324705694e-08 2.21631720768293e-07 1.38758358305827e-07 2.42279011484093e-08 2.82488174361285e-09 1.55597100338638e-09
"1994" 47413 3.37769326965996e-08 7.65395639183133e-08 1.59602331788291e-08 2.21521000592814e-07 1.3872857791273e-07 2.43832587408153e-08 2.83596845180446e-09 1.55887999067475e-09
"1995" 47414 3.39347263344301e-08 7.65194880398704e-08 1.59620329095176e-08 2.21534266018013e-07 1.38430399045172e-07 2.45444959485395e-08 2.84694697043962e-09 1.56611069318825e-09
"1996" 47415 3.40925199722605e-08 7.64994121614276e-08 1.5963832640206e-08 2.21547531443212e-07 1.38132220177615e-07 2.47057331562637e-08 2.85792548907478e-09 1.57334139570175e-09
"1997" 47416 3.4250313610091e-08 7.64793362829848e-08 1.59656323708945e-08 2.2156079686841e-07 1.37834041310057e-07 2.4866970363988e-08 2.86890400770994e-09 1.58057209821524e-09
"1998" 47417 3.44081072479215e-08 7.64592604045419e-08 1.59674321015829e-08 2.21574062293609e-07 1.375358624425e-07 2.50282075717122e-08 2.87988252634511e-09 1.58780280072874e-09
"1999" 47418 3.4565900885752e-08 7.64391845260991e-08 1.59692318322714e-08 2.21587327718808e-07 1.37237683574942e-07 2.51894447794364e-08 2.89086104498027e-09 1.59503350324224e-09
"2000" 47419 3.47236945235825e-08 7.64191086476563e-08 1.59710315629598e-08 2.21600593144007e-07 1.36939504707385e-07 2.53506819871606e-08 2.90183956361543e-09 1.60226420575574e-09
"2001" 47420 3.48814881614129e-08 7.63990327692134e-08 1.59728312936482e-08 2.21613858569206e-07 1.36641325839827e-07 2.55119191948849e-08 2.91281808225059e-09 1.60949490826923e-09
"2002" 47421 3.50392817992434e-08 7.63789568907706e-08 1.59746310243367e-08 2.21627123994405e-07 1.3634314697227e-07 2.56731564026091e-08 2.92379660088576e-09 1.61672561078273e-09
"2003" 47422 3.5555413380548e-08 7.62597542869151e-08 1.59787292388308e-08 2.21627223946131e-07 1.36588663466242e-07 2.5824363669095e-08 2.943187927622e-09 1.6372628907471e-09
"2004" 47423 3.60715449618526e-08 7.61405516830596e-08 1.59828274533249e-08 2.21627323897857e-07 1.36834179960214e-07 2.59755709355808e-08 2.96257925435824e-09 1.65780017071147e-09
"2005" 47424 3.65876765431571e-08 7.60213490792042e-08 1.5986925667819e-08 2.21627423849583e-07 1.37079696454186e-07 2.61267782020667e-08 2.98197058109448e-09 1.67833745067584e-09
"2006" 47425 3.71038081244617e-08 7.59021464753487e-08 1.59910238823131e-08 2.21627523801309e-07 1.37325212948158e-07 2.62779854685526e-08 3.00136190783073e-09 1.69887473064021e-09
"2007" 47426 3.76199397057663e-08 7.57829438714932e-08 1.59951220968072e-08 2.21627623753036e-07 1.3757072944213e-07 2.64291927350385e-08 3.02075323456697e-09 1.71941201060458e-09
"2008" 47427 3.81120487591418e-08 7.54246718675612e-08 1.59369210692093e-08 2.21383440662137e-07 1.38170161391609e-07 2.65860687726661e-08 3.04014456130321e-09 1.7413620185057e-09
"2009" 47428 3.86041578125173e-08 7.50663998636292e-08 1.58787200416115e-08 2.21139257571239e-07 1.38769593341088e-07 2.67429448102937e-08 3.05953588803945e-09 1.76331202640682e-09
"2010" 47429 3.90962668658928e-08 7.47081278596972e-08 1.58205190140137e-08 2.2089507448034e-07 1.39369025290568e-07 2.68998208479213e-08 3.0789272147757e-09 1.78526203430795e-09
"2011" 47430 3.95883759192683e-08 7.43498558557652e-08 1.57623179864158e-08 2.20650891389441e-07 1.39968457240047e-07 2.70566968855489e-08 3.09831854151194e-09 1.80721204220907e-09
"2012" 47431 4.00804849726438e-08 7.39915838518331e-08 1.5704116958818e-08 2.20406708298543e-07 1.40567889189526e-07 2.72135729231765e-08 3.11770986824818e-09 1.82916205011019e-09
"2013" 47432 4.05725940260194e-08 7.36333118479011e-08 1.56459159312202e-08 2.20162525207644e-07 1.41167321139006e-07 2.73704489608041e-08 3.13710119498442e-09 1.85111205801131e-09
"2014" 47433 4.10647030793949e-08 7.32750398439691e-08 1.55877149036223e-08 2.19918342116746e-07 1.41766753088485e-07 2.75273249984317e-08 3.15649252172067e-09 1.87306206591243e-09
"2015" 47434 4.15568121327704e-08 7.29167678400371e-08 1.55295138760245e-08 2.19674159025847e-07 1.42366185037964e-07 2.76842010360593e-08 3.17588384845691e-09 1.89501207381355e-09
"2016" 47435 4.20489211861459e-08 7.25584958361051e-08 1.54713128484266e-08 2.19429975934949e-07 1.42965616987444e-07 2.78410770736869e-08 3.19527517519315e-09 1.91696208171468e-09
"2017" 47436 4.25410302395214e-08 7.22002238321731e-08 1.54131118208288e-08 2.1918579284405e-07 1.43565048936923e-07 2.79979531113145e-08 3.2146665019294e-09 1.9389120896158e-09
"2018" 47437 4.30331392928969e-08 7.1841951828241e-08 1.5354910793231e-08 2.18941609753152e-07 1.44164480886402e-07 2.81548291489421e-08 3.23405782866564e-09 1.96086209751692e-09
"2019" 47438 4.35252483462724e-08 7.1483679824309e-08 1.52967097656331e-08 2.18697426662253e-07 1.44763912835882e-07 2.83117051865697e-08 3.25344915540188e-09 1.98281210541804e-09
"2020" 47439 4.40173573996479e-08 7.1125407820377e-08 1.52385087380353e-08 2.18453243571355e-07 1.45363344785361e-07 2.84685812241973e-08 3.27284048213812e-09 2.00476211331916e-09
"2021" 47440 4.45094664530235e-08 7.0767135816445e-08 1.51803077104374e-08 2.18209060480456e-07 1.4596277673484e-07 2.86254572618249e-08 3.29223180887437e-09 2.02671212122028e-09
"2022" 47441 4.5001575506399e-08 7.0408863812513e-08 1.51221066828396e-08 2.17964877389558e-07 1.46562208684319e-07 2.87823332994525e-08 3.31162313561061e-09 2.04866212912141e-09
"2023" 47442 4.54936845597745e-08 7.00505918085809e-08 1.50639056552418e-08 2.17720694298659e-07 1.47161640633799e-07 2.89392093370802e-08 3.33101446234685e-09 2.07061213702253e-09
"2024" 47443 4.54685226651916e-08 6.97717051831735e-08 1.50016064131498e-08 2.17583248396897e-07 1.47227176549863e-07 2.89431081185916e-08 3.33228839252898e-09 2.06936647191551e-09
"2025" 47444 4.55259021698572e-08 6.94244683202758e-08 1.49494986125149e-08 2.17452078338098e-07 1.47282913137812e-07 2.89428060309889e-08 3.33218020297254e-09 2.06845249709597e-09
"2026" 47445 4.55832816745229e-08 6.90772314573781e-08 1.489739081188e-08 2.173209082793e-07 1.47338649725762e-07 2.89425039433861e-08 3.33207201341610e-09 2.06753852227642e-09
"2027" 47446 4.56406611791885e-08 6.87299945944805e-08 1.48452830112451e-08 2.17189738220501e-07 1.47394386313712e-07 2.89422018557834e-08 3.33196382385965e-09 2.06662454745688e-09
"2028" 47447 4.56980406838541e-08 6.83827577315828e-08 1.47931752106102e-08 2.17058568161703e-07 1.47450122901661e-07 2.89418997681807e-08 3.33185563430321e-09 2.06571057263733e-09
"2029" 47448 4.57554201885197e-08 6.80355208686851e-08 1.47410674099753e-08 2.16927398102904e-07 1.47505859489611e-07 2.89415976805779e-08 3.33174744474677e-09 2.06479659781779e-09
"2030" 47449 4.58073728910124e-08 6.80114357314007e-08 1.47477015847204e-08 2.17032430079615e-07 1.47530501358471e-07 2.89120029384723e-08 3.31694713556522e-09 2.055239192548e-09
"2031" 47450 4.57640363686332e-08 6.77010650871534e-08 1.47543357594655e-08 2.16036103155646e-07 1.4761102090081e-07 2.89055049692866e-08 3.30586042737362e-09 2.05565441425033e-09
"2032" 47451 4.5720699846254e-08 6.73906944429062e-08 1.47609699342107e-08 2.15039776231677e-07 1.47691540443148e-07 2.88990070001009e-08 3.29477371918201e-09 2.05606963595267e-09
"2033" 47452 4.56773633238749e-08 6.7080323798659e-08 1.47676041089558e-08 2.14043449307708e-07 1.47772059985486e-07 2.88925090309151e-08 3.28368701099041e-09 2.05648485765501e-09
"2034" 47453 4.56340268014957e-08 6.67699531544118e-08 1.47742382837009e-08 2.13047122383738e-07 1.47852579527824e-07 2.88860110617294e-08 3.2726003027988e-09 2.05690007935735e-09
"2035" 47454 4.55906902791165e-08 6.64595825101646e-08 1.47808724584461e-08 2.12050795459769e-07 1.47933099070163e-07 2.88795130925437e-08 3.2615135946072e-09 2.05731530105969e-09
"2036" 47455 4.55473537567373e-08 6.61492118659173e-08 1.47875066331912e-08 2.110544685358e-07 1.48013618612501e-07 2.8873015123358e-08 3.2504268864156e-09 2.05773052276202e-09
"2037" 47456 4.55040172343581e-08 6.58388412216701e-08 1.47941408079364e-08 2.10058141611831e-07 1.48094138154839e-07 2.88665171541723e-08 3.23934017822399e-09 2.05814574446436e-09
"2038" 47457 4.58509022690248e-08 6.56844353154502e-08 1.47881768678624e-08 2.08963466405126e-07 1.4884935310271e-07 2.89329850981731e-08 3.23140827307029e-09 2.07277908306511e-09
"2039" 47458 4.62652974208634e-08 6.53641726329045e-08 1.47986057857648e-08 2.0811416968798e-07 1.48993365283998e-07 2.8942868917091e-08 3.22574780433314e-09 2.09605828748811e-09
"2040" 47459 4.66796925727019e-08 6.50439099503589e-08 1.48090347036672e-08 2.07264872970834e-07 1.49137377465286e-07 2.89527527360089e-08 3.22008733559598e-09 2.11933749191112e-09
"2041" 47460 4.70940877245404e-08 6.47236472678132e-08 1.48194636215696e-08 2.06415576253687e-07 1.49281389646574e-07 2.89626365549269e-08 3.21442686685882e-09 2.14261669633412e-09
"2042" 47461 4.75084828763789e-08 6.44033845852676e-08 1.4829892539472e-08 2.05566279536541e-07 1.49425401827862e-07 2.89725203738448e-08 3.20876639812166e-09 2.16589590075713e-09
"2043" 47462 4.79228780282175e-08 6.40831219027219e-08 1.48403214573744e-08 2.04716982819395e-07 1.4956941400915e-07 2.89824041927627e-08 3.20310592938451e-09 2.18917510518013e-09
"2044" 47463 4.8337273180056e-08 6.37628592201762e-08 1.48507503752768e-08 2.03867686102249e-07 1.49713426190438e-07 2.89922880116806e-08 3.19744546064735e-09 2.21245430960314e-09
"2045" 47464 4.87516683318945e-08 6.34425965376306e-08 1.48611792931793e-08 2.03018389385103e-07 1.49857438371726e-07 2.90021718305985e-08 3.19178499191019e-09 2.23573351402614e-09
"2046" 47465 4.9166063483733e-08 6.31223338550849e-08 1.48716082110817e-08 2.02169092667956e-07 1.50001450553014e-07 2.90120556495164e-08 3.18612452317304e-09 2.25901271844915e-09
"2047" 47466 4.95804586355716e-08 6.28020711725392e-08 1.48820371289841e-08 2.0131979595081e-07 1.50145462734302e-07 2.90219394684343e-08 3.18046405443588e-09 2.28229192287215e-09
"2048" 47467 4.99948537874101e-08 6.24818084899936e-08 1.48924660468865e-08 2.00470499233664e-07 1.5028947491559e-07 2.90318232873523e-08 3.17480358569872e-09 2.30557112729515e-09
"2049" 47468 5.04092489392486e-08 6.21615458074479e-08 1.49028949647889e-08 1.99621202516518e-07 1.50433487096878e-07 2.90417071062702e-08 3.16914311696156e-09 2.32885033171816e-09
"2050" 47469 5.08236440910871e-08 6.18412831249023e-08 1.49133238826913e-08 1.98771905799372e-07 1.50577499278166e-07 2.90515909251881e-08 3.16348264822441e-09 2.35212953614116e-09
"2051" 47470 5.12380392429257e-08 6.15210204423566e-08 1.49237528005937e-08 1.97922609082225e-07 1.50721511459454e-07 2.9061474744106e-08 3.15782217948725e-09 2.37540874056417e-09
"2052" 47471 5.1753150421809e-08 6.15168643693276e-08 1.4915748950492e-08 1.98167987571784e-07 1.50744485043139e-07 2.90691952423647e-08 3.15537655862283e-09 2.39594602052854e-09
"2053" 47472 5.2094269934646e-08 6.15069723310291e-08 1.49256369206122e-08 1.98310719854383e-07 1.50816164406489e-07 2.90441176356379e-08 3.15564703251393e-09 2.41648330049291e-09
"2054" 47473 5.24353894474831e-08 6.14970802927307e-08 1.49355248907324e-08 1.98453452136983e-07 1.50887843769838e-07 2.90190400289112e-08 3.15591750640504e-09 2.43702058045728e-09
"2055" 47474 5.27765089603201e-08 6.14871882544322e-08 1.49454128608526e-08 1.98596184419582e-07 1.50959523133188e-07 2.89939624221845e-08 3.15618798029614e-09 2.45755786042165e-09
"2056" 47475 5.31176284731572e-08 6.14772962161338e-08 1.49553008309728e-08 1.98738916702182e-07 1.51031202496537e-07 2.89688848154578e-08 3.15645845418725e-09 2.47809514038602e-09
"2057" 47476 5.34587479859942e-08 6.14674041778354e-08 1.4965188801093e-08 1.98881648984781e-07 1.51102881859887e-07 2.89438072087311e-08 3.15672892807835e-09 2.49863242035039e-09
"2058" 47477 5.37998674988312e-08 6.14575121395369e-08 1.49750767712132e-08 1.9902438126738e-07 1.51174561223236e-07 2.89187296020043e-08 3.15699940196946e-09 2.51916970031476e-09
"2059" 47478 5.41409870116683e-08 6.14476201012385e-08 1.49849647413334e-08 1.9916711354998e-07 1.51246240586586e-07 2.88936519952776e-08 3.15726987586056e-09 2.53970698027913e-09
"2060" 47479 5.44821065245053e-08 6.143772806294e-08 1.49948527114536e-08 1.99309845832579e-07 1.51317919949935e-07 2.88685743885509e-08 3.15754034975167e-09 2.5602442602435e-09
"2061" 47480 5.45268158587051e-08 6.15258196473184e-08 1.50001886115214e-08 1.99270543282533e-07 1.53046017805396e-07 2.90969466015836e-08 3.18131821504294e-09 2.5602442602435e-09
"2062" 47481 5.43792489014266e-08 6.2019667039713e-08 1.51243597432674e-08 2.0193928835471e-07 1.5329632008211e-07 2.91978630394498e-08 3.18403430979847e-09 2.55883153230674e-09
"2063" 47482 5.42316819441481e-08 6.25135144321076e-08 1.52485308750133e-08 2.04608033426887e-07 1.53546622358823e-07 2.92987794773161e-08 3.186750404554e-09 2.55741880436999e-09
"2064" 47483 5.40841149868696e-08 6.30073618245022e-08 1.53727020067593e-08 2.07276778499064e-07 1.53796924635536e-07 2.93996959151823e-08 3.18946649930953e-09 2.55600607643324e-09
"2065" 47484 5.3936548029591e-08 6.35012092168968e-08 1.54968731385053e-08 2.09945523571241e-07 1.54047226912249e-07 2.95006123530485e-08 3.19218259406505e-09 2.55459334849649e-09
"2066" 47485 5.3893856604047e-08 6.39354137953408e-08 1.56182470333284e-08 2.12149943568486e-07 1.53770350852481e-07 2.96001583037675e-08 3.17578973608866e-09 2.55051735677196e-09
"2067" 47486 5.38511651785029e-08 6.43696183737848e-08 1.57396209281515e-08 2.14354363565731e-07 1.53493474792714e-07 2.96997042544864e-08 3.15939687811227e-09 2.54644136504742e-09
"2068" 47487 5.38084737529588e-08 6.48038229522289e-08 1.58609948229746e-08 2.16558783562977e-07 1.53216598732947e-07 2.97992502052054e-08 3.14300402013588e-09 2.54236537332289e-09
"2069" 47488 5.37657823274147e-08 6.52380275306729e-08 1.59823687177977e-08 2.18763203560222e-07 1.52939722673179e-07 2.98987961559244e-08 3.12661116215948e-09 2.53828938159836e-09
"2070" 47489 5.37230909018706e-08 6.56722321091169e-08 1.61037426126208e-08 2.20967623557468e-07 1.52662846613412e-07 2.99983421066433e-08 3.11021830418309e-09 2.53421338987383e-09
"2071" 47490 5.36803994763266e-08 6.61064366875609e-08 1.62251165074439e-08 2.23172043554713e-07 1.52385970553645e-07 3.00978880573623e-08 3.0938254462067e-09 2.5301373981493e-09
"2072" 47491 5.36377080507825e-08 6.6540641266005e-08 1.6346490402267e-08 2.25376463551959e-07 1.52109094493877e-07 3.01974340080812e-08 3.07743258823031e-09 2.52606140642476e-09
"2073" 47492 5.35950166252384e-08 6.6974845844449e-08 1.64678642970901e-08 2.27580883549204e-07 1.5183221843411e-07 3.02969799588002e-08 3.06103973025392e-09 2.52198541470023e-09
"2074" 47493 5.35523251996943e-08 6.7409050422893e-08 1.65892381919133e-08 2.2978530354645e-07 1.51555342374343e-07 3.03965259095191e-08 3.04464687227752e-09 2.5179094229757e-09
"2075" 47494 5.35096337741502e-08 6.7843255001337e-08 1.67106120867364e-08 2.31989723543695e-07 1.51278466314575e-07 3.04960718602381e-08 3.02825401430113e-09 2.51383343125117e-09
"2076" 47495 5.34669423486061e-08 6.8277459579781e-08 1.68319859815595e-08 2.3419414354094e-07 1.51001590254808e-07 3.05956178109571e-08 3.01186115632474e-09 2.50975743952664e-09
"2077" 47496 5.34242509230621e-08 6.87116641582251e-08 1.69533598763826e-08 2.36398563538186e-07 1.5072471419504e-07 3.0695163761676e-08 2.99546829834835e-09 2.5056814478021e-09
"2078" 47497 5.3381559497518e-08 6.91458687366691e-08 1.70747337712057e-08 2.38602983535431e-07 1.50447838135273e-07 3.0794709712395e-08 2.97907544037195e-09 2.50160545607757e-09
"2079" 47498 5.33388680719739e-08 6.95800733151131e-08 1.71961076660288e-08 2.40807403532677e-07 1.50170962075506e-07 3.08942556631139e-08 2.96268258239556e-09 2.49752946435304e-09
"2080" 47499 5.32961766464298e-08 7.00142778935572e-08 1.73174815608519e-08 2.43011823529922e-07 1.49894086015738e-07 3.09938016138329e-08 2.94628972441917e-09 2.49345347262851e-09
"2081" 47500 5.32534852208857e-08 7.04484824720012e-08 1.7438855455675e-08 2.45216243527168e-07 1.49617209955971e-07 3.10933475645518e-08 2.92989686644278e-09 2.48937748090397e-09
"2082" 47501 5.32107937953417e-08 7.08826870504452e-08 1.75602293504981e-08 2.47420663524413e-07 1.49340333896204e-07 3.11928935152708e-08 2.91350400846639e-09 2.48530148917944e-09
"2083" 47502 5.31484725518776e-08 7.09424128884415e-08 1.75568911657931e-08 2.46941666661523e-07 1.49120727823161e-07 3.11502602988076e-08 2.90447235757844e-09 2.48322294529575e-09
"2084" 47503 5.48704064807885e-08 7.08747689641827e-08 1.75562420284544e-08 2.46421380280225e-07 1.48760387966997e-07 3.11095166727251e-08 2.88142747468708e-09 2.53641515989113e-09
"2085" 47504 5.65923404096995e-08 7.08071250399238e-08 1.75555928911158e-08 2.45901093898926e-07 1.48400048110834e-07 3.10687730466425e-08 2.85838259179573e-09 2.58960737448652e-09
"2086" 47505 5.83142743386104e-08 7.0739481115665e-08 1.75549437537771e-08 2.45380807517628e-07 1.4803970825467e-07 3.10280294205599e-08 2.83533770890437e-09 2.64279958908191e-09
"2087" 47506 5.97207446792387e-08 7.06340149785442e-08 1.75542946164384e-08 2.439367052737e-07 1.46029725775511e-07 3.10182652023923e-08 2.83750095576447e-09 2.69341450667639e-09
"2088" 47507 6.15211520874559e-08 7.03820622391519e-08 1.74899581672127e-08 2.43687438721957e-07 1.45693590915679e-07 3.0837132748874e-08 2.82725541952923e-09 2.75026505592197e-09
"2089" 47508 6.3321559495673e-08 7.01301094997597e-08 1.74256217179869e-08 2.43438172170214e-07 1.45357456055847e-07 3.06560002953557e-08 2.81700988329398e-09 2.80711560516754e-09
"2090" 47509 6.51219669038902e-08 6.98781567603675e-08 1.73612852687611e-08 2.43188905618471e-07 1.45021321196015e-07 3.04748678418374e-08 2.80676434705874e-09 2.86396615441311e-09
"2091" 47510 6.69223743121073e-08 6.96262040209753e-08 1.72969488195354e-08 2.42939639066729e-07 1.44685186336184e-07 3.02937353883191e-08 2.79651881082349e-09 2.92081670365869e-09
"2092" 47511 6.87227817203244e-08 6.9374251281583e-08 1.72326123703096e-08 2.42690372514986e-07 1.44349051476352e-07 3.01126029348008e-08 2.78627327458825e-09 2.97766725290426e-09
"2093" 47512 7.05231891285416e-08 6.91222985421908e-08 1.71682759210838e-08 2.42441105963243e-07 1.4401291661652e-07 2.99314704812825e-08 2.776027738353e-09 3.03451780214984e-09
"2094" 47513 7.23235965367587e-08 6.88703458027986e-08 1.71039394718581e-08 2.421918394115e-07 1.43676781756688e-07 2.97503380277642e-08 2.76578220211776e-09 3.09136835139541e-09
"2095" 47514 7.41240039449759e-08 6.86183930634064e-08 1.70396030226323e-08 2.41942572859757e-07 1.43340646896856e-07 2.95692055742459e-08 2.75553666588251e-09 3.14821890064099e-09
"2096" 47515 7.5924411353193e-08 6.83664403240141e-08 1.69752665734065e-08 2.41693306308014e-07 1.43004512037024e-07 2.93880731207276e-08 2.74529112964727e-09 3.20506944988656e-09
"2097" 47516 7.5993349041156e-08 6.81915861488317e-08 1.69141179246644e-08 2.41555053753848e-07 1.42529265905322e-07 2.92059573396369e-08 2.75809047630338e-09 3.24331124782577e-09
"2098" 47517 7.60140587436135e-08 6.79444133804973e-08 1.68422341837891e-08 2.41247030263947e-07 1.42194090194615e-07 2.90238415585462e-08 2.75205134411867e-09 3.24164792564442e-09
"2099" 47518 7.6034768446071e-08 6.76972406121629e-08 1.67703504429138e-08 2.40939006774046e-07 1.41858914483909e-07 2.88417257774556e-08 2.74601221193397e-09 3.23998460346306e-09
"2100" 47519 7.60554781485285e-08 6.74500678438285e-08 1.66984667020385e-08 2.40630983284145e-07 1.41523738773202e-07 2.86596099963649e-08 2.73997307974926e-09 3.2383212812817e-09
"2101" 47520 7.6076187850986e-08 6.72028950754941e-08 1.66265829611631e-08 2.40322959794244e-07 1.41188563062496e-07 2.84774942152742e-08 2.73393394756456e-09 3.23665795910034e-09
"2102" 47521 7.60968975534435e-08 6.69557223071597e-08 1.65546992202878e-08 2.40014936304343e-07 1.40853387351789e-07 2.82953784341835e-08 2.72789481537985e-09 3.23499463691898e-09
"2103" 47522 7.6117607255901e-08 6.67085495388253e-08 1.64828154794125e-08 2.39706912814442e-07 1.40518211641082e-07 2.81132626530928e-08 2.72185568319515e-09 3.23333131473762e-09
"2104" 47523 7.61383169583585e-08 6.64613767704909e-08 1.64109317385372e-08 2.39398889324541e-07 1.40183035930376e-07 2.79311468720021e-08 2.71581655101044e-09 3.23166799255626e-09
"2105" 47524 7.6159026660816e-08 6.62142040021565e-08 1.63390479976619e-08 2.3909086583464e-07 1.39847860219669e-07 2.77490310909115e-08 2.70977741882574e-09 3.2300046703749e-09
"2106" 47525 7.61797363632735e-08 6.59670312338221e-08 1.62671642567866e-08 2.38782842344739e-07 1.39512684508963e-07 2.75669153098208e-08 2.70373828664103e-09 3.22834134819354e-09
"2107" 47526 7.6200446065731e-08 6.57198584654877e-08 1.61952805159113e-08 2.38474818854838e-07 1.39177508798256e-07 2.73847995287301e-08 2.69769915445633e-09 3.22667802601218e-09
"2108" 47527 7.62211557681886e-08 6.54726856971533e-08 1.6123396775036e-08 2.38166795364937e-07 1.3884233308755e-07 2.72026837476394e-08 2.69166002227162e-09 3.22501470383083e-09
"2109" 47528 7.62418654706461e-08 6.52255129288188e-08 1.60515130341606e-08 2.37858771875036e-07 1.38507157376843e-07 2.70205679665487e-08 2.68562089008692e-09 3.22335138164947e-09
"2110" 47529 7.62625751731036e-08 6.49783401604844e-08 1.59796292932853e-08 2.37550748385135e-07 1.38171981666136e-07 2.6838452185458e-08 2.67958175790221e-09 3.22168805946811e-09
"2111" 47530 7.63003248598492e-08 6.49668068751759e-08 1.59769613432514e-08 2.37552144692761e-07 1.38013728425639e-07 2.68357759330196e-08 2.68206957343164e-09 3.21711818537038e-09
"2112" 47531 7.63380745465949e-08 6.49552735898674e-08 1.59742933932175e-08 2.37553541000386e-07 1.37855475185141e-07 2.68330996805811e-08 2.68455738896107e-09 3.21254831127266e-09
"2113" 47532 7.63758242333405e-08 6.49437403045588e-08 1.59716254431836e-08 2.37554937308012e-07 1.37697221944643e-07 2.68304234281426e-08 2.68704520449049e-09 3.20797843717493e-09
"2114" 47533 7.64135739200862e-08 6.49322070192503e-08 1.59689574931497e-08 2.37556333615637e-07 1.37538968704146e-07 2.68277471757041e-08 2.68953302001992e-09 3.20340856307721e-09
"2115" 47534 7.64513236068319e-08 6.49206737339418e-08 1.59662895431158e-08 2.37557729923263e-07 1.37380715463648e-07 2.68250709232656e-08 2.69202083554935e-09 3.19883868897948e-09
"2116" 47535 7.64890732935775e-08 6.49091404486332e-08 1.59636215930818e-08 2.37559126230888e-07 1.3722246222315e-07 2.68223946708271e-08 2.69450865107877e-09 3.19426881488176e-09
"2117" 47536 7.65268229803232e-08 6.48976071633247e-08 1.59609536430479e-08 2.37560522538514e-07 1.37064208982653e-07 2.68197184183886e-08 2.6969964666082e-09 3.18969894078403e-09
"2118" 47537 7.65645726670689e-08 6.48860738780162e-08 1.5958285693014e-08 2.37561918846139e-07 1.36905955742155e-07 2.68170421659502e-08 2.69948428213763e-09 3.18512906668631e-09
"2119" 47538 7.66023223538145e-08 6.48745405927076e-08 1.59556177429801e-08 2.37563315153765e-07 1.36747702501657e-07 2.68143659135117e-08 2.70197209766705e-09 3.18055919258859e-09
"2120" 47539 7.66400720405602e-08 6.48630073073991e-08 1.59529497929462e-08 2.3756471146139e-07 1.36589449261159e-07 2.68116896610732e-08 2.70445991319648e-09 3.17598931849086e-09
"2121" 47540 7.79460732492058e-08 6.53485425537356e-08 1.5978755668152e-08 2.37881227831472e-07 1.36346539168729e-07 2.68507403622897e-08 2.70274132467536e-09 3.17598931849086e-09
"2122" 47541 7.92520744578514e-08 6.58340778000721e-08 1.60045615433578e-08 2.38197744201554e-07 1.36103629076298e-07 2.68897910635061e-08 2.70102273615425e-09 3.17598931849086e-09
"2123" 47542 8.0558075666497e-08 6.63196130464086e-08 1.60303674185636e-08 2.38514260571635e-07 1.35860718983867e-07 2.69288417647226e-08 2.69930414763314e-09 3.17598931849086e-09
"2124" 47543 8.18640768751426e-08 6.68051482927451e-08 1.60561732937695e-08 2.38830776941717e-07 1.35617808891437e-07 2.69678924659391e-08 2.69758555911202e-09 3.17598931849086e-09
"2125" 47544 8.31569686423214e-08 6.68702978425748e-08 1.58917562466451e-08 2.37830569999671e-07 1.35125443035463e-07 2.67242352216714e-08 2.68400508533438e-09 3.17790079954482e-09
"2126" 47545 8.44498604095002e-08 6.69354473924046e-08 1.57273391995207e-08 2.36830363057624e-07 1.34633077179489e-07 2.64805779774037e-08 2.67042461155674e-09 3.17981228059878e-09
"2127" 47546 8.5742752176679e-08 6.70005969422344e-08 1.55629221523964e-08 2.35830156115578e-07 1.34140711323515e-07 2.62369207331359e-08 2.6568441377791e-09 3.18172376165274e-09
"2128" 47547 8.70356439438578e-08 6.70657464920642e-08 1.5398505105272e-08 2.34829949173532e-07 1.33648345467542e-07 2.59932634888682e-08 2.64326366400147e-09 3.1836352427067e-09
"2129" 47548 8.83285357110366e-08 6.7130896041894e-08 1.52340880581477e-08 2.33829742231485e-07 1.33155979611568e-07 2.57496062446005e-08 2.62968319022383e-09 3.18554672376065e-09
"2130" 47549 8.96214274782154e-08 6.71960455917238e-08 1.50696710110233e-08 2.32829535289439e-07 1.32663613755594e-07 2.55059490003328e-08 2.61610271644619e-09 3.18745820481461e-09
"2131" 47550 9.09143192453942e-08 6.72611951415536e-08 1.4905253963899e-08 2.31829328347392e-07 1.3217124789962e-07 2.52622917560651e-08 2.60252224266855e-09 3.18936968586857e-09
"2132" 47551 9.22072110125731e-08 6.73263446913834e-08 1.47408369167746e-08 2.30829121405346e-07 1.31678882043647e-07 2.50186345117973e-08 2.58894176889091e-09 3.19128116692253e-09
"2133" 47552 9.35001027797519e-08 6.73914942412131e-08 1.45764198696503e-08 2.298289144633e-07 1.31186516187673e-07 2.47749772675296e-08 2.57536129511327e-09 3.19319264797649e-09
"2134" 47553 9.47929945469307e-08 6.74566437910429e-08 1.44120028225259e-08 2.28828707521253e-07 1.30694150331699e-07 2.45313200232619e-08 2.56178082133563e-09 3.19510412903045e-09
"2135" 47554 9.60858863141095e-08 6.75217933408727e-08 1.42475857754015e-08 2.27828500579207e-07 1.30201784475725e-07 2.42876627789942e-08 2.54820034755799e-09 3.19701561008441e-09
"2136" 47555 9.73787780812883e-08 6.75869428907025e-08 1.40831687282772e-08 2.26828293637161e-07 1.29709418619752e-07 2.40440055347265e-08 2.53461987378035e-09 3.19892709113837e-09
"2137" 47556 9.86716698484671e-08 6.76520924405323e-08 1.39187516811528e-08 2.25828086695114e-07 1.29217052763778e-07 2.38003482904587e-08 2.52103940000271e-09 3.20083857219233e-09
"2138" 47557 9.99645616156459e-08 6.77172419903621e-08 1.37543346340285e-08 2.24827879753068e-07 1.28724686907804e-07 2.3556691046191e-08 2.50745892622507e-09 3.20275005324629e-09
"2139" 47558 1.01257453382825e-07 6.77823915401919e-08 1.35899175869041e-08 2.23827672811022e-07 1.2823232105183e-07 2.33130338019233e-08 2.49387845244743e-09 3.20466153430024e-09
"2140" 47559 1.02550345150003e-07 6.78475410900217e-08 1.34255005397798e-08 2.22827465868975e-07 1.27739955195857e-07 2.30693765576556e-08 2.48029797866979e-09 3.2065730153542e-09
"2141" 47560 1.03843236917182e-07 6.79126906398514e-08 1.32610834926554e-08 2.21827258926929e-07 1.27247589339883e-07 2.28257193133879e-08 2.46671750489215e-09 3.20848449640816e-09
"2142" 47561 1.05136128684361e-07 6.79778401896812e-08 1.3096666445531e-08 2.20827051984883e-07 1.26755223483909e-07 2.25820620691201e-08 2.45313703111452e-09 3.21039597746212e-09
"2143" 47562 1.0642902045154e-07 6.8042989739511e-08 1.29322493984067e-08 2.19826845042836e-07 1.26262857627935e-07 2.23384048248524e-08 2.43955655733688e-09 3.21230745851608e-09
"2144" 47563 1.07721912218719e-07 6.81081392893408e-08 1.27678323512823e-08 2.1882663810079e-07 1.25770491771962e-07 2.20947475805847e-08 2.42597608355924e-09 3.21421893957004e-09
"2145" 47564 1.09014803985898e-07 6.81732888391706e-08 1.2603415304158e-08 2.17826431158743e-07 1.25278125915988e-07 2.1851090336317e-08 2.4123956097816e-09 3.216130420624e-09
"2146" 47565 1.10288981063088e-07 6.85360676373754e-08 1.26327995434082e-08 2.18057058018886e-07 1.25408507154103e-07 2.18936181306919e-08 2.4123956097816e-09 3.21945462961471e-09
"2147" 47566 1.11572382831297e-07 6.90419891890616e-08 1.26558741765826e-08 2.18374172088297e-07 1.24509359229884e-07 2.18454215651752e-08 2.40215007354635e-09 3.21612554987998e-09
"2148" 47567 1.12855784599506e-07 6.95479107407478e-08 1.2678948809757e-08 2.18691286157709e-07 1.23610211305665e-07 2.17972249996586e-08 2.39190453731111e-09 3.21279647014526e-09
"2149" 47568 1.14139186367715e-07 7.0053832292434e-08 1.27020234429314e-08 2.19008400227121e-07 1.22711063381446e-07 2.1749028434142e-08 2.38165900107586e-09 3.20946739041053e-09
"2150" 47569 1.15422588135925e-07 7.05597538441202e-08 1.27250980761058e-08 2.19325514296532e-07 1.21811915457227e-07 2.17008318686254e-08 2.37141346484062e-09 3.20613831067581e-09
"2151" 47570 1.16705989904134e-07 7.10656753958064e-08 1.27481727092802e-08 2.19642628365944e-07 1.20912767533008e-07 2.16526353031087e-08 2.36116792860537e-09 3.20280923094108e-09
"2152" 47571 1.16769368135949e-07 7.13532489931636e-08 1.29386936971593e-08 2.20350347978613e-07 1.19870473755744e-07 2.21149590926435e-08 2.44905071673363e-09 3.20588528105919e-09
"2153" 47572 1.16832746367763e-07 7.16408225905208e-08 1.31292146850384e-08 2.21058067591281e-07 1.18828179978479e-07 2.25772828821783e-08 2.5369335048619e-09 3.2089613311773e-09
"2154" 47573 1.16896124599578e-07 7.19283961878779e-08 1.33197356729176e-08 2.2176578720395e-07 1.17785886201214e-07 2.30396066717131e-08 2.62481629299016e-09 3.21203738129541e-09
"2155" 47574 1.17150923477056e-07 7.26839018582819e-08 1.33191947251354e-08 2.21912315641116e-07 1.17306570839635e-07 2.3081712777735e-08 2.61650572438891e-09 3.2360537562202e-09
"2156" 47575 1.17133169707372e-07 7.26902400523041e-08 1.33164634831039e-08 2.21995104636518e-07 1.1653970263671e-07 2.3110224941634e-08 2.66750458207029e-09 3.22940046749476e-09
"2157" 47576 1.17115415937689e-07 7.26965782463263e-08 1.33137322410725e-08 2.22077893631921e-07 1.15772834433784e-07 2.31387371055331e-08 2.71850343975167e-09 3.22274717876932e-09
"2158" 47577 1.17097662168005e-07 7.27029164403485e-08 1.33110009990411e-08 2.22160682627324e-07 1.15005966230859e-07 2.31672492694322e-08 2.76950229743305e-09 3.21609389004389e-09
"2159" 47578 1.17079908398321e-07 7.27092546343708e-08 1.33082697570097e-08 2.22243471622726e-07 1.14239098027934e-07 2.31957614333312e-08 2.82050115511443e-09 3.20944060131845e-09
"2160" 47579 1.17062154628637e-07 7.2715592828393e-08 1.33055385149783e-08 2.22326260618129e-07 1.13472229825009e-07 2.32242735972303e-08 2.87150001279581e-09 3.20278731259302e-09
"2161" 47580 1.17044400858954e-07 7.27219310224152e-08 1.33028072729468e-08 2.22409049613531e-07 1.12705361622084e-07 2.32527857611293e-08 2.92249887047719e-09 3.19613402386758e-09
"2162" 47581 1.1702664708927e-07 7.27282692164374e-08 1.33000760309154e-08 2.22491838608934e-07 1.11938493419159e-07 2.32812979250284e-08 2.97349772815857e-09 3.18948073514214e-09
"2163" 47582 1.17008893319586e-07 7.27346074104596e-08 1.3297344788884e-08 2.22574627604337e-07 1.11171625216233e-07 2.33098100889275e-08 3.02449658583995e-09 3.18282744641671e-09
"2164" 47583 1.16991139549902e-07 7.27409456044818e-08 1.32946135468526e-08 2.22657416599739e-07 1.10404757013308e-07 2.33383222528265e-08 3.07549544352133e-09 3.17617415769127e-09
"2165" 47584 1.16973385780219e-07 7.2747283798504e-08 1.32918823048212e-08 2.22740205595142e-07 1.09637888810383e-07 2.33668344167256e-08 3.12649430120271e-09 3.16952086896584e-09
"2166" 47585 1.16955632010535e-07 7.27536219925262e-08 1.32891510627897e-08 2.22822994590544e-07 1.08871020607458e-07 2.33953465806246e-08 3.17749315888409e-09 3.1628675802404e-09
"2167" 47586 1.16937878240851e-07 7.27599601865485e-08 1.32864198207583e-08 2.22905783585947e-07 1.08104152404533e-07 2.34238587445237e-08 3.22849201656547e-09 3.15621429151496e-09
"2168" 47587 1.16920124471168e-07 7.27662983805707e-08 1.32836885787269e-08 2.22988572581349e-07 1.07337284201608e-07 2.34523709084228e-08 3.27949087424685e-09 3.14956100278953e-09
"2169" 47588 1.16800533480826e-07 7.27687295737009e-08 1.32809573366955e-08 2.23058794808123e-07 1.07493473132233e-07 2.3569823263921e-08 3.34073526816348e-09 3.15089019931141e-09
"2170" 47589 1.16777732697854e-07 7.1407945787965e-08 1.32603342744421e-08 2.2313420145298e-07 1.07681166422589e-07 2.36696367734646e-08 3.40026107355899e-09 3.15089019931141e-09
"2171" 47590 1.16754931914882e-07 7.0047162002229e-08 1.32397112121887e-08 2.23209608097837e-07 1.07868859712946e-07 2.37694502830082e-08 3.4597868789545e-09 3.15089019931141e-09
"2172" 47591 1.1673213113191e-07 6.8686378216493e-08 1.32190881499354e-08 2.23285014742694e-07 1.08056553003302e-07 2.38692637925517e-08 3.51931268435001e-09 3.15089019931141e-09
"2173" 47592 1.16709330348938e-07 6.7325594430757e-08 1.3198465087682e-08 2.23360421387551e-07 1.08244246293659e-07 2.39690773020953e-08 3.57883848974552e-09 3.15089019931141e-09
"2174" 47593 1.16686529565966e-07 6.59648106450211e-08 1.31778420254286e-08 2.23435828032408e-07 1.08431939584015e-07 2.40688908116389e-08 3.63836429514104e-09 3.15089019931141e-09
"2175" 47594 1.16663728782994e-07 6.46040268592851e-08 1.31572189631753e-08 2.23511234677266e-07 1.08619632874371e-07 2.41687043211824e-08 3.69789010053655e-09 3.15089019931141e-09
"2176" 47595 1.16640928000022e-07 6.32432430735491e-08 1.31365959009219e-08 2.23586641322123e-07 1.08807326164728e-07 2.4268517830726e-08 3.75741590593206e-09 3.15089019931141e-09
"2177" 47596 1.16618127217049e-07 6.18824592878132e-08 1.31159728386685e-08 2.2366204796698e-07 1.08995019455084e-07 2.43683313402696e-08 3.81694171132757e-09 3.15089019931141e-09
"2178" 47597 1.16706562068957e-07 6.05277020515065e-08 1.31159728386685e-08 2.23657359285473e-07 1.08907070589041e-07 2.43572675282648e-08 3.84293691825716e-09 3.15953362976166e-09
"2179" 47598 1.18412192695162e-07 5.94166058601239e-08 1.3121155651621e-08 2.23652670603966e-07 1.09095815849405e-07 2.43539242145187e-08 3.84819492332034e-09 3.15828796465465e-09
"2180" 47599 1.20117823321368e-07 5.83055096687413e-08 1.31263384645734e-08 2.23647981922459e-07 1.0928456110977e-07 2.43505809007726e-08 3.85345292838351e-09 3.15704229954763e-09
"2181" 47600 1.21823453947573e-07 5.71944134773587e-08 1.31315212775259e-08 2.23643293240952e-07 1.09473306370135e-07 2.43472375870264e-08 3.85871093344669e-09 3.15579663444062e-09
"2182" 47601 1.23556552581154e-07 5.73780165881037e-08 1.31524478111161e-08 2.23606483450977e-07 1.09689778838946e-07 2.43340246330244e-08 3.86396893850986e-09 3.15588016585549e-09
"2183" 47602 1.25289651214735e-07 5.75616196988486e-08 1.31733743447063e-08 2.23569673661003e-07 1.09906251307758e-07 2.43208116790224e-08 3.86922694357304e-09 3.15596369727036e-09
"2184" 47603 1.27022749848316e-07 5.77452228095936e-08 1.31943008782965e-08 2.23532863871029e-07 1.10122723776569e-07 2.43075987250204e-08 3.87448494863621e-09 3.15604722868523e-09
"2185" 47604 1.28755848481897e-07 5.79288259203385e-08 1.32152274118867e-08 2.23496054081055e-07 1.1033919624538e-07 2.42943857710184e-08 3.87974295369939e-09 3.15613076010010e-09
"2186" 47605 1.30488947115478e-07 5.81124290310834e-08 1.32361539454769e-08 2.23459244291081e-07 1.10555668714192e-07 2.42811728170164e-08 3.88500095876256e-09 3.15621429151496e-09
"2187" 47606 1.32222045749059e-07 5.82960321418284e-08 1.3257080479067e-08 2.23422434501107e-07 1.10772141183003e-07 2.42679598630144e-08 3.89025896382574e-09 3.15629782292983e-09
"2188" 47607 1.3395514438264e-07 5.84796352525733e-08 1.32780070126572e-08 2.23385624711133e-07 1.10988613651814e-07 2.42547469090124e-08 3.89551696888892e-09 3.1563813543447e-09
"2189" 47608 1.35688243016221e-07 5.86632383633183e-08 1.32989335462474e-08 2.23348814921159e-07 1.11205086120625e-07 2.42415339550104e-08 3.90077497395209e-09 3.15646488575957e-09
"2190" 47609 1.37344579462126e-07 5.88097249655896e-08 1.33121202093016e-08 2.21938257242187e-07 1.11151922503201e-07 2.41932319674055e-08 3.90758928320172e-09 3.1558826012275e-09
"2191" 47610 1.39000915908031e-07 5.8956211567861e-08 1.33253068723558e-08 2.20527699563214e-07 1.11098758885777e-07 2.41449299798007e-08 3.91440359245134e-09 3.15530031669542e-09
"2192" 47611 1.40657252353935e-07 5.91026981701324e-08 1.333849353541e-08 2.19117141884242e-07 1.11045595268353e-07 2.40966279921958e-08 3.92121790170097e-09 3.15471803216334e-09
"2193" 47612 1.4231358879984e-07 5.92491847724038e-08 1.33516801984642e-08 2.17706584205269e-07 1.10992431650929e-07 2.40483260045909e-08 3.92803221095059e-09 3.15413574763127e-09
"2194" 47613 1.43969925245745e-07 5.93956713746751e-08 1.33648668615184e-08 2.16296026526297e-07 1.10939268033505e-07 2.4000024016986e-08 3.93484652020022e-09 3.15355346309919e-09
"2195" 47614 1.4562626169165e-07 5.95421579769465e-08 1.33780535245726e-08 2.14885468847325e-07 1.10886104416081e-07 2.39517220293811e-08 3.94166082944985e-09 3.15297117856712e-09
"2196" 47615 1.47282598137555e-07 5.96886445792179e-08 1.33912401876268e-08 2.13474911168352e-07 1.10832940798657e-07 2.39034200417763e-08 3.94847513869947e-09 3.15238889403504e-09
"2197" 47616 1.48938934583459e-07 5.98351311814893e-08 1.3404426850681e-08 2.1206435348938e-07 1.10779777181233e-07 2.38551180541714e-08 3.9552894479491e-09 3.15180660950296e-09
"2198" 47617 1.50595271029364e-07 5.99816177837606e-08 1.34176135137352e-08 2.10653795810407e-07 1.10726613563809e-07 2.38068160665665e-08 3.96210375719872e-09 3.15122432497089e-09
"2199" 47618 1.52251607475269e-07 6.0128104386032e-08 1.34308001767894e-08 2.09243238131435e-07 1.10673449946385e-07 2.37585140789616e-08 3.96891806644835e-09 3.15064204043881e-09
"2200" 47619 1.52419765170772e-07 6.00224722008197e-08 1.34388040268912e-08 2.08129544542008e-07 1.10770731545406e-07 2.38026984336706e-08 3.97540780702865e-09 3.1942768497644e-09
"2201" 47620 1.52456348111379e-07 6.00693122641283e-08 1.3470531647506e-08 2.06730359238518e-07 1.1050928218357e-07 2.37439855167066e-08 3.9769641112151e-09 3.20358366078959e-09
"2202" 47621 1.52492931051985e-07 6.01161523274369e-08 1.35022592681207e-08 2.05331173935029e-07 1.10247832821734e-07 2.36852725997425e-08 3.97852041540155e-09 3.21289047181478e-09
"2203" 47622 1.52529513992592e-07 6.01629923907455e-08 1.35339868887355e-08 2.0393198863154e-07 1.09986383459899e-07 2.36265596827784e-08 3.980076719588e-09 3.22219728283997e-09
"2204" 47623 1.52566096933199e-07 6.02098324540541e-08 1.35657145093503e-08 2.0253280332805e-07 1.09724934098063e-07 2.35678467658144e-08 3.98163302377445e-09 3.23150409386515e-09
"2205" 47624 1.52677245706477e-07 6.0366211703467e-08 1.36138349879415e-08 2.02361738047442e-07 1.0949942590096e-07 2.3571415102399e-08 3.98529252998617e-09 3.2401475243154e-09
"2206" 47625 1.52783370362653e-07 6.05025782557357e-08 1.36616519951959e-08 2.01094493256671e-07 1.09308884885837e-07 2.35576608592937e-08 3.98895203619789e-09 3.24945433534059e-09
"2207" 47626 1.5288949501883e-07 6.06389448080045e-08 1.37094690024503e-08 1.99827248465899e-07 1.09118343870713e-07 2.35439066161885e-08 3.99261154240961e-09 3.25876114636578e-09
"2208" 47627 1.52995619675007e-07 6.07753113602732e-08 1.37572860097046e-08 1.98560003675128e-07 1.08927802855589e-07 2.35301523730832e-08 3.99627104862133e-09 3.26806795739097e-09
"2209" 47628 1.53101744331183e-07 6.0911677912542e-08 1.3805103016959e-08 1.97292758884356e-07 1.08737261840465e-07 2.35163981299779e-08 3.99993055483306e-09 3.27737476841615e-09
"2210" 47629 1.5320786898736e-07 6.10480444648107e-08 1.38529200242134e-08 1.96025514093584e-07 1.08546720825341e-07 2.35026438868726e-08 4.00359006104478e-09 3.28668157944134e-09
"2211" 47630 1.53313993643537e-07 6.11844110170795e-08 1.39007370314677e-08 1.94758269302813e-07 1.08356179810217e-07 2.34888896437673e-08 4.0072495672565e-09 3.29598839046653e-09
"2212" 47631 1.53420118299713e-07 6.13207775693483e-08 1.39485540387221e-08 1.93491024512041e-07 1.08165638795093e-07 2.3475135400662e-08 4.01090907346822e-09 3.30529520149171e-09
"2213" 47632 1.5364241584627e-07 6.13649373673895e-08 1.39491398840632e-08 1.92642639426592e-07 1.09333801508939e-07 2.34565132271349e-08 4.01096316824644e-09 3.31003457379118e-09
"2214" 47633 1.54708328912899e-07 6.13935118915718e-08 1.3974315016369e-08 1.91360729886455e-07 1.09143260493815e-07 2.34367881252852e-08 4.01179244008958e-09 3.31735124309156e-09
"2215" 47634 1.55774241979527e-07 6.14220864157541e-08 1.39994901486747e-08 1.90078820346319e-07 1.08952719478691e-07 2.34170630234354e-08 4.01262171193272e-09 3.32466791239193e-09
"2216" 47635 1.56840155046156e-07 6.14506609399363e-08 1.40246652809804e-08 1.88796910806183e-07 1.08762178463567e-07 2.33973379215857e-08 4.01345098377587e-09 3.33198458169231e-09
"2217" 47636 1.57906068112785e-07 6.14792354641186e-08 1.40498404132862e-08 1.87515001266047e-07 1.08571637448443e-07 2.33776128197359e-08 4.01428025561901e-09 3.33930125099268e-09
"2218" 47637 1.58971981179414e-07 6.15078099883009e-08 1.40750155455919e-08 1.8623309172591e-07 1.08381096433319e-07 2.33578877178862e-08 4.01510952746215e-09 3.34661792029305e-09
"2219" 47638 1.60037894246042e-07 6.15363845124832e-08 1.41001906778976e-08 1.84951182185774e-07 1.08190555418195e-07 2.33381626160364e-08 4.01593879930529e-09 3.35393458959343e-09
"2220" 47639 1.61103807312671e-07 6.15649590366654e-08 1.41253658102034e-08 1.83669272645638e-07 1.08000014403071e-07 2.33184375141867e-08 4.01676807114843e-09 3.3612512588938e-09
"2221" 47640 1.621697203793e-07 6.15935335608477e-08 1.41505409425091e-08 1.82387363105501e-07 1.07809473387947e-07 2.32987124123369e-08 4.01759734299158e-09 3.36856792819418e-09
"2222" 47641 1.63235633445929e-07 6.162210808503e-08 1.41757160748148e-08 1.81105453565365e-07 1.07618932372823e-07 2.32789873104872e-08 4.01842661483472e-09 3.37588459749455e-09
"2223" 47642 1.64301546512557e-07 6.16506826092122e-08 1.42008912071206e-08 1.79823544025229e-07 1.07428391357699e-07 2.32592622086374e-08 4.01925588667786e-09 3.38320126679492e-09
"2224" 47643 1.65367459579186e-07 6.16792571333945e-08 1.42260663394263e-08 1.78541634485093e-07 1.07237850342575e-07 2.32395371067877e-08 4.020085158521e-09 3.3905179360953e-09
"2225" 47644 1.66433372645815e-07 6.17078316575768e-08 1.42512414717321e-08 1.77259724944956e-07 1.07047309327451e-07 2.32198120049379e-08 4.02091443036414e-09 3.39783460539567e-09
"2226" 47645 1.67499285712443e-07 6.17364061817591e-08 1.42764166040378e-08 1.7597781540482e-07 1.06856768312327e-07 2.32000869030882e-08 4.02174370220729e-09 3.40515127469605e-09
"2227" 47646 1.68565198779072e-07 6.17649807059414e-08 1.43015917363435e-08 1.74695905864684e-07 1.06666227297204e-07 2.31803618012384e-08 4.02257297405043e-09 3.41246794399642e-09
"2228" 47647 1.69636135962802e-07 6.18096609263757e-08 1.42717720359736e-08 1.73777190556627e-07 1.05937404199028e-07 2.31559512558194e-08 4.02362457506306e-09 3.42036689782887e-09
"2229" 47648 1.70707073146533e-07 6.18543411468101e-08 1.42419523356037e-08 1.72858475248571e-07 1.05208581100853e-07 2.31315407104003e-08 4.0246761760757e-09 3.42826585166132e-09
"2230" 47649 1.71778010330263e-07 6.18990213672445e-08 1.42121326352338e-08 1.71939759940514e-07 1.04479758002678e-07 2.31071301649812e-08 4.02572777708833e-09 3.43616480549377e-09
"2231" 47650 1.72848947513993e-07 6.19437015876789e-08 1.41823129348639e-08 1.71021044632458e-07 1.03750934904503e-07 2.30827196195621e-08 4.02677937810097e-09 3.44406375932622e-09
"2232" 47651 1.73919884697724e-07 6.19883818081132e-08 1.4152493234494e-08 1.70102329324401e-07 1.03022111806328e-07 2.3058309074143e-08 4.0278309791136e-09 3.45196271315867e-09
"2233" 47652 1.74990821881454e-07 6.20330620285476e-08 1.41226735341241e-08 1.69183614016344e-07 1.02293288708153e-07 2.30338985287239e-08 4.02888258012624e-09 3.45986166699112e-09
"2234" 47653 1.76061759065184e-07 6.2077742248982e-08 1.40928538337542e-08 1.68264898708288e-07 1.01564465609978e-07 2.30094879833048e-08 4.02993418113887e-09 3.46776062082357e-09
"2235" 47654 1.77132696248914e-07 6.21224224694164e-08 1.40630341333843e-08 1.67346183400231e-07 1.00835642511803e-07 2.29850774378857e-08 4.03098578215151e-09 3.47565957465602e-09
"2236" 47655 1.77205180207516e-07 6.22748947179372e-08 1.4042996916472e-08 1.66800842317618e-07 1.0006824339778e-07 2.3091374737953e-08 4.05565296412075e-09 3.47831796769978e-09
"2237" 47656 1.77246979401315e-07 6.25599727231794e-08 1.40675229114391e-08 1.65999437965885e-07 9.9906740208688e-08 2.32341722590026e-08 4.05953479950197e-09 3.48288784179751e-09
"2238" 47657 1.77288778595115e-07 6.28450507284215e-08 1.40920489064062e-08 1.65198033614152e-07 9.9745237019596e-08 2.33769697800522e-08 4.06341663488318e-09 3.48745771589523e-09
"2239" 47658 1.77330577788914e-07 6.31301287336636e-08 1.41165749013733e-08 1.64396629262419e-07 9.9583733830504e-08 2.35197673011018e-08 4.06729847026439e-09 3.49202758999296e-09
"2240" 47659 1.77372376982714e-07 6.34152067389058e-08 1.41411008963404e-08 1.63595224910686e-07 9.94222306414121e-08 2.36625648221514e-08 4.07118030564561e-09 3.49659746409068e-09
"2241" 47660 1.774034415364e-07 6.36406834422202e-08 1.42053978537951e-08 1.6356051109042e-07 9.97990095353713e-08 2.37816330377515e-08 4.07478571707911e-09 3.49850894514464e-09
"2242" 47661 1.77434506090087e-07 6.38661601455346e-08 1.42696948112498e-08 1.63525797270155e-07 1.0017578842933e-07 2.39007012533517e-08 4.07839112851261e-09 3.5004204261986e-09
"2243" 47662 1.77465570643773e-07 6.4091636848849e-08 1.43339917687045e-08 1.63491083449889e-07 1.0055256732329e-07 2.40197694689519e-08 4.08199653994611e-09 3.50233190725256e-09
"2244" 47663 1.77496635197459e-07 6.43171135521634e-08 1.43982887261592e-08 1.63456369629623e-07 1.00929346217249e-07 2.4138837684552e-08 4.08560195137961e-09 3.50424338830652e-09
"2245" 47664 1.77527699751145e-07 6.45425902554778e-08 1.44625856836138e-08 1.63421655809358e-07 1.01306125111208e-07 2.42579059001522e-08 4.08920736281311e-09 3.50615486936048e-09
"2246" 47665 1.77558764304832e-07 6.47680669587922e-08 1.45268826410685e-08 1.63386941989092e-07 1.01682904005167e-07 2.43769741157523e-08 4.0928127742466e-09 3.50806635041444e-09
"2247" 47666 1.77589828858518e-07 6.49935436621066e-08 1.45911795985232e-08 1.63352228168826e-07 1.02059682899126e-07 2.44960423313525e-08 4.0964181856801e-09 3.50997783146840e-09
"2248" 47667 1.77620893412204e-07 6.5219020365421e-08 1.46554765559779e-08 1.63317514348561e-07 1.02436461793086e-07 2.46151105469527e-08 4.1000235971136e-09 3.51188931252235e-09
"2249" 47668 1.7765195796589e-07 6.54444970687354e-08 1.47197735134326e-08 1.63282800528295e-07 1.02813240687045e-07 2.47341787625528e-08 4.1036290085471e-09 3.51380079357631e-09
"2250" 47669 1.77645034904366e-07 6.57243799826912e-08 1.47936338723382e-08 1.63106851690295e-07 1.0318899855129e-07 2.48850050409179e-08 4.10534759706822e-09 3.50848157211677e-09
"2251" 47670 1.77638111842841e-07 6.6004262896647e-08 1.48674942312438e-08 1.62930902852295e-07 1.03564756415535e-07 2.50358313192829e-08 4.10706618558933e-09 3.50316235065724e-09
"2252" 47671 1.77631188781317e-07 6.62841458106029e-08 1.49413545901493e-08 1.62754954014295e-07 1.0394051427978e-07 2.5186657597648e-08 4.10878477411045e-09 3.4978431291977e-09
"2253" 47672 1.77624265719792e-07 6.65640287245587e-08 1.50152149490549e-08 1.62579005176295e-07 1.04316272144026e-07 2.5337483876013e-08 4.11050336263156e-09 3.49252390773816e-09
"2254" 47673 1.77617342658267e-07 6.68439116385145e-08 1.50890753079605e-08 1.62403056338295e-07 1.04692030008271e-07 2.54883101543781e-08 4.11222195115267e-09 3.48720468627862e-09
"2255" 47674 1.77610419596743e-07 6.71237945524703e-08 1.51629356668661e-08 1.62227107500294e-07 1.05067787872516e-07 2.56391364327431e-08 4.11394053967379e-09 3.48188546481908e-09
"2256" 47675 1.77603496535218e-07 6.74036774664261e-08 1.52367960257716e-08 1.62051158662294e-07 1.05443545736761e-07 2.57899627111082e-08 4.1156591281949e-09 3.47656624335954e-09
"2257" 47676 1.77596573473694e-07 6.76835603803819e-08 1.53106563846772e-08 1.61875209824294e-07 1.05819303601006e-07 2.59407889894732e-08 4.11737771671602e-09 3.4712470219e-09
"2258" 47677 1.77794322119871e-07 6.7704404535669e-08 1.53776818812694e-08 1.62779442187196e-07 1.06146733168249e-07 2.59407889894732e-08 4.11626607086855e-09 3.50783036840187e-09
"2259" 47678 1.77743225063194e-07 6.77511008290051e-08 1.55023939607976e-08 1.62497255918691e-07 1.05894711850995e-07 2.59488177467887e-08 4.13405889875334e-09 3.51954984897023e-09
"2260" 47679 1.77692128006516e-07 6.77977971223413e-08 1.56271060403257e-08 1.62215069650186e-07 1.05642690533741e-07 2.59568465041041e-08 4.15185172663813e-09 3.53126932953859e-09
"2261" 47680 1.77641030949838e-07 6.78444934156774e-08 1.57518181198539e-08 1.6193288338168e-07 1.05390669216487e-07 2.59648752614196e-08 4.16964455452291e-09 3.54298881010695e-09
"2262" 47681 1.77589933893161e-07 6.78911897090135e-08 1.58765301993821e-08 1.61650697113175e-07 1.05138647899233e-07 2.59729040187351e-08 4.1874373824077e-09 3.55470829067531e-09
"2263" 47682 1.77538836836483e-07 6.79378860023496e-08 1.60012422789103e-08 1.61368510844669e-07 1.04886626581979e-07 2.59809327760505e-08 4.20523021029249e-09 3.56642777124367e-09
"2264" 47683 1.77511190382758e-07 6.79378860023496e-08 1.59869791260795e-08 1.59067085174206e-07 1.04850345074008e-07 2.60011424523554e-08 4.22108807054328e-09 3.58637302518794e-09
"2265" 47684 1.77281493917747e-07 6.79927283936525e-08 1.60680200133003e-08 1.5791498055616e-07 1.04087494127907e-07 2.60058278959248e-08 4.24104414528817e-09 3.58637302518794e-09
"2266" 47685 1.77051797452735e-07 6.80475707849553e-08 1.61490609005211e-08 1.56762875938113e-07 1.03324643181807e-07 2.60105133394941e-08 4.26100022003306e-09 3.58637302518794e-09
"2267" 47686 1.76822100987724e-07 6.81024131762582e-08 1.62301017877419e-08 1.55610771320067e-07 1.02561792235706e-07 2.60151987830635e-08 4.28095629477794e-09 3.58637302518794e-09
"2268" 47687 1.76592404522713e-07 6.8157255567561e-08 1.63111426749626e-08 1.5445866670202e-07 1.01798941289606e-07 2.60198842266328e-08 4.30091236952283e-09 3.58637302518794e-09
"2269" 47688 1.76362708057701e-07 6.82120979588639e-08 1.63921835621834e-08 1.53306562083974e-07 1.01036090343505e-07 2.60245696702021e-08 4.32086844426772e-09 3.58637302518794e-09
"2270" 47689 1.7613301159269e-07 6.82669403501667e-08 1.64732244494042e-08 1.52154457465927e-07 1.00273239397405e-07 2.60292551137715e-08 4.34082451901261e-09 3.58637302518794e-09
"2271" 47690 1.75903315127678e-07 6.83217827414696e-08 1.6554265336625e-08 1.51002352847881e-07 9.95103884513042e-08 2.60339405573408e-08 4.3607805937575e-09 3.58637302518794e-09
"2272" 47691 1.7567846433342e-07 6.87189990005666e-08 1.65105941443176e-08 1.49905305948612e-07 9.89234216213476e-08 2.60494931474005e-08 4.36100292292699e-09 3.56534673359439e-09
"2273" 47692 1.76106641642893e-07 6.8734169154197e-08 1.64669229520102e-08 1.49135053353488e-07 9.81493951405515e-08 2.61721438782473e-08 4.36194633438318e-09 3.55703499343161e-09
"2274" 47693 1.76534818952365e-07 6.87493393078275e-08 1.64232517597028e-08 1.48364800758364e-07 9.73753686597554e-08 2.62947946090941e-08 4.36288974583937e-09 3.54872325326883e-09
"2275" 47694 1.76962996261838e-07 6.8764509461458e-08 1.63795805673954e-08 1.4759454816324e-07 9.66013421789593e-08 2.6417445339941e-08 4.36383315729557e-09 3.54041151310605e-09
"2276" 47695 1.77391173571311e-07 6.87796796150884e-08 1.6335909375088e-08 1.46824295568116e-07 9.58273156981632e-08 2.65400960707878e-08 4.36477656875176e-09 3.53209977294327e-09
"2277" 47696 1.77819350880784e-07 6.87948497687189e-08 1.62922381827806e-08 1.46054042972991e-07 9.5053289217367e-08 2.66627468016347e-08 4.36571998020795e-09 3.52378803278049e-09
"2278" 47697 1.78247528190257e-07 6.88100199223493e-08 1.62485669904732e-08 1.45283790377867e-07 9.42792627365709e-08 2.67853975324815e-08 4.36666339166415e-09 3.51547629261771e-09
"2279" 47698 1.7867570549973e-07 6.88251900759798e-08 1.62048957981658e-08 1.44513537782743e-07 9.35052362557748e-08 2.69080482633283e-08 4.36760680312034e-09 3.50716455245493e-09
"2280" 47699 1.79103882809203e-07 6.88403602296103e-08 1.61612246058584e-08 1.43743285187619e-07 9.27312097749787e-08 2.70306989941752e-08 4.36855021457653e-09 3.49885281229215e-09
"2281" 47700 1.79532060118676e-07 6.88555303832407e-08 1.6117553413551e-08 1.42973032592495e-07 9.19571832941825e-08 2.7153349725022e-08 4.36949362603272e-09 3.49054107212937e-09
"2282" 47701 1.79960237428149e-07 6.88707005368712e-08 1.60738822212436e-08 1.42202779997371e-07 9.11831568133864e-08 2.72760004558688e-08 4.37043703748892e-09 3.48222933196659e-09
"2283" 47702 1.80388414737622e-07 6.88858706905016e-08 1.60302110289362e-08 1.41432527402247e-07 9.04091303325903e-08 2.73986511867157e-08 4.37138044894511e-09 3.4739175918038e-09
"2284" 47703 1.80816592047095e-07 6.89010408441321e-08 1.59865398366288e-08 1.40662274807123e-07 8.96351038517942e-08 2.75213019175625e-08 4.3723238604013e-09 3.46560585164102e-09
"2285" 47704 1.81244769356568e-07 6.89162109977626e-08 1.59428686443214e-08 1.39892022211999e-07 8.8861077370998e-08 2.76439526484093e-08 4.3732672718575e-09 3.45729411147824e-09
"2286" 47705 1.81809449469994e-07 6.86261244009154e-08 1.58935342803829e-08 1.38001138132293e-07 8.7542163746171e-08 2.77707900697083e-08 4.3739883541442e-09 3.46934528233407e-09
"2287" 47706 1.82439676790753e-07 6.86400684277643e-08 1.58876574325329e-08 1.38194468515505e-07 8.74306905702715e-08 2.7814469499846e-08 4.36611649382533e-09 3.48272564971179e-09
"2288" 47707 1.83069904111513e-07 6.86540124546132e-08 1.58817805846829e-08 1.38387798898717e-07 8.73192173943721e-08 2.78581489299837e-08 4.35824463350646e-09 3.4961060170895e-09
"2289" 47708 1.83700131432273e-07 6.8667956481462e-08 1.58759037368328e-08 1.3858112928193e-07 8.72077442184726e-08 2.79018283601214e-08 4.35037277318759e-09 3.50948638446721e-09
"2290" 47709 1.84330358753032e-07 6.86819005083109e-08 1.58700268889828e-08 1.38774459665142e-07 8.70962710425732e-08 2.79455077902592e-08 4.34250091286872e-09 3.52286675184492e-09
"2291" 47710 1.84960586073792e-07 6.86958445351598e-08 1.58641500411327e-08 1.38967790048354e-07 8.69847978666737e-08 2.79891872203969e-08 4.33462905254985e-09 3.53624711922263e-09
"2292" 47711 1.85590813394551e-07 6.87097885620086e-08 1.58582731932827e-08 1.39161120431566e-07 8.68733246907743e-08 2.80328666505346e-08 4.32675719223098e-09 3.54962748660035e-09
"2293" 47712 1.86221040715311e-07 6.87237325888575e-08 1.58523963454326e-08 1.39354450814779e-07 8.67618515148748e-08 2.80765460806723e-08 4.31888533191211e-09 3.56300785397806e-09
"2294" 47713 1.86851268036071e-07 6.87376766157064e-08 1.58465194975826e-08 1.39547781197991e-07 8.66503783389754e-08 2.812022551081e-08 4.31101347159324e-09 3.57638822135577e-09
"2295" 47714 1.86882140453665e-07 6.88678920824773e-08 1.59653547292607e-08 1.40014630203912e-07 8.67250984856733e-08 2.80459396536702e-08 4.31101347159324e-09 3.59367508225627e-09
"2296" 47715 1.87544489076615e-07 6.90895261838845e-08 1.59963618118576e-08 1.39846753323405e-07 8.66950594449996e-08 2.79481353352575e-08 4.30314161127437e-09 3.61695428667928e-09
"2297" 47716 1.88206837699564e-07 6.93111602852917e-08 1.60273688944544e-08 1.39678876442899e-07 8.66650204043258e-08 2.78503310168448e-08 4.2952697509555e-09 3.64023349110228e-09
"2298" 47717 1.88869186322513e-07 6.9532794386699e-08 1.60583759770513e-08 1.39510999562393e-07 8.66349813636521e-08 2.77525266984321e-08 4.28739789063663e-09 3.66351269552528e-09
"2299" 47718 1.89531534945463e-07 6.97544284881062e-08 1.60893830596481e-08 1.39343122681887e-07 8.66049423229783e-08 2.76547223800194e-08 4.27952603031776e-09 3.68679189994829e-09
"2300" 47719 1.90207528348925e-07 6.99535146147605e-08 1.60956715683914e-08 1.39323971165494e-07 8.645513074605e-08 2.76301496978639e-08 4.28046944177395e-09 3.71007110437129e-09
"2301" 47720 1.90883521752388e-07 7.01526007414148e-08 1.61019600771347e-08 1.39304819649102e-07 8.63053191691218e-08 2.76055770157085e-08 4.28141285323015e-09 3.7333503087943e-09
"2302" 47721 1.91559515155851e-07 7.0351686868069e-08 1.6108248585878e-08 1.39285668132709e-07 8.61555075921935e-08 2.7581004333553e-08 4.28235626468634e-09 3.7566295132173e-09
"2303" 47722 1.92235508559314e-07 7.05507729947233e-08 1.61145370946213e-08 1.39266516616316e-07 8.60056960152652e-08 2.75564316513976e-08 4.28329967614253e-09 3.77990871764031e-09
"2304" 47723 1.92911501962777e-07 7.07498591213776e-08 1.61208256033646e-08 1.39247365099924e-07 8.58558844383369e-08 2.75318589692421e-08 4.28424308759873e-09 3.80318792206331e-09
"2305" 47724 1.9358749536624e-07 7.09489452480319e-08 1.6127114112108e-08 1.39228213583531e-07 8.57060728614086e-08 2.75072862870867e-08 4.28518649905492e-09 3.82646712648632e-09
"2306" 47725 1.94263488769702e-07 7.11480313746862e-08 1.61334026208513e-08 1.39209062067138e-07 8.55562612844804e-08 2.74827136049312e-08 4.28612991051111e-09 3.84974633090932e-09
"2307" 47726 1.94939482173165e-07 7.13471175013405e-08 1.61396911295946e-08 1.39189910550745e-07 8.54064497075521e-08 2.74581409227758e-08 4.2870733219673e-09 3.87302553533233e-09
"2308" 47727 1.95615475576628e-07 7.15462036279948e-08 1.61459796383379e-08 1.39170759034353e-07 8.52566381306238e-08 2.74335682406203e-08 4.2880167334235e-09 3.89630473975533e-09
"2309" 47728 1.96304532629184e-07 7.17276053838426e-08 1.61644308007806e-08 1.3920217846971e-07 8.53378866240833e-08 2.7425166502392e-08 4.28868372093198e-09 3.91950041276347e-09
"2310" 47729 1.9699358968174e-07 7.19090071396905e-08 1.61828819632233e-08 1.39233597905067e-07 8.54191351175428e-08 2.74167647641637e-08 4.28935070844045e-09 3.9426960857716e-09
"2311" 47730 1.97682646734296e-07 7.20904088955384e-08 1.62013331256661e-08 1.39265017340424e-07 8.55003836110023e-08 2.74083630259354e-08 4.29001769594893e-09 3.96589175877974e-09
"2312" 47731 1.98371703786852e-07 7.22718106513863e-08 1.62197842881088e-08 1.39296436775781e-07 8.55816321044618e-08 2.7399961287707e-08 4.29068468345741e-09 3.98908743178787e-09
"2313" 47732 1.99060760839408e-07 7.24532124072341e-08 1.62382354505515e-08 1.39327856211139e-07 8.56628805979213e-08 2.73915595494787e-08 4.29135167096589e-09 4.01228310479601e-09
"2314" 47733 1.99749817891964e-07 7.2634614163082e-08 1.62566866129942e-08 1.39359275646496e-07 8.57441290913808e-08 2.73831578112504e-08 4.29201865847437e-09 4.03547877780414e-09
"2315" 47734 2.0043887494452e-07 7.28160159189299e-08 1.6275137775437e-08 1.39390695081853e-07 8.58253775848403e-08 2.73747560730221e-08 4.29268564598285e-09 4.05867445081228e-09
"2316" 47735 2.01127931997076e-07 7.29974176747777e-08 1.62935889378797e-08 1.3942211451721e-07 8.59066260782998e-08 2.73663543347938e-08 4.29335263349133e-09 4.08187012382041e-09
"2317" 47736 2.01816989049632e-07 7.31788194306256e-08 1.63120401003224e-08 1.39453533952567e-07 8.59878745717593e-08 2.73579525965654e-08 4.29401962099981e-09 4.10506579682855e-09
"2318" 47737 2.01816989049632e-07 7.3304443861392e-08 1.62941482801005e-08 1.39497222312402e-07 8.61228163760545e-08 2.73524379549521e-08 4.29762503243331e-09 4.10498226541368e-09
"2319" 47738 2.01847875156969e-07 7.33715685809437e-08 1.63916399115073e-08 1.40986882839072e-07 8.81802410642508e-08 2.77442550681083e-08 4.36987823953688e-09 4.11288121924613e-09
"2320" 47739 2.01878761264307e-07 7.34386933004954e-08 1.64891315429141e-08 1.42476543365741e-07 9.0237665752447e-08 2.81360721812644e-08 4.44213144664046e-09 4.12078017307858e-09
"2321" 47740 2.01909647371644e-07 7.35058180200471e-08 1.65866231743209e-08 1.43966203892411e-07 9.22950904406433e-08 2.85278892944206e-08 4.51438465374403e-09 4.12867912691103e-09
"2322" 47741 2.01941851291984e-07 7.35734823958958e-08 1.66966707258818e-08 1.45189623167624e-07 9.42061119103848e-08 2.88660032076547e-08 4.5830324494141e-09 4.13657808074348e-09
"2323" 47742 2.01951075983003e-07 7.36582914862539e-08 1.67889795443362e-08 1.45849446392826e-07 9.61171333801263e-08 2.92578203208109e-08 4.6553397512959e-09 4.14389475004385e-09
"2324" 47743 2.01960300674022e-07 7.3743100576612e-08 1.68812883627906e-08 1.46509269618028e-07 9.80281548498677e-08 2.9649637433967e-08 4.72764705317769e-09 4.15121141934423e-09
"2325" 47744 2.01969525365041e-07 7.38279096669701e-08 1.69735971812449e-08 1.47169092843229e-07 9.99391763196092e-08 3.00414545471231e-08 4.79995435505949e-09 4.1585280886446e-09
"2326" 47745 2.0197875005606e-07 7.39127187573283e-08 1.70659059996993e-08 1.47828916068431e-07 1.01850197789351e-07 3.04332716602793e-08 4.87226165694129e-09 4.16584475794498e-09
"2327" 47746 2.01987974747079e-07 7.39975278476864e-08 1.71582148181537e-08 1.48488739293633e-07 1.03761219259092e-07 3.08250887734354e-08 4.94456895882308e-09 4.17316142724535e-09
"2328" 47747 2.01997199438099e-07 7.40823369380445e-08 1.7250523636608e-08 1.49148562518835e-07 1.05672240728834e-07 3.12169058865916e-08 5.01687626070488e-09 4.18047809654572e-09
"2329" 47748 2.02006424129118e-07 7.41671460284026e-08 1.73428324550624e-08 1.49808385744037e-07 1.07583262198575e-07 3.16087229997477e-08 5.08918356258667e-09 4.1877947658461e-09
"2330" 47749 2.02015648820137e-07 7.42519551187607e-08 1.74351412735168e-08 1.50468208969239e-07 1.09494283668317e-07 3.20005401129039e-08 5.16149086446847e-09 4.19511143514647e-09
"2331" 47750 2.02024873511156e-07 7.43367642091188e-08 1.75274500919711e-08 1.51128032194441e-07 1.11405305138058e-07 3.239235722606e-08 5.23379816635026e-09 4.20242810444685e-09
"2332" 47751 2.02115797645351e-07 7.47528061152291e-08 1.75038345110145e-08 1.52534224173894e-07 1.13546600772571e-07 3.25026020150789e-08 5.26345287949158e-09 4.20716747674631e-09
