"time" "channel1" "channel2" "channel3" "channel4" "channel5" "channel6" "channel7" "channel8"
"1780" 47103 1.08275922944738e-07 2.37218769665586e-08 3.30621892704641e-08 1.38536411164442e-08 1.33741595646921e-07 4.85025972021143e-07 7.04685728170794e-08 1.44295670146331e-07
"1781" 47104 1.07925631611892e-07 2.37138346599472e-08 3.29274485525168e-08 1.38397604078899e-08 1.33963369756662e-07 4.85342201861236e-07 7.06589008250052e-08 1.43790264901696e-07
"1782" 47105 1.07995266087784e-07 2.32392498893727e-08 3.28370264019887e-08 1.38368040514984e-08 1.32115516316933e-07 4.85670263754373e-07 7.06037796574465e-08 1.43994752362363e-07
"1783" 47106 1.07602668508445e-07 2.32278202275519e-08 3.26121647391719e-08 1.37977446050052e-08 1.32226943313575e-07 4.85449864977862e-07 7.04938213006007e-08 1.43081868653355e-07
"1784" 47107 1.07210070929106e-07 2.32163905657311e-08 3.23873030763552e-08 1.3758685158512e-08 1.32338370310218e-07 4.85229466201351e-07 7.03838629437549e-08 1.42168984944347e-07
"1785" 47108 1.06817473349766e-07 2.32049609039102e-08 3.21624414135384e-08 1.37196257120189e-08 1.32449797306861e-07 4.8500906742484e-07 7.02739045869092e-08 1.41256101235339e-07
"1786" 47109 1.06424875770427e-07 2.31935312420894e-08 3.19375797507216e-08 1.36805662655257e-08 1.32561224303504e-07 4.84788668648329e-07 7.01639462300634e-08 1.40343217526332e-07
"1787" 47110 1.05954554545025e-07 2.31815819972139e-08 3.18195907917539e-08 1.3648927845271e-08 1.32529724953863e-07 4.84592785704978e-07 7.04207253359995e-08 1.39200242730556e-07
"1788" 47111 1.05476024353244e-07 2.31710250950791e-08 3.16909857140424e-08 1.36103550977911e-08 1.32688105482214e-07 4.84034487994756e-07 7.00586401189063e-08 1.37960676388472e-07
"1789" 47112 1.04997494161463e-07 2.31604681929443e-08 3.15623806363309e-08 1.35717823503112e-08 1.32846486010564e-07 4.83476190284534e-07 6.96965549018131e-08 1.36721110046388e-07
"1790" 47113 1.04518963969682e-07 2.31499112908095e-08 3.14337755586194e-08 1.35332096028313e-08 1.33004866538915e-07 4.82917892574312e-07 6.93344696847199e-08 1.35481543704304e-07
"1791" 47114 1.04040433777901e-07 2.31393543886747e-08 3.1305170480908e-08 1.34946368553514e-08 1.33163247067266e-07 4.8235959486409e-07 6.89723844676268e-08 1.3424197736222e-07
"1792" 47115 1.03561903586121e-07 2.31287974865399e-08 3.11765654031965e-08 1.34560641078715e-08 1.33321627595617e-07 4.81801297153868e-07 6.86102992505336e-08 1.33002411020135e-07
"1793" 47116 1.0308337339434e-07 2.31182405844051e-08 3.1047960325485e-08 1.34174913603916e-08 1.33480008123967e-07 4.81242999443646e-07 6.82482140334404e-08 1.31762844678051e-07
"1794" 47117 1.02604843202559e-07 2.31076836822702e-08 3.09193552477735e-08 1.33789186129117e-08 1.33638388652318e-07 4.80684701733424e-07 6.78861288163472e-08 1.30523278335967e-07
"1795" 47118 1.02528130702767e-07 2.30932406718087e-08 3.07682938304673e-08 1.3357069908586e-08 1.33878475150014e-07 4.80701828715024e-07 6.73558659573316e-08 1.30307982427983e-07
"1796" 47119 1.00136412616995e-07 2.2982891719434e-08 3.08752369943286e-08 1.33436758990449e-08 1.3375146055026e-07 4.79397517232114e-07 6.7341350809721e-08 1.29975146881682e-07
"1797" 47120 9.77446945312237e-08 2.28725427670592e-08 3.09821801581899e-08 1.33302818895039e-08 1.33624445950506e-07 4.78093205749204e-07 6.73268356621104e-08 1.29642311335381e-07
"1798" 47121 9.53529764454518e-08 2.27621938146845e-08 3.10891233220511e-08 1.33168878799629e-08 1.33497431350751e-07 4.76788894266295e-07 6.73123205144998e-08 1.2930947578908e-07
"1799" 47122 9.30382163801357e-08 2.2700078338193e-08 3.10927582804118e-08 1.33035300327336e-08 1.33312263213736e-07 4.77066535225968e-07 6.77192165513243e-08 1.28984453997703e-07
"1800" 47123 9.09659730901142e-08 2.25870486169478e-08 3.11034448591678e-08 1.3294697125871e-08 1.32922174701955e-07 4.75815888350258e-07 6.80119494315199e-08 1.28705151790981e-07
"1801" 47124 8.88937298000927e-08 2.24740188957026e-08 3.11141314379238e-08 1.32858642190084e-08 1.32532086190175e-07 4.74565241474548e-07 6.83046823117155e-08 1.28425849584259e-07
"1802" 47125 8.68214865100713e-08 2.23609891744574e-08 3.11248180166798e-08 1.32770313121458e-08 1.32141997678395e-07 4.73314594598839e-07 6.85974151919112e-08 1.28146547377537e-07
"1803" 47126 8.47492432200498e-08 2.22479594532123e-08 3.11355045954357e-08 1.32681984052832e-08 1.31751909166615e-07 4.72063947723129e-07 6.88901480721068e-08 1.27867245170815e-07
"1804" 47127 8.4940917421587e-08 2.22290690914944e-08 3.11258113731407e-08 1.32656925855932e-08 1.3145087091761e-07 4.71863342302086e-07 6.90563933433791e-08 1.27629839806805e-07
"1805" 47128 8.51325916231242e-08 2.22101787297765e-08 3.11161181508456e-08 1.32631867659032e-08 1.31149832668606e-07 4.71662736881043e-07 6.92226386146515e-08 1.27392434442795e-07
"1806" 47129 8.53242658246614e-08 2.21912883680587e-08 3.11064249285506e-08 1.32606809462133e-08 1.30848794419601e-07 4.7146213146e-07 6.93888838859238e-08 1.27155029078784e-07
"1807" 47130 8.55159400261987e-08 2.21723980063408e-08 3.10967317062555e-08 1.32581751265233e-08 1.30547756170597e-07 4.71261526038957e-07 6.95551291571961e-08 1.26917623714774e-07
"1808" 47131 8.57076142277359e-08 2.21535076446229e-08 3.10870384839605e-08 1.32556693068334e-08 1.30246717921593e-07 4.71060920617914e-07 6.97213744284684e-08 1.26680218350764e-07
"1809" 47132 8.55761070852359e-08 2.21786529006287e-08 3.10742104396798e-08 1.3248602384465e-08 1.29940025943166e-07 4.71060920617914e-07 6.99054000097192e-08 1.26932422977462e-07
"1810" 47133 8.5444599942736e-08 2.22037981566345e-08 3.10613823953991e-08 1.32415354620966e-08 1.29633333964739e-07 4.71060920617914e-07 7.00894255909699e-08 1.2718462760416e-07
"1811" 47134 8.53130928002361e-08 2.22289434126404e-08 3.10485543511185e-08 1.32344685397282e-08 1.29326641986312e-07 4.71060920617914e-07 7.02734511722207e-08 1.27436832230859e-07
"1812" 47135 8.51815856577362e-08 2.22540886686462e-08 3.10357263068378e-08 1.32274016173598e-08 1.29019950007885e-07 4.71060920617914e-07 7.04574767534715e-08 1.27689036857557e-07
"1813" 47136 8.50500785152362e-08 2.2279233924652e-08 3.10228982625571e-08 1.32203346949915e-08 1.28713258029458e-07 4.71060920617914e-07 7.06415023347222e-08 1.27941241484256e-07
"1814" 47137 8.49185713727363e-08 2.23043791806578e-08 3.10100702182765e-08 1.32132677726231e-08 1.2840656605103e-07 4.71060920617914e-07 7.0825527915973e-08 1.28193446110954e-07
"1815" 47138 8.47870642302364e-08 2.23295244366636e-08 3.09972421739958e-08 1.32062008502547e-08 1.28099874072603e-07 4.71060920617914e-07 7.10095534972238e-08 1.28445650737653e-07
"1816" 47139 8.46555570877364e-08 2.23546696926694e-08 3.09844141297151e-08 1.31991339278863e-08 1.27793182094176e-07 4.71060920617914e-07 7.11935790784745e-08 1.28697855364351e-07
"1817" 47140 8.45240499452365e-08 2.23798149486752e-08 3.09715860854345e-08 1.3192067005518e-08 1.27486490115749e-07 4.71060920617914e-07 7.13776046597253e-08 1.2895005999105e-07
"1818" 47141 8.45040452604007e-08 2.24220425572145e-08 3.09669522375816e-08 1.31652428241241e-08 1.2748314032131e-07 4.71009092637628e-07 7.16940563530938e-08 1.29413236000677e-07
"1819" 47142 8.43223218052577e-08 2.24591164612347e-08 3.09745039943519e-08 1.31657174690335e-08 1.27276019882571e-07 4.70662950216895e-07 7.10965519072879e-08 1.28919805375846e-07
"1820" 47143 8.40669981652345e-08 2.24976449647316e-08 3.09828391108043e-08 1.31586505466651e-08 1.27274832545734e-07 4.69910935567739e-07 7.09793962319559e-08 1.28846987354864e-07
"1821" 47144 8.38116745252113e-08 2.25361734682286e-08 3.09911742272566e-08 1.31515836242967e-08 1.27273645208897e-07 4.69158920918582e-07 7.08622405566238e-08 1.28774169333882e-07
"1822" 47145 8.35563508851881e-08 2.25747019717255e-08 3.09995093437089e-08 1.31445167019283e-08 1.2727245787206e-07 4.68406906269426e-07 7.07450848812918e-08 1.28701351312901e-07
"1823" 47146 8.33495533738159e-08 2.25747019717255e-08 3.10206725044419e-08 1.3141902395303e-08 1.27270392120901e-07 4.67701750816834e-07 7.03147939821706e-08 1.28121466283414e-07
"1824" 47147 8.31427558624436e-08 2.25747019717255e-08 3.10418356651749e-08 1.31392880886777e-08 1.27268326369741e-07 4.66996595364242e-07 6.98845030830495e-08 1.27541581253927e-07
"1825" 47148 8.29359583510714e-08 2.25747019717255e-08 3.10629988259079e-08 1.31366737820524e-08 1.27266260618582e-07 4.66291439911649e-07 6.94542121839284e-08 1.2696169622444e-07
"1826" 47149 8.3255269466379e-08 2.26009694805141e-08 3.10744687643458e-08 1.31321608957897e-08 1.27265311465569e-07 4.68442067877769e-07 6.94273242612031e-08 1.28672416188858e-07
"1827" 47150 8.35745805816866e-08 2.26272369893028e-08 3.10859387027837e-08 1.3127648009527e-08 1.27264362312556e-07 4.70592695843888e-07 6.94004363384779e-08 1.30383136153277e-07
"1828" 47151 8.38938916969942e-08 2.26535044980914e-08 3.10974086412217e-08 1.31231351232643e-08 1.27263413159543e-07 4.72743323810007e-07 6.93735484157527e-08 1.32093856117695e-07
"1829" 47152 8.42132028123018e-08 2.267977200688e-08 3.11088785796596e-08 1.31186222370016e-08 1.2726246400653e-07 4.74893951776126e-07 6.93466604930274e-08 1.33804576082113e-07
"1830" 47153 8.45325139276095e-08 2.27060395156686e-08 3.11203485180975e-08 1.31141093507389e-08 1.27261514853517e-07 4.77044579742244e-07 6.93197725703022e-08 1.35515296046532e-07
"1831" 47154 8.48518250429171e-08 2.27323070244573e-08 3.11318184565355e-08 1.31095964644762e-08 1.27260565700504e-07 4.79195207708363e-07 6.92928846475769e-08 1.3722601601095e-07
"1832" 47155 8.51711361582247e-08 2.27585745332459e-08 3.11432883949734e-08 1.31050835782134e-08 1.27259616547491e-07 4.81345835674482e-07 6.92659967248517e-08 1.38936735975368e-07
"1833" 47156 8.54904472735323e-08 2.27848420420345e-08 3.11547583334113e-08 1.31005706919507e-08 1.27258667394478e-07 4.83496463640601e-07 6.92391088021265e-08 1.40647455939787e-07
"1834" 47157 8.58097583888399e-08 2.28111095508231e-08 3.11662282718493e-08 1.3096057805688e-08 1.27257718241465e-07 4.8564709160672e-07 6.92122208794012e-08 1.42358175904205e-07
"1835" 47158 8.61290695041475e-08 2.28373770596118e-08 3.11776982102872e-08 1.30915449194253e-08 1.27256769088452e-07 4.87797719572839e-07 6.9185332956676e-08 1.44068895868623e-07
"1836" 47159 8.64483806194551e-08 2.28636445684004e-08 3.11891681487251e-08 1.30870320331626e-08 1.27255819935439e-07 4.89948347538958e-07 6.91584450339508e-08 1.45779615833042e-07
"1837" 47160 8.67676917347627e-08 2.2889912077189e-08 3.12006380871631e-08 1.30825191468999e-08 1.27254870782426e-07 4.92098975505077e-07 6.91315571112255e-08 1.4749033579746e-07
"1838" 47161 8.70870028500704e-08 2.29161795859777e-08 3.1212108025601e-08 1.30780062606372e-08 1.27253921629413e-07 4.94249603471196e-07 6.91046691885003e-08 1.49201055761878e-07
"1839" 47162 8.7406313965378e-08 2.29424470947663e-08 3.12235779640389e-08 1.30734933743744e-08 1.272529724764e-07 4.96400231437316e-07 6.9077781265775e-08 1.50911775726297e-07
"1840" 47163 8.77256250806856e-08 2.29687146035549e-08 3.12350479024769e-08 1.30689804881117e-08 1.27252023323387e-07 4.98550859403435e-07 6.90508933430498e-08 1.52622495690715e-07
"1841" 47164 8.82845013726953e-08 2.29536478603514e-08 3.12151654712852e-08 1.30689804881117e-08 1.27253139921533e-07 5.01679438797139e-07 6.94668629887995e-08 1.5327718835236e-07
"1842" 47165 8.83320252474467e-08 2.29192547252015e-08 3.10855642705971e-08 1.30616197323929e-08 1.27123705877167e-07 5.03420775668707e-07 6.9882159079191e-08 1.55408192678106e-07
"1843" 47166 8.83795491221981e-08 2.28848615900517e-08 3.09559630699091e-08 1.3054258976674e-08 1.269942718328e-07 5.05162112540276e-07 7.02974551695825e-08 1.57539197003852e-07
"1844" 47167 8.84270729969495e-08 2.28504684549019e-08 3.0826361869221e-08 1.30468982209552e-08 1.26864837788433e-07 5.06903449411844e-07 7.0712751259974e-08 1.59670201329599e-07
"1845" 47168 8.8474596871701e-08 2.28160753197521e-08 3.0696760668533e-08 1.30395374652363e-08 1.26735403744066e-07 5.08644786283412e-07 7.11280473503654e-08 1.61801205655345e-07
"1846" 47169 8.82883739625902e-08 2.28038353880577e-08 3.05624593097532e-08 1.30678940682936e-08 1.27302195919002e-07 5.07339965057326e-07 7.13069809974129e-08 1.61760307965603e-07
"1847" 47170 8.81021510534794e-08 2.27915954563633e-08 3.04281579509735e-08 1.30962506713508e-08 1.27868988093938e-07 5.0603514383124e-07 7.14859146444603e-08 1.61719410275862e-07
"1848" 47171 8.79159281443686e-08 2.27793555246688e-08 3.02938565921937e-08 1.31246072744081e-08 1.28435780268874e-07 5.04730322605153e-07 7.16648482915077e-08 1.6167851258612e-07
"1849" 47172 8.77297052352578e-08 2.27671155929744e-08 3.0159555233414e-08 1.31529638774653e-08 1.2900257244381e-07 5.03425501379067e-07 7.18437819385552e-08 1.61637614896379e-07
"1850" 47173 8.7543482326147e-08 2.275487566128e-08 3.00252538746343e-08 1.31813204805226e-08 1.29569364618746e-07 5.02120680152981e-07 7.20227155856026e-08 1.61596717206637e-07
"1851" 47174 8.73572594170362e-08 2.27426357295856e-08 2.98909525158545e-08 1.32096770835798e-08 1.30136156793681e-07 5.00815858926895e-07 7.220164923265e-08 1.61555819516895e-07
"1852" 47175 8.71710365079254e-08 2.27303957978911e-08 2.97566511570748e-08 1.3238033686637e-08 1.30702948968617e-07 4.99511037700808e-07 7.23805828796974e-08 1.61514921827154e-07
"1853" 47176 8.69848135988146e-08 2.27181558661967e-08 2.96223497982951e-08 1.32663902896943e-08 1.31269741143553e-07 4.98206216474722e-07 7.25595165267449e-08 1.61474024137412e-07
"1854" 47177 8.67985906897039e-08 2.27059159345023e-08 2.94880484395153e-08 1.32947468927515e-08 1.31836533318489e-07 4.96901395248636e-07 7.27384501737923e-08 1.61433126447671e-07
"1855" 47178 8.66123677805931e-08 2.26936760028079e-08 2.93537470807356e-08 1.33231034958088e-08 1.32403325493425e-07 4.95596574022549e-07 7.29173838208397e-08 1.61392228757929e-07
"1856" 47179 8.69495492037749e-08 2.27364025975407e-08 2.93508968653147e-08 1.33395261863648e-08 1.33094136167128e-07 4.93226240297158e-07 7.25190226672189e-08 1.61554988042135e-07
"1857" 47180 8.78739326545998e-08 2.27270093749873e-08 2.93916537009011e-08 1.33171907830258e-08 1.33232674024083e-07 4.90847790116455e-07 7.21384788117895e-08 1.61551663131136e-07
"1858" 47181 8.78789883859564e-08 2.27475827662647e-08 2.93971372186748e-08 1.33174198110004e-08 1.33337367407758e-07 4.88691073353392e-07 7.15628037655023e-08 1.6210278644543e-07
"1859" 47182 8.78840441173129e-08 2.27681561575422e-08 2.94026207364484e-08 1.3317648838975e-08 1.33442060791433e-07 4.86534356590329e-07 7.09871287192151e-08 1.62653909759724e-07
"1860" 47183 8.78890998486694e-08 2.27887295488197e-08 2.9408104254222e-08 1.33178778669496e-08 1.33546754175108e-07 4.84377639827266e-07 7.04114536729279e-08 1.63205033074018e-07
"1861" 47184 8.7873112468845e-08 2.26149968245319e-08 2.92646705867297e-08 1.32643379910973e-08 1.33649359422155e-07 4.81926909880083e-07 6.98429377611307e-08 1.63580263293976e-07
"1862" 47185 8.78571250890206e-08 2.24412641002441e-08 2.91212369192374e-08 1.32107981152449e-08 1.33751964669201e-07 4.79476179932901e-07 6.92744218493335e-08 1.63955493513933e-07
"1863" 47186 8.78411377091962e-08 2.22675313759564e-08 2.89778032517452e-08 1.31572582393925e-08 1.33854569916248e-07 4.77025449985719e-07 6.87059059375363e-08 1.64330723733891e-07
"1864" 47187 8.78251503293718e-08 2.20937986516686e-08 2.88343695842529e-08 1.31037183635402e-08 1.33957175163295e-07 4.74574720038536e-07 6.81373900257391e-08 1.64705953953849e-07
"1865" 47188 8.78091629495474e-08 2.19200659273808e-08 2.86909359167606e-08 1.30501784876878e-08 1.34059780410341e-07 4.72123990091354e-07 6.75688741139419e-08 1.65081184173807e-07
"1866" 47189 8.78144066772965e-08 2.17431330842443e-08 2.85695938394813e-08 1.29770305369134e-08 1.34115953264266e-07 4.69586880177028e-07 6.70132535953743e-08 1.65013354803777e-07
"1867" 47190 8.78196504050456e-08 2.15662002411078e-08 2.8448251762202e-08 1.29038825861389e-08 1.34172126118191e-07 4.67049770262703e-07 6.64576330768066e-08 1.64945525433748e-07
"1868" 47191 8.78248941327947e-08 2.13892673979713e-08 2.83269096849226e-08 1.28307346353644e-08 1.34228298972116e-07 4.64512660348377e-07 6.5902012558239e-08 1.64877696063718e-07
"1869" 47192 8.78301378605439e-08 2.12123345548348e-08 2.82055676076433e-08 1.275758668459e-08 1.34284471826041e-07 4.61975550434051e-07 6.53463920396713e-08 1.64809866693689e-07
"1870" 47193 8.7835381588293e-08 2.10354017116984e-08 2.8084225530364e-08 1.26844387338155e-08 1.34340644679966e-07 4.59438440519726e-07 6.47907715211036e-08 1.6474203732366e-07
"1871" 47194 8.78406253160421e-08 2.08584688685619e-08 2.79628834530847e-08 1.2611290783041e-08 1.3439681753389e-07 4.569013306054e-07 6.4235151002536e-08 1.6467420795363e-07
"1872" 47195 8.78458690437912e-08 2.06815360254254e-08 2.78415413758054e-08 1.25381428322666e-08 1.34452990387815e-07 4.54364220691074e-07 6.36795304839683e-08 1.64606378583601e-07
"1873" 47196 8.78511127715403e-08 2.05046031822889e-08 2.7720199298526e-08 1.24649948814921e-08 1.3450916324174e-07 4.51827110776749e-07 6.31239099654007e-08 1.64538549213571e-07
"1874" 47197 8.78563564992895e-08 2.03276703391524e-08 2.75988572212467e-08 1.23918469307177e-08 1.34565336095665e-07 4.49290000862423e-07 6.2568289446833e-08 1.64470719843542e-07
"1875" 47198 8.78616002270386e-08 2.01507374960159e-08 2.74775151439674e-08 1.23186989799432e-08 1.3462150894959e-07 4.46752890948097e-07 6.20126689282654e-08 1.64402890473512e-07
"1876" 47199 8.78668439547877e-08 1.99738046528795e-08 2.73561730666881e-08 1.22455510291687e-08 1.34677681803515e-07 4.44215781033772e-07 6.14570484096977e-08 1.64335061103483e-07
"1877" 47200 8.71146667297681e-08 1.99189628730006e-08 2.73587428253177e-08 1.21884641458325e-08 1.34741358339667e-07 4.44430309198193e-07 6.0290275747311e-08 1.64345368689862e-07
"1878" 47201 8.63624895047485e-08 1.98641210931217e-08 2.73613125839473e-08 1.21313772624963e-08 1.34805034875819e-07 4.44644837362614e-07 5.91235030849243e-08 1.64355676276241e-07
"1879" 47202 8.6224337855406e-08 1.98230985909623e-08 2.7286284086556e-08 1.19321773682117e-08 1.34473207354592e-07 4.44354778000586e-07 5.90502585645127e-08 1.642600830266e-07
"1880" 47203 8.61047189474977e-08 1.97798938399733e-08 2.7475799205032e-08 1.17900643572632e-08 1.34117957240043e-07 4.44824178381626e-07 5.89616505388913e-08 1.64135063277174e-07
"1881" 47204 8.59851000395894e-08 1.97366890889843e-08 2.7665314323508e-08 1.16479513463148e-08 1.33762707125493e-07 4.45293578762665e-07 5.88730425132699e-08 1.64010043527748e-07
"1882" 47205 8.58727062318621e-08 1.97012567877251e-08 2.75681942359037e-08 1.1450734410395e-08 1.33549489722002e-07 4.44957676457757e-07 5.87997979928583e-08 1.64636809308301e-07
"1883" 47206 8.57603124241349e-08 1.96658244864659e-08 2.74710741482994e-08 1.12535174744753e-08 1.33336272318511e-07 4.44621774152849e-07 5.87265534724467e-08 1.65263575088853e-07
"1884" 47207 8.56479186164076e-08 1.96303921852068e-08 2.73739540606951e-08 1.10563005385555e-08 1.3312305491502e-07 4.44285871847941e-07 5.86533089520351e-08 1.65890340869405e-07
"1885" 47208 8.55355248086804e-08 1.95949598839476e-08 2.72768339730908e-08 1.08590836026358e-08 1.32909837511528e-07 4.43949969543034e-07 5.85800644316235e-08 1.66517106649958e-07
"1886" 47209 8.54231310009531e-08 1.95595275826884e-08 2.71797138854865e-08 1.06618666667161e-08 1.32696620108037e-07 4.43614067238126e-07 5.85068199112119e-08 1.6714387243051e-07
"1887" 47210 8.53107371932258e-08 1.95240952814293e-08 2.70825937978822e-08 1.04646497307963e-08 1.32483402704546e-07 4.43278164933218e-07 5.84335753908004e-08 1.67770638211063e-07
"1888" 47211 8.51983433854986e-08 1.94886629801701e-08 2.69854737102779e-08 1.02674327948766e-08 1.32270185301054e-07 4.4294226262831e-07 5.83603308703888e-08 1.68397403991615e-07
"1889" 47212 8.50859495777713e-08 1.94532306789109e-08 2.68883536226736e-08 1.00702158589568e-08 1.32056967897563e-07 4.42606360323402e-07 5.82870863499772e-08 1.69024169772167e-07
"1890" 47213 8.4973555770044e-08 1.94177983776518e-08 2.67912335350693e-08 9.87299892303708e-09 1.31843750494072e-07 4.42270458018494e-07 5.82138418295656e-08 1.6965093555272e-07
"1891" 47214 8.48611619623168e-08 1.93823660763926e-08 2.6694113447465e-08 9.67578198711733e-09 1.31630533090581e-07 4.41934555713587e-07 5.8140597309154e-08 1.70277701333272e-07
"1892" 47215 8.47487681545895e-08 1.93469337751335e-08 2.65969933598607e-08 9.47856505119759e-09 1.31417315687089e-07 4.41598653408679e-07 5.80673527887424e-08 1.70904467113824e-07
"1893" 47216 8.46363743468622e-08 1.93115014738743e-08 2.64998732722564e-08 9.28134811527784e-09 1.31204098283598e-07 4.41262751103771e-07 5.79941082683308e-08 1.71531232894377e-07
"1894" 47217 8.4523980539135e-08 1.92760691726151e-08 2.64027531846521e-08 9.0841311793581e-09 1.30990880880107e-07 4.40926848798863e-07 5.79208637479192e-08 1.72157998674929e-07
"1895" 47218 8.44115867314077e-08 1.9240636871356e-08 2.63056330970478e-08 8.88691424343835e-09 1.30777663476615e-07 4.40590946493955e-07 5.78476192275076e-08 1.72784764455482e-07
"1896" 47219 8.42991929236805e-08 1.92052045700968e-08 2.62085130094435e-08 8.6896973075186e-09 1.30564446073124e-07 4.40255044189048e-07 5.7774374707096e-08 1.73411530236034e-07
"1897" 47220 8.41867991159532e-08 1.91697722688376e-08 2.61113929218392e-08 8.49248037159886e-09 1.30351228669633e-07 4.3991914188414e-07 5.77011301866845e-08 1.74038296016586e-07
"1898" 47221 8.40744053082259e-08 1.91343399675785e-08 2.60142728342349e-08 8.29526343567912e-09 1.30138011266141e-07 4.39583239579232e-07 5.76278856662729e-08 1.74665061797139e-07
"1899" 47222 8.39620115004987e-08 1.90989076663193e-08 2.59171527466306e-08 8.09804649975937e-09 1.2992479386265e-07 4.39247337274324e-07 5.75546411458613e-08 1.75291827577691e-07
"1900" 47223 8.33433500704847e-08 1.9020042650141e-08 2.59083893370733e-08 8.09543219313408e-09 1.30045309450978e-07 4.39360693870034e-07 5.75390097699864e-08 1.75547353097354e-07
"1901" 47224 8.32375355335394e-08 1.90110026042189e-08 2.59538449474936e-08 8.08659928627146e-09 1.29719705150982e-07 4.39274445783604e-07 5.75667603693094e-08 1.75721086267527e-07
"1902" 47225 8.36107967898506e-08 1.91516090903199e-08 2.60221713580353e-08 8.08312006855494e-09 1.30352690013125e-07 4.38237051906207e-07 5.77448200051519e-08 1.75819507585263e-07
"1903" 47226 8.39840580461619e-08 1.92922155764209e-08 2.6090497768577e-08 8.07964085083841e-09 1.30985674875268e-07 4.37199658028811e-07 5.79228796409943e-08 1.75917928902999e-07
"1904" 47227 8.43573193024731e-08 1.94328220625219e-08 2.61588241791187e-08 8.07616163312189e-09 1.31618659737411e-07 4.36162264151414e-07 5.81009392768367e-08 1.76016350220735e-07
"1905" 47228 8.47305805587843e-08 1.9573428548623e-08 2.62271505896604e-08 8.07268241540537e-09 1.32251644599554e-07 4.35124870274017e-07 5.82789989126792e-08 1.76114771538471e-07
"1906" 47229 8.51038418150956e-08 1.9714035034724e-08 2.62954770002021e-08 8.06920319768885e-09 1.32884629461697e-07 4.3408747639662e-07 5.84570585485216e-08 1.76213192856207e-07
"1907" 47230 8.54771030714068e-08 1.9854641520825e-08 2.63638034107438e-08 8.06572397997232e-09 1.33517614323841e-07 4.33050082519223e-07 5.8635118184364e-08 1.76311614173943e-07
"1908" 47231 8.58503643277181e-08 1.9995248006926e-08 2.64321298212855e-08 8.0622447622558e-09 1.34150599185984e-07 4.32012688641826e-07 5.88131778202065e-08 1.76410035491679e-07
"1909" 47232 8.62236255840293e-08 2.0135854493027e-08 2.65004562318272e-08 8.05876554453928e-09 1.34783584048127e-07 4.3097529476443e-07 5.89912374560489e-08 1.76508456809415e-07
"1910" 47233 8.65968868403405e-08 2.02764609791281e-08 2.65687826423689e-08 8.05528632682275e-09 1.3541656891027e-07 4.29937900887033e-07 5.91692970918913e-08 1.76606878127151e-07
"1911" 47234 8.69701480966518e-08 2.04170674652291e-08 2.66371090529106e-08 8.05180710910623e-09 1.36049553772413e-07 4.28900507009636e-07 5.93473567277337e-08 1.76705299444887e-07
"1912" 47235 8.7450976345837e-08 2.05103965548828e-08 2.66193680872436e-08 7.97669278892704e-09 1.36915895993338e-07 4.28626310453157e-07 5.94835515283361e-08 1.76736222204023e-07
"1913" 47236 8.79318045950222e-08 2.06037256445365e-08 2.66016271215767e-08 7.90157846874784e-09 1.37782238214264e-07 4.28352113896679e-07 5.96197463289385e-08 1.7676714496316e-07
"1914" 47237 9.03238838529596e-08 2.06071548926973e-08 2.65193356237532e-08 7.81607471183479e-09 1.37768961710702e-07 4.28066361330698e-07 5.97559411295409e-08 1.77222505110042e-07
"1915" 47238 9.16148781250055e-08 2.05455589992605e-08 2.68461570690326e-08 7.76961834731098e-09 1.37707566724064e-07 4.27938014020296e-07 6.09505252444613e-08 1.77526576965067e-07
"1916" 47239 9.29058723970514e-08 2.04839631058236e-08 2.71729785143121e-08 7.72316198278718e-09 1.37646171737426e-07 4.27809666709894e-07 6.21451093593818e-08 1.77830648820093e-07
"1917" 47240 9.41968666690973e-08 2.04223672123868e-08 2.74997999595915e-08 7.67670561826337e-09 1.37584776750788e-07 4.27681319399491e-07 6.33396934743022e-08 1.78134720675118e-07
"1918" 47241 9.54878609411431e-08 2.03607713189499e-08 2.7826621404871e-08 7.63024925373957e-09 1.3752338176415e-07 4.27552972089089e-07 6.45342775892227e-08 1.78438792530143e-07
"1919" 47242 9.67721015860514e-08 2.03367686795116e-08 2.81837175707286e-08 7.66635234384128e-09 1.37437391176485e-07 4.27516978793178e-07 6.54655827000766e-08 1.78607535797845e-07
"1920" 47243 9.8049455167577e-08 2.03400521181102e-08 2.85834260478747e-08 7.70492509132118e-09 1.37234063767515e-07 4.27573433573289e-07 6.6674281050914e-08 1.78923911042151e-07
"1921" 47244 9.93268087491026e-08 2.03433355567087e-08 2.89831345250208e-08 7.74349783880108e-09 1.37030736358545e-07 4.27629888353399e-07 6.78829794017515e-08 1.79240286286457e-07
"1922" 47245 1.00604162330628e-07 2.03466189953073e-08 2.93828430021669e-08 7.78207058628098e-09 1.36827408949575e-07 4.2768634313351e-07 6.9091677752589e-08 1.79556661530763e-07
"1923" 47246 1.02184812367563e-07 2.04522509726207e-08 2.96596592817638e-08 7.82034198116273e-09 1.36544992011041e-07 4.27597914819935e-07 6.92461629508942e-08 1.80410362350943e-07
"1924" 47247 1.03765462404498e-07 2.0557882949934e-08 2.99364755613606e-08 7.85861337604449e-09 1.36262575072506e-07 4.2750948650636e-07 6.94006481491994e-08 1.81264063171124e-07
"1925" 47248 1.05346112441433e-07 2.06635149272474e-08 3.02132918409575e-08 7.89688477092624e-09 1.35980158133972e-07 4.27421058192785e-07 6.95551333475046e-08 1.82117763991305e-07
"1926" 47249 1.06926762478368e-07 2.07691469045607e-08 3.04901081205543e-08 7.935156165808e-09 1.35697741195438e-07 4.2733262987921e-07 6.97096185458098e-08 1.82971464811486e-07
"1927" 47250 1.08507412515303e-07 2.08747788818741e-08 3.07669244001512e-08 7.97342756068975e-09 1.35415324256904e-07 4.27244201565635e-07 6.9864103744115e-08 1.83825165631666e-07
"1928" 47251 1.10088062552238e-07 2.09804108591874e-08 3.1043740679748e-08 8.0116989555715e-09 1.35132907318369e-07 4.2715577325206e-07 7.00185889424202e-08 1.84678866451847e-07
"1929" 47252 1.11668712589173e-07 2.10860428365008e-08 3.13205569593448e-08 8.04997035045326e-09 1.34850490379835e-07 4.27067344938484e-07 7.01730741407254e-08 1.85532567272028e-07
"1930" 47253 1.13249362626108e-07 2.11916748138142e-08 3.15973732389417e-08 8.08824174533501e-09 1.34568073441301e-07 4.26978916624909e-07 7.03275593390306e-08 1.86386268092208e-07
"1931" 47254 1.14830012663043e-07 2.12973067911275e-08 3.18741895185385e-08 8.12651314021676e-09 1.34285656502766e-07 4.26890488311334e-07 7.04820445373358e-08 1.87239968912389e-07
"1932" 47255 1.16410662699978e-07 2.14029387684409e-08 3.21510057981354e-08 8.16478453509852e-09 1.34003239564232e-07 4.26802059997759e-07 7.06365297356411e-08 1.8809366973257e-07
"1933" 47256 1.17991312736913e-07 2.15085707457542e-08 3.24278220777322e-08 8.20305592998027e-09 1.33720822625698e-07 4.26713631684184e-07 7.07910149339463e-08 1.8894737055275e-07
"1934" 47257 1.19571962773848e-07 2.16142027230676e-08 3.2704638357329e-08 8.24132732486202e-09 1.33438405687164e-07 4.26625203370609e-07 7.09455001322515e-08 1.89801071372931e-07
"1935" 47258 1.20663837720044e-07 2.15432550338758e-08 3.29957747907847e-08 8.27855299709366e-09 1.33416531288697e-07 4.25985757914112e-07 7.03286242600834e-08 1.90730416108497e-07
"1936" 47259 1.2175571266624e-07 2.1472307344684e-08 3.32869112242403e-08 8.3157786693253e-09 1.33394656890231e-07 4.25346312457615e-07 6.97117483879152e-08 1.91659760844064e-07
"1937" 47260 1.23348250937767e-07 2.1578521161788e-08 3.35284541860244e-08 8.34413527238254e-09 1.32760165021887e-07 4.24573105487839e-07 6.96236039158062e-08 1.92519279682135e-07
"1938" 47261 1.24741545942529e-07 2.15412602544834e-08 3.37154935212661e-08 8.35444033038892e-09 1.32789732933183e-07 4.21384731962421e-07 6.97156167064316e-08 1.93237649148477e-07
"1939" 47262 1.26134840947291e-07 2.15039993471787e-08 3.39025328565079e-08 8.36474538839531e-09 1.32819300844479e-07 4.18196358437003e-07 6.98076294970569e-08 1.93956018614819e-07
"1940" 47263 1.27762616333784e-07 2.14981182263832e-08 3.39566164894922e-08 8.36474538839531e-09 1.32820134487863e-07 4.15112796763947e-07 6.98863603017578e-08 1.94884698170577e-07
"1941" 47264 1.29390391720277e-07 2.14922371055876e-08 3.40107001224765e-08 8.36474538839531e-09 1.32820968131248e-07 4.1202923509089e-07 6.99650911064587e-08 1.95813377726336e-07
"1942" 47265 1.31018167106769e-07 2.14863559847921e-08 3.40647837554608e-08 8.36474538839531e-09 1.32821801774632e-07 4.08945673417833e-07 7.00438219111596e-08 1.96742057282094e-07
"1943" 47266 1.32645942493262e-07 2.14804748639965e-08 3.41188673884451e-08 8.36474538839531e-09 1.32822635418016e-07 4.05862111744776e-07 7.01225527158604e-08 1.97670736837852e-07
"1944" 47267 1.34273717879754e-07 2.1474593743201e-08 3.41729510214294e-08 8.36474538839531e-09 1.328234690614e-07 4.02778550071719e-07 7.02012835205613e-08 1.98599416393611e-07
"1945" 47268 1.35901493266247e-07 2.14687126224054e-08 3.42270346544137e-08 8.36474538839531e-09 1.32824302704784e-07 3.99694988398662e-07 7.02800143252622e-08 1.99528095949369e-07
"1946" 47269 1.3752926865274e-07 2.14628315016099e-08 3.4281118287398e-08 8.36474538839531e-09 1.32825136348168e-07 3.96611426725605e-07 7.0358745129963e-08 2.00456775505128e-07
"1947" 47270 1.39157044039232e-07 2.14569503808143e-08 3.43352019203823e-08 8.36474538839531e-09 1.32825969991552e-07 3.93527865052548e-07 7.04374759346639e-08 2.01385455060886e-07
"1948" 47271 1.40784819425725e-07 2.14510692600188e-08 3.43892855533666e-08 8.36474538839531e-09 1.32826803634936e-07 3.90444303379491e-07 7.05162067393648e-08 2.02314134616644e-07
"1949" 47272 1.42412594812218e-07 2.14451881392232e-08 3.44433691863509e-08 8.36474538839531e-09 1.3282763727832e-07 3.87360741706434e-07 7.05949375440656e-08 2.03242814172403e-07
"1950" 47273 1.4404037019871e-07 2.14393070184277e-08 3.44974528193352e-08 8.36474538839531e-09 1.32828470921704e-07 3.84277180033377e-07 7.06736683487665e-08 2.04171493728161e-07
"1951" 47274 1.45668145585203e-07 2.14334258976321e-08 3.45515364523195e-08 8.36474538839531e-09 1.32829304565088e-07 3.8119361836032e-07 7.07523991534674e-08 2.05100173283919e-07
"1952" 47275 1.47295920971695e-07 2.14275447768366e-08 3.46056200853038e-08 8.36474538839531e-09 1.32830138208472e-07 3.78110056687263e-07 7.08311299581682e-08 2.06028852839678e-07
"1953" 47276 1.48923696358188e-07 2.1421663656041e-08 3.46597037182881e-08 8.36474538839531e-09 1.32830971851856e-07 3.75026495014206e-07 7.09098607628691e-08 2.06957532395436e-07
"1954" 47277 1.50551471744681e-07 2.14157825352455e-08 3.47137873512724e-08 8.36474538839531e-09 1.3283180549524e-07 3.71942933341149e-07 7.098859156757e-08 2.07886211951195e-07
"1955" 47278 1.52179247131173e-07 2.14099014144499e-08 3.47678709842567e-08 8.36474538839531e-09 1.32832639138625e-07 3.68859371668093e-07 7.10673223722708e-08 2.08814891506953e-07
"1956" 47279 1.53807022517666e-07 2.14040202936544e-08 3.48219546172411e-08 8.36474538839531e-09 1.32833472782009e-07 3.65775809995036e-07 7.11460531769717e-08 2.09743571062711e-07
"1957" 47280 1.55434797904159e-07 2.13981391728588e-08 3.48760382502254e-08 8.36474538839531e-09 1.32834306425393e-07 3.62692248321979e-07 7.12247839816726e-08 2.1067225061847e-07
"1958" 47281 1.55850042190784e-07 2.13896601367899e-08 3.49155834330249e-08 8.24583722673331e-09 1.31165251950014e-07 3.603001074812e-07 7.05368220691955e-08 2.10270255342523e-07
"1959" 47282 1.5626528647741e-07 2.1381181100721e-08 3.49551286158245e-08 8.12692906507131e-09 1.29496197474635e-07 3.57907966640422e-07 6.98488601567184e-08 2.09868260066577e-07
"1960" 47283 1.55047781486408e-07 2.13507777574324e-08 3.4935890007548e-08 8.01434799058196e-09 1.28037159250256e-07 3.5662441434109e-07 6.90669274293601e-08 2.0862486735973e-07
"1961" 47284 1.54693991169953e-07 2.15305992026612e-08 3.49124472277815e-08 7.88789826164223e-09 1.26437338334009e-07 3.54164995163451e-07 6.85226690564574e-08 2.07431515271515e-07
"1962" 47285 1.54340200853497e-07 2.171042064789e-08 3.48890044480149e-08 7.76144853270249e-09 1.24837517417763e-07 3.51705575985813e-07 6.79784106835547e-08 2.062381631833e-07
"1963" 47286 1.53986410537042e-07 2.18902420931188e-08 3.48655616682484e-08 7.63499880376276e-09 1.23237696501516e-07 3.49246156808174e-07 6.7434152310652e-08 2.05044811095085e-07
"1964" 47287 1.53632620220586e-07 2.20700635383476e-08 3.48421188884818e-08 7.50854907482302e-09 1.21637875585269e-07 3.46786737630536e-07 6.68898939377493e-08 2.0385145900687e-07
"1965" 47288 1.53278829904131e-07 2.22498849835764e-08 3.48186761087152e-08 7.38209934588329e-09 1.20038054669023e-07 3.44327318452897e-07 6.63456355648466e-08 2.02658106918654e-07
"1966" 47289 1.52925039587676e-07 2.24297064288052e-08 3.47952333289487e-08 7.25564961694355e-09 1.18438233752776e-07 3.41867899275259e-07 6.58013771919439e-08 2.01464754830439e-07
"1967" 47290 1.5257124927122e-07 2.2609527874034e-08 3.47717905491821e-08 7.12919988800382e-09 1.16838412836529e-07 3.3940848009762e-07 6.52571188190412e-08 2.00271402742224e-07
"1968" 47291 1.52217458954765e-07 2.27893493192627e-08 3.47483477694156e-08 7.00275015906408e-09 1.15238591920283e-07 3.36949060919982e-07 6.47128604461385e-08 1.99078050654009e-07
"1969" 47292 1.51863668638309e-07 2.29691707644915e-08 3.4724904989649e-08 6.87630043012435e-09 1.13638771004036e-07 3.34489641742343e-07 6.41686020732358e-08 1.97884698565794e-07
"1970" 47293 1.52719174346477e-07 2.31822841551012e-08 3.46867179126922e-08 6.87478006256487e-09 1.13362803831936e-07 3.34522325748442e-07 6.43795698688148e-08 1.98025512712843e-07
"1971" 47294 1.53574680054645e-07 2.33953975457109e-08 3.46485308357354e-08 6.8732596950054e-09 1.13086836659837e-07 3.34555009754541e-07 6.45905376643939e-08 1.98166326859892e-07
"1972" 47295 1.54430185762813e-07 2.36085109363205e-08 3.46103437587786e-08 6.87173932744593e-09 1.12810869487737e-07 3.3458769376064e-07 6.48015054599729e-08 1.98307141006941e-07
"1973" 47296 1.55935752995553e-07 2.36113995384128e-08 3.45695910729656e-08 6.87020690578253e-09 1.13054703352493e-07 3.34852978701366e-07 6.48789195805627e-08 1.9880755569041e-07
"1974" 47297 1.56945464149531e-07 2.36192342448787e-08 3.46518922535939e-08 6.89100988745811e-09 1.13017914713732e-07 3.37007691078235e-07 6.54260678577454e-08 1.99132909808214e-07
"1975" 47298 1.57955175303509e-07 2.36270689513445e-08 3.47341934342222e-08 6.9118128691337e-09 1.1298112607497e-07 3.39162403455104e-07 6.59732161349282e-08 1.99458263926018e-07
"1976" 47299 1.58964886457487e-07 2.36349036578104e-08 3.48164946148505e-08 6.93261585080928e-09 1.12944337436209e-07 3.41317115831973e-07 6.6520364412111e-08 1.99783618043822e-07
"1977" 47300 1.5995666977932e-07 2.36495961613687e-08 3.49156815581937e-08 6.9473976327666e-09 1.13108036803716e-07 3.42007151921829e-07 6.70926460280014e-08 1.99752863226373e-07
"1978" 47301 1.60948453101152e-07 2.36642886649271e-08 3.5014868501537e-08 6.96217941472392e-09 1.13271736171222e-07 3.42697188011684e-07 6.76649276438918e-08 1.99722108408925e-07
"1979" 47302 1.61940236422984e-07 2.36789811684854e-08 3.51140554448802e-08 6.97696119668125e-09 1.13435435538729e-07 3.43387224101539e-07 6.82372092597821e-08 1.99691353591476e-07
"1980" 47303 1.62932019744817e-07 2.36936736720438e-08 3.52132423882234e-08 6.99174297863857e-09 1.13599134906236e-07 3.44077260191395e-07 6.88094908756725e-08 1.99660598774027e-07
"1981" 47304 1.63923803066649e-07 2.37083661756021e-08 3.53124293315666e-08 7.00652476059589e-09 1.13762834273742e-07 3.4476729628125e-07 6.93817724915629e-08 1.99629843956578e-07
"1982" 47305 1.64676130332074e-07 2.37095506851209e-08 3.52942614560525e-08 7.00050356087763e-09 1.13662488190741e-07 3.46036186919113e-07 6.93770576040554e-08 1.99530926125286e-07
"1983" 47306 1.654284575975e-07 2.37107351946397e-08 3.52760935805385e-08 6.99448236115937e-09 1.13562142107739e-07 3.47305077556976e-07 6.9372342716548e-08 1.99432008293993e-07
"1984" 47307 1.66180784862925e-07 2.37119197041585e-08 3.52579257050244e-08 6.98846116144111e-09 1.13461796024738e-07 3.48573968194839e-07 6.93676278290406e-08 1.993330904627e-07
"1985" 47308 1.66933112128351e-07 2.37131042136774e-08 3.52397578295103e-08 6.98243996172284e-09 1.13361449941736e-07 3.49842858832701e-07 6.93629129415331e-08 1.99234172631407e-07
"1986" 47309 1.67685439393776e-07 2.37142887231962e-08 3.52215899539962e-08 6.97641876200458e-09 1.13261103858735e-07 3.51111749470564e-07 6.93581980540257e-08 1.99135254800114e-07
"1987" 47310 1.68437766659202e-07 2.3715473232715e-08 3.52034220784821e-08 6.97039756228632e-09 1.13160757775734e-07 3.52380640108427e-07 6.93534831665182e-08 1.99036336968821e-07
"1988" 47311 1.69190093924627e-07 2.37166577422338e-08 3.5185254202968e-08 6.96437636256806e-09 1.13060411692732e-07 3.5364953074629e-07 6.93487682790108e-08 1.98937419137528e-07
"1989" 47312 1.69942421190053e-07 2.37178422517526e-08 3.51670863274539e-08 6.9583551628498e-09 1.12960065609731e-07 3.54918421384152e-07 6.93440533915033e-08 1.98838501306235e-07
"1990" 47313 1.70694748455478e-07 2.37190267612714e-08 3.51489184519398e-08 6.95233396313154e-09 1.12859719526729e-07 3.56187312022015e-07 6.93393385039959e-08 1.98739583474942e-07
"1991" 47314 1.71447075720903e-07 2.37202112707903e-08 3.51307505764257e-08 6.94631276341328e-09 1.12759373443728e-07 3.57456202659878e-07 6.93346236164884e-08 1.98640665643649e-07
"1992" 47315 1.72209364408636e-07 2.37188189280496e-08 3.51338840151535e-08 6.9404241588382e-09 1.12799939891355e-07 3.59690240054556e-07 6.93162419389696e-08 1.9730932978191e-07
"1993" 47316 1.72971653096369e-07 2.37174265853089e-08 3.51370174538813e-08 6.93453555426312e-09 1.12840506338982e-07 3.61924277449234e-07 6.92978602614508e-08 1.9597799392017e-07
"1994" 47317 1.73354804610679e-07 2.3690140507272e-08 3.50850006766359e-08 6.92218726737221e-09 1.12888174422162e-07 3.63295715024505e-07 6.90723307840492e-08 1.9533327177588e-07
"1995" 47318 1.73737956124989e-07 2.3662854429235e-08 3.50329838993905e-08 6.90983898048129e-09 1.12935842505342e-07 3.64667152599777e-07 6.88468013066475e-08 1.94688549631589e-07
"1996" 47319 1.73627192012858e-07 2.36719356688793e-08 3.50829945981045e-08 7.01143543228816e-09 1.12963132449408e-07 3.63804552780371e-07 6.89282215597817e-08 1.94629530468806e-07
"1997" 47320 1.73234117032228e-07 2.36581575848819e-08 3.51228879311919e-08 7.01989012707282e-09 1.15441608607996e-07 3.64199257851814e-07 6.88949685685626e-08 1.93893202728513e-07
"1998" 47321 1.7325376411198e-07 2.36637477857821e-08 3.52498585960429e-08 7.03879452911099e-09 1.1573567595198e-07 3.62863647105229e-07 6.86976466823887e-08 1.93824538458514e-07
"1999" 47322 1.73273411191733e-07 2.36693379866823e-08 3.53768292608938e-08 7.05769893114915e-09 1.16029743295963e-07 3.61528036358643e-07 6.85003247962148e-08 1.93755874188514e-07
"2000" 47323 1.73293058271486e-07 2.36749281875825e-08 3.55037999257448e-08 7.07660333318731e-09 1.16323810639946e-07 3.60192425612057e-07 6.83030029100409e-08 1.93687209918515e-07
"2001" 47324 1.73312705351239e-07 2.36805183884827e-08 3.56307705905958e-08 7.09550773522547e-09 1.1661787798393e-07 3.58856814865471e-07 6.81056810238671e-08 1.93618545648516e-07
"2002" 47325 1.73332352430991e-07 2.3686108589383e-08 3.57577412554467e-08 7.11441213726363e-09 1.16911945327913e-07 3.57521204118885e-07 6.79083591376932e-08 1.93549881378516e-07
"2003" 47326 1.73351999510744e-07 2.36916987902832e-08 3.58847119202977e-08 7.1333165393018e-09 1.17206012671896e-07 3.561855933723e-07 6.77110372515193e-08 1.93481217108517e-07
"2004" 47327 1.73371646590497e-07 2.36972889911834e-08 3.60116825851487e-08 7.15222094133996e-09 1.1750008001588e-07 3.54849982625714e-07 6.75137153653454e-08 1.93412552838518e-07
"2005" 47328 1.7339129367025e-07 2.37028791920836e-08 3.61386532499996e-08 7.17112534337812e-09 1.17794147359863e-07 3.53514371879128e-07 6.73163934791715e-08 1.93343888568518e-07
"2006" 47329 1.73410940750002e-07 2.37084693929838e-08 3.62656239148506e-08 7.19002974541628e-09 1.18088214703846e-07 3.52178761132542e-07 6.71190715929976e-08 1.93275224298519e-07
"2007" 47330 1.73430587829755e-07 2.3714059593884e-08 3.63925945797016e-08 7.20893414745444e-09 1.1838228204783e-07 3.50843150385956e-07 6.69217497068237e-08 1.93206560028519e-07
"2008" 47331 1.73450234909508e-07 2.37196497947842e-08 3.65195652445525e-08 7.22783854949261e-09 1.18676349391813e-07 3.49507539639371e-07 6.67244278206498e-08 1.9313789575852e-07
"2009" 47332 1.7346988198926e-07 2.37252399956844e-08 3.66465359094035e-08 7.24674295153077e-09 1.18970416735796e-07 3.48171928892785e-07 6.65271059344759e-08 1.93069231488521e-07
"2010" 47333 1.73489529069013e-07 2.37308301965846e-08 3.67735065742545e-08 7.26564735356893e-09 1.1926448407978e-07 3.46836318146199e-07 6.6329784048302e-08 1.93000567218521e-07
"2011" 47334 1.73509176148766e-07 2.37364203974849e-08 3.69004772391054e-08 7.28455175560709e-09 1.19558551423763e-07 3.45500707399613e-07 6.61324621621281e-08 1.92931902948522e-07
"2012" 47335 1.73528823228519e-07 2.37420105983851e-08 3.70274479039564e-08 7.30345615764525e-09 1.19852618767746e-07 3.44165096653028e-07 6.59351402759542e-08 1.92863238678523e-07
"2013" 47336 1.73548470308271e-07 2.37476007992853e-08 3.71544185688074e-08 7.32236055968342e-09 1.2014668611173e-07 3.42829485906442e-07 6.57378183897803e-08 1.92794574408523e-07
"2014" 47337 1.73963375377516e-07 2.37813706678459e-08 3.73152381353896e-08 7.33258123896232e-09 1.20437452014495e-07 3.41099170088412e-07 6.54763578073335e-08 1.93599394656702e-07
"2015" 47338 1.74378280446761e-07 2.38151405364065e-08 3.74760577019719e-08 7.34280191824122e-09 1.20728217917261e-07 3.39368854270383e-07 6.52148972248867e-08 1.94404214904881e-07
"2016" 47339 1.74796191674746e-07 2.38151405364065e-08 3.74893817328541e-08 7.3303571985189e-09 1.20920394565669e-07 3.37930696586388e-07 6.5207446354734e-08 1.95080356058387e-07
"2017" 47340 1.7521410290273e-07 2.38151405364065e-08 3.75027057637363e-08 7.31791247879658e-09 1.21112571214078e-07 3.36492538902393e-07 6.51999954845812e-08 1.95756497211893e-07
"2018" 47341 1.75632014130715e-07 2.38151405364065e-08 3.75160297946185e-08 7.30546775907426e-09 1.21304747862487e-07 3.35054381218398e-07 6.51925446144284e-08 1.964326383654e-07
"2019" 47342 1.76091806980509e-07 2.37809758313396e-08 3.73482290676532e-08 7.26076079008451e-09 1.21284678645887e-07 3.34201132292843e-07 6.52183867080991e-08 1.96821664215955e-07
"2020" 47343 1.76551599830302e-07 2.37468111262727e-08 3.71804283406879e-08 7.21605382109477e-09 1.21264609429287e-07 3.33347883367287e-07 6.52442288017697e-08 1.9721069006651e-07
"2021" 47344 1.77011392680095e-07 2.37126464212059e-08 3.70126276137226e-08 7.17134685210503e-09 1.21244540212686e-07 3.32494634441731e-07 6.52700708954404e-08 1.97599715917066e-07
"2022" 47345 1.77471185529889e-07 2.3678481716139e-08 3.68448268867572e-08 7.12663988311529e-09 1.21224470996086e-07 3.31641385516175e-07 6.52959129891111e-08 1.97988741767621e-07
"2023" 47346 1.77930978379682e-07 2.36443170110721e-08 3.66770261597919e-08 7.08193291412555e-09 1.21204401779486e-07 3.3078813659062e-07 6.53217550827818e-08 1.98377767618176e-07
"2024" 47347 1.78390771229475e-07 2.36101523060052e-08 3.65092254328266e-08 7.03722594513581e-09 1.21184332562885e-07 3.29934887665064e-07 6.53475971764525e-08 1.98766793468732e-07
"2025" 47348 1.78850564079269e-07 2.35759876009383e-08 3.63414247058613e-08 6.99251897614607e-09 1.21164263346285e-07 3.29081638739508e-07 6.53734392701231e-08 1.99155819319287e-07
"2026" 47349 1.79310356929062e-07 2.35418228958714e-08 3.61736239788959e-08 6.94781200715633e-09 1.21144194129685e-07 3.28228389813952e-07 6.53992813637938e-08 1.99544845169843e-07
"2027" 47350 1.79770149778855e-07 2.35076581908046e-08 3.60058232519306e-08 6.90310503816659e-09 1.21124124913085e-07 3.27375140888397e-07 6.54251234574645e-08 1.99933871020398e-07
"2028" 47351 1.79832224081892e-07 2.35076581908046e-08 3.60086016240814e-08 6.88974719093733e-09 1.20945675168133e-07 3.27915575931597e-07 6.5463578754701e-08 2.00423478969155e-07
"2029" 47352 1.79894298384929e-07 2.35076581908046e-08 3.60113799962322e-08 6.87638934370808e-09 1.20767225423182e-07 3.28456010974798e-07 6.55020340519375e-08 2.00913086917912e-07
"2030" 47353 1.79956372687966e-07 2.35076581908046e-08 3.60141583683829e-08 6.86303149647882e-09 1.20588775678231e-07 3.28996446017998e-07 6.5540489349174e-08 2.01402694866668e-07
"2031" 47354 1.79577903876351e-07 2.35208958618098e-08 3.61211015322442e-08 6.85062293906827e-09 1.20658362930816e-07 3.28998930409859e-07 6.55456516825871e-08 2.01374597870197e-07
"2032" 47355 1.79199435064737e-07 2.35341335328151e-08 3.62280446961055e-08 6.83821438165773e-09 1.20727950183401e-07 3.2900141480172e-07 6.55508140160002e-08 2.01346500873726e-07
"2033" 47356 1.78820966253122e-07 2.35473712038203e-08 3.63349878599668e-08 6.82580582424718e-09 1.20797537435986e-07 3.29003899193581e-07 6.55559763494132e-08 2.01318403877255e-07
"2034" 47357 1.78442497441507e-07 2.35606088748256e-08 3.64419310238281e-08 6.81339726683664e-09 1.20867124688571e-07 3.29006383585441e-07 6.55611386828263e-08 2.01290306880785e-07
"2035" 47358 1.78426929938702e-07 2.35474542904938e-08 3.6470786861356e-08 6.7098781271845e-09 1.20448678879571e-07 3.29059008342504e-07 6.54820839272492e-08 2.01318735610857e-07
"2036" 47359 1.78411362435898e-07 2.3534299706162e-08 3.64996426988839e-08 6.60635898753236e-09 1.20030233070571e-07 3.29111633099566e-07 6.54030291716722e-08 2.0134716434093e-07
"2037" 47360 1.78395794933093e-07 2.35211451218302e-08 3.65284985364118e-08 6.50283984788022e-09 1.19611787261572e-07 3.29164257856628e-07 6.53239744160951e-08 2.01375593071002e-07
"2038" 47361 1.78380227430288e-07 2.35079905374984e-08 3.65573543739397e-08 6.39932070822808e-09 1.19193341452572e-07 3.2921688261369e-07 6.5244919660518e-08 2.01404021801075e-07
"2039" 47362 1.78416352931194e-07 2.34815982821614e-08 3.65329873144666e-08 6.43227457627552e-09 1.18536643877777e-07 3.31492346578886e-07 6.7208384203541e-08 2.01525718088629e-07
"2040" 47363 1.78452478432099e-07 2.34552060268244e-08 3.65086202549936e-08 6.46522844432296e-09 1.17879946302983e-07 3.33767810544083e-07 6.91718487465641e-08 2.01647414376182e-07
"2041" 47364 1.78488603933004e-07 2.34288137714873e-08 3.64842531955206e-08 6.49818231237039e-09 1.17223248728189e-07 3.36043274509279e-07 7.11353132895871e-08 2.01769110663736e-07
"2042" 47365 1.78524729433909e-07 2.34024215161503e-08 3.64598861360475e-08 6.53113618041783e-09 1.16566551153394e-07 3.38318738474475e-07 7.30987778326102e-08 2.0189080695129e-07
"2043" 47366 1.78560854934815e-07 2.33760292608133e-08 3.64355190765745e-08 6.56409004846527e-09 1.159098535786e-07 3.40594202439671e-07 7.50622423756332e-08 2.02012503238844e-07
"2044" 47367 1.7859698043572e-07 2.33496370054762e-08 3.64111520171014e-08 6.59704391651271e-09 1.15253156003806e-07 3.42869666404867e-07 7.70257069186562e-08 2.02134199526398e-07
"2045" 47368 1.78633105936625e-07 2.33232447501392e-08 3.63867849576284e-08 6.62999778456015e-09 1.14596458429011e-07 3.45145130370064e-07 7.89891714616793e-08 2.02255895813952e-07
"2046" 47369 1.78669231437531e-07 2.32968524948022e-08 3.63624178981553e-08 6.66295165260759e-09 1.13939760854217e-07 3.4742059433526e-07 8.09526360047023e-08 2.02377592101506e-07
"2047" 47370 1.78705356938436e-07 2.32704602394651e-08 3.63380508386823e-08 6.69590552065502e-09 1.13283063279423e-07 3.49696058300456e-07 8.29161005477254e-08 2.02499288389059e-07
"2048" 47371 1.78741482439341e-07 2.32440679841281e-08 3.63136837792092e-08 6.72885938870246e-09 1.12626365704628e-07 3.51971522265652e-07 8.48795650907484e-08 2.02620984676613e-07
"2049" 47372 1.78777607940246e-07 2.32176757287911e-08 3.62893167197362e-08 6.7618132567499e-09 1.11969668129834e-07 3.54246986230849e-07 8.68430296337715e-08 2.02742680964167e-07
"2050" 47373 1.78813733441152e-07 2.3191283473454e-08 3.62649496602632e-08 6.79476712479734e-09 1.1131297055504e-07 3.56522450196045e-07 8.88064941767945e-08 2.02864377251721e-07
"2051" 47374 1.78525846736352e-07 2.31723931117362e-08 3.6245563215673e-08 6.85660797647476e-09 1.11294523854269e-07 3.54876922732221e-07 9.05754915383189e-08 2.02807354221188e-07
"2052" 47375 1.78237960031552e-07 2.31535027500183e-08 3.62261767710829e-08 6.91844882815218e-09 1.11276077153499e-07 3.53231395268397e-07 9.23444888998432e-08 2.02750331190654e-07
"2053" 47376 1.7822001855937e-07 2.31465410363149e-08 3.61017758648616e-08 7.0038440981299e-09 1.11014656199108e-07 3.53934743831584e-07 9.42973048251639e-08 2.02371612794739e-07
"2054" 47377 1.79057637355503e-07 2.31584696843293e-08 3.59236546917799e-08 6.95178090827756e-09 1.10658825845902e-07 3.52334348513725e-07 9.422136131032e-08 2.02123067776765e-07
"2055" 47378 1.79895256151636e-07 2.31703983323438e-08 3.57455335186982e-08 6.89971771842522e-09 1.10302995492695e-07 3.50733953195865e-07 9.4145417795476e-08 2.01874522758791e-07
"2056" 47379 1.79986972165054e-07 2.31638314551466e-08 3.55795979502398e-08 6.86950323289858e-09 1.10134476930921e-07 3.491409858408e-07 9.40322217184763e-08 2.01585413826629e-07
"2057" 47380 1.80078688178473e-07 2.31572645779494e-08 3.54136623817814e-08 6.83928874737194e-09 1.09965958369146e-07 3.47548018485736e-07 9.39190256414766e-08 2.01296304894467e-07
"2058" 47381 1.80170404191891e-07 2.31506977007523e-08 3.5247726813323e-08 6.80907426184531e-09 1.09797439807371e-07 3.45955051130671e-07 9.38058295644768e-08 2.01007195962305e-07
"2059" 47382 1.8026212020531e-07 2.31441308235551e-08 3.50817912448645e-08 6.77885977631867e-09 1.09628921245597e-07 3.44362083775606e-07 9.36926334874771e-08 2.00718087030143e-07
"2060" 47383 1.80353836218728e-07 2.3137563946358e-08 3.49158556764061e-08 6.74864529079203e-09 1.09460402683822e-07 3.42769116420542e-07 9.35794374104774e-08 2.00428978097981e-07
"2061" 47384 1.80445552232147e-07 2.31309970691608e-08 3.47499201079477e-08 6.71843080526539e-09 1.09291884122048e-07 3.41176149065477e-07 9.34662413334777e-08 2.00139869165819e-07
"2062" 47385 1.80537268245565e-07 2.31244301919637e-08 3.45839845394893e-08 6.68821631973875e-09 1.09123365560273e-07 3.39583181710413e-07 9.33530452564779e-08 1.99850760233657e-07
"2063" 47386 1.80628984258984e-07 2.31178633147665e-08 3.44180489710309e-08 6.65800183421211e-09 1.08954846998498e-07 3.37990214355348e-07 9.32398491794782e-08 1.99561651301495e-07
"2064" 47387 1.80720700272402e-07 2.31112964375693e-08 3.42521134025725e-08 6.62778734868547e-09 1.08786328436724e-07 3.36397247000283e-07 9.31266531024784e-08 1.99272542369333e-07
"2065" 47388 1.80812416285821e-07 2.31047295603722e-08 3.4086177834114e-08 6.59757286315883e-09 1.08617809874949e-07 3.34804279645219e-07 9.30134570254787e-08 1.98983433437171e-07
"2066" 47389 1.80904132299239e-07 2.3098162683175e-08 3.39202422656556e-08 6.56735837763219e-09 1.08449291313174e-07 3.33211312290154e-07 9.2900260948479e-08 1.98694324505009e-07
"2067" 47390 1.80995848312658e-07 2.30915958059779e-08 3.37543066971972e-08 6.53714389210556e-09 1.082807727514e-07 3.3161834493509e-07 9.27870648714793e-08 1.98405215572847e-07
"2068" 47391 1.81087564326076e-07 2.30850289287807e-08 3.35883711287388e-08 6.50692940657892e-09 1.08112254189625e-07 3.30025377580025e-07 9.26738687944795e-08 1.98116106640685e-07
"2069" 47392 1.81179280339495e-07 2.30784620515836e-08 3.34224355602804e-08 6.47671492105228e-09 1.0794373562785e-07 3.2843241022496e-07 9.25606727174798e-08 1.97826997708523e-07
"2070" 47393 1.81270996352913e-07 2.30718951743864e-08 3.3256499991822e-08 6.44650043552564e-09 1.07775217066076e-07 3.26839442869896e-07 9.24474766404801e-08 1.97537888776362e-07
"2071" 47394 1.81362712366332e-07 2.30653282971892e-08 3.30905644233635e-08 6.416285949999e-09 1.07606698504301e-07 3.25246475514831e-07 9.23342805634803e-08 1.972487798442e-07
"2072" 47395 1.81543339870858e-07 2.30371486295288e-08 3.29321709288707e-08 6.35355154416625e-09 1.0632657386213e-07 3.24072518961186e-07 9.22774948959366e-08 1.97267733714172e-07
"2073" 47396 1.81661001722285e-07 2.27443185260688e-08 3.24125337244642e-08 6.36548545666744e-09 1.06518352046148e-07 3.23622952663184e-07 9.20611547650986e-08 1.96835482769111e-07
"2074" 47397 1.81778663573711e-07 2.24514884226087e-08 3.18928965200576e-08 6.37741936916863e-09 1.06710130230165e-07 3.23173386365182e-07 9.18448146342607e-08 1.96403231824049e-07
"2075" 47398 1.81896325425137e-07 2.21586583191486e-08 3.13732593156511e-08 6.38935328166982e-09 1.06901908414183e-07 3.22723820067179e-07 9.16284745034227e-08 1.95970980878988e-07
"2076" 47399 1.82383569264662e-07 2.19316011373474e-08 3.08536221112445e-08 6.3838911055884e-09 1.0690095926117e-07 3.25925162789979e-07 9.14074194850773e-08 1.95400076303865e-07
"2077" 47400 1.82319875941941e-07 2.17045439555462e-08 3.04868105909667e-08 6.375022036414e-09 1.07140390307465e-07 3.2753840027351e-07 9.14760326404065e-08 1.96240644367827e-07
"2078" 47401 1.8225618261922e-07 2.14774867737451e-08 3.01199990706888e-08 6.36615296723961e-09 1.07379821353759e-07 3.29151637757041e-07 9.15446457957357e-08 1.97081212431788e-07
"2079" 47402 1.821924892965e-07 2.12504295919439e-08 2.97531875504109e-08 6.35728389806522e-09 1.07619252400054e-07 3.30764875240571e-07 9.16132589510648e-08 1.97921780495749e-07
"2080" 47403 1.82128795973779e-07 2.10233724101427e-08 2.9386376030133e-08 6.34841482889082e-09 1.07858683446349e-07 3.32378112724102e-07 9.1681872106394e-08 1.98762348559711e-07
"2081" 47404 1.82065102651059e-07 2.07963152283416e-08 2.90195645098551e-08 6.33954575971643e-09 1.08098114492644e-07 3.33991350207633e-07 9.17504852617231e-08 1.99602916623672e-07
"2082" 47405 1.82001409328338e-07 2.05692580465404e-08 2.86527529895773e-08 6.33067669054204e-09 1.08337545538938e-07 3.35604587691164e-07 9.18190984170523e-08 2.00443484687634e-07
"2083" 47406 1.81937716005617e-07 2.03422008647392e-08 2.82859414692994e-08 6.32180762136765e-09 1.08576976585233e-07 3.37217825174694e-07 9.18877115723815e-08 2.01284052751595e-07
"2084" 47407 1.81874022682897e-07 2.01151436829381e-08 2.79191299490215e-08 6.31293855219325e-09 1.08816407631528e-07 3.38831062658225e-07 9.19563247277106e-08 2.02124620815557e-07
"2085" 47408 1.81810329360176e-07 1.98880865011369e-08 2.75523184287436e-08 6.30406948301886e-09 1.09055838677822e-07 3.40444300141756e-07 9.20249378830398e-08 2.02965188879518e-07
"2086" 47409 1.81642184323617e-07 1.99529658331723e-08 2.76353877532178e-08 6.3050790433572e-09 1.09291398791091e-07 3.39877139625021e-07 9.22915607988997e-08 2.04449812327096e-07
"2087" 47410 1.81474039287058e-07 2.00178451652078e-08 2.77184570776919e-08 6.30608860369554e-09 1.0952695890436e-07 3.39309979108287e-07 9.25581837147595e-08 2.05934435774674e-07
"2088" 47411 1.81335737597309e-07 2.00220638533047e-08 2.76382973625883e-08 6.31298676860896e-09 1.09729021073237e-07 3.40093241303491e-07 9.26794224834533e-08 2.05936098197239e-07
"2089" 47412 1.81348947734897e-07 2.00288802235987e-08 2.77141092196616e-08 6.31988493352237e-09 1.10271158547075e-07 3.37478961061434e-07 9.28006612521471e-08 2.05937760619804e-07
"2090" 47413 1.81362157872484e-07 2.00356965938927e-08 2.77899210767349e-08 6.32678309843579e-09 1.10813296020912e-07 3.34864680819377e-07 9.2921900020841e-08 2.05939423042369e-07
"2091" 47414 1.81375368010072e-07 2.00425129641866e-08 2.78657329338082e-08 6.33368126334921e-09 1.1135543349475e-07 3.3225040057732e-07 9.30431387895348e-08 2.05941085464933e-07
"2092" 47415 1.81554714531713e-07 1.99104679015988e-08 2.80234867551593e-08 6.34057942826262e-09 1.1130767228741e-07 3.32132663487815e-07 9.31676988008075e-08 2.05940586580077e-07
"2093" 47416 1.81734061053354e-07 1.97784228390109e-08 2.81812405765103e-08 6.34747759317604e-09 1.11259911080071e-07 3.3201492639831e-07 9.32922588120803e-08 2.05940087695221e-07
"2094" 47417 1.81913407574995e-07 1.96463777764231e-08 2.83389943978614e-08 6.35437575808946e-09 1.11212149872731e-07 3.31897189308805e-07 9.34168188233531e-08 2.05939588810365e-07
"2095" 47418 1.82092754096636e-07 1.95143327138352e-08 2.84967482192125e-08 6.36127392300287e-09 1.11164388665391e-07 3.317794522193e-07 9.35413788346259e-08 2.05939089925509e-07
"2096" 47419 1.82272100618278e-07 1.93822876512474e-08 2.86545020405636e-08 6.36817208791629e-09 1.11116627458051e-07 3.31661715129795e-07 9.36659388458987e-08 2.05938591040653e-07
"2097" 47420 1.82969973061334e-07 1.92610281539537e-08 2.87417092262891e-08 6.37269702828293e-09 1.10520792092688e-07 3.31673865570282e-07 9.37336762014148e-08 2.06274417261314e-07
"2098" 47421 1.83667845504391e-07 1.913976865666e-08 2.88289164120145e-08 6.37722196864957e-09 1.09924956727325e-07 3.31686016010768e-07 9.38014135569308e-08 2.06610243481974e-07
"2099" 47422 1.84365717947448e-07 1.90185091593663e-08 2.891612359774e-08 6.38174690901621e-09 1.09329121361963e-07 3.31698166451255e-07 9.38691509124469e-08 2.06946069702635e-07
"2100" 47423 1.85063590390505e-07 1.88972496620725e-08 2.90033307834655e-08 6.38627184938285e-09 1.087332859966e-07 3.31710316891741e-07 9.3936888267963e-08 2.07281895923295e-07
"2101" 47424 1.85761462833561e-07 1.87759901647788e-08 2.90905379691909e-08 6.39079678974949e-09 1.08137450631237e-07 3.31722467332228e-07 9.4004625623479e-08 2.07617722143955e-07
"2102" 47425 1.86459335276618e-07 1.86547306674851e-08 2.91777451549164e-08 6.39532173011613e-09 1.07541615265875e-07 3.31734617772714e-07 9.40723629789951e-08 2.07953548364616e-07
"2103" 47426 1.87157207719675e-07 1.85334711701914e-08 2.92649523406419e-08 6.39984667048277e-09 1.06945779900512e-07 3.31746768213201e-07 9.41401003345111e-08 2.08289374585276e-07
"2104" 47427 1.87855080162732e-07 1.84122116728977e-08 2.93521595263673e-08 6.40437161084941e-09 1.06349944535149e-07 3.31758918653688e-07 9.42078376900272e-08 2.08625200805937e-07
"2105" 47428 1.88552952605789e-07 1.8290952175604e-08 2.94393667120928e-08 6.40889655121605e-09 1.05754109169786e-07 3.31771069094174e-07 9.42755750455433e-08 2.08961027026597e-07
"2106" 47429 1.89250825048845e-07 1.81696926783103e-08 2.95265738978183e-08 6.41342149158269e-09 1.05158273804424e-07 3.31783219534661e-07 9.43433124010593e-08 2.09296853247258e-07
"2107" 47430 1.89726318837688e-07 1.81568084170128e-08 2.95356937572104e-08 6.40440777316119e-09 1.05137538389573e-07 3.31739911084936e-07 9.43692732167599e-08 2.08407407838896e-07
"2108" 47431 1.90201812626531e-07 1.81439241557153e-08 2.95448136166025e-08 6.39539405473969e-09 1.05116802974722e-07 3.31696602635212e-07 9.43952340324604e-08 2.07517962430534e-07
"2109" 47432 1.90876944062626e-07 1.81119002726795e-08 2.95448136166025e-08 6.40044185643139e-09 1.0444558514997e-07 3.28840872550464e-07 9.44130399960447e-08 2.07827022541295e-07
"2110" 47433 1.91552075498721e-07 1.80798763896438e-08 2.95448136166025e-08 6.40548965812309e-09 1.03774367325219e-07 3.25985142465716e-07 9.44308459596289e-08 2.08136082652056e-07
"2111" 47434 1.92227206934816e-07 1.8047852506608e-08 2.95448136166025e-08 6.41053745981479e-09 1.03103149500467e-07 3.23129412380968e-07 9.44486519232132e-08 2.08445142762817e-07
"2112" 47435 1.9368022955331e-07 1.8020421318238e-08 2.94568230711951e-08 6.41106032113984e-09 1.02474850411548e-07 3.20150480902544e-07 9.4377849861176e-08 2.08791941815534e-07
"2113" 47436 1.95133252171805e-07 1.7992990129868e-08 2.93688325257876e-08 6.4115831824649e-09 1.01846551322628e-07 3.17171549424121e-07 9.43070477991389e-08 2.0913874086825e-07
"2114" 47437 1.95110511164843e-07 1.80003675100152e-08 2.93282207599992e-08 6.43414761377847e-09 1.01230550034222e-07 3.14355263179536e-07 9.45391219202749e-08 2.09302664019512e-07
"2115" 47438 1.95087770157881e-07 1.80077448901624e-08 2.92876089942108e-08 6.45671204509205e-09 1.00614548745816e-07 3.11538976934951e-07 9.47711960414109e-08 2.09466587170774e-07
"2116" 47439 1.95065029150919e-07 1.80151222703096e-08 2.92469972284224e-08 6.47927647640562e-09 9.99985474574105e-08 3.08722690690365e-07 9.50032701625469e-08 2.09630510322036e-07
"2117" 47440 1.95042288143957e-07 1.80224996504567e-08 2.9206385462634e-08 6.50184090771919e-09 9.93825461690046e-08 3.0590640444578e-07 9.52353442836828e-08 2.09794433473298e-07
"2118" 47441 1.95019547136995e-07 1.80298770306039e-08 2.91657736968456e-08 6.52440533903277e-09 9.87665448805988e-08 3.03090118201195e-07 9.54674184048188e-08 2.0995835662456e-07
"2119" 47442 1.94996806130033e-07 1.80372544107511e-08 2.91251619310572e-08 6.54696977034634e-09 9.81505435921929e-08 3.0027383195661e-07 9.56994925259548e-08 2.10122279775822e-07
"2120" 47443 1.94974065123071e-07 1.80446317908982e-08 2.90845501652688e-08 6.56953420165991e-09 9.7534542303787e-08 2.97457545712025e-07 9.59315666470908e-08 2.10286202927084e-07
"2121" 47444 1.94951324116109e-07 1.80520091710454e-08 2.90439383994804e-08 6.59209863297348e-09 9.69185410153812e-08 2.94641259467439e-07 9.61636407682268e-08 2.10450126078346e-07
"2122" 47445 1.94928583109147e-07 1.80593865511926e-08 2.9003326633692e-08 6.61466306428706e-09 9.63025397269753e-08 2.91824973222854e-07 9.63957148893628e-08 2.10614049229608e-07
"2123" 47446 1.94905842102185e-07 1.80667639313397e-08 2.89627148679036e-08 6.63722749560063e-09 9.56865384385694e-08 2.89008686978269e-07 9.66277890104988e-08 2.1077797238087e-07
"2124" 47447 1.94883101095223e-07 1.80741413114869e-08 2.89221031021152e-08 6.6597919269142e-09 9.50705371501636e-08 2.86192400733684e-07 9.68598631316348e-08 2.10941895532132e-07
"2125" 47448 1.94860360088261e-07 1.80815186916341e-08 2.88814913363268e-08 6.68235635822777e-09 9.44545358617577e-08 2.83376114489098e-07 9.70919372527708e-08 2.11105818683394e-07
"2126" 47449 1.94837619081299e-07 1.80888960717813e-08 2.88408795705384e-08 6.70492078954134e-09 9.38385345733519e-08 2.80559828244513e-07 9.73240113739068e-08 2.11269741834656e-07
"2127" 47450 1.94814878074337e-07 1.80962734519284e-08 2.880026780475e-08 6.72748522085492e-09 9.3222533284946e-08 2.77743541999928e-07 9.75560854950428e-08 2.11433664985918e-07
"2128" 47451 1.94792137067375e-07 1.81036508320756e-08 2.87596560389616e-08 6.75004965216849e-09 9.26065319965401e-08 2.74927255755343e-07 9.77881596161788e-08 2.1159758813718e-07
"2129" 47452 1.94769396060413e-07 1.81110282122228e-08 2.87190442731731e-08 6.77261408348206e-09 9.19905307081343e-08 2.72110969510758e-07 9.80202337373148e-08 2.11761511288442e-07
"2130" 47453 1.94759489198253e-07 1.80911401111941e-08 2.87452598920592e-08 6.79364609313224e-09 9.18485687357667e-08 2.71461643053449e-07 9.82497723316522e-08 2.11842973221718e-07
"2131" 47454 1.94698022768628e-07 1.81323079567629e-08 2.87918553119962e-08 6.81619847034188e-09 9.190290685779e-08 2.71432853394421e-07 9.85460412292722e-08 2.1203366248288e-07
"2132" 47455 1.93972737291827e-07 1.816711652528e-08 2.88277641531773e-08 6.83723047999206e-09 9.18007743961084e-08 2.71140602815188e-07 9.85581025839012e-08 2.11411881730462e-07
"2133" 47456 1.93247451815026e-07 1.82019250937972e-08 2.88636729943584e-08 6.85826248964223e-09 9.16986419344268e-08 2.70848352235955e-07 9.85701639385301e-08 2.10790100978043e-07
"2134" 47457 1.92522166338225e-07 1.82367336623143e-08 2.88995818355395e-08 6.87929449929241e-09 9.15965094727452e-08 2.70556101656722e-07 9.85822252931591e-08 2.10168320225625e-07
"2135" 47458 1.92034055464587e-07 1.82474153109976e-08 2.89092750578345e-08 6.88270139238537e-09 9.1622563726752e-08 2.71554139614432e-07 9.85287495335871e-08 2.09354187591872e-07
"2136" 47459 1.91545944590949e-07 1.82580969596808e-08 2.89189682801296e-08 6.88610828547834e-09 9.16486179807587e-08 2.72552177572141e-07 9.84752737740152e-08 2.08540054958119e-07
"2137" 47460 1.91057833717312e-07 1.8268778608364e-08 2.89286615024246e-08 6.88951517857131e-09 9.16746722347655e-08 2.7355021552985e-07 9.84217980144432e-08 2.07725922324367e-07
"2138" 47461 1.90569722843674e-07 1.82794602570472e-08 2.89383547247197e-08 6.89292207166428e-09 9.17007264887723e-08 2.7454825348756e-07 9.83683222548713e-08 2.06911789690614e-07
"2139" 47462 1.90081611970036e-07 1.82901419057304e-08 2.89480479470147e-08 6.89632896475725e-09 9.17267807427791e-08 2.75546291445269e-07 9.83148464952993e-08 2.06097657056861e-07
"2140" 47463 1.90871800588135e-07 1.83693186717415e-08 2.89367203118592e-08 6.89480859719777e-09 9.17774305978131e-08 2.7524412075399e-07 9.80652068390303e-08 2.05509626538849e-07
"2141" 47464 1.91661989206233e-07 1.84484954377526e-08 2.89253926767036e-08 6.8932882296383e-09 9.18280804528472e-08 2.7494195006271e-07 9.78155671827612e-08 2.04921596020837e-07
"2142" 47465 1.92452177824332e-07 1.85276722037637e-08 2.8914065041548e-08 6.89176786207883e-09 9.18787303078813e-08 2.7463977937143e-07 9.75659275264922e-08 2.04333565502826e-07
"2143" 47466 1.9324236644243e-07 1.86068489697748e-08 2.89027374063925e-08 6.89024749451936e-09 9.19293801629153e-08 2.7433760868015e-07 9.73162878702231e-08 2.03745534984814e-07
"2144" 47467 1.94033291622521e-07 1.86923850128376e-08 2.89028797096749e-08 6.88977284961e-09 9.20462227051568e-08 2.733971923844e-07 9.73409063482068e-08 2.02613035190149e-07
"2145" 47468 1.94824216802612e-07 1.87779210559004e-08 2.89030220129572e-08 6.88929820470065e-09 9.21630652473982e-08 2.7245677608865e-07 9.73655248261905e-08 2.01480535395484e-07
"2146" 47469 1.95615141982703e-07 1.88634570989632e-08 2.89031643162396e-08 6.88882355979129e-09 9.22799077896396e-08 2.715163597929e-07 9.73901433041742e-08 2.0034803560082e-07
"2147" 47470 1.96406067162794e-07 1.8948993142026e-08 2.8903306619522e-08 6.88834891488193e-09 9.2396750331881e-08 2.7057594349715e-07 9.74147617821578e-08 1.99215535806155e-07
"2148" 47471 1.95789085240859e-07 1.89373764769207e-08 2.89040899792039e-08 6.89528324210713e-09 9.34210558135798e-08 2.70023119464824e-07 9.74223970005507e-08 1.97906144554617e-07
"2149" 47472 1.95060409900743e-07 1.87780869961709e-08 2.88471575140566e-08 6.88036886500662e-09 9.31665251704414e-08 2.6914872670361e-07 9.74371639112196e-08 1.97748872015786e-07
"2150" 47473 1.94331734560628e-07 1.86187975154211e-08 2.87902250489092e-08 6.86545448790612e-09 9.2911994527303e-08 2.68274333942395e-07 9.74519308218886e-08 1.97591599476955e-07
"2151" 47474 1.93603059220512e-07 1.84595080346712e-08 2.87332925837619e-08 6.85054011080561e-09 9.26574638841647e-08 2.67399941181181e-07 9.74666977325576e-08 1.97434326938124e-07
"2152" 47475 1.92874383880397e-07 1.83002185539214e-08 2.86763601186145e-08 6.8356257337051e-09 9.24029332410263e-08 2.66525548419967e-07 9.74814646432265e-08 1.97277054399293e-07
"2153" 47476 1.92145708540281e-07 1.81409290731716e-08 2.86194276534672e-08 6.8207113566046e-09 9.21484025978879e-08 2.65651155658753e-07 9.74962315538955e-08 1.97119781860463e-07
"2154" 47477 1.91417033200166e-07 1.79816395924217e-08 2.85624951883198e-08 6.80579697950409e-09 9.18938719547495e-08 2.64776762897539e-07 9.75109984645644e-08 1.96962509321632e-07
"2155" 47478 1.9068835786005e-07 1.78223501116719e-08 2.85055627231725e-08 6.79088260240359e-09 9.16393413116111e-08 2.63902370136325e-07 9.75257653752334e-08 1.96805236782801e-07
"2156" 47479 1.91037603054762e-07 1.76602342855657e-08 2.85217369694755e-08 6.78640587845265e-09 9.02948819913744e-08 2.62698516516823e-07 9.75280378043664e-08 1.96604572525165e-07
"2157" 47480 1.91386848249474e-07 1.74981184594596e-08 2.85379112157786e-08 6.78192915450171e-09 8.89504226711377e-08 2.61494662897321e-07 9.75303102334994e-08 1.96403908267528e-07
"2158" 47481 1.91736093444186e-07 1.73360026333534e-08 2.85540854620817e-08 6.77745243055077e-09 8.7605963350901e-08 2.60290809277819e-07 9.75325826626324e-08 1.96203244009892e-07
"2159" 47482 1.92085338638897e-07 1.71738868072473e-08 2.85702597083848e-08 6.77297570659984e-09 8.62615040306643e-08 2.59086955658317e-07 9.75348550917653e-08 1.96002579752256e-07
"2160" 47483 1.92434583833609e-07 1.70117709811411e-08 2.85864339546879e-08 6.7684989826489e-09 8.49170447104276e-08 2.57883102038815e-07 9.75371275208983e-08 1.9580191549462e-07
"2161" 47484 1.92783829028321e-07 1.6849655155035e-08 2.8602608200991e-08 6.76402225869796e-09 8.35725853901909e-08 2.56679248419313e-07 9.75393999500313e-08 1.95601251236984e-07
"2162" 47485 1.93133074223033e-07 1.66875393289288e-08 2.86187824472941e-08 6.75954553474703e-09 8.22281260699542e-08 2.55475394799812e-07 9.75416723791643e-08 1.95400586979347e-07
"2163" 47486 1.93482319417745e-07 1.65254235028227e-08 2.86349566935972e-08 6.75506881079609e-09 8.08836667497175e-08 2.5427154118031e-07 9.75439448082973e-08 1.95199922721711e-07
"2164" 47487 1.93831564612456e-07 1.63633076767165e-08 2.86511309399003e-08 6.75059208684515e-09 7.95392074294808e-08 2.53067687560808e-07 9.75462172374303e-08 1.94999258464075e-07
"2165" 47488 1.9501029851302e-07 1.55920893148758e-08 2.80962259507122e-08 6.74113988582607e-09 7.95609887037876e-08 2.53308342243057e-07 9.75575907177024e-08 1.94989283335862e-07
"2166" 47489 1.96189032413584e-07 1.48208709530352e-08 2.75413209615242e-08 6.73168768480699e-09 7.95827699780944e-08 2.53548996925306e-07 9.75689641979746e-08 1.94979308207648e-07
"2167" 47490 1.97286889433062e-07 1.48217437127212e-08 2.76037410942187e-08 6.74954636419504e-09 7.93856505694518e-08 2.53433309798567e-07 9.73276864112763e-08 1.94647638306877e-07
"2168" 47491 1.98384746452541e-07 1.48226164724072e-08 2.76661612269131e-08 6.76740504358308e-09 7.91885311608092e-08 2.53317622671829e-07 9.7086408624578e-08 1.94315968406106e-07
"2169" 47492 1.9948260347202e-07 1.48234892320932e-08 2.77285813596076e-08 6.78526372297112e-09 7.89914117521666e-08 2.5320193554509e-07 9.68451308378797e-08 1.93984298505336e-07
"2170" 47493 2.00580460491498e-07 1.48243619917792e-08 2.7791001492302e-08 6.80312240235917e-09 7.8794292343524e-08 2.53086248418351e-07 9.66038530511814e-08 1.93652628604565e-07
"2171" 47494 2.00730427427583e-07 1.48665896003184e-08 2.77925005181693e-08 6.80616313747811e-09 7.85753916605747e-08 2.52771812861267e-07 9.63704061657232e-08 1.93480725271689e-07
"2172" 47495 2.00880394363667e-07 1.49088172088577e-08 2.77939995440366e-08 6.80920387259706e-09 7.83564909776253e-08 2.52457377304184e-07 9.6136959280265e-08 1.93308821938813e-07
"2173" 47496 2.00794516311373e-07 1.49387838226886e-08 2.7782671908881e-08 6.88573007340039e-09 7.84241423178121e-08 2.52170796607583e-07 9.59035123948068e-08 1.93244816825724e-07
"2174" 47497 2.00708638259079e-07 1.49687504365196e-08 2.77713442737254e-08 6.96225627420373e-09 7.8491793657999e-08 2.51884215910981e-07 9.56700655093486e-08 1.93180811712636e-07
"2175" 47498 2.00622760206785e-07 1.49987170503505e-08 2.77600166385699e-08 7.03878247500706e-09 7.85594449981858e-08 2.5159763521438e-07 9.54366186238904e-08 1.93116806599547e-07
"2176" 47499 2.00536882154491e-07 1.50286836641815e-08 2.77486890034143e-08 7.11530867581039e-09 7.86270963383726e-08 2.51311054517778e-07 9.52031717384322e-08 1.93052801486459e-07
"2177" 47500 2.00451004102197e-07 1.50586502780124e-08 2.77373613682587e-08 7.19183487661373e-09 7.86947476785595e-08 2.51024473821176e-07 9.4969724852974e-08 1.92988796373371e-07
"2178" 47501 2.00365126049903e-07 1.50886168918434e-08 2.77260337331032e-08 7.26836107741706e-09 7.87623990187463e-08 2.50737893124575e-07 9.47362779675158e-08 1.92924791260282e-07
"2179" 47502 2.0027924799761e-07 1.51185835056743e-08 2.77147060979476e-08 7.34488727822039e-09 7.88300503589331e-08 2.50451312427973e-07 9.45028310820576e-08 1.92860786147194e-07
"2180" 47503 2.00193369945316e-07 1.51485501195053e-08 2.77033784627921e-08 7.42141347902373e-09 7.88977016991199e-08 2.50164731731372e-07 9.42693841965994e-08 1.92796781034105e-07
"2181" 47504 2.00107491893022e-07 1.51785167333362e-08 2.76920508276365e-08 7.49793967982706e-09 7.89653530393068e-08 2.4987815103477e-07 9.40359373111412e-08 1.92732775921017e-07
"2182" 47505 2.00021613840728e-07 1.52084833471672e-08 2.76807231924809e-08 7.57446588063039e-09 7.90330043794936e-08 2.49591570338169e-07 9.3802490425683e-08 1.92668770807928e-07
"2183" 47506 1.99935735788434e-07 1.52384499609981e-08 2.76693955573254e-08 7.65099208143373e-09 7.91006557196804e-08 2.49304989641567e-07 9.35690435402248e-08 1.9260476569484e-07
"2184" 47507 1.9984985773614e-07 1.52684165748291e-08 2.76580679221698e-08 7.72751828223706e-09 7.91683070598672e-08 2.49018408944966e-07 9.33355966547666e-08 1.92540760581752e-07
"2185" 47508 1.99763979683846e-07 1.529838318866e-08 2.76467402870142e-08 7.80404448304039e-09 7.92359584000541e-08 2.48731828248364e-07 9.31021497693084e-08 1.92476755468663e-07
"2186" 47509 1.99678101631552e-07 1.53283498024909e-08 2.76354126518587e-08 7.88057068384373e-09 7.93036097402409e-08 2.48445247551762e-07 9.28687028838502e-08 1.92412750355575e-07
"2187" 47510 1.99592223579258e-07 1.53583164163219e-08 2.76240850167031e-08 7.95709688464706e-09 7.93712610804277e-08 2.48158666855161e-07 9.26352559983921e-08 1.92348745242486e-07
"2188" 47511 1.99584069173027e-07 1.53888026132075e-08 2.75058846776985e-08 8.02620205921192e-09 7.95818387668981e-08 2.478475703254e-07 9.2035071650152e-08 1.92514831216166e-07
"2189" 47512 1.99584123733175e-07 1.54178964673525e-08 2.73983004574377e-08 8.10224156100197e-09 7.96025365753769e-08 2.4789888856251e-07 9.20537516249412e-08 1.92777508736154e-07
"2190" 47513 1.99584178293322e-07 1.54469903214974e-08 2.72907162371768e-08 8.17828106279202e-09 7.96232343838557e-08 2.47950206799619e-07 9.20724315997305e-08 1.93040186256142e-07
"2191" 47514 1.9958423285347e-07 1.54760841756423e-08 2.7183132016916e-08 8.25432056458208e-09 7.96439321923344e-08 2.48001525036728e-07 9.20911115745197e-08 1.9330286377613e-07
"2192" 47515 1.99584287413617e-07 1.55051780297873e-08 2.70755477966551e-08 8.33036006637213e-09 7.96646300008132e-08 2.48052843273838e-07 9.21097915493089e-08 1.93565541296118e-07
"2193" 47516 1.99736355518342e-07 1.55028920974231e-08 2.73052560706194e-08 8.40639956816218e-09 7.95784271970763e-08 2.48564120169272e-07 9.26400544083245e-08 1.94368867722113e-07
"2194" 47517 1.99875869990791e-07 1.55698083348787e-08 2.72714196182086e-08 8.40886922554036e-09 7.93147578254903e-08 2.4947668160454e-07 9.26648894497617e-08 1.95001618210725e-07
"2195" 47518 2.0001538446324e-07 1.56367245723343e-08 2.72375831657977e-08 8.41133888291855e-09 7.90510884539043e-08 2.50389243039809e-07 9.26897244911989e-08 1.95634368699337e-07
"2196" 47519 2.00154898935689e-07 1.57036408097899e-08 2.72037467133869e-08 8.41380854029673e-09 7.87874190823184e-08 2.51301804475077e-07 9.27145595326361e-08 1.96267119187949e-07
"2197" 47520 2.00294413408138e-07 1.57705570472455e-08 2.71699102609761e-08 8.41627819767491e-09 7.85237497107324e-08 2.52214365910345e-07 9.27393945740733e-08 1.9689986967656e-07
"2198" 47521 2.00433927880587e-07 1.58374732847012e-08 2.71360738085652e-08 8.41874785505309e-09 7.82600803391464e-08 2.53126927345614e-07 9.27642296155104e-08 1.97532620165172e-07
"2199" 47522 2.00573442353036e-07 1.59043895221568e-08 2.71022373561544e-08 8.42121751243128e-09 7.79964109675605e-08 2.54039488780882e-07 9.27890646569476e-08 1.98165370653784e-07
"2200" 47523 2.00635998805029e-07 1.59230722837292e-08 2.71717091092442e-08 8.42365100749768e-09 7.77908951332358e-08 2.53370097773568e-07 9.23924885139498e-08 1.98790307387472e-07
"2201" 47524 2.00456038481728e-07 1.59926692900552e-08 2.72341292419386e-08 8.42155956219745e-09 7.77902996736758e-08 2.54228994601636e-07 9.21100755275807e-08 1.99369524536505e-07
"2202" 47525 2.00276078158427e-07 1.60622662963813e-08 2.72965493746331e-08 8.41946811689721e-09 7.77897042141157e-08 2.55087891429704e-07 9.18276625412117e-08 1.99948741685538e-07
"2203" 47526 2.00096117835125e-07 1.61318633027073e-08 2.73589695073275e-08 8.41737667159698e-09 7.77891087545557e-08 2.55946788257772e-07 9.15452495548427e-08 2.0052795883457e-07
"2204" 47527 1.99916157511824e-07 1.62014603090334e-08 2.7421389640022e-08 8.41528522629675e-09 7.77885132949956e-08 2.5680568508584e-07 9.12628365684736e-08 2.01107175983603e-07
"2205" 47528 1.99736197188523e-07 1.62710573153594e-08 2.74838097727164e-08 8.41319378099651e-09 7.77879178354356e-08 2.57664581913909e-07 9.09804235821046e-08 2.01686393132636e-07
"2206" 47529 1.99556236865221e-07 1.63406543216855e-08 2.75462299054109e-08 8.41110233569628e-09 7.77873223758755e-08 2.58523478741977e-07 9.06980105957356e-08 2.02265610281668e-07
"2207" 47530 1.9937627654192e-07 1.64102513280115e-08 2.76086500381054e-08 8.40901089039604e-09 7.77867269163155e-08 2.59382375570045e-07 9.04155976093665e-08 2.02844827430701e-07
"2208" 47531 1.99196316218619e-07 1.64798483343376e-08 2.76710701707998e-08 8.40691944509581e-09 7.77861314567554e-08 2.60241272398113e-07 9.01331846229975e-08 2.03424044579734e-07
"2209" 47532 1.99016355895318e-07 1.65494453406636e-08 2.77334903034943e-08 8.40482799979557e-09 7.77855359971954e-08 2.61100169226181e-07 8.98507716366285e-08 2.04003261728766e-07
"2210" 47533 1.99159576916053e-07 1.6575006729266e-08 2.77990452581743e-08 8.40729765717376e-09 7.7790594267058e-08 2.61758460633206e-07 8.9550578340281e-08 2.0409286888709e-07
"2211" 47534 1.99302797936789e-07 1.66005681178684e-08 2.78646002128544e-08 8.40976731455194e-09 7.77956525369207e-08 2.62416752040231e-07 8.92503850439335e-08 2.04182476045414e-07
"2212" 47535 1.99446018957525e-07 1.66261295064707e-08 2.79301551675345e-08 8.41223697193012e-09 7.78007108067833e-08 2.63075043447256e-07 8.8950191747586e-08 2.04272083203738e-07
"2213" 47536 1.99589239978261e-07 1.66516908950731e-08 2.79957101222145e-08 8.41470662930831e-09 7.7805769076646e-08 2.63733334854282e-07 8.86499984512385e-08 2.04361690362061e-07
"2214" 47537 1.99732460998997e-07 1.66772522836755e-08 2.80612650768946e-08 8.41717628668649e-09 7.78108273465087e-08 2.64391626261307e-07 8.83498051548911e-08 2.04451297520385e-07
"2215" 47538 2.00571503106632e-07 1.66366248510988e-08 2.80842823300719e-08 8.41670164177713e-09 7.78407785012933e-08 2.67127642991531e-07 8.83444358040236e-08 2.04339909214427e-07
"2216" 47539 2.01410545214267e-07 1.65959974185221e-08 2.81072995832491e-08 8.41622699686778e-09 7.7870729656078e-08 2.69863659721756e-07 8.8339066453156e-08 2.04228520908468e-07
"2217" 47540 2.01435158473366e-07 1.65783540561354e-08 2.80993209166317e-08 8.43807570119348e-09 7.79112217827315e-08 2.69671851491149e-07 8.81017977833936e-08 2.03942567364751e-07
"2218" 47541 2.01459771732464e-07 1.65607106937488e-08 2.80913422500142e-08 8.45992440551918e-09 7.79517139093851e-08 2.69480043260542e-07 8.78645291136311e-08 2.03656613821035e-07
"2219" 47542 2.01484384991563e-07 1.65430673313622e-08 2.80833635833967e-08 8.48177310984488e-09 7.79922060360386e-08 2.69288235029935e-07 8.76272604438686e-08 2.03370660277318e-07
"2220" 47543 2.01508998250662e-07 1.65254239689755e-08 2.80753849167792e-08 8.50362181417058e-09 7.80326981626921e-08 2.69096426799328e-07 8.73899917741061e-08 2.03084706733602e-07
"2221" 47544 2.01533611509761e-07 1.65077806065889e-08 2.80674062501617e-08 8.52547051849628e-09 7.80731902893456e-08 2.68904618568721e-07 8.71527231043436e-08 2.02798753189885e-07
"2222" 47545 2.0155822476886e-07 1.64901372442022e-08 2.80594275835442e-08 8.54731922282198e-09 7.81136824159991e-08 2.68712810338114e-07 8.69154544345811e-08 2.02512799646169e-07
"2223" 47546 2.01582838027959e-07 1.64724938818156e-08 2.80514489169267e-08 8.56916792714768e-09 7.81541745426527e-08 2.68521002107507e-07 8.66781857648186e-08 2.02226846102452e-07
"2224" 47547 2.01558925158406e-07 1.64933790229259e-08 2.80306422060286e-08 8.5865640157303e-09 7.81955450836286e-08 2.68282334680336e-07 8.67540523188452e-08 2.02447959567241e-07
"2225" 47548 2.01535012288854e-07 1.65142641640361e-08 2.80098354951304e-08 8.60396010431291e-09 7.82369156246045e-08 2.68043667253164e-07 8.68299188728717e-08 2.0266907303203e-07
"2226" 47549 2.01511099419302e-07 1.65351493051464e-08 2.79890287842323e-08 8.62135619289553e-09 7.82782861655804e-08 2.67804999825993e-07 8.69057854268983e-08 2.02890186496818e-07
"2227" 47550 2.0096107792307e-07 1.65297669374681e-08 2.79779152956292e-08 8.64065086111557e-09 7.83185401084099e-08 2.6471054898011e-07 8.6578249004529e-08 2.00820694967702e-07
"2228" 47551 2.00411056426838e-07 1.65243845697897e-08 2.79668018070261e-08 8.6599455293356e-09 7.83587940512394e-08 2.61616098134228e-07 8.62507125821597e-08 1.98751203438585e-07
"2229" 47552 1.99861034930606e-07 1.65190022021114e-08 2.7955688318423e-08 8.67924019755564e-09 7.83990479940689e-08 2.58521647288346e-07 8.59231761597904e-08 1.96681711909469e-07
"2230" 47553 1.99591391562342e-07 1.68232420697605e-08 2.79538383757522e-08 8.72839978228846e-09 7.87013335717516e-08 2.56597363700629e-07 8.59437998398369e-08 1.94719452168813e-07
"2231" 47554 1.99321748194078e-07 1.71274819374096e-08 2.79519884330814e-08 8.77755936702129e-09 7.90036191494343e-08 2.54673080112912e-07 8.59644235198833e-08 1.92757192428157e-07
"2232" 47555 1.99052104825814e-07 1.74317218050586e-08 2.79501384904106e-08 8.82671895175412e-09 7.93059047271169e-08 2.52748796525195e-07 8.59850471999298e-08 1.90794932687501e-07
"2233" 47556 1.98732357229325e-07 1.7453875008514e-08 2.80972057330057e-08 8.82367821663517e-09 7.93068538801299e-08 2.49593126077607e-07 8.5680443874953e-08 1.88623030672014e-07
"2234" 47557 1.98412609632837e-07 1.74760282119694e-08 2.82442729756008e-08 8.82063748151623e-09 7.93078030331429e-08 2.46437455630019e-07 8.53758405499761e-08 1.86451128656526e-07
"2235" 47558 1.98092862036349e-07 1.74981814154248e-08 2.83913402181959e-08 8.81759674639728e-09 7.93087521861559e-08 2.4328178518243e-07 8.50712372249992e-08 1.84279226641038e-07
"2236" 47559 1.97773114439861e-07 1.75203346188802e-08 2.8538407460791e-08 8.81455601127834e-09 7.93097013391689e-08 2.40126114734842e-07 8.47666339000223e-08 1.8210732462555e-07
"2237" 47560 1.97453366843373e-07 1.75424878223356e-08 2.86854747033861e-08 8.81151527615939e-09 7.93106504921819e-08 2.36970444287254e-07 8.44620305750455e-08 1.79935422610063e-07
"2238" 47561 1.97133619246884e-07 1.7564641025791e-08 2.88325419459812e-08 8.80847454104044e-09 7.93115996451949e-08 2.33814773839665e-07 8.41574272500686e-08 1.77763520594575e-07
"2239" 47562 1.96813871650396e-07 1.75867942292464e-08 2.89796091885763e-08 8.8054338059215e-09 7.93125487982079e-08 2.30659103392077e-07 8.38528239250918e-08 1.75591618579087e-07
"2240" 47563 1.96494124053908e-07 1.76089474327017e-08 2.91266764311714e-08 8.80239307080255e-09 7.93134979512209e-08 2.27503432944489e-07 8.35482206001149e-08 1.73419716563599e-07
"2241" 47564 1.9617437645742e-07 1.76311006361571e-08 2.92737436737665e-08 8.79935233568361e-09 7.93144471042338e-08 2.24347762496901e-07 8.3243617275138e-08 1.71247814548112e-07
"2242" 47565 1.95854628860932e-07 1.76532538396125e-08 2.94208109163616e-08 8.79631160056466e-09 7.93153962572468e-08 2.21192092049312e-07 8.29390139501611e-08 1.69075912532624e-07
"2243" 47566 1.95534881264443e-07 1.76754070430679e-08 2.95678781589567e-08 8.79327086544572e-09 7.93163454102598e-08 2.18036421601724e-07 8.26344106251843e-08 1.66904010517136e-07
"2244" 47567 1.95215133667955e-07 1.76975602465233e-08 2.97149454015518e-08 8.79023013032677e-09 7.93172945632728e-08 2.14880751154136e-07 8.23298073002074e-08 1.64732108501649e-07
"2245" 47568 1.94895386071467e-07 1.77197134499787e-08 2.98620126441469e-08 8.78718939520783e-09 7.93182437162858e-08 2.11725080706548e-07 8.20252039752305e-08 1.62560206486161e-07
"2246" 47569 1.94575638474979e-07 1.77418666534341e-08 3.0009079886742e-08 8.78414866008888e-09 7.93191928692988e-08 2.08569410258959e-07 8.17206006502537e-08 1.60388304470673e-07
"2247" 47570 1.94489637662353e-07 1.77418666534341e-08 3.01608472874288e-08 8.74539056619385e-09 7.86239158030093e-08 2.08459897909026e-07 8.16523597686209e-08 1.60388304470673e-07
"2248" 47571 1.94403636849727e-07 1.77418666534341e-08 3.03126146881155e-08 8.70663247229881e-09 7.79286387367198e-08 2.08350385559092e-07 8.15841188869881e-08 1.60388304470673e-07
"2249" 47572 1.94317636037101e-07 1.77418666534341e-08 3.04643820888023e-08 8.66787437840378e-09 7.72333616704303e-08 2.08240873209158e-07 8.15158780053553e-08 1.60388304470673e-07
"2250" 47573 1.94231635224475e-07 1.77418666534341e-08 3.06161494894891e-08 8.62911628450874e-09 7.65380846041407e-08 2.08131360859225e-07 8.14476371237225e-08 1.60388304470673e-07
"2251" 47574 1.95078243433213e-07 1.77494518668031e-08 3.09735482442632e-08 8.59529750537008e-09 7.58702613447668e-08 2.08004741891477e-07 8.155866994762e-08 1.62386478322064e-07
"2252" 47575 1.95924851641952e-07 1.77570370801722e-08 3.13309469990372e-08 8.56147872623141e-09 7.52024380853928e-08 2.07878122923728e-07 8.16697027715175e-08 1.64384652173454e-07
"2253" 47576 1.9677145985069e-07 1.77646222935412e-08 3.16883457538113e-08 8.52765994709274e-09 7.45346148260188e-08 2.0775150395598e-07 8.17807355954151e-08 1.66382826024845e-07
"2254" 47577 1.97618068059428e-07 1.77722075069102e-08 3.20457445085854e-08 8.49384116795407e-09 7.38667915666449e-08 2.07624884988232e-07 8.18917684193126e-08 1.68380999876235e-07
"2255" 47578 1.98464676268167e-07 1.77797927202793e-08 3.24031432633595e-08 8.4600223888154e-09 7.31989683072709e-08 2.07498266020484e-07 8.20028012432102e-08 1.70379173727626e-07
"2256" 47579 1.99311284476905e-07 1.77873779336483e-08 3.27605420181335e-08 8.42620360967674e-09 7.25311450478969e-08 2.07371647052736e-07 8.21138340671077e-08 1.72377347579017e-07
"2257" 47580 1.99079972150816e-07 1.77466877781828e-08 3.2851381395704e-08 8.39800370997053e-09 7.18818463925502e-08 2.08763903935166e-07 8.20794827438392e-08 1.72293225519333e-07
"2258" 47581 1.98261457797084e-07 1.77581174400036e-08 3.28986137222672e-08 8.40856190415936e-09 7.17848205539527e-08 2.10164277272906e-07 8.20273141223793e-08 1.72375187654854e-07
"2259" 47582 1.98362271162821e-07 1.77395804879935e-08 3.29811193666431e-08 8.39655566703461e-09 7.17216391886347e-08 2.11342917193008e-07 8.21702766917772e-08 1.71902701565082e-07
"2260" 47583 1.98463084528557e-07 1.77210435359834e-08 3.30636250110191e-08 8.38454942990987e-09 7.16584578233166e-08 2.12521557113109e-07 8.2313239261175e-08 1.7143021547531e-07
"2261" 47584 1.98563897894293e-07 1.77025065839733e-08 3.31461306553951e-08 8.37254319278512e-09 7.15952764579986e-08 2.13700197033211e-07 8.24562018305729e-08 1.70957729385538e-07
"2262" 47585 1.9866471126003e-07 1.76839696319631e-08 3.3228636299771e-08 8.36053695566038e-09 7.15320950926806e-08 2.14878836953312e-07 8.25991643999708e-08 1.70485243295766e-07
"2263" 47586 1.98765524625766e-07 1.7665432679953e-08 3.3311141944147e-08 8.34853071853563e-09 7.14689137273625e-08 2.16057476873413e-07 8.27421269693686e-08 1.70012757205995e-07
"2264" 47587 1.98866337991502e-07 1.76468957279429e-08 3.33936475885229e-08 8.33652448141089e-09 7.14057323620445e-08 2.17236116793515e-07 8.28850895387665e-08 1.69540271116223e-07
"2265" 47588 1.98967151357239e-07 1.76283587759328e-08 3.34761532328989e-08 8.32451824428614e-09 7.13425509967264e-08 2.18414756713616e-07 8.30280521081644e-08 1.69067785026451e-07
"2266" 47589 1.99067964722975e-07 1.76098218239226e-08 3.35586588772749e-08 8.31251200716140e-09 7.12793696314084e-08 2.19593396633718e-07 8.31710146775622e-08 1.68595298936679e-07
"2267" 47590 1.99147546981138e-07 1.75944849907612e-08 3.36190729314379e-08 8.32011384495876e-09 7.1262620659212e-08 2.20858416520962e-07 8.33010818537305e-08 1.68565872436894e-07
"2268" 47591 1.99227129239301e-07 1.75791481575998e-08 3.36794869856009e-08 8.32771568275612e-09 7.12458716870157e-08 2.22123436408207e-07 8.34311490298989e-08 1.6853644593711e-07
"2269" 47592 1.99306711497464e-07 1.75638113244384e-08 3.37399010397639e-08 8.33531752055348e-09 7.12291227148193e-08 2.23388456295452e-07 8.35612162060672e-08 1.68507019437325e-07
"2270" 47593 1.99386293755626e-07 1.75484744912769e-08 3.38003150939269e-08 8.34291935835085e-09 7.12123737426229e-08 2.24653476182697e-07 8.36912833822355e-08 1.68477592937541e-07
"2271" 47594 1.99465876013789e-07 1.75331376581155e-08 3.38607291480899e-08 8.35052119614821e-09 7.11956247704266e-08 2.25918496069941e-07 8.38213505584038e-08 1.68448166437756e-07
"2272" 47595 1.99484408755223e-07 1.75554773987025e-08 3.39115245897436e-08 8.37512885634631e-09 7.13570569175513e-08 2.25752262270082e-07 8.38301789658784e-08 1.68605272484027e-07
"2273" 47596 1.99502941496657e-07 1.75778171392895e-08 3.39623200313973e-08 8.39973651654442e-09 7.1518489064676e-08 2.25586028470222e-07 8.38390073733529e-08 1.68762378530297e-07
"2274" 47597 1.99977986344866e-07 1.75519234039932e-08 3.39623200313973e-08 8.39726685916624e-09 7.14966146662095e-08 2.25565970061274e-07 8.38735657140758e-08 1.69437358517394e-07
"2275" 47598 2.00453031193074e-07 1.7526029668697e-08 3.39623200313973e-08 8.39479720178805e-09 7.1474740267743e-08 2.25545911652325e-07 8.39081240547988e-08 1.70112338504491e-07
"2276" 47599 2.00928076041282e-07 1.75001359334007e-08 3.39623200313973e-08 8.39232754440987e-09 7.14528658692765e-08 2.25525853243377e-07 8.39426823955217e-08 1.70787318491587e-07
"2277" 47600 2.0140312088949e-07 1.74742421981045e-08 3.39623200313973e-08 8.38985788703169e-09 7.14309914708099e-08 2.25505794834429e-07 8.39772407362447e-08 1.71462298478684e-07
"2278" 47601 2.01878165737699e-07 1.74483484628083e-08 3.39623200313973e-08 8.3873882296535e-09 7.14091170723434e-08 2.2548573642548e-07 8.40117990769676e-08 1.72137278465781e-07
"2279" 47602 2.02353210585907e-07 1.7422454727512e-08 3.39623200313973e-08 8.38491857227532e-09 7.13872426738769e-08 2.25465678016532e-07 8.40463574176906e-08 1.72812258452877e-07
"2280" 47603 2.02828255434115e-07 1.73965609922158e-08 3.39623200313973e-08 8.38244891489714e-09 7.13653682754104e-08 2.25445619607583e-07 8.40809157584135e-08 1.73487238439974e-07
"2281" 47604 2.03284767540889e-07 1.73728495057492e-08 3.36977764155299e-08 8.32289237418276e-09 7.13669164702665e-08 2.24666101455567e-07 8.41308376043463e-08 1.74191644926855e-07
"2282" 47605 2.03741279647663e-07 1.73491380192826e-08 3.34332327996626e-08 8.2633358334684e-09 7.13684646651227e-08 2.23886583303551e-07 8.4180759450279e-08 1.74896051413737e-07
"2283" 47606 2.04190566654256e-07 1.73176540830862e-08 3.34553243898755e-08 8.25888321772531e-09 7.12279801489206e-08 2.23912367837482e-07 8.4215317791002e-08 1.7484867237064e-07
"2284" 47607 2.04639853660849e-07 1.72861701468897e-08 3.34774159800885e-08 8.25443060198222e-09 7.10874956327186e-08 2.23938152371413e-07 8.42498761317249e-08 1.74801293327543e-07
"2285" 47608 2.05089140667443e-07 1.72546862106933e-08 3.34995075703014e-08 8.24997798623914e-09 7.09470111165166e-08 2.23963936905344e-07 8.42844344724479e-08 1.74753914284447e-07
"2286" 47609 2.05321180663152e-07 1.72376452849584e-08 3.35134008143131e-08 8.24651082262654e-09 7.11803684752987e-08 2.23814946128735e-07 8.42899416373434e-08 1.74127148503894e-07
"2287" 47610 2.05553220658861e-07 1.72206043592234e-08 3.35272940583248e-08 8.24304365901395e-09 7.14137258340809e-08 2.23665955352126e-07 8.42954488022389e-08 1.73500382723342e-07
"2288" 47611 2.05497455789992e-07 1.71865435707675e-08 3.36001810901915e-08 8.24315214594928e-09 7.12932102457532e-08 2.23511373239636e-07 8.434273250695e-08 1.72748597193364e-07
"2289" 47612 2.05441690921123e-07 1.71524827823115e-08 3.36730681220582e-08 8.24326063288461e-09 7.11726946574256e-08 2.23356791127146e-07 8.4390016211661e-08 1.71996811663386e-07
"2290" 47613 2.05385926052254e-07 1.71184219938556e-08 3.37459551539248e-08 8.24336911981994e-09 7.10521790690979e-08 2.23202209014655e-07 8.44372999163721e-08 1.71245026133408e-07
"2291" 47614 2.05330161183386e-07 1.70843612053997e-08 3.38188421857915e-08 8.24347760675527e-09 7.09316634807702e-08 2.23047626902165e-07 8.44845836210831e-08 1.7049324060343e-07
"2292" 47615 2.05274396314517e-07 1.70503004169437e-08 3.38917292176581e-08 8.24358609369061e-09 7.08111478924425e-08 2.22893044789675e-07 8.45318673257941e-08 1.69741455073452e-07
"2293" 47616 2.05218631445648e-07 1.70162396284878e-08 3.39646162495248e-08 8.24369458062594e-09 7.06906323041149e-08 2.22738462677185e-07 8.45791510305052e-08 1.68989669543474e-07
"2294" 47617 2.05162866576779e-07 1.69821788400318e-08 3.40375032813915e-08 8.24380306756127e-09 7.05701167157872e-08 2.22583880564695e-07 8.46264347352162e-08 1.68237884013496e-07
"2295" 47618 2.0510710170791e-07 1.69481180515759e-08 3.41103903132581e-08 8.2439115544966e-09 7.04496011274595e-08 2.22429298452205e-07 8.46737184399272e-08 1.67486098483518e-07
"2296" 47619 2.05051336839041e-07 1.69140572631199e-08 3.41832773451248e-08 8.24402004143194e-09 7.03290855391318e-08 2.22274716339715e-07 8.47210021446383e-08 1.6673431295354e-07
"2297" 47620 2.04995571970172e-07 1.6879996474664e-08 3.42561643769915e-08 8.24412852836727e-09 7.02085699508042e-08 2.22120134227225e-07 8.47682858493493e-08 1.65982527423562e-07
"2298" 47621 2.04939807101303e-07 1.6845935686208e-08 3.43290514088581e-08 8.2442370153026e-09 7.00880543624765e-08 2.21965552114735e-07 8.48155695540604e-08 1.65230741893584e-07
"2299" 47622 2.04884042232434e-07 1.68118748977521e-08 3.44019384407248e-08 8.24434550223794e-09 6.99675387741488e-08 2.21810970002245e-07 8.48628532587714e-08 1.64478956363606e-07
"2300" 47623 2.04828277363565e-07 1.67778141092961e-08 3.44748254725914e-08 8.24445398917327e-09 6.98470231858211e-08 2.21656387889755e-07 8.49101369634824e-08 1.63727170833628e-07
"2301" 47624 2.04772512494696e-07 1.67437533208402e-08 3.45477125044581e-08 8.2445624761086e-09 6.97265075974935e-08 2.21501805777265e-07 8.49574206681935e-08 1.6297538530365e-07
"2302" 47625 2.04768737746225e-07 1.67340069216554e-08 3.45883242702465e-08 8.2445624761086e-09 6.96982389503799e-08 2.20596068500083e-07 8.49769537735814e-08 1.62859840611932e-07
"2303" 47626 2.04285887204497e-07 1.65746139904474e-08 3.46060652359135e-08 8.23920878696251e-09 6.87113811411269e-08 2.20641477013867e-07 8.484617784245e-08 1.62819607772651e-07
"2304" 47627 2.03803036662769e-07 1.64152210592395e-08 3.46238062015805e-08 8.23385509781641e-09 6.77245233318739e-08 2.20686885527652e-07 8.47154019113187e-08 1.62779374933371e-07
"2305" 47628 2.03320186121041e-07 1.62558281280315e-08 3.46415471672475e-08 8.22850140867032e-09 6.67376655226209e-08 2.20732294041437e-07 8.45846259801873e-08 1.6273914209409e-07
"2306" 47629 2.02837335579314e-07 1.60964351968236e-08 3.46592881329145e-08 8.22314771952423e-09 6.57508077133679e-08 2.20777702555221e-07 8.44538500490559e-08 1.6269890925481e-07
"2307" 47630 2.02354485037586e-07 1.59370422656156e-08 3.46770290985814e-08 8.21779403037814e-09 6.47639499041149e-08 2.20823111069006e-07 8.43230741179245e-08 1.62658676415529e-07
"2308" 47631 2.01871634495858e-07 1.57776493344076e-08 3.46947700642484e-08 8.21244034123204e-09 6.37770920948619e-08 2.20868519582791e-07 8.41922981867931e-08 1.62618443576248e-07
"2309" 47632 2.0146072716334e-07 1.56370428483066e-08 3.47589033693626e-08 8.3065359229292e-09 6.35919132109969e-08 2.21720791365897e-07 8.40083000477562e-08 1.62496082306495e-07
"2310" 47633 2.01049819830822e-07 1.54964363622056e-08 3.48230366744768e-08 8.40063150462636e-09 6.3406734327132e-08 2.22573063149003e-07 8.38243019087193e-08 1.62373721036741e-07
"2311" 47634 2.00854774153672e-07 1.53376461007258e-08 3.47611222111887e-08 8.39527781548027e-09 6.23607406952862e-08 2.23367617592283e-07 8.37291379047564e-08 1.62253188484504e-07
"2312" 47635 2.00659728476523e-07 1.5178855839246e-08 3.46992077479006e-08 8.38992412633417e-09 6.13147470634404e-08 2.24162172035563e-07 8.36339739007935e-08 1.62132655932267e-07
"2313" 47636 2.00464682799373e-07 1.50200655777662e-08 3.46372932846125e-08 8.38457043718808e-09 6.02687534315946e-08 2.24956726478843e-07 8.35388098968306e-08 1.62012123380031e-07
"2314" 47637 2.00269637122224e-07 1.48612753162864e-08 3.45753788213244e-08 8.37921674804199e-09 5.92227597997489e-08 2.25751280922123e-07 8.34436458928677e-08 1.61891590827794e-07
"2315" 47638 1.98163340436322e-07 1.47923848962994e-08 3.45780148901928e-08 8.38425249562976e-09 5.90563848923904e-08 2.26557391374906e-07 8.33484818889048e-08 1.6134662088781e-07
"2316" 47639 1.97158128736312e-07 1.47885196179101e-08 3.41715380159582e-08 8.35024085082828e-09 5.89381284681078e-08 2.27206096572109e-07 8.21949285706238e-08 1.60952939239685e-07
"2317" 47640 1.96152917036302e-07 1.47846543395209e-08 3.37650611417237e-08 8.3162292060268e-09 5.88198720438253e-08 2.27854801769313e-07 8.10413752523428e-08 1.60559257591559e-07
"2318" 47641 1.95147705336291e-07 1.47807890611316e-08 3.33585842674891e-08 8.28221756122532e-09 5.87016156195427e-08 2.28503506966517e-07 7.98878219340618e-08 1.60165575943433e-07
"2319" 47642 1.94142493636281e-07 1.47769237827424e-08 3.29521073932546e-08 8.24820591642384e-09 5.85833591952601e-08 2.2915221216372e-07 7.87342686157809e-08 1.59771894295307e-07
"2320" 47643 1.93137281936271e-07 1.47730585043531e-08 3.254563051902e-08 8.21419427162236e-09 5.84651027709775e-08 2.29800917360924e-07 7.75807152974999e-08 1.59378212647181e-07
"2321" 47644 1.92132070236261e-07 1.47691932259639e-08 3.21391536447855e-08 8.18018262682087e-09 5.8346846346695e-08 2.30449622558128e-07 7.64271619792189e-08 1.58984530999055e-07
"2322" 47645 1.91126858536251e-07 1.47653279475746e-08 3.17326767705509e-08 8.14617098201939e-09 5.82285899224124e-08 2.31098327755331e-07 7.52736086609379e-08 1.58590849350929e-07
"2323" 47646 1.9012164683624e-07 1.47614626691854e-08 3.13261998963164e-08 8.11215933721791e-09 5.81103334981298e-08 2.31747032952535e-07 7.41200553426569e-08 1.58197167702803e-07
"2324" 47647 1.88813138680821e-07 1.46552488520814e-08 3.10426152196311e-08 8.07844904501458e-09 5.80711666034114e-08 2.32540621243425e-07 7.40207151769082e-08 1.57266160478803e-07
"2325" 47648 1.87504630525401e-07 1.45490350349773e-08 3.07590305429458e-08 8.04473875281124e-09 5.8031999708693e-08 2.33334209534315e-07 7.39213750111594e-08 1.56335153254802e-07
"2326" 47649 1.86196122369982e-07 1.44428212178733e-08 3.04754458662605e-08 8.0110284606079e-09 5.79928328139746e-08 2.34127797825204e-07 7.38220348454107e-08 1.55404146030801e-07
"2327" 47650 1.84887614214562e-07 1.43366074007693e-08 3.01918611895753e-08 7.97731816840457e-09 5.79536659192562e-08 2.34921386116094e-07 7.37226946796619e-08 1.54473138806801e-07
"2328" 47651 1.83579106059142e-07 1.42303935836652e-08 2.990827651289e-08 7.94360787620123e-09 5.79144990245377e-08 2.35714974406984e-07 7.36233545139132e-08 1.535421315828e-07
"2329" 47652 1.82270597903723e-07 1.41241797665612e-08 2.96246918362047e-08 7.9098975839979e-09 5.78753321298193e-08 2.36508562697873e-07 7.35240143481645e-08 1.52611124358799e-07
"2330" 47653 1.8105361005354e-07 1.4017363279729e-08 2.93327720430671e-08 7.88154098094065e-09 5.78344791451467e-08 2.36733371705689e-07 7.35530911775977e-08 1.51836061224227e-07
"2331" 47654 1.79836622203357e-07 1.39105467928969e-08 2.90408522499296e-08 7.85318437788341e-09 5.7793626160474e-08 2.36958180713504e-07 7.35821680070309e-08 1.51060998089654e-07
"2332" 47655 1.78383543844132e-07 1.39105467928969e-08 2.87700956175249e-08 7.8417371643955e-09 5.78396009891337e-08 2.37668933643034e-07 7.33904302465699e-08 1.50226083592975e-07
"2333" 47656 1.76930465484907e-07 1.39105467928969e-08 2.84993389851203e-08 7.83028995090759e-09 5.78855758177934e-08 2.38379686572564e-07 7.31986924861089e-08 1.49391169096296e-07
"2334" 47657 1.75477387125682e-07 1.39105467928969e-08 2.82285823527157e-08 7.81884273741968e-09 5.79315506464531e-08 2.39090439502094e-07 7.30069547256479e-08 1.48556254599618e-07
"2335" 47658 1.74024308766457e-07 1.39105467928969e-08 2.79578257203111e-08 7.80739552393177e-09 5.79775254751128e-08 2.39801192431624e-07 7.28152169651869e-08 1.47721340102939e-07
"2336" 47659 1.72571230407231e-07 1.39105467928969e-08 2.76870690879065e-08 7.79594831044387e-09 5.80235003037725e-08 2.40511945361153e-07 7.26234792047259e-08 1.4688642560626e-07
"2337" 47660 1.71118152048006e-07 1.39105467928969e-08 2.74163124555019e-08 7.78450109695596e-09 5.80694751324322e-08 2.41222698290683e-07 7.24317414442649e-08 1.46051511109581e-07
"2338" 47661 1.69665073688781e-07 1.39105467928969e-08 2.71455558230973e-08 7.77305388346805e-09 5.81154499610919e-08 2.41933451220213e-07 7.2240003683804e-08 1.45216596612902e-07
"2339" 47662 1.68406319265333e-07 1.40170723598337e-08 2.69682097101506e-08 7.78250608448713e-09 5.81629729846078e-08 2.42653192695912e-07 7.21343241031672e-08 1.4459199220564e-07
"2340" 47663 1.67147564841885e-07 1.41235979267705e-08 2.67908635972039e-08 7.79195828550621e-09 5.82104960081236e-08 2.43372934171611e-07 7.20286445225304e-08 1.43967387798378e-07
"2341" 47664 1.65654330036706e-07 1.41987437071983e-08 2.67464731865147e-08 7.81171554453168e-09 5.82867532995518e-08 2.43987863794949e-07 7.19362469278182e-08 1.43132473301699e-07
"2342" 47665 1.64161095231527e-07 1.4273889487626e-08 2.67020827758254e-08 7.83147280355714e-09 5.83630105909799e-08 2.44602793418287e-07 7.18438493331059e-08 1.4229755880502e-07
"2343" 47666 1.62667860426348e-07 1.43490352680537e-08 2.66576923651362e-08 7.85123006258261e-09 5.84392678824081e-08 2.45217723041625e-07 7.17514517383937e-08 1.41462644308341e-07
"2344" 47667 1.6117462562117e-07 1.44241810484815e-08 2.66133019544469e-08 7.87098732160807e-09 5.85155251738362e-08 2.45832652664962e-07 7.16590541436814e-08 1.40627729811663e-07
"2345" 47668 1.60211873172182e-07 1.4403607657204e-08 2.65628518965654e-08 7.86496612188981e-09 5.87000674094859e-08 2.46278243160755e-07 7.17185197136594e-08 1.39695891442249e-07
"2346" 47669 1.59249120723195e-07 1.43830342659265e-08 2.6512401838684e-08 7.85894492217155e-09 5.88846096451356e-08 2.46723833656547e-07 7.17779852836374e-08 1.38764053072835e-07
"2347" 47670 1.58073799218355e-07 1.44021738876648e-08 2.64814736123858e-08 7.85191416211495e-09 5.88963155683723e-08 2.46936015450878e-07 7.17447597346322e-08 1.37832214703422e-07
"2348" 47671 1.56898477713514e-07 1.4421313509403e-08 2.64505453860877e-08 7.84488340205835e-09 5.8908021491609e-08 2.47148197245209e-07 7.17115341856271e-08 1.36900376334008e-07
"2349" 47672 1.55723156208674e-07 1.44404531311413e-08 2.64196171597895e-08 7.83785264200175e-09 5.89197274148457e-08 2.47360379039539e-07 7.16783086366219e-08 1.35968537964594e-07
"2350" 47673 1.54547834703833e-07 1.44595927528796e-08 2.63886889334914e-08 7.83082188194515e-09 5.89314333380824e-08 2.4757256083387e-07 7.16450830876168e-08 1.35036699595181e-07
"2351" 47674 1.53372513198992e-07 1.44787323746178e-08 2.63577607071932e-08 7.82379112188855e-09 5.8943139261319e-08 2.47784742628201e-07 7.16118575386116e-08 1.34104861225767e-07
"2352" 47675 1.52197191694152e-07 1.44978719963561e-08 2.63268324808951e-08 7.81676036183195e-09 5.89548451845557e-08 2.47996924422531e-07 7.15786319896065e-08 1.33173022856353e-07
"2353" 47676 1.51021870189311e-07 1.45170116180944e-08 2.6295904254597e-08 7.80972960177534e-09 5.89665511077924e-08 2.48209106216862e-07 7.15454064406013e-08 1.3224118448694e-07
"2354" 47677 1.4984654868447e-07 1.45361512398326e-08 2.62649760282988e-08 7.80269884171874e-09 5.89782570310291e-08 2.48421288011193e-07 7.15121808915962e-08 1.31309346117526e-07
"2355" 47678 1.4867122717963e-07 1.45552908615709e-08 2.62340478020007e-08 7.79566808166214e-09 5.89899629542658e-08 2.48633469805523e-07 7.1478955342591e-08 1.30377507748113e-07
"2356" 47679 1.47495905674789e-07 1.45744304833092e-08 2.62031195757025e-08 7.78863732160554e-09 5.90016688775025e-08 2.48845651599854e-07 7.14457297935859e-08 1.29445669378699e-07
"2357" 47680 1.46320584169949e-07 1.45935701050474e-08 2.61721913494044e-08 7.78160656154894e-09 5.90133748007392e-08 2.49057833394185e-07 7.14125042445807e-08 1.28513831009285e-07
"2358" 47681 1.45145262665108e-07 1.46127097267857e-08 2.61412631231062e-08 7.77457580149234e-09 5.90250807239759e-08 2.49270015188515e-07 7.13792786955756e-08 1.27581992639872e-07
"2359" 47682 1.43969941160267e-07 1.4631849348524e-08 2.61103348968081e-08 7.76754504143574e-09 5.90367866472126e-08 2.49482196982846e-07 7.13460531465704e-08 1.26650154270458e-07
"2360" 47683 1.42794619655427e-07 1.46509889702622e-08 2.607940667051e-08 7.76051428137914e-09 5.90484925704492e-08 2.49694378777176e-07 7.13128275975653e-08 1.25718315901044e-07
"2361" 47684 1.43252047428214e-07 1.46920528992201e-08 2.61072622352878e-08 7.74715643414988e-09 5.88501822426866e-08 2.4879797203006e-07 7.13735728634414e-08 1.25627874962531e-07
"2362" 47685 1.42845760526455e-07 1.45228920396607e-08 2.61393219715558e-08 7.74766724137101e-09 5.87926546067912e-08 2.49077432161251e-07 7.11966437748618e-08 1.25487393405386e-07
"2363" 47686 1.42439473624695e-07 1.43537311801012e-08 2.61713817078237e-08 7.74817804859215e-09 5.87351269708959e-08 2.49356892292441e-07 7.10197146862823e-08 1.25346911848241e-07
"2364" 47687 1.42033186722936e-07 1.41845703205418e-08 2.62034414440917e-08 7.74868885581328e-09 5.86775993350006e-08 2.49636352423632e-07 7.08427855977028e-08 1.25206430291096e-07
"2365" 47688 1.41626899821177e-07 1.40154094609823e-08 2.62355011803596e-08 7.74919966303441e-09 5.86200716991052e-08 2.49915812554823e-07 7.06658565091233e-08 1.25065948733951e-07
"2366" 47689 1.41220612919417e-07 1.38462486014229e-08 2.62675609166276e-08 7.74971047025554e-09 5.85625440632099e-08 2.50195272686013e-07 7.04889274205437e-08 1.24925467176806e-07
"2367" 47690 1.40814326017658e-07 1.36770877418634e-08 2.62996206528956e-08 7.75022127747668e-09 5.85050164273146e-08 2.50474732817204e-07 7.03119983319642e-08 1.24784985619661e-07
"2368" 47691 1.40186088050494e-07 1.34887872605657e-08 2.64381261831654e-08 7.87667100641641e-09 5.84395830625176e-08 2.50736556223619e-07 7.02036710641067e-08 1.24744753834291e-07
"2369" 47692 1.39343280086759e-07 1.3270520165437e-08 2.65374526632754e-08 7.87813110345626e-09 6.02072232099699e-08 2.50695627114164e-07 6.99859003001273e-08 1.2462721465706e-07
"2370" 47693 1.38500472123024e-07 1.30522530703084e-08 2.66367791433853e-08 7.8795912004961e-09 6.19748633574221e-08 2.50654698004709e-07 6.97681295361479e-08 1.24509675479829e-07
"2371" 47694 1.3765766415929e-07 1.28339859751797e-08 2.67361056234953e-08 7.88105129753594e-09 6.37425035048744e-08 2.50613768895253e-07 6.95503587721685e-08 1.24392136302597e-07
"2372" 47695 1.36814856195555e-07 1.2615718880051e-08 2.68354321036052e-08 7.88251139457579e-09 6.55101436523266e-08 2.50572839785798e-07 6.93325880081892e-08 1.24274597125366e-07
"2373" 47696 1.35972048231821e-07 1.23974517849224e-08 2.69347585837151e-08 7.88397149161563e-09 6.72777837997789e-08 2.50531910676343e-07 6.91148172442098e-08 1.24157057948135e-07
"2374" 47697 1.34479178743514e-07 1.2389409478311e-08 2.70366506726812e-08 7.8854436427594e-09 6.85256229103755e-08 2.50258380632262e-07 6.90306001552196e-08 1.23679918234484e-07
"2375" 47698 1.3348216533397e-07 1.23764210673262e-08 2.70154888952061e-08 7.86458039056419e-09 7.00540845244894e-08 2.48095423152037e-07 6.84766489096365e-08 1.23377839086498e-07
"2376" 47699 1.32485151924425e-07 1.23634326563413e-08 2.69943271177309e-08 7.84371713836897e-09 7.15825461386033e-08 2.45932465671812e-07 6.79226976640534e-08 1.23075759938511e-07
"2377" 47700 1.31488138514881e-07 1.23504442453565e-08 2.69731653402557e-08 7.82285388617376e-09 7.31110077527173e-08 2.43769508191587e-07 6.73687464184702e-08 1.22773680790525e-07
"2378" 47701 1.30491125105336e-07 1.23374558343716e-08 2.69520035627806e-08 7.80199063397855e-09 7.46394693668312e-08 2.41606550711362e-07 6.68147951728871e-08 1.22471601642539e-07
"2379" 47702 1.29494111695791e-07 1.23244674233868e-08 2.69308417853054e-08 7.78112738178334e-09 7.61679309809451e-08 2.39443593231136e-07 6.62608439273039e-08 1.22169522494553e-07
"2380" 47703 1.28497098286247e-07 1.23114790124019e-08 2.69096800078302e-08 7.76026412958812e-09 7.76963925950591e-08 2.37280635750911e-07 6.57068926817208e-08 1.21867443346567e-07
"2381" 47704 1.27500084876702e-07 1.22984906014171e-08 2.68885182303551e-08 7.73940087739291e-09 7.9224854209173e-08 2.35117678270686e-07 6.51529414361377e-08 1.21565364198581e-07
"2382" 47705 1.26503071467158e-07 1.22855021904322e-08 2.68673564528799e-08 7.7185376251977e-09 8.07533158232869e-08 2.32954720790461e-07 6.45989901905545e-08 1.21263285050595e-07
"2383" 47706 1.2574551411402e-07 1.22860217734869e-08 2.69635494942621e-08 7.71847735467807e-09 8.25458228879089e-08 2.30212908762229e-07 6.46220354483692e-08 1.21029368916453e-07
"2384" 47707 1.24987956760882e-07 1.22865413565416e-08 2.70597425356442e-08 7.71841708415844e-09 8.43383299525309e-08 2.27471096733996e-07 6.46450807061839e-08 1.20795452782311e-07
"2385" 47708 1.24230399407745e-07 1.22870609395963e-08 2.71559355770264e-08 7.71835681363881e-09 8.61308370171529e-08 2.24729284705764e-07 6.46681259639986e-08 1.20561536648169e-07
"2386" 47709 1.23472842054607e-07 1.22875805226509e-08 2.72521286184086e-08 7.71829654311918e-09 8.7923344081775e-08 2.21987472677531e-07 6.46911712218133e-08 1.20327620514027e-07
"2387" 47710 1.22715284701469e-07 1.22881001057056e-08 2.73483216597907e-08 7.71823627259955e-09 8.9715851146397e-08 2.19245660649299e-07 6.4714216479628e-08 1.20093704379885e-07
"2388" 47711 1.21957727348332e-07 1.22886196887603e-08 2.74445147011729e-08 7.71817600207992e-09 9.1508358211019e-08 2.16503848621066e-07 6.47372617374426e-08 1.19859788245743e-07
"2389" 47712 1.21191315199416e-07 1.22877260991368e-08 2.74391721034238e-08 7.73897898375551e-09 9.14606901278389e-08 2.13811562163267e-07 6.50052252024113e-08 1.20024376972029e-07
"2390" 47713 1.20424903050501e-07 1.22868325095133e-08 2.74338295056747e-08 7.75978196543109e-09 9.14130220446588e-08 2.11119275705468e-07 6.52731886673799e-08 1.20188965698316e-07
"2391" 47714 1.19774239580764e-07 1.23231998271945e-08 2.74364655745431e-08 7.78081397508127e-09 9.13724555970315e-08 2.08397965889003e-07 6.54386816338685e-08 1.20010244733493e-07
"2392" 47715 1.1907273353727e-07 1.23231998271945e-08 2.75010161066996e-08 7.81834099991105e-09 9.13520774579166e-08 2.05656153860771e-07 6.55387770887924e-08 1.19783311604078e-07
"2393" 47716 1.18371227493776e-07 1.23231998271945e-08 2.75655666388562e-08 7.85586802474083e-09 9.13316993188018e-08 2.02914341832539e-07 6.56388725437163e-08 1.19556378474663e-07
"2394" 47717 1.17669721450282e-07 1.23231998271945e-08 2.76301171710127e-08 7.89339504957061e-09 9.13113211796869e-08 2.00172529804306e-07 6.57389679986401e-08 1.19329445345248e-07
"2395" 47718 1.16968215406788e-07 1.23231998271945e-08 2.76946677031692e-08 7.93092207440039e-09 9.1290943040572e-08 1.97430717776074e-07 6.5839063453564e-08 1.19102512215833e-07
"2396" 47719 1.16266709363294e-07 1.23231998271945e-08 2.77592182353257e-08 7.96844909923018e-09 9.12705649014571e-08 1.94688905747841e-07 6.59391589084878e-08 1.18875579086418e-07
"2397" 47720 1.16059118946241e-07 1.22868325095133e-08 2.77217412915229e-08 7.89203138536217e-09 9.12705649014571e-08 1.94181131114287e-07 6.57323046328759e-08 1.18062942975494e-07
"2398" 47721 1.16133839397688e-07 1.22733245154738e-08 2.76943817133466e-08 7.90875542851637e-09 8.88193786869336e-08 1.92416051589882e-07 6.56401236016172e-08 1.17927615442081e-07
"2399" 47722 1.15795837788751e-07 1.22404482365367e-08 2.75799448034068e-08 7.91502976441708e-09 8.85526012870155e-08 1.92381287883507e-07 6.57120114653133e-08 1.17124624438375e-07
"2400" 47723 1.15457836179815e-07 1.22075719575996e-08 2.74655078934669e-08 7.92130410031778e-09 8.82858238870974e-08 1.92346524177132e-07 6.57838993290094e-08 1.16321633434668e-07
"2401" 47724 1.15119834570878e-07 1.21746956786624e-08 2.73510709835271e-08 7.92757843621848e-09 8.80190464871792e-08 1.92311760470757e-07 6.58557871927055e-08 1.15518642430962e-07
"2402" 47725 1.14781832961941e-07 1.21418193997253e-08 2.72366340735873e-08 7.93385277211919e-09 8.77522690872611e-08 1.92276996764382e-07 6.59276750564016e-08 1.14715651427255e-07
"2403" 47726 1.14462797611496e-07 1.21131618088851e-08 2.70891426876607e-08 7.90106766152671e-09 8.7469602326283e-08 1.92304650895406e-07 6.59716583991399e-08 1.14754556739305e-07
"2404" 47727 1.14212631111335e-07 1.21166528476292e-08 2.69101552455644e-08 7.87583617231589e-09 8.72392822571423e-08 1.93831379763748e-07 6.63052377277349e-08 1.13970518419921e-07
"2405" 47728 1.13962464611174e-07 1.21201438863732e-08 2.6731167803468e-08 7.85060468310508e-09 8.70089621880018e-08 1.95358108632091e-07 6.66388170563299e-08 1.13186480100538e-07
"2406" 47729 1.13712298111014e-07 1.21236349251173e-08 2.65521803613717e-08 7.82537319389426e-09 8.67786421188612e-08 1.96884837500434e-07 6.6972396384925e-08 1.12402441781155e-07
"2407" 47730 1.13462131610853e-07 1.21271259638613e-08 2.63731929192753e-08 7.80014170468344e-09 8.65483220497206e-08 1.98411566368776e-07 6.730597571352e-08 1.11618403461771e-07
"2408" 47731 1.13211965110693e-07 1.21306170026053e-08 2.6194205477179e-08 7.77491021547263e-09 8.631800198058e-08 1.99938295237119e-07 6.7639555042115e-08 1.10834365142388e-07
"2409" 47732 1.12961798610532e-07 1.21341080413494e-08 2.60152180350827e-08 7.74967872626181e-09 8.60876819114394e-08 2.01465024105461e-07 6.797313437071e-08 1.10050326823005e-07
"2410" 47733 1.12591658561504e-07 1.21012317624122e-08 2.59281407033191e-08 7.7198499720608e-09 8.58209045115212e-08 2.01442644539209e-07 6.83868124953286e-08 1.09346254441024e-07
"2411" 47734 1.12282568029205e-07 1.20859574190632e-08 2.58896648700241e-08 7.6944858877068e-09 8.56368905790241e-08 2.01887318983906e-07 6.83586049041008e-08 1.08907850846216e-07
"2412" 47735 1.11973477496905e-07 1.20706830757142e-08 2.5851189036729e-08 7.6691218033528e-09 8.5452876646527e-08 2.02331993428603e-07 6.83303973128731e-08 1.08469447251407e-07
"2413" 47736 1.11664386964606e-07 1.20554087323652e-08 2.5812713203434e-08 7.64375771899879e-09 8.52688627140299e-08 2.027766678733e-07 6.83021897216453e-08 1.08031043656599e-07
"2414" 47737 1.11355296432306e-07 1.20401343890162e-08 2.5774237370139e-08 7.61839363464479e-09 8.50848487815328e-08 2.03221342317996e-07 6.82739821304176e-08 1.07592640061791e-07
"2415" 47738 1.11046205900007e-07 1.20248600456672e-08 2.57357615368439e-08 7.59302955029079e-09 8.49008348490356e-08 2.03666016762693e-07 6.82457745391898e-08 1.07154236466982e-07
"2416" 47739 1.10737115367708e-07 1.20095857023182e-08 2.56972857035489e-08 7.56766546593679e-09 8.47168209165385e-08 2.0411069120739e-07 6.82175669479621e-08 1.06715832872174e-07
"2417" 47740 1.10428024835408e-07 1.19943113589691e-08 2.56588098702539e-08 7.54230138158279e-09 8.45328069840414e-08 2.04555365652086e-07 6.81893593567343e-08 1.06277429277365e-07
"2418" 47741 1.10118934303109e-07 1.19790370156201e-08 2.56203340369588e-08 7.51693729722879e-09 8.43487930515443e-08 2.05000040096783e-07 6.81611517655066e-08 1.05839025682557e-07
"2419" 47742 1.09809843770809e-07 1.19637626722711e-08 2.55818582036638e-08 7.49157321287479e-09 8.41647791190472e-08 2.0544471454148e-07 6.81329441742788e-08 1.05400622087749e-07
"2420" 47743 1.09458871616701e-07 1.1982653033989e-08 2.57245071282163e-08 7.4984713777882e-09 8.41930110515592e-08 2.05304480227738e-07 6.80714436192276e-08 1.05249333795891e-07
"2421" 47744 1.09107899462594e-07 1.20015433957068e-08 2.58671560527688e-08 7.50536954270162e-09 8.42212429840712e-08 2.05164245913995e-07 6.80099430641764e-08 1.05098045504034e-07
"2422" 47745 1.08756927308486e-07 1.20204337574247e-08 2.60098049773213e-08 7.51226770761504e-09 8.42494749165832e-08 2.05024011600253e-07 6.79484425091252e-08 1.04946757212176e-07
"2423" 47746 1.08405955154378e-07 1.20393241191426e-08 2.61524539018738e-08 7.51916587252846e-09 8.42777068490952e-08 2.04883777286511e-07 6.7886941954074e-08 1.04795468920319e-07
"2424" 47747 1.0805498300027e-07 1.20582144808605e-08 2.62951028264263e-08 7.52606403744187e-09 8.43059387816072e-08 2.04743542972769e-07 6.78254413990228e-08 1.04644180628461e-07
"2425" 47748 1.07704010846162e-07 1.20771048425783e-08 2.64377517509788e-08 7.53296220235529e-09 8.43341707141193e-08 2.04603308659026e-07 6.77639408439716e-08 1.04492892336604e-07
"2426" 47749 1.07353038692054e-07 1.20959952042962e-08 2.65804006755313e-08 7.53986036726871e-09 8.43624026466313e-08 2.04463074345284e-07 6.77024402889204e-08 1.04341604044746e-07
"2427" 47750 1.07731533000201e-07 1.21092328753014e-08 2.67693521139092e-08 7.54973899678144e-09 8.45408523915823e-08 2.03973416442172e-07 6.77284011046209e-08 1.04139112123504e-07
"2428" 47751 1.08110027308349e-07 1.21224705463067e-08 2.69583035522871e-08 7.55961762629417e-09 8.47193021365334e-08 2.0348375853906e-07 6.77543619203215e-08 1.03936620202262e-07
"2429" 47752 1.08488521616496e-07 1.21357082173119e-08 2.71472549906649e-08 7.5694962558069e-09 8.48977518814845e-08 2.02994100635949e-07 6.7780322736022e-08 1.03734128281019e-07
"2430" 47753 1.08867015924644e-07 1.21489458883172e-08 2.73362064290428e-08 7.57937488531964e-09 8.50762016264356e-08 2.02504442732837e-07 6.78062835517226e-08 1.03531636359777e-07
"2431" 47754 1.09245510232791e-07 1.21621835593224e-08 2.75251578674207e-08 7.58925351483237e-09 8.52546513713866e-08 2.02014784829725e-07 6.78322443674232e-08 1.03329144438535e-07
"2432" 47755 1.1006454765559e-07 1.21621835593224e-08 2.7609944514088e-08 7.59818285452639e-09 8.51850641188017e-08 2.02063077577953e-07 6.78914981469472e-08 1.0364435746252e-07
"2433" 47756 1.10883585078389e-07 1.21621835593224e-08 2.76947311607554e-08 7.60711219422042e-09 8.51154768662167e-08 2.0211137032618e-07 6.79507519264712e-08 1.03959570486506e-07
"2434" 47757 1.11702622501188e-07 1.21621835593224e-08 2.77795178074227e-08 7.61604153391444e-09 8.50458896136318e-08 2.02159663074408e-07 6.80100057059952e-08 1.04274783510492e-07
"2435" 47758 1.12521659923988e-07 1.21621835593224e-08 2.78643044540901e-08 7.62497087360846e-09 8.49763023610468e-08 2.02207955822636e-07 6.80692594855192e-08 1.04589996534477e-07
"2436" 47759 1.13340697346787e-07 1.21621835593224e-08 2.79490911007575e-08 7.63390021330248e-09 8.49067151084618e-08 2.02256248570864e-07 6.81285132650432e-08 1.04905209558463e-07
"2437" 47760 1.14159734769586e-07 1.21621835593224e-08 2.80338777474248e-08 7.6428295529965e-09 8.48371278558769e-08 2.02304541319092e-07 6.81877670445672e-08 1.05220422582448e-07
"2438" 47761 1.14978772192385e-07 1.21621835593224e-08 2.81186643940922e-08 7.65175889269053e-09 8.47675406032919e-08 2.02352834067319e-07 6.82470208240912e-08 1.05535635606434e-07
"2439" 47762 1.15797809615184e-07 1.21621835593224e-08 2.82034510407595e-08 7.66068823238455e-09 8.4697953350707e-08 2.02401126815547e-07 6.83062746036152e-08 1.05850848630419e-07
"2440" 47763 1.16565154034273e-07 1.21754212303277e-08 2.83414605844278e-08 7.53314456437899e-09 8.48666178639165e-08 2.00226580355641e-07 6.63230090845391e-08 1.06072794096923e-07
"2441" 47764 1.17332498453363e-07 1.21886589013329e-08 2.84794701280962e-08 7.40560089637344e-09 8.5035282377126e-08 1.98052033895735e-07 6.4339743565463e-08 1.06294739563428e-07
"2442" 47765 1.18099842872452e-07 1.22018965723382e-08 2.86174796717645e-08 7.27805722836788e-09 8.52039468903356e-08 1.95877487435828e-07 6.23564780463868e-08 1.06516685029932e-07
"2443" 47766 1.18867187291541e-07 1.22151342433434e-08 2.87554892154328e-08 7.15051356036233e-09 8.53726114035451e-08 1.93702940975922e-07 6.03732125273107e-08 1.06738630496436e-07
"2444" 47767 1.1963453171063e-07 1.22283719143487e-08 2.88934987591011e-08 7.02296989235677e-09 8.55412759167546e-08 1.91528394516016e-07 5.83899470082346e-08 1.0696057596294e-07
