"time" "channel1" "channel2" "channel3" "channel4" "channel5" "channel6" "channel7" "channel8"
"1" 19995 9.72446158172663e-08 3.58300496740751e-07 2.00689893102087e-08 3.71358091040376e-08 2.61286509749903e-07 6.60434215956945e-08 2.07044036790006e-08 7.18699808752599e-09
"2" 19996 9.7113545155947e-08 3.582914559956e-07 2.00689893102087e-08 3.70082172196164e-08 2.61540661623607e-07 6.60335515849421e-08 2.07126098383284e-08 7.18367317652698e-09
"3" 19997 9.69824744946276e-08 3.58282415250448e-07 2.00689893102087e-08 3.68806253351951e-08 2.61794813497311e-07 6.60236815741896e-08 2.07208159976563e-08 7.18034826552796e-09
"4" 19998 9.68514038333083e-08 3.58273374505297e-07 2.00689893102087e-08 3.67530334507739e-08 2.62048965371015e-07 6.60138115634372e-08 2.07290221569842e-08 7.17702335452895e-09
"5" 19999 9.67203331719889e-08 3.58264333760146e-07 2.00689893102087e-08 3.66254415663526e-08 2.62303117244719e-07 6.60039415526848e-08 2.07372283163121e-08 7.17369844352994e-09
"6" 20000 9.61720048238729e-08 3.58931166910928e-07 2.00757577072972e-08 3.65805055693883e-08 2.62027090972548e-07 6.5959817578734e-08 2.0741192687644e-08 7.20694900264731e-09
"7" 20001 9.60207278412882e-08 3.58922126165776e-07 2.00842392768053e-08 3.64633633922205e-08 2.61504052068599e-07 6.58957324900355e-08 2.07428894028424e-08 7.2036240916483e-09
"8" 20002 9.60444117943371e-08 3.58483389129828e-07 2.00784697692092e-08 3.63139589657853e-08 2.61080097589841e-07 6.58461959295431e-08 2.07484269943433e-08 7.27926800703406e-09
"9" 20003 9.6068095747386e-08 3.5804465209388e-07 2.0072700261613e-08 3.61645545393501e-08 2.60656143111083e-07 6.57966593690507e-08 2.07539645858441e-08 7.35491192241983e-09
"10" 20004 9.60917797004349e-08 3.57605915057932e-07 2.00669307540168e-08 3.6015150112915e-08 2.60232188632324e-07 6.57471228085583e-08 2.0759502177345e-08 7.43055583780559e-09
"11" 20005 9.64104360939716e-08 3.56881206414846e-07 2.00404996053205e-08 3.59560034117341e-08 2.59403290501562e-07 6.56083957442271e-08 2.07500002145123e-08 7.50869338703855e-09
"12" 20006 9.67290924875084e-08 3.5615649777176e-07 2.00140684566241e-08 3.58968567105532e-08 2.58574392370799e-07 6.54696686798959e-08 2.07404982516795e-08 7.58683093627151e-09
"13" 20007 9.70477488810451e-08 3.55431789128673e-07 1.99876373079278e-08 3.58377100093723e-08 2.57745494240036e-07 6.53309416155647e-08 2.07309962888468e-08 7.66496848550447e-09
"14" 20008 9.73664052745818e-08 3.54707080485587e-07 1.99612061592315e-08 3.57785633081914e-08 2.56916596109274e-07 6.51922145512336e-08 2.07214943260141e-08 7.74310603473742e-09
"15" 20009 9.76850616681186e-08 3.539823718425e-07 1.99347750105352e-08 3.57194166070105e-08 2.56087697978511e-07 6.50534874869024e-08 2.07119923631814e-08 7.82124358397038e-09
"16" 20010 9.80037180616554e-08 3.53257663199414e-07 1.99083438618389e-08 3.56602699058296e-08 2.55258799847748e-07 6.49147604225712e-08 2.07024904003486e-08 7.89938113320334e-09
"17" 20011 9.83223744551921e-08 3.52532954556328e-07 1.98819127131426e-08 3.56011232046487e-08 2.54429901716986e-07 6.47760333582401e-08 2.06929884375159e-08 7.9775186824363e-09
"18" 20012 9.88963544887521e-08 3.52562505503715e-07 1.98844783219987e-08 3.55416028262461e-08 2.5208277043918e-07 6.46800170799809e-08 2.05976078700995e-08 8.00677816270529e-09
"19" 20013 9.94696068526916e-08 3.52597480478655e-07 1.98214903594326e-08 3.55240620884164e-08 2.52178877566571e-07 6.46455811347747e-08 2.06031454616004e-08 8.07942936177955e-09
"20" 20014 1.00042859216631e-07 3.52632455453596e-07 1.97585023968665e-08 3.55065213505867e-08 2.52274984693961e-07 6.46111451895686e-08 2.06086830531012e-08 8.15208056085381e-09
"21" 20015 1.00616111580571e-07 3.52667430428536e-07 1.96955144343004e-08 3.54889806127569e-08 2.52371091821352e-07 6.45767092443624e-08 2.06142206446021e-08 8.22473175992808e-09
"22" 20016 1.0118936394451e-07 3.52702405403477e-07 1.96325264717343e-08 3.54714398749272e-08 2.52467198948742e-07 6.45422732991562e-08 2.06197582361029e-08 8.29738295900234e-09
"23" 20017 1.0176261630845e-07 3.52737380378417e-07 1.95695385091682e-08 3.54538991370975e-08 2.52563306076133e-07 6.45078373539501e-08 2.06252958276038e-08 8.3700341580766e-09
"24" 20018 1.02335868672389e-07 3.52772355353358e-07 1.95065505466021e-08 3.54363583992678e-08 2.52659413203523e-07 6.44734014087439e-08 2.06308334191046e-08 8.44268535715086e-09
"25" 20019 1.02909121036329e-07 3.52807330328298e-07 1.9443562584036e-08 3.5418817661438e-08 2.52755520330914e-07 6.44389654635377e-08 2.06363710106055e-08 8.51533655622512e-09
"26" 20020 1.03482373400268e-07 3.52842305303239e-07 1.93805746214699e-08 3.54012769236083e-08 2.52851627458304e-07 6.44045295183316e-08 2.06419086021064e-08 8.58798775529938e-09
"27" 20021 1.04055625764207e-07 3.52877280278179e-07 1.93175866589038e-08 3.53837361857786e-08 2.52947734585695e-07 6.43700935731254e-08 2.06474461936072e-08 8.66063895437364e-09
"28" 20022 1.0405488445455e-07 3.53781082717141e-07 1.92866584326056e-08 3.63404968330764e-08 2.52881541898487e-07 6.43614971121475e-08 2.06713141554153e-08 8.65482001431091e-09
"29" 20023 1.04054143144893e-07 3.54684885156104e-07 1.92557302063075e-08 3.72972574803742e-08 2.5281534921128e-07 6.43529006511696e-08 2.06951821172234e-08 8.64900107424818e-09
"30" 20024 1.05274627014561e-07 3.56111548433704e-07 1.92016465733232e-08 3.72842416829111e-08 2.535822980845e-07 6.43184647059634e-08 2.07298734989749e-08 8.69721343644872e-09
"31" 20025 1.06495110884229e-07 3.57538211711305e-07 1.91475629403389e-08 3.7271225885448e-08 2.5434924695772e-07 6.42840287607572e-08 2.07645648807263e-08 8.74542579864926e-09
"32" 20026 1.07715594753898e-07 3.58964874988905e-07 1.90934793073546e-08 3.72582100879849e-08 2.5511619583094e-07 6.4249592815551e-08 2.07992562624778e-08 8.7936381608498e-09
"33" 20027 1.08518140115507e-07 3.57112941941827e-07 1.89705663609379e-08 3.72557042682949e-08 2.54190983722539e-07 6.34790913308797e-08 2.07330294853119e-08 8.84268199781042e-09
"34" 20028 1.09320685477117e-07 3.55261008894749e-07 1.88476534145212e-08 3.7253198448605e-08 2.53265771614139e-07 6.27085898462082e-08 2.06668027081461e-08 8.89172583477104e-09
"35" 20029 1.10421304918213e-07 3.56155980985622e-07 1.8824498007835e-08 3.69080688107454e-08 2.52865488659376e-07 6.26983700941681e-08 2.06650129245236e-08 8.92564051978575e-09
"36" 20030 1.11521924359309e-07 3.57050953076495e-07 1.88013426011488e-08 3.65629391728859e-08 2.52465205704614e-07 6.2688150342128e-08 2.06632231409011e-08 8.95955520480046e-09
"37" 20031 1.12622543800405e-07 3.57945925167368e-07 1.87781871944627e-08 3.62178095350263e-08 2.52064922749852e-07 6.26779305900878e-08 2.06614333572786e-08 8.99346988981517e-09
"38" 20032 1.13723163241501e-07 3.58840897258242e-07 1.87550317877765e-08 3.58726798971668e-08 2.51664639795089e-07 6.26677108380477e-08 2.06596435736561e-08 9.02738457482989e-09
"39" 20033 1.14823782682597e-07 3.59735869349115e-07 1.87318763810904e-08 3.55275502593072e-08 2.51264356840327e-07 6.26574910860075e-08 2.06578537900336e-08 9.0612992598446e-09
"40" 20034 1.15924402123693e-07 3.60630841439988e-07 1.87087209744042e-08 3.51824206214477e-08 2.50864073885565e-07 6.26472713339674e-08 2.06560640064111e-08 9.09521394485931e-09
"41" 20035 1.17025021564789e-07 3.61525813530861e-07 1.8685565567718e-08 3.48372909835881e-08 2.50463790930802e-07 6.26370515819273e-08 2.06542742227886e-08 9.12912862987402e-09
"42" 20036 1.18125641005885e-07 3.62420785621735e-07 1.86624101610319e-08 3.44921613457285e-08 2.5006350797604e-07 6.26268318298871e-08 2.06524844391661e-08 9.16304331488873e-09
"43" 20037 1.18603211647418e-07 3.63551293930478e-07 1.87105101398675e-08 3.41425067675023e-08 2.4904649754278e-07 6.35333439037265e-08 2.09237757083214e-08 9.19945242418368e-09
"44" 20038 1.19080782288951e-07 3.64681802239221e-07 1.87586101187032e-08 3.37928521892762e-08 2.4802948710952e-07 6.4439855977566e-08 2.11950669774766e-08 9.23586153347863e-09
"45" 20039 1.19400120684332e-07 3.68188098210693e-07 1.8764737459392e-08 3.35027179894526e-08 2.46875033031982e-07 6.4568363289857e-08 2.11994370335016e-08 9.21923631978937e-09
"46" 20040 1.19719459079714e-07 3.71694394182165e-07 1.87708648000809e-08 3.3212583789629e-08 2.45720578954445e-07 6.4696870602148e-08 2.12038070895266e-08 9.2026111061001e-09
"47" 20041 1.20038797475095e-07 3.75200690153637e-07 1.87769921407697e-08 3.29224495898053e-08 2.44566124876907e-07 6.4825377914439e-08 2.12081771455516e-08 9.18598589241084e-09
"48" 20042 1.20358135870477e-07 3.78706986125109e-07 1.87831194814586e-08 3.26323153899817e-08 2.4341167079937e-07 6.49538852267301e-08 2.12125472015766e-08 9.16936067872157e-09
"49" 20043 1.20677474265858e-07 3.82213282096581e-07 1.87892468221474e-08 3.23421811901581e-08 2.42257216721832e-07 6.50823925390211e-08 2.12169172576015e-08 9.1527354650323e-09
"50" 20044 1.20996812661239e-07 3.85719578068052e-07 1.87953741628363e-08 3.20520469903345e-08 2.41102762644294e-07 6.52108998513121e-08 2.12212873136265e-08 9.13611025134303e-09
"51" 20045 1.21316151056621e-07 3.89225874039524e-07 1.88015015035251e-08 3.17619127905109e-08 2.39948308566757e-07 6.53394071636031e-08 2.12256573696515e-08 9.11948503765377e-09
"52" 20046 1.21635489452002e-07 3.92732170010996e-07 1.8807628844214e-08 3.14717785906873e-08 2.38793854489219e-07 6.54679144758942e-08 2.12300274256765e-08 9.1028598239645e-09
"53" 20047 1.21954827847384e-07 3.96238465982468e-07 1.88137561849029e-08 3.11816443908637e-08 2.37639400411682e-07 6.55964217881852e-08 2.12343974817015e-08 9.08623461027523e-09
"54" 20048 1.22274166242765e-07 3.9974476195394e-07 1.88198835255917e-08 3.08915101910401e-08 2.36484946334144e-07 6.57249291004762e-08 2.12387675377265e-08 9.06960939658597e-09
"55" 20049 1.22593504638146e-07 4.03251057925412e-07 1.88260108662806e-08 3.06013759912165e-08 2.35330492256607e-07 6.58534364127672e-08 2.12431375937514e-08 9.0529841828967e-09
"56" 20050 1.22572300810647e-07 4.05477616121019e-07 1.8510732585967e-08 3.0545942070583e-08 2.35499502406932e-07 6.54994784687707e-08 2.11265880589593e-08 8.94558563839808e-09
"57" 20051 1.23010222651715e-07 4.09234950384564e-07 1.85363817582392e-08 3.05879217111559e-08 2.35606741491698e-07 6.56536135457724e-08 2.11677632312344e-08 8.94990825323977e-09
"58" 20052 1.2345015314529e-07 4.13182829634972e-07 1.85399393402984e-08 3.05882953883776e-08 2.35539063291988e-07 6.56657639862589e-08 2.11611046384697e-08 8.9389359481389e-09
"59" 20053 1.23890083638864e-07 4.1713070888538e-07 1.85434969223576e-08 3.05886690655993e-08 2.35471385092279e-07 6.56779144267454e-08 2.1154446045705e-08 8.92796364303803e-09
"60" 20054 1.24330014132438e-07 4.21078588135788e-07 1.85470545044169e-08 3.0589042742821e-08 2.35403706892569e-07 6.5690064867232e-08 2.11477874529404e-08 8.91699133793715e-09
"61" 20055 1.24769944626012e-07 4.25026467386196e-07 1.85506120864761e-08 3.05894164200427e-08 2.35336028692859e-07 6.57022153077185e-08 2.11411288601757e-08 8.90601903283628e-09
"62" 20056 1.25209875119587e-07 4.28974346636604e-07 1.85541696685353e-08 3.05897900972644e-08 2.3526835049315e-07 6.57143657482051e-08 2.1134470267411e-08 8.89504672773541e-09
"63" 20057 1.25649805613161e-07 4.32922225887012e-07 1.85577272505946e-08 3.05901637744861e-08 2.3520067229344e-07 6.57265161886916e-08 2.11278116746463e-08 8.88407442263454e-09
"64" 20058 1.26089736106735e-07 4.3687010513742e-07 1.85612848326538e-08 3.05905374517078e-08 2.3513299409373e-07 6.57386666291782e-08 2.11211530818816e-08 8.87310211753367e-09
"65" 20059 1.26488755204661e-07 4.40817984387828e-07 1.86216988868168e-08 3.06353649617368e-08 2.34919531341849e-07 6.56025713522031e-08 2.10744659717114e-08 8.86212981243279e-09
"66" 20060 1.26598330850041e-07 4.44603521945888e-07 1.86348806144167e-08 3.0589756919344e-08 2.34935182519085e-07 6.56273709862934e-08 2.10351623168757e-08 8.85531356374391e-09
"67" 20061 1.2676683052756e-07 4.4521894139957e-07 1.86480623420165e-08 3.0679423993506e-08 2.34703314255088e-07 6.56690451548959e-08 2.105236213992e-08 8.89006051395175e-09
"68" 20062 1.26935330205078e-07 4.45834360853252e-07 1.86612440696164e-08 3.07690910676679e-08 2.34471445991091e-07 6.57107193234984e-08 2.10695619629643e-08 8.92480746415958e-09
"69" 20063 1.27103829882597e-07 4.46449780306934e-07 1.86744257972162e-08 3.08587581418298e-08 2.34239577727095e-07 6.57523934921009e-08 2.10867617860087e-08 8.95955441436742e-09
"70" 20064 1.27272329560115e-07 4.47065199760616e-07 1.86876075248161e-08 3.09484252159917e-08 2.34007709463098e-07 6.57940676607034e-08 2.1103961609053e-08 8.99430136457525e-09
"71" 20065 1.27440829237634e-07 4.47680619214298e-07 1.87007892524159e-08 3.10380922901536e-08 2.33775841199101e-07 6.58357418293059e-08 2.11211614320973e-08 9.02904831478309e-09
"72" 20066 1.27609328915152e-07 4.4829603866798e-07 1.87139709800158e-08 3.11277593643156e-08 2.33543972935104e-07 6.58774159979085e-08 2.11383612551417e-08 9.06379526499093e-09
"73" 20067 1.27777828592671e-07 4.48911458121662e-07 1.87271527076156e-08 3.12174264384775e-08 2.33312104671108e-07 6.5919090166511e-08 2.1155561078186e-08 9.09854221519876e-09
"74" 20068 1.27946328270189e-07 4.49526877575344e-07 1.87403344352155e-08 3.13070935126394e-08 2.33080236407111e-07 6.59607643351135e-08 2.11727609012303e-08 9.1332891654066e-09
"75" 20069 1.28114827947708e-07 4.50142297029026e-07 1.87535161628153e-08 3.13967605868013e-08 2.32848368143114e-07 6.6002438503716e-08 2.11899607242747e-08 9.16803611561443e-09
"76" 20070 1.28283327625226e-07 4.50757716482708e-07 1.87666978904152e-08 3.14864276609633e-08 2.32616499879117e-07 6.60441126723185e-08 2.1207160547319e-08 9.20278306582227e-09
"77" 20071 1.26973004741941e-07 4.47425256685982e-07 1.84022627310819e-08 3.16218835890768e-08 2.31667524921303e-07 6.58650493131817e-08 2.11709520256097e-08 9.16122019627265e-09
"78" 20072 1.25662681858657e-07 4.44092796889256e-07 1.80378275717485e-08 3.17573395171904e-08 2.30718549963489e-07 6.5685985954045e-08 2.11347435039004e-08 9.11965732672304e-09
"79" 20073 1.23986462183734e-07 4.42630619389105e-07 1.80179548233617e-08 3.17038328192584e-08 2.29882130239083e-07 6.56722012324368e-08 2.11629719757344e-08 9.143930066253e-09
"80" 20074 1.22310242508812e-07 4.41168441888954e-07 1.79980820749748e-08 3.16503261213264e-08 2.29045710514678e-07 6.56584165108286e-08 2.11912004475684e-08 9.16820280578297e-09
"81" 20075 1.2063402283389e-07 4.39706264388803e-07 1.79782093265879e-08 3.15968194233944e-08 2.28209290790272e-07 6.56446317892204e-08 2.12194289194024e-08 9.19247554531294e-09
"82" 20076 1.18957803158968e-07 4.38244086888652e-07 1.79583365782011e-08 3.15433127254624e-08 2.27372871065867e-07 6.56308470676121e-08 2.12476573912364e-08 9.2167482848429e-09
"83" 20077 1.17281583484045e-07 4.36781909388501e-07 1.79384638298142e-08 3.14898060275303e-08 2.26536451341462e-07 6.56170623460039e-08 2.12758858630704e-08 9.24102102437287e-09
"84" 20078 1.15605363809123e-07 4.3531973188835e-07 1.79185910814273e-08 3.14362993295983e-08 2.25700031617056e-07 6.56032776243957e-08 2.13041143349044e-08 9.26529376390284e-09
"85" 20079 1.13929144134201e-07 4.33857554388198e-07 1.78987183330404e-08 3.13827926316663e-08 2.24863611892651e-07 6.55894929027875e-08 2.13323428067384e-08 9.28956650343281e-09
"86" 20080 1.12252924459279e-07 4.32395376888047e-07 1.78788455846536e-08 3.13292859337343e-08 2.24027192168245e-07 6.55757081811793e-08 2.13605712785724e-08 9.31383924296277e-09
"87" 20081 1.11031049305847e-07 4.30342489393068e-07 1.78200659433511e-08 3.1598793428585e-08 2.23285777302217e-07 6.53947768412843e-08 2.1378757273244e-08 9.44185177456933e-09
"88" 20082 1.09509511297444e-07 4.28230395387474e-07 1.78153699350329e-08 3.15109089278775e-08 2.22455223523306e-07 6.52229610792691e-08 2.13444202689741e-08 9.43270792350758e-09
"89" 20083 1.08147628846694e-07 4.2606011367359e-07 1.79164828140905e-08 3.15710215078372e-08 2.21779897473475e-07 6.50497650995534e-08 2.13161452629281e-08 9.40710502196975e-09
"90" 20084 1.06785746395944e-07 4.23889831959706e-07 1.80175956931481e-08 3.1631134087797e-08 2.21104571423644e-07 6.48765691198378e-08 2.1287870256882e-08 9.38150212043192e-09
"91" 20085 1.05423863945194e-07 4.21719550245823e-07 1.81187085722057e-08 3.16912466677568e-08 2.20429245373814e-07 6.47033731401221e-08 2.12595952508359e-08 9.35589921889409e-09
"92" 20086 1.05763152465264e-07 4.18848977728582e-07 1.77673156037055e-08 3.16215870044113e-08 2.19151351237423e-07 6.45439618820147e-08 2.11766835113497e-08 9.31283989238459e-09
"93" 20087 1.06102440985333e-07 4.15978405211341e-07 1.74159226352054e-08 3.15519273410659e-08 2.17873457101033e-07 6.43845506239072e-08 2.10937717718635e-08 9.26978056587509e-09
"94" 20088 1.06555284499807e-07 4.15188318483102e-07 1.75704684080429e-08 3.1792318824312e-08 2.17929261932373e-07 6.43778644875911e-08 2.11011552271979e-08 9.26878299377126e-09
"95" 20089 1.07008128014282e-07 4.14398231754863e-07 1.77250141808805e-08 3.20327103075581e-08 2.17985066763712e-07 6.43711783512749e-08 2.11085386825324e-08 9.26778542166742e-09
"96" 20090 1.07460971528756e-07 4.13608145026624e-07 1.7879559953718e-08 3.22731017908042e-08 2.18040871595052e-07 6.43644922149587e-08 2.11159221378669e-08 9.26678784956359e-09
"97" 20091 1.0791381504323e-07 4.12818058298385e-07 1.80341057265556e-08 3.25134932740503e-08 2.18096676426391e-07 6.43578060786426e-08 2.11233055932014e-08 9.26579027745975e-09
"98" 20092 1.08366658557704e-07 4.12027971570146e-07 1.81886514993931e-08 3.27538847572963e-08 2.18152481257731e-07 6.43511199423264e-08 2.11306890485359e-08 9.26479270535592e-09
"99" 20093 1.08819502072178e-07 4.11237884841907e-07 1.83431972722307e-08 3.29942762405424e-08 2.18208286089071e-07 6.43444338060103e-08 2.11380725038703e-08 9.26379513325208e-09
"100" 20094 1.09272345586652e-07 4.10447798113667e-07 1.84977430450682e-08 3.32346677237885e-08 2.1826409092041e-07 6.43377476696941e-08 2.11454559592048e-08 9.26279756114825e-09
"101" 20095 1.09262234123939e-07 4.09659415478002e-07 1.85069347477304e-08 3.36834054148839e-08 2.18232591570769e-07 6.43276345855799e-08 2.11446332552114e-08 9.26196628399643e-09
"102" 20096 1.09238253054202e-07 4.09009374692164e-07 1.84902603650523e-08 3.36623734052338e-08 2.18127302727534e-07 6.44508359792552e-08 2.11436614025828e-08 9.27243990184952e-09
"103" 20097 1.09250059448572e-07 4.08245576302651e-07 1.84738001289266e-08 3.37552861342814e-08 2.1847973493308e-07 6.44749768583394e-08 2.11445354137878e-08 9.2716086246977e-09
"104" 20098 1.09261865842943e-07 4.07481777913138e-07 1.8457339892801e-08 3.3848198863329e-08 2.18832167138626e-07 6.44991177374236e-08 2.11454094249928e-08 9.27077734754588e-09
"105" 20099 1.09273672237313e-07 4.06717979523625e-07 1.84408796566753e-08 3.39411115923766e-08 2.19184599344172e-07 6.45232586165077e-08 2.11462834361978e-08 9.26994607039406e-09
"106" 20100 1.09285478631683e-07 4.05954181134112e-07 1.84244194205496e-08 3.40340243214242e-08 2.19537031549717e-07 6.45473994955919e-08 2.11471574474028e-08 9.26911479324224e-09
"107" 20101 1.09297285026053e-07 4.05190382744599e-07 1.8407959184424e-08 3.41269370504718e-08 2.19889463755263e-07 6.45715403746761e-08 2.11480314586078e-08 9.26828351609042e-09
"108" 20102 1.09309091420424e-07 4.04426584355086e-07 1.83914989482983e-08 3.42198497795194e-08 2.20241895960809e-07 6.45956812537602e-08 2.11489054698128e-08 9.26745223893861e-09
"109" 20103 1.09320897814794e-07 4.03662785965573e-07 1.83750387121727e-08 3.4312762508567e-08 2.20594328166355e-07 6.46198221328444e-08 2.11497794810177e-08 9.26662096178679e-09
"110" 20104 1.09332704209164e-07 4.0289898757606e-07 1.8358578476047e-08 3.44056752376146e-08 2.20946760371901e-07 6.46439630119286e-08 2.11506534922227e-08 9.26578968463497e-09
"111" 20105 1.09344510603535e-07 4.02135189186547e-07 1.83421182399214e-08 3.44985879666622e-08 2.21299192577447e-07 6.46681038910127e-08 2.11515275034277e-08 9.26495840748315e-09
"112" 20106 1.09356316997905e-07 4.01371390797034e-07 1.83256580037957e-08 3.45915006957099e-08 2.21651624782992e-07 6.46922447700969e-08 2.11524015146327e-08 9.26412713033133e-09
"113" 20107 1.09368123392275e-07 4.00607592407521e-07 1.830919776767e-08 3.46844134247575e-08 2.22004056988538e-07 6.4716385649181e-08 2.11532755258377e-08 9.26329585317951e-09
"114" 20108 1.09410179370439e-07 4.00481760812423e-07 1.82518383926756e-08 3.46739712367516e-08 2.21716625659309e-07 6.46827464807511e-08 2.11516044642451e-08 9.25780970062908e-09
"115" 20109 1.08583753167016e-07 3.98337767437265e-07 1.78961638763839e-08 3.47753868769996e-08 2.22179974469761e-07 6.46827464807511e-08 2.11382616251099e-08 9.24866578369792e-09
"116" 20110 1.08386369692934e-07 3.97045850587984e-07 1.76377323853692e-08 3.47026608198626e-08 2.22417406921303e-07 6.4336058113995e-08 2.11194116210792e-08 9.23736088869301e-09
"117" 20111 1.08188986218852e-07 3.95753933738703e-07 1.73793008943546e-08 3.46299347627255e-08 2.22654839372846e-07 6.39893697472389e-08 2.11005616170485e-08 9.22605599368811e-09
"118" 20112 1.0799160274477e-07 3.94462016889421e-07 1.712086940334e-08 3.45572087055884e-08 2.22892271824389e-07 6.36426813804829e-08 2.10817116130178e-08 9.2147510986832e-09
"119" 20113 1.07794219270689e-07 3.9317010004014e-07 1.68624379123254e-08 3.44844826484514e-08 2.23129704275932e-07 6.32959930137268e-08 2.10628616089871e-08 9.2034462036783e-09
"120" 20114 1.07596835796607e-07 3.91878183190859e-07 1.66040064213107e-08 3.44117565913143e-08 2.23367136727474e-07 6.29493046469707e-08 2.10440116049564e-08 9.1921413086734e-09
"121" 20115 1.07399452322525e-07 3.90586266341578e-07 1.63455749302961e-08 3.43390305341773e-08 2.23604569179017e-07 6.26026162802147e-08 2.10251616009257e-08 9.18083641366849e-09
"122" 20116 1.07202068848443e-07 3.89294349492297e-07 1.60871434392815e-08 3.42663044770402e-08 2.2384200163056e-07 6.22559279134586e-08 2.1006311596895e-08 9.16953151866359e-09
"123" 20117 1.07004685374361e-07 3.88002432643015e-07 1.58287119482669e-08 3.41935784199031e-08 2.24079434082103e-07 6.19092395467025e-08 2.09874615928643e-08 9.15822662365869e-09
"124" 20118 1.07248339020383e-07 3.88414151826273e-07 1.55782591238697e-08 3.40999092666996e-08 2.27680239067222e-07 6.15192129927124e-08 2.09708792449671e-08 9.15091181946086e-09
"125" 20119 1.08852702073982e-07 3.90152265246017e-07 1.53362878689808e-08 3.39972218602184e-08 2.28898938280949e-07 6.14033829952008e-08 2.10584175765362e-08 9.21857575084073e-09
"126" 20120 1.08918510205379e-07 3.90362508999861e-07 1.51320035546736e-08 3.38855448435235e-08 2.30273486651068e-07 6.23723129064387e-08 2.13283617349751e-08 9.23802751762832e-09
"127" 20121 1.088639171991e-07 3.90747835927782e-07 1.5185295528429e-08 3.38944334860495e-08 2.30691087178064e-07 6.35494268296786e-08 2.15641854525975e-08 9.26063803220176e-09
"128" 20122 1.09144158926699e-07 3.92152490413031e-07 1.52301791592041e-08 3.39483952555392e-08 2.32193301125286e-07 6.4105961610734e-08 2.12525930223721e-08 9.20012247832885e-09
"129" 20123 1.09424400654298e-07 3.9355714489828e-07 1.52750627899792e-08 3.4002357025029e-08 2.33695515072507e-07 6.46624963917894e-08 2.09410005921467e-08 9.13960692445595e-09
"130" 20124 1.09704642381897e-07 3.94961799383529e-07 1.53199464207544e-08 3.40563187945187e-08 2.35197729019729e-07 6.52190311728447e-08 2.06294081619213e-08 9.07909137058305e-09
"131" 20125 1.09984884109496e-07 3.96366453868778e-07 1.53648300515295e-08 3.41102805640085e-08 2.3669994296695e-07 6.57755659539001e-08 2.03178157316959e-08 9.01857581671015e-09
"132" 20126 1.10265125837095e-07 3.97771108354027e-07 1.54097136823047e-08 3.41642423334983e-08 2.38202156914172e-07 6.63321007349554e-08 2.00062233014705e-08 8.95806026283725e-09
"133" 20127 1.10545367564693e-07 3.99175762839275e-07 1.54545973130798e-08 3.4218204102988e-08 2.39704370861393e-07 6.68886355160108e-08 1.96946308712451e-08 8.89754470896435e-09
"134" 20128 1.10825609292292e-07 4.00580417324524e-07 1.5499480943855e-08 3.42721658724778e-08 2.41206584808615e-07 6.74451702970662e-08 1.93830384410197e-08 8.83702915509145e-09
"135" 20129 1.11105851019891e-07 4.01985071809773e-07 1.55443645746301e-08 3.43261276419676e-08 2.42708798755836e-07 6.80017050781215e-08 1.90714460107942e-08 8.77651360121854e-09
"136" 20130 1.10482752407846e-07 3.99472956741166e-07 1.55931691535885e-08 3.4326549535605e-08 2.44142542048619e-07 6.93429824746702e-08 1.93619368884622e-08 8.73411945451711e-09
"137" 20131 1.10678168149533e-07 4.00308720223737e-07 1.56041361891357e-08 3.44016035852645e-08 2.44653101377789e-07 7.06769369600155e-08 1.9643326714991e-08 8.76520864034422e-09
"138" 20132 1.1087358389122e-07 4.01144483706308e-07 1.5615103224683e-08 3.44766576349241e-08 2.45163660706958e-07 7.20108914453607e-08 1.99247165415199e-08 8.79629782617133e-09
"139" 20133 1.11068999632907e-07 4.01980247188879e-07 1.56260702602302e-08 3.45517116845836e-08 2.45674220036128e-07 7.33448459307059e-08 2.02061063680487e-08 8.82738701199844e-09
"140" 20134 1.11264415374593e-07 4.0281601067145e-07 1.56370372957775e-08 3.46267657342432e-08 2.46184779365297e-07 7.46788004160512e-08 2.04874961945775e-08 8.85847619782555e-09
"141" 20135 1.1145983111628e-07 4.03651774154021e-07 1.56480043313247e-08 3.47018197839028e-08 2.46695338694467e-07 7.60127549013964e-08 2.07688860211064e-08 8.88956538365266e-09
"142" 20136 1.11655246857967e-07 4.04487537636591e-07 1.56589713668719e-08 3.47768738335623e-08 2.47205898023637e-07 7.73467093867417e-08 2.10502758476352e-08 8.92065456947977e-09
"143" 20137 1.11850662599654e-07 4.05323301119162e-07 1.56699384024192e-08 3.48519278832219e-08 2.47716457352806e-07 7.86806638720869e-08 2.1331665674164e-08 8.95174375530688e-09
"144" 20138 1.12046078341341e-07 4.06159064601733e-07 1.56809054379664e-08 3.49269819328815e-08 2.48227016681976e-07 8.00146183574322e-08 2.16130555006928e-08 8.98283294113399e-09
"145" 20139 1.12241494083028e-07 4.06994828084304e-07 1.56918724735137e-08 3.5002035982541e-08 2.48737576011146e-07 8.13485728427774e-08 2.18944453272217e-08 9.0139221269611e-09
"146" 20140 1.12436909824715e-07 4.07830591566875e-07 1.57028395090609e-08 3.50770900322006e-08 2.49248135340315e-07 8.26825273281227e-08 2.21758351537505e-08 9.04501131278821e-09
"147" 20141 1.12495479215894e-07 4.08044285398817e-07 1.56722718823711e-08 3.5292225918028e-08 2.48534900471294e-07 8.31702952703574e-08 2.23204061429222e-08 9.19879297501519e-09
"148" 20142 1.12708593873224e-07 4.10865607735538e-07 1.56331536094187e-08 3.53762695779012e-08 2.47479881821887e-07 8.31346924433027e-08 2.23305094732953e-08 9.25365548856086e-09
"149" 20143 1.12921708530553e-07 4.13686930072259e-07 1.55940353364662e-08 3.54603132377744e-08 2.46424863172481e-07 8.3099089616248e-08 2.23406128036684e-08 9.30851800210652e-09
"150" 20144 1.13134823187882e-07 4.16508252408979e-07 1.55549170635138e-08 3.55443568976477e-08 2.45369844523075e-07 8.30634867891932e-08 2.23507161340415e-08 9.36338051565219e-09
"151" 20145 1.11941094666063e-07 4.18437990942342e-07 1.55549170635138e-08 3.56120140292766e-08 2.45385376608399e-07 8.29454423023041e-08 2.22816364408086e-08 9.38333057447105e-09
"152" 20146 1.10747366144245e-07 4.20367729475705e-07 1.55549170635138e-08 3.56796711609055e-08 2.45400908693723e-07 8.2827397815415e-08 2.22125567475756e-08 9.40328063328991e-09
"153" 20147 1.11066349898667e-07 4.23815673430151e-07 1.55585520218744e-08 3.57602476571662e-08 2.43510172340993e-07 8.28167969682431e-08 2.2227796757756e-08 9.45448571180195e-09
"154" 20148 1.11385333653089e-07 4.27263617384597e-07 1.55621869802351e-08 3.58408241534268e-08 2.41619435988262e-07 8.28061961210711e-08 2.22430367679364e-08 9.50569079031399e-09
"155" 20149 1.11704317407511e-07 4.30711561339044e-07 1.55658219385957e-08 3.59214006496874e-08 2.39728699635532e-07 8.27955952738992e-08 2.22582767781168e-08 9.55689586882604e-09
"156" 20150 1.12023301161933e-07 4.3415950529349e-07 1.55694568969564e-08 3.6001977145948e-08 2.37837963282802e-07 8.27849944267272e-08 2.22735167882971e-08 9.60810094733808e-09
"157" 20151 1.12342284916356e-07 4.37607449247936e-07 1.5573091855317e-08 3.60825536422086e-08 2.35947226930072e-07 8.27743935795552e-08 2.22887567984775e-08 9.65930602585012e-09
"158" 20152 1.12661268670778e-07 4.41055393202383e-07 1.55767268136776e-08 3.61631301384693e-08 2.34056490577342e-07 8.27637927323833e-08 2.23039968086579e-08 9.71051110436216e-09
"159" 20153 1.12657548482454e-07 4.4187825345833e-07 1.55927601399562e-08 3.62034206540277e-08 2.32272770346456e-07 8.27716347604886e-08 2.23082385966539e-08 9.70718619336315e-09
"160" 20154 1.1265382829413e-07 4.42701113714277e-07 1.56087934662347e-08 3.62437111695861e-08 2.30489050115571e-07 8.27794767885938e-08 2.23124803846499e-08 9.70386128236414e-09
"161" 20155 1.12650108105807e-07 4.43523973970225e-07 1.56248267925133e-08 3.62840016851445e-08 2.28705329884685e-07 8.27873188166991e-08 2.2316722172646e-08 9.70053637136512e-09
"162" 20156 1.12646387917483e-07 4.44346834226172e-07 1.56408601187918e-08 3.6324292200703e-08 2.269216096538e-07 8.27951608448044e-08 2.2320963960642e-08 9.69721146036611e-09
"163" 20157 1.12642667729159e-07 4.45169694482119e-07 1.56568934450704e-08 3.63645827162614e-08 2.25137889422914e-07 8.28030028729096e-08 2.2325205748638e-08 9.6938865493671e-09
"164" 20158 1.12638947540835e-07 4.45992554738066e-07 1.56729267713489e-08 3.64048732318199e-08 2.23354169192029e-07 8.28108449010149e-08 2.2329447536634e-08 9.69056163836809e-09
"165" 20159 1.12635227352512e-07 4.46815414994014e-07 1.56889600976275e-08 3.64451637473783e-08 2.21570448961143e-07 8.28186869291202e-08 2.23336893246301e-08 9.68723672736907e-09
"166" 20160 1.12633529456731e-07 4.47668304353604e-07 1.56893883907324e-08 3.64792838791151e-08 2.20103053716196e-07 8.28069505539438e-08 2.23459576967134e-08 9.69638077603908e-09
"167" 20161 1.1263183156095e-07 4.48521193713195e-07 1.56898166838374e-08 3.65134040108519e-08 2.18635658471249e-07 8.27952141787673e-08 2.23582260687968e-08 9.70552482470908e-09
"168" 20162 1.12630133665168e-07 4.49374083072786e-07 1.56902449769423e-08 3.65475241425887e-08 2.17168263226301e-07 8.27834778035909e-08 2.23704944408802e-08 9.71466887337908e-09
"169" 20163 1.12628435769387e-07 4.50226972432376e-07 1.56906732700472e-08 3.65816442743255e-08 2.15700867981354e-07 8.27717414284145e-08 2.23827628129636e-08 9.72381292204908e-09
"170" 20164 1.12626737873606e-07 4.51079861791967e-07 1.56911015631522e-08 3.66157644060624e-08 2.14233472736407e-07 8.27600050532381e-08 2.2395031185047e-08 9.73295697071909e-09
"171" 20165 1.12625039977825e-07 4.51932751151558e-07 1.56915298562571e-08 3.66498845377992e-08 2.12766077491459e-07 8.27482686780617e-08 2.24072995571304e-08 9.74210101938909e-09
"172" 20166 1.12623342082044e-07 4.52785640511148e-07 1.5691958149362e-08 3.6684004669536e-08 2.11298682246512e-07 8.27365323028853e-08 2.24195679292138e-08 9.75124506805909e-09
"173" 20167 1.12624623064929e-07 4.53703991042565e-07 1.56496332111539e-08 3.62721717247224e-08 2.11053564338476e-07 8.27071168590295e-08 2.23170670041284e-08 9.72298283054683e-09
"174" 20168 1.12536733396006e-07 4.54065338724825e-07 1.55532357060241e-08 3.58399290488066e-08 2.1109534050841e-07 8.24953898575783e-08 2.227639535797e-08 9.71001518363003e-09
"175" 20169 1.12216051745802e-07 4.52887054965747e-07 1.55376306728504e-08 3.58564240639862e-08 2.11552760691013e-07 8.23534052210633e-08 2.22451182872217e-08 9.71915923230003e-09
"176" 20170 1.11895370095599e-07 4.51708771206668e-07 1.55220256396768e-08 3.58729190791658e-08 2.12010180873616e-07 8.22114205845482e-08 2.22138412164733e-08 9.72830328097004e-09
"177" 20171 1.11574688445396e-07 4.50530487447589e-07 1.55064206065032e-08 3.58894140943455e-08 2.12467601056219e-07 8.20694359480332e-08 2.21825641457249e-08 9.73744732964004e-09
"178" 20172 1.11254006795193e-07 4.49352203688511e-07 1.54908155733296e-08 3.59059091095251e-08 2.12925021238822e-07 8.19274513115181e-08 2.21512870749766e-08 9.74659137831004e-09
"179" 20173 1.10933325144989e-07 4.48173919929432e-07 1.5475210540156e-08 3.59224041247047e-08 2.13382441421426e-07 8.1785466675003e-08 2.21200100042282e-08 9.75573542698004e-09
"180" 20174 1.10612643494786e-07 4.46995636170353e-07 1.54596055069824e-08 3.59388991398843e-08 2.13839861604029e-07 8.1643482038488e-08 2.20887329334798e-08 9.76487947565005e-09
"181" 20175 1.10291961844583e-07 4.45817352411275e-07 1.54440004738088e-08 3.59553941550639e-08 2.14297281786632e-07 8.15014974019729e-08 2.20574558627314e-08 9.77402352432005e-09
"182" 20176 1.10224595181897e-07 4.43726973248144e-07 1.5464378891602e-08 3.60373267962853e-08 2.14302697332231e-07 8.14786927803514e-08 2.202131952884e-08 9.79613521990685e-09
"183" 20177 1.09926518138287e-07 4.41629632371309e-07 1.54558973220938e-08 3.60177187213632e-08 2.14468611092844e-07 8.133688850951e-08 2.19755064298748e-08 9.79330899615563e-09
"184" 20178 1.09628441094677e-07 4.39532291494475e-07 1.54474157525856e-08 3.5998110646441e-08 2.14634524853458e-07 8.11950842386685e-08 2.19296933309095e-08 9.7904827724044e-09
"185" 20179 1.09330364051066e-07 4.3743495061764e-07 1.54389341830775e-08 3.59785025715189e-08 2.14800438614071e-07 8.1053279967827e-08 2.18838802319443e-08 9.78765654865318e-09
"186" 20180 1.09274558262087e-07 4.36778903731382e-07 1.54037327085347e-08 3.59814468738065e-08 2.14810119974803e-07 8.08310917573081e-08 2.18380671329791e-08 9.75922781858064e-09
"187" 20181 1.09269178133969e-07 4.35154526386145e-07 1.5368531233992e-08 3.59243599904703e-08 2.14513492600597e-07 8.02291374724086e-08 2.16946571176756e-08 9.72315103571204e-09
"188" 20182 1.10078226854387e-07 4.33561923663924e-07 1.53364645814349e-08 3.61120840282029e-08 2.15690817691065e-07 7.99008512533605e-08 2.16142600243817e-08 9.69904452526467e-09
"189" 20183 1.10063882810196e-07 4.31981581936411e-07 1.54223855045878e-08 3.61200761321822e-08 2.1526378473401e-07 7.93007539591597e-08 2.14746908853806e-08 9.66463036256912e-09
"190" 20184 1.10049538766005e-07 4.30401240208899e-07 1.55083064277406e-08 3.61280682361614e-08 2.14836751776955e-07 7.8700656664959e-08 2.13351217463796e-08 9.63021619987358e-09
"191" 20185 1.10035194721814e-07 4.28820898481386e-07 1.55942273508934e-08 3.61360603401406e-08 2.144097188199e-07 7.81005593707582e-08 2.11955526073786e-08 9.59580203717804e-09
"192" 20186 1.10020850677623e-07 4.27240556753873e-07 1.56801482740463e-08 3.61440524441199e-08 2.13982685862845e-07 7.75004620765575e-08 2.10559834683775e-08 9.56138787448250e-09
"193" 20187 1.10006506633433e-07 4.25660215026361e-07 1.57660691971991e-08 3.61520445480991e-08 2.13555652905789e-07 7.69003647823567e-08 2.09164143293765e-08 9.52697371178695e-09
"194" 20188 1.09992162589242e-07 4.24079873298848e-07 1.58519901203519e-08 3.61600366520784e-08 2.13128619948734e-07 7.6300267488156e-08 2.07768451903754e-08 9.49255954909141e-09
"195" 20189 1.10007056982573e-07 4.23634715661418e-07 1.59269440079575e-08 3.62275491344602e-08 2.12008078392654e-07 7.6259263064619e-08 2.07806860666779e-08 9.49422216926447e-09
"196" 20190 1.09959231243469e-07 4.22602067346411e-07 1.60156488362924e-08 3.62941123270233e-08 2.09655526203426e-07 7.6094516150386e-08 2.07670192766665e-08 9.49671600071992e-09
"197" 20191 1.09911405504365e-07 4.21569419031404e-07 1.61043536646274e-08 3.63606755195864e-08 2.07302974014197e-07 7.5929769236153e-08 2.07533524866551e-08 9.49920983217538e-09
"198" 20192 1.0986357976526e-07 4.20536770716397e-07 1.61930584929623e-08 3.64272387121495e-08 2.04950421824969e-07 7.576502232192e-08 2.07396856966437e-08 9.50170366363083e-09
"199" 20193 1.09815754026156e-07 4.1950412240139e-07 1.62817633212972e-08 3.64938019047127e-08 2.02597869635741e-07 7.5600275407687e-08 2.07260189066324e-08 9.50419749508629e-09
"200" 20194 1.09767928287052e-07 4.18471474086383e-07 1.63704681496321e-08 3.65603650972758e-08 2.00245317446512e-07 7.5435528493454e-08 2.0712352116621e-08 9.50669132654174e-09
"201" 20195 1.09720102547948e-07 4.17438825771376e-07 1.6459172977967e-08 3.66269282898389e-08 1.97892765257284e-07 7.5270781579221e-08 2.06986853266096e-08 9.5091851579972e-09
"202" 20196 1.09668638460741e-07 4.17775794476865e-07 1.65261468156973e-08 3.70349279130658e-08 1.95592481856636e-07 7.51125607994153e-08 2.06834453164292e-08 9.51167898945265e-09
"203" 20197 1.10066297699685e-07 4.16919185648447e-07 1.64937292463367e-08 3.70560201932356e-08 1.93988684352813e-07 7.50371126732812e-08 2.07070310885736e-08 9.56903592727856e-09
"204" 20198 1.10463956938628e-07 4.1606257682003e-07 1.64613116769761e-08 3.70771124734054e-08 1.92384886848991e-07 7.49616645471471e-08 2.0730616860718e-08 9.62639286510446e-09
"205" 20199 1.10861616177572e-07 4.15205967991612e-07 1.64288941076154e-08 3.70982047535752e-08 1.90781089345168e-07 7.48862164210131e-08 2.07542026328624e-08 9.68374980293037e-09
"206" 20200 1.11259275416516e-07 4.14349359163194e-07 1.63964765382548e-08 3.7119297033745e-08 1.89177291841346e-07 7.4810768294879e-08 2.07777884050068e-08 9.74110674075627e-09
"207" 20201 1.11656934655459e-07 4.13492750334777e-07 1.63640589688942e-08 3.71403893139148e-08 1.87573494337523e-07 7.4735320168745e-08 2.08013741771512e-08 9.79846367858218e-09
"208" 20202 1.1210605798161e-07 4.11400606920024e-07 1.63720376355117e-08 3.70579624544325e-08 1.88085337709973e-07 7.46001470839224e-08 2.08134934005994e-08 9.85565438732549e-09
"209" 20203 1.12561179985204e-07 4.11527893347675e-07 1.63226569271347e-08 3.70581914824071e-08 1.88474096515764e-07 7.46829197375941e-08 2.0852915777465e-08 9.91184752396496e-09
"210" 20204 1.12840590851135e-07 4.11503808320793e-07 1.62764884170447e-08 3.70703544228829e-08 1.881771217209e-07 7.46439229329197e-08 2.08935617700176e-08 9.95640297808724e-09
"211" 20205 1.13120001717066e-07 4.1147972329391e-07 1.62303199069548e-08 3.70825173633586e-08 1.87880146926037e-07 7.46049261282453e-08 2.09342077625702e-08 1.00009584322095e-08
"212" 20206 1.13399412582997e-07 4.11455638267028e-07 1.61841513968648e-08 3.70946803038344e-08 1.87583172131173e-07 7.45659293235709e-08 2.09748537551228e-08 1.00455138863318e-08
"213" 20207 1.13678823448928e-07 4.11431553240145e-07 1.61379828867749e-08 3.71068432443102e-08 1.8728619733631e-07 7.45269325188965e-08 2.10154997476754e-08 1.00900693404541e-08
"214" 20208 1.13958234314859e-07 4.11407468213263e-07 1.60918143766849e-08 3.7119006184786e-08 1.86989222541446e-07 7.4487935714222e-08 2.1056145740228e-08 1.01346247945764e-08
"215" 20209 1.1423764518079e-07 4.1138338318638e-07 1.6045645866595e-08 3.71311691252618e-08 1.86692247746582e-07 7.44489389095476e-08 2.10967917327806e-08 1.01791802486986e-08
"216" 20210 1.14361390514005e-07 4.11298719903003e-07 1.59923538928396e-08 3.71207796885279e-08 1.87291584238844e-07 7.48727222899531e-08 2.11515519612502e-08 1.0203286759146e-08
"217" 20211 1.1448513584722e-07 4.11214056619626e-07 1.59390619190842e-08 3.7110390251794e-08 1.87890920731106e-07 7.52965056703586e-08 2.12063121897198e-08 1.02273932695934e-08
"218" 20212 1.14608881180435e-07 4.1112939333625e-07 1.58857699453288e-08 3.71000008150602e-08 1.88490257223368e-07 7.57202890507641e-08 2.12610724181894e-08 1.02514997800407e-08
"219" 20213 1.14732626513649e-07 4.11044730052873e-07 1.58324779715734e-08 3.70896113783263e-08 1.8908959371563e-07 7.61440724311695e-08 2.1315832646659e-08 1.02756062904881e-08
"220" 20214 1.14856371846864e-07 4.10960066769496e-07 1.5779185997818e-08 3.70792219415924e-08 1.89688930207891e-07 7.6567855811575e-08 2.13705928751286e-08 1.02997128009355e-08
"221" 20215 1.14980117180079e-07 4.10875403486119e-07 1.57258940240626e-08 3.70688325048586e-08 1.90288266700153e-07 7.69916391919805e-08 2.14253531035982e-08 1.03238193113829e-08
"222" 20216 1.15103862513294e-07 4.10790740202742e-07 1.56726020503072e-08 3.70584430681247e-08 1.90887603192415e-07 7.7415422572386e-08 2.14801133320678e-08 1.03479258218302e-08
"223" 20217 1.15496773813482e-07 4.10686729930558e-07 1.56200215929637e-08 3.70935968684077e-08 1.90335668848216e-07 7.75268798334939e-08 2.15788873298811e-08 1.03446007790924e-08
"224" 20218 1.1588968511367e-07 4.10582719658374e-07 1.55674411356201e-08 3.71287506686907e-08 1.89783734504017e-07 7.76383370946019e-08 2.16776613276943e-08 1.03412757363545e-08
"225" 20219 1.16282596413858e-07 4.1047870938619e-07 1.55148606782766e-08 3.71639044689737e-08 1.89231800159817e-07 7.77497943557098e-08 2.17764353255075e-08 1.03379506936167e-08
"226" 20220 1.16675507714046e-07 4.10374699114006e-07 1.5462280220933e-08 3.71990582692567e-08 1.88679865815618e-07 7.78612516168178e-08 2.18752093233208e-08 1.03346256508788e-08
"227" 20221 1.17068419014234e-07 4.10270688841822e-07 1.54096997635895e-08 3.72342120695397e-08 1.88127931471419e-07 7.79727088779257e-08 2.1973983321134e-08 1.0331300608141e-08
"228" 20222 1.17461330314421e-07 4.10166678569638e-07 1.53571193062459e-08 3.72693658698227e-08 1.8757599712722e-07 7.80841661390337e-08 2.20727573189473e-08 1.03279755654031e-08
"229" 20223 1.17854241614609e-07 4.10062668297454e-07 1.53045388489024e-08 3.73045196701057e-08 1.87024062783021e-07 7.81956234001416e-08 2.21715313167605e-08 1.03246505226653e-08
"230" 20224 1.18247152914797e-07 4.0995865802527e-07 1.52519583915588e-08 3.73396734703888e-08 1.86472128438821e-07 7.83070806612496e-08 2.22703053145737e-08 1.03213254799274e-08
"231" 20225 1.18766036441296e-07 4.08592946777656e-07 1.51883279893353e-08 3.71970255440113e-08 1.84564303749574e-07 7.77139707596925e-08 2.22524898049904e-08 1.03299707096108e-08
"232" 20226 1.18961359666849e-07 4.0788575721656e-07 1.51710153167733e-08 3.72410484134687e-08 1.84993782118994e-07 7.79491815015559e-08 2.23478703724068e-08 1.03386159392942e-08
"233" 20227 1.19446355261451e-07 4.0774953582498e-07 1.51646033695197e-08 3.72642683012505e-08 1.85514867199129e-07 7.81430600587136e-08 2.24140971495727e-08 1.03480923802599e-08
"234" 20228 1.19931350856054e-07 4.07613314433399e-07 1.51581914222661e-08 3.72874881890323e-08 1.86035952279265e-07 7.83369386158713e-08 2.24803239267385e-08 1.03575688212257e-08
"235" 20229 1.20416346450656e-07 4.07477093041818e-07 1.51517794750125e-08 3.73107080768142e-08 1.865570373594e-07 7.8530817173029e-08 2.25465507039043e-08 1.03670452621915e-08
"236" 20230 1.20901342045259e-07 4.07340871650238e-07 1.51453675277589e-08 3.7333927964596e-08 1.87078122439536e-07 7.87246957301868e-08 2.26127774810701e-08 1.03765217031572e-08
"237" 20231 1.21386337639861e-07 4.07204650258657e-07 1.51389555805053e-08 3.73571478523778e-08 1.87599207519671e-07 7.89185742873445e-08 2.2679004258236e-08 1.0385998144123e-08
"238" 20232 1.21871333234464e-07 4.07068428867076e-07 1.51325436332517e-08 3.73803677401596e-08 1.88120292599807e-07 7.91124528445022e-08 2.27452310354018e-08 1.03954745850888e-08
"239" 20233 1.22200360251414e-07 4.08074352580052e-07 1.5174585348153e-08 3.73595044879644e-08 1.88436293442327e-07 7.91465813923242e-08 2.27113623576438e-08 1.04071120041283e-08
"240" 20234 1.22529387268365e-07 4.09080276293029e-07 1.52166270630542e-08 3.73386412357692e-08 1.88752294284848e-07 7.91807099401461e-08 2.26774936798857e-08 1.04187494231678e-08
"241" 20235 1.22838221604087e-07 4.09271257077044e-07 1.52251086325624e-08 3.76664832719814e-08 1.89082152761358e-07 7.93127305043765e-08 2.27132804092952e-08 1.046646316399e-08
"242" 20236 1.2314705593981e-07 4.09462237861059e-07 1.52335902020706e-08 3.79943253081937e-08 1.89412011237868e-07 7.94447510686069e-08 2.27490671387047e-08 1.05141769048122e-08
"243" 20237 1.23455890275532e-07 4.09653218645075e-07 1.52420717715787e-08 3.8322167344406e-08 1.89741869714379e-07 7.95767716328372e-08 2.27848538681142e-08 1.05618906456343e-08
"244" 20238 1.23805646682815e-07 4.08245694523059e-07 1.52153518665442e-08 3.8671858084944e-08 1.89454644328426e-07 7.92708743537662e-08 2.26289797978801e-08 1.05929791068978e-08
"245" 20239 1.24179370519798e-07 4.08629630273622e-07 1.51027110383568e-08 3.8872108236735e-08 1.89599993701605e-07 7.92840223004871e-08 2.26880844287689e-08 1.06386979011206e-08
"246" 20240 1.24553094356781e-07 4.09013566024184e-07 1.49900702101695e-08 3.9072358388526e-08 1.89745343074784e-07 7.92971702472081e-08 2.27471890596577e-08 1.06844166953434e-08
"247" 20241 1.24926818193764e-07 4.09397501774746e-07 1.48774293819821e-08 3.9272608540317e-08 1.89890692447963e-07 7.93103181939291e-08 2.28062936905464e-08 1.07301354895661e-08
"248" 20242 1.25300542030747e-07 4.09781437525308e-07 1.47647885537947e-08 3.9472858692108e-08 1.90036041821142e-07 7.932346614065e-08 2.28653983214352e-08 1.07758542837889e-08
"249" 20243 1.2567426586773e-07 4.1016537327587e-07 1.46521477256073e-08 3.9673108843899e-08 1.90181391194321e-07 7.9336614087371e-08 2.2924502952324e-08 1.08215730780117e-08
"250" 20244 1.26047989704713e-07 4.10549309026432e-07 1.453950689742e-08 3.987335899569e-08 1.903267405675e-07 7.9349762034092e-08 2.29836075832128e-08 1.08672918722344e-08
"251" 20245 1.26421713541696e-07 4.10933244776994e-07 1.44268660692326e-08 4.00736091474811e-08 1.90472089940678e-07 7.93629099808129e-08 2.30427122141016e-08 1.09130106664572e-08
"252" 20246 1.26795437378679e-07 4.11317180527556e-07 1.43142252410452e-08 4.02738592992721e-08 1.90617439313857e-07 7.93760579275339e-08 2.31018168449904e-08 1.095872946068e-08
"253" 20247 1.27169161215662e-07 4.11701116278118e-07 1.42015844128579e-08 4.04741094510631e-08 1.90762788687036e-07 7.93892058742548e-08 2.31609214758792e-08 1.10044482549027e-08
"254" 20248 1.27188323182334e-07 4.0913501135938e-07 1.41837757536943e-08 4.06214435560144e-08 1.90680338616184e-07 7.87549800322321e-08 2.29576915131162e-08 1.09786786631963e-08
"255" 20249 1.27207485149006e-07 4.06568906440641e-07 1.41659670945307e-08 4.07687776609658e-08 1.90597888545331e-07 7.81207541902094e-08 2.27544615503532e-08 1.095290907149e-08
"256" 20250 1.27226647115679e-07 4.04002801521903e-07 1.41481584353671e-08 4.09161117659172e-08 1.90515438474478e-07 7.74865283481866e-08 2.25512315875902e-08 1.09271394797836e-08
"257" 20251 1.27245809082351e-07 4.01436696603165e-07 1.41303497762035e-08 4.10634458708685e-08 1.90432988403626e-07 7.68523025061639e-08 2.23480016248272e-08 1.09013698880772e-08
"258" 20252 1.27264971049024e-07 3.98870591684427e-07 1.41125411170399e-08 4.12107799758199e-08 1.90350538332773e-07 7.62180766641412e-08 2.21447716620642e-08 1.08756002963709e-08
"259" 20253 1.2688641446894e-07 3.95965709351786e-07 1.40971516136766e-08 4.10355006578096e-08 1.8997026549454e-07 7.56614885491228e-08 2.19822807602779e-08 1.08149184475459e-08
"260" 20254 1.27345353924656e-07 3.93045282119686e-07 1.40721462643196e-08 4.08356980583287e-08 1.89818228171103e-07 7.48638426766046e-08 2.17125370576858e-08 1.07425989162038e-08
"261" 20255 1.27804293380373e-07 3.90124854887585e-07 1.40471409149626e-08 4.06358954588477e-08 1.89666190847665e-07 7.40661968040863e-08 2.14427933550938e-08 1.06702793848617e-08
"262" 20256 1.2826323283609e-07 3.87204427655484e-07 1.40221355656057e-08 4.04360928593668e-08 1.89514153524227e-07 7.32685509315681e-08 2.11730496525017e-08 1.05979598535196e-08
"263" 20257 1.28722172291807e-07 3.84284000423384e-07 1.39971302162487e-08 4.02362902598858e-08 1.8936211620079e-07 7.24709050590498e-08 2.09033059499096e-08 1.05256403221775e-08
"264" 20258 1.29181111747524e-07 3.81363573191283e-07 1.39721248668917e-08 4.00364876604049e-08 1.89210078877352e-07 7.16732591865316e-08 2.06335622473176e-08 1.04533207908354e-08
"265" 20259 1.29640051203241e-07 3.78443145959183e-07 1.39471195175348e-08 3.9836685060924e-08 1.89058041553914e-07 7.08756133140133e-08 2.03638185447255e-08 1.03810012594933e-08
"266" 20260 1.30098990658958e-07 3.75522718727082e-07 1.39221141681778e-08 3.9636882461443e-08 1.88906004230477e-07 7.00779674414951e-08 2.00940748421334e-08 1.03086817281511e-08
"267" 20261 1.3090150577637e-07 3.7452604289325e-07 1.38945390601912e-08 3.95249643626696e-08 1.89173544535088e-07 7.00532321314272e-08 2.00097551387201e-08 1.0306188094304e-08
"268" 20262 1.31739029092245e-07 3.74621948835163e-07 1.38849232141976e-08 3.94824498066678e-08 1.8923169807235e-07 6.99901885092009e-08 2.00023460297798e-08 1.02957144764509e-08
"269" 20263 1.32557275392904e-07 3.74731570371261e-07 1.38830732715268e-08 3.94854784876828e-08 1.89356234127421e-07 6.99439644711896e-08 2.00029426243207e-08 1.02774271036745e-08
"270" 20264 1.33375521693563e-07 3.74841191907359e-07 1.3881223328856e-08 3.94885071686978e-08 1.89480770182492e-07 6.98977404331783e-08 2.00035392188615e-08 1.02591397308981e-08
"271" 20265 1.34193767994223e-07 3.74950813443458e-07 1.38793733861852e-08 3.94915358497128e-08 1.89605306237564e-07 6.98515163951669e-08 2.00041358134023e-08 1.02408523581217e-08
"272" 20266 1.35012014294882e-07 3.75060434979556e-07 1.38775234435144e-08 3.94945645307278e-08 1.89729842292635e-07 6.98052923571556e-08 2.00047324079432e-08 1.02225649853453e-08
"273" 20267 1.35000690049468e-07 3.75135206520338e-07 1.40122641614617e-08 4.01298599958665e-08 1.90043309072685e-07 6.99502805024334e-08 2.00488744453158e-08 1.02051087579819e-08
"274" 20268 1.34989365804054e-07 3.75209978061121e-07 1.41470048794089e-08 4.07651554610052e-08 1.90356775852735e-07 7.00952686477111e-08 2.00930164826883e-08 1.01876525306185e-08
"275" 20269 1.34978041558641e-07 3.75284749601903e-07 1.42817455973562e-08 4.14004509261439e-08 1.90670242632785e-07 7.02402567929888e-08 2.01371585200609e-08 1.01701963032551e-08
"276" 20270 1.34966717313227e-07 3.75359521142686e-07 1.44164863153035e-08 4.20357463912826e-08 1.90983709412834e-07 7.03852449382666e-08 2.01813005574335e-08 1.01527400758917e-08
"277" 20271 1.34955393067813e-07 3.75434292683468e-07 1.45512270332508e-08 4.26710418564213e-08 1.91297176192884e-07 7.05302330835443e-08 2.02254425948061e-08 1.01352838485283e-08
"278" 20272 1.34944068822399e-07 3.75509064224251e-07 1.46859677511981e-08 4.33063373215599e-08 1.91610642972934e-07 7.06752212288221e-08 2.02695846321787e-08 1.01178276211649e-08
"279" 20273 1.3492777068585e-07 3.76213864169448e-07 1.48039553269081e-08 4.33288896987696e-08 1.9186695730424e-07 7.06167510724577e-08 2.02701812267195e-08 1.00995402483885e-08
"280" 20274 1.34911472549301e-07 3.76918664114644e-07 1.4921942902618e-08 4.33514420759792e-08 1.92123271635546e-07 7.05582809160933e-08 2.02707778212604e-08 1.00812528756122e-08
"281" 20275 1.34895174412752e-07 3.77623464059841e-07 1.50399304783279e-08 4.33739944531889e-08 1.92379585966852e-07 7.04998107597289e-08 2.02713744158012e-08 1.00629655028358e-08
"282" 20276 1.34878876276203e-07 3.78328264005038e-07 1.51579180540378e-08 4.33965468303985e-08 1.92635900298158e-07 7.04413406033646e-08 2.0271971010342e-08 1.00446781300594e-08
"283" 20277 1.34862578139654e-07 3.79033063950234e-07 1.52759056297478e-08 4.34190992076082e-08 1.92892214629465e-07 7.03828704470002e-08 2.02725676048829e-08 1.0026390757283e-08
"284" 20278 1.34846280003105e-07 3.79737863895431e-07 1.53938932054577e-08 4.34416515848178e-08 1.93148528960771e-07 7.03244002906358e-08 2.02731641994237e-08 1.00081033845066e-08
"285" 20279 1.34829981866556e-07 3.80442663840627e-07 1.55118807811676e-08 4.34642039620275e-08 1.93404843292077e-07 7.02659301342714e-08 2.02737607939645e-08 9.98981601173025e-09
"286" 20280 1.34813683730007e-07 3.81147463785824e-07 1.56298683568776e-08 4.34867563392371e-08 1.93661157623383e-07 7.02074599779071e-08 2.02743573885054e-08 9.97152863895387e-09
"287" 20281 1.34797385593458e-07 3.81852263731021e-07 1.57478559325875e-08 4.35093087164468e-08 1.93917471954689e-07 7.01489898215427e-08 2.02749539830462e-08 9.95324126617749e-09
"288" 20282 1.34781087456909e-07 3.82557063676217e-07 1.58658435082974e-08 4.35318610936564e-08 1.94173786285995e-07 7.00905196651783e-08 2.0275550577587e-08 9.9349538934011e-09
"289" 20283 1.3476478932036e-07 3.83261863621414e-07 1.59838310840074e-08 4.35544134708661e-08 1.94430100617301e-07 7.00320495088139e-08 2.02761471721279e-08 9.91666652062472e-09
"290" 20284 1.34705020786516e-07 3.83378446171986e-07 1.60819362285256e-08 4.34724808296447e-08 1.9450614927494e-07 6.94094236365318e-08 2.01350048129578e-08 9.91350770696947e-09
"291" 20285 1.34692968871482e-07 3.83324289915433e-07 1.61492665160908e-08 4.34185190601549e-08 1.94808973902625e-07 6.86073988865531e-08 1.99317301045909e-08 9.91101407312227e-09
"292" 20286 1.34752737405325e-07 3.8297100606895e-07 1.64044927251075e-08 4.34680930192775e-08 1.94393360331761e-07 6.80544180850064e-08 1.98156536693101e-08 9.92930124829039e-09
"293" 20287 1.34791007959105e-07 3.84106187828269e-07 1.64066300408587e-08 4.3612437589917e-08 1.93949366186438e-07 6.75482134085511e-08 1.96710713455312e-08 9.91849464531675e-09
"294" 20288 1.3480305987414e-07 3.84206458034765e-07 1.64769583801584e-08 4.37825772082605e-08 1.93584268157793e-07 6.76392059527914e-08 1.96446982835299e-08 9.91034803701174e-09
"295" 20289 1.34815111789174e-07 3.84306728241261e-07 1.6547286719458e-08 4.39527168266039e-08 1.93219170129148e-07 6.77301984970318e-08 1.96183252215286e-08 9.90220142870673e-09
"296" 20290 1.34827163704208e-07 3.84406998447757e-07 1.66176150587577e-08 4.41228564449474e-08 1.92854072100503e-07 6.78211910412721e-08 1.95919521595273e-08 9.89405482040172e-09
"297" 20291 1.34839215619243e-07 3.84507268654253e-07 1.66879433980574e-08 4.42929960632909e-08 1.92488974071859e-07 6.79121835855124e-08 1.9565579097526e-08 9.88590821209672e-09
"298" 20292 1.34851267534277e-07 3.84607538860749e-07 1.6758271737357e-08 4.44631356816343e-08 1.92123876043214e-07 6.80031761297527e-08 1.95392060355247e-08 9.87776160379171e-09
"299" 20293 1.34863319449311e-07 3.84707809067245e-07 1.68286000766567e-08 4.46332752999778e-08 1.91758778014569e-07 6.8094168673993e-08 1.95128329735234e-08 9.8696149954867e-09
"300" 20294 1.34875371364346e-07 3.84808079273741e-07 1.68989284159564e-08 4.48034149183212e-08 1.91393679985924e-07 6.81851612182333e-08 1.9486459911522e-08 9.86146838718169e-09
"301" 20295 1.3488742327938e-07 3.84908349480238e-07 1.6969256755256e-08 4.49735545366647e-08 1.91028581957279e-07 6.82761537624736e-08 1.94600868495207e-08 9.85332177887668e-09
"302" 20296 1.34899475194414e-07 3.85008619686734e-07 1.70395850945557e-08 4.51436941550082e-08 1.90663483928635e-07 6.83671463067139e-08 1.94337137875194e-08 9.84517517057167e-09
"303" 20297 1.34911527109449e-07 3.8510888989323e-07 1.71099134338554e-08 4.53138337733516e-08 1.9029838589999e-07 6.84581388509542e-08 1.94073407255181e-08 9.83702856226666e-09
"304" 20298 1.33525310128586e-07 3.85523478713253e-07 1.70917441750834e-08 4.54498366709981e-08 1.90226818855839e-07 6.90776199600352e-08 1.95243776788203e-08 9.72663822362842e-09
"305" 20299 1.32139093147723e-07 3.85938067533277e-07 1.70735749163115e-08 4.55858395686446e-08 1.90155251811688e-07 6.96971010691161e-08 1.96414146321225e-08 9.61624788499019e-09
"306" 20300 1.3075287616686e-07 3.86352656353301e-07 1.70554056575396e-08 4.5721842466291e-08 1.90083684767537e-07 7.0316582178197e-08 1.97584515854246e-08 9.50585754635195e-09
"307" 20301 1.29366659185997e-07 3.86767245173325e-07 1.70372363987677e-08 4.58578453639375e-08 1.90012117723387e-07 7.09360632872779e-08 1.98754885387268e-08 9.39546720771371e-09
"308" 20302 1.27980442205134e-07 3.87181833993349e-07 1.70190671399958e-08 4.5993848261584e-08 1.89940550679236e-07 7.15555443963589e-08 1.9992525492029e-08 9.28507686907548e-09
"309" 20303 1.26594225224271e-07 3.87596422813373e-07 1.70008978812239e-08 4.61298511592304e-08 1.89868983635085e-07 7.21750255054398e-08 2.01095624453312e-08 9.17468653043724e-09
"310" 20304 1.25208008243408e-07 3.88011011633396e-07 1.69827286224519e-08 4.62658540568769e-08 1.89797416590934e-07 7.27945066145207e-08 2.02265993986333e-08 9.064296191799e-09
"311" 20305 1.25220005598295e-07 3.88457749316081e-07 1.70564763903019e-08 4.62786694694295e-08 1.89831183160957e-07 7.33384846471704e-08 2.03146621369255e-08 9.07161106186625e-09
"312" 20306 1.25215882137112e-07 3.88825330596539e-07 1.71300100115995e-08 4.60379404712735e-08 1.88943718699409e-07 7.39126968805709e-08 2.04335449540613e-08 9.07759590166447e-09
"313" 20307 1.25211758675929e-07 3.89192911876997e-07 1.7203543632897e-08 4.57972114731175e-08 1.88056254237862e-07 7.44869091139713e-08 2.05524277711971e-08 9.0835807414627e-09
"314" 20308 1.25207635214747e-07 3.89560493157455e-07 1.72770772541946e-08 4.55564824749615e-08 1.87168789776314e-07 7.50611213473718e-08 2.06713105883329e-08 9.08956558126092e-09
"315" 20309 1.25887634385805e-07 3.93540398621663e-07 1.74352579853928e-08 4.5145613858462e-08 1.86192100442291e-07 7.50697805160379e-08 2.08251317772789e-08 9.14193426335113e-09
"316" 20310 1.26567633556864e-07 3.9752030408587e-07 1.7593438716591e-08 4.47347452419625e-08 1.85215411108268e-07 7.5078439684704e-08 2.0978952966225e-08 9.19430294544134e-09
"317" 20311 1.26757418902104e-07 3.98206942017931e-07 1.7593438716591e-08 4.44946792195224e-08 1.86533357718265e-07 7.5089583245231e-08 2.09853854495371e-08 9.20843439354457e-09
"318" 20312 1.26947204247343e-07 3.98893579949992e-07 1.7593438716591e-08 4.42546131970823e-08 1.87851304328262e-07 7.51007268057579e-08 2.09918179328492e-08 9.22256584164781e-09
"319" 20313 1.27136989592583e-07 3.99580217882053e-07 1.7593438716591e-08 4.40145471746423e-08 1.8916925093826e-07 7.51118703662848e-08 2.09982504161613e-08 9.23669728975104e-09
"320" 20314 1.27326774937822e-07 4.00266855814114e-07 1.7593438716591e-08 4.37744811522022e-08 1.90487197548257e-07 7.51230139268117e-08 2.10046828994735e-08 9.25082873785427e-09
"321" 20315 1.27516560283062e-07 4.00953493746175e-07 1.7593438716591e-08 4.35344151297621e-08 1.91805144158254e-07 7.51341574873387e-08 2.10111153827856e-08 9.2649601859575e-09
"322" 20316 1.27706345628302e-07 4.01640131678236e-07 1.7593438716591e-08 4.3294349107322e-08 1.93123090768252e-07 7.51453010478656e-08 2.10175478660977e-08 9.27909163406073e-09
"323" 20317 1.27896130973541e-07 4.02326769610297e-07 1.7593438716591e-08 4.30542830848819e-08 1.94441037378249e-07 7.51564446083925e-08 2.10239803494098e-08 9.29322308216396e-09
"324" 20318 1.28085916318781e-07 4.03013407542358e-07 1.7593438716591e-08 4.28142170624418e-08 1.95758983988246e-07 7.51675881689195e-08 2.10304128327219e-08 9.3073545302672e-09
"325" 20319 1.28275701664021e-07 4.03700045474419e-07 1.7593438716591e-08 4.25741510400017e-08 1.97076930598244e-07 7.51787317294464e-08 2.1036845316034e-08 9.32148597837043e-09
"326" 20320 1.2846548700926e-07 4.0438668340648e-07 1.7593438716591e-08 4.23340850175616e-08 1.98394877208241e-07 7.51898752899733e-08 2.10432777993461e-08 9.33561742647366e-09
"327" 20321 1.286552723545e-07 4.05073321338541e-07 1.7593438716591e-08 4.20940189951215e-08 1.99712823818238e-07 7.52010188505002e-08 2.10497102826582e-08 9.34974887457689e-09
"328" 20322 1.28845057699739e-07 4.05759959270602e-07 1.7593438716591e-08 4.18539529726814e-08 2.01030770428236e-07 7.52121624110272e-08 2.10561427659703e-08 9.36388032268012e-09
"329" 20323 1.28824919578659e-07 4.0598327545441e-07 1.76027022625233e-08 4.17567563853457e-08 2.0024192477108e-07 7.51891774237321e-08 2.10644980739334e-08 9.36221770250706e-09
"330" 20324 1.28804781457578e-07 4.06206591638217e-07 1.76119658084556e-08 4.165955979801e-08 1.99453079113925e-07 7.51661924364371e-08 2.10728533818965e-08 9.36055508233401e-09
"331" 20325 1.28784643336497e-07 4.06429907822025e-07 1.76212293543879e-08 4.15623632106742e-08 1.98664233456769e-07 7.5143207449142e-08 2.10812086898596e-08 9.35889246216095e-09
"332" 20326 1.28764505215416e-07 4.06653224005832e-07 1.76304929003202e-08 4.14651666233385e-08 1.97875387799613e-07 7.51202224618469e-08 2.10895639978227e-08 9.35722984198789e-09
"333" 20327 1.28744367094335e-07 4.0687654018964e-07 1.76397564462524e-08 4.13679700360028e-08 1.97086542142458e-07 7.50972374745519e-08 2.10979193057858e-08 9.35556722181484e-09
"334" 20328 1.28345091799832e-07 4.04969953065196e-07 1.75791268622791e-08 4.16893041734835e-08 1.97126371653144e-07 7.50742524872568e-08 2.10770951698926e-08 9.35606590906262e-09
"335" 20329 1.27945816505328e-07 4.03063365940752e-07 1.75184972783058e-08 4.20106383109642e-08 1.9716620116383e-07 7.50512674999618e-08 2.10562710339993e-08 9.35656459631041e-09
"336" 20330 1.279378910156e-07 4.02967541453978e-07 1.74513769875197e-08 4.19334928160044e-08 1.97907095783043e-07 7.52707172551986e-08 2.10985206733262e-08 9.35988950730942e-09
"337" 20331 1.27929965525873e-07 4.02871716967203e-07 1.73842566967336e-08 4.18563473210446e-08 1.98647990402256e-07 7.54901670104355e-08 2.11407703126531e-08 9.36321441830843e-09
"338" 20332 1.27922040036145e-07 4.02775892480428e-07 1.73171364059475e-08 4.17792018260848e-08 1.99388885021469e-07 7.57096167656723e-08 2.118301995198e-08 9.36653932930745e-09
"339" 20333 1.27914114546417e-07 4.02680067993654e-07 1.72500161151613e-08 4.1702056331125e-08 2.00129779640682e-07 7.59290665209091e-08 2.1225269591307e-08 9.36986424030646e-09
"340" 20334 1.27906189056689e-07 4.02584243506879e-07 1.71828958243752e-08 4.16249108361652e-08 2.00870674259895e-07 7.6148516276146e-08 2.12675192306339e-08 9.37318915130547e-09
"341" 20335 1.27898263566962e-07 4.02488419020105e-07 1.71157755335891e-08 4.15477653412054e-08 2.01611568879109e-07 7.63679660313828e-08 2.13097688699608e-08 9.37651406230449e-09
"342" 20336 1.27890338077234e-07 4.0239259453333e-07 1.70486552428029e-08 4.14706198462456e-08 2.02352463498322e-07 7.65874157866196e-08 2.13520185092877e-08 9.3798389733035e-09
"343" 20337 1.27882412587506e-07 4.02296770046555e-07 1.69815349520168e-08 4.13934743512858e-08 2.03093358117535e-07 7.68068655418565e-08 2.13942681486147e-08 9.38316388430251e-09
"344" 20338 1.27874487097779e-07 4.02200945559781e-07 1.69144146612307e-08 4.13163288563261e-08 2.03834252736748e-07 7.70263152970933e-08 2.14365177879416e-08 9.38648879530152e-09
"345" 20339 1.27866561608051e-07 4.02105121073006e-07 1.68472943704445e-08 4.12391833613663e-08 2.04575147355961e-07 7.72457650523301e-08 2.14787674272685e-08 9.38981370630054e-09
"346" 20340 1.27858636118323e-07 4.02009296586232e-07 1.67801740796584e-08 4.11620378664065e-08 2.05316041975175e-07 7.7465214807567e-08 2.15210170665954e-08 9.39313861729955e-09
"347" 20341 1.27850710628595e-07 4.01913472099457e-07 1.67130537888723e-08 4.10848923714467e-08 2.06056936594388e-07 7.76846645628038e-08 2.15632667059223e-08 9.39646352829856e-09
"348" 20342 1.27842785138868e-07 4.01817647612682e-07 1.66459334980862e-08 4.10077468764869e-08 2.06797831213601e-07 7.79041143180406e-08 2.16055163452493e-08 9.39978843929757e-09
"349" 20343 1.27722947990369e-07 4.03210934692847e-07 1.66358865924719e-08 4.06938699275564e-08 2.0719718740082e-07 7.81254963780581e-08 2.16254921235433e-08 9.4034458743312e-09
"350" 20344 1.27172010828124e-07 4.01558836171651e-07 1.66171481205705e-08 4.0781573616705e-08 2.07489620590353e-07 7.81511241427687e-08 2.16052437015846e-08 9.3904782274144e-09
"351" 20345 1.26621073665879e-07 3.99906737650454e-07 1.65984096486691e-08 4.08692773058536e-08 2.07782053779887e-07 7.81767519074793e-08 2.15849952796259e-08 9.37751058049759e-09
"352" 20346 1.26411529156467e-07 3.97392191539149e-07 1.65415531765654e-08 4.10478384410614e-08 2.08472178560383e-07 7.86848449284774e-08 2.15849952796259e-08 9.52248183786933e-09
"353" 20347 1.26201984647056e-07 3.94877645427844e-07 1.64846967044616e-08 4.12263995762692e-08 2.0916230334088e-07 7.91929379494755e-08 2.15849952796259e-08 9.66745309524107e-09
"354" 20348 1.25992440137645e-07 3.92363099316539e-07 1.64278402323578e-08 4.1404960711477e-08 2.09852428121376e-07 7.97010309704736e-08 2.15849952796259e-08 9.81242435261281e-09
"355" 20349 1.25782895628233e-07 3.89848553205234e-07 1.63709837602541e-08 4.15835218466847e-08 2.10542552901873e-07 8.02091239914717e-08 2.15849952796259e-08 9.95739560998455e-09
"356" 20350 1.25573351118822e-07 3.87334007093929e-07 1.63141272881503e-08 4.17620829818925e-08 2.11232677682369e-07 8.07172170124698e-08 2.15849952796259e-08 1.01023668673563e-08
"357" 20351 1.2536380660941e-07 3.84819460982624e-07 1.62572708160465e-08 4.19406441171003e-08 2.11922802462866e-07 8.12253100334679e-08 2.15849952796259e-08 1.0247338124728e-08
"358" 20352 1.25154262099999e-07 3.82304914871319e-07 1.62004143439427e-08 4.21192052523081e-08 2.12612927243362e-07 8.1733403054466e-08 2.15849952796259e-08 1.03923093820998e-08
"359" 20353 1.24944717590588e-07 3.79790368760014e-07 1.6143557871839e-08 4.22977663875159e-08 2.13303052023859e-07 8.22414960754641e-08 2.15849952796259e-08 1.05372806394715e-08
"360" 20354 1.24735173081176e-07 3.77275822648709e-07 1.60867013997352e-08 4.24763275227236e-08 2.13993176804355e-07 8.27495890964622e-08 2.15849952796259e-08 1.06822518968432e-08
"361" 20355 1.24525628571765e-07 3.74761276537404e-07 1.60298449276314e-08 4.26548886579314e-08 2.14683301584852e-07 8.32576821174603e-08 2.15849952796259e-08 1.0827223154215e-08
"362" 20356 1.24316084062353e-07 3.72246730426099e-07 1.59729884555277e-08 4.28334497931392e-08 2.15373426365348e-07 8.37657751384585e-08 2.15849952796259e-08 1.09721944115867e-08
"363" 20357 1.24106539552942e-07 3.69732184314794e-07 1.59161319834239e-08 4.3012010928347e-08 2.16063551145845e-07 8.42738681594566e-08 2.15849952796259e-08 1.11171656689585e-08
"364" 20358 1.23896995043531e-07 3.67217638203489e-07 1.58592755113201e-08 4.31905720635547e-08 2.16753675926341e-07 8.47819611804547e-08 2.15849952796259e-08 1.12621369263302e-08
"365" 20359 1.23687450534119e-07 3.64703092092184e-07 1.58024190392164e-08 4.33691331987625e-08 2.17443800706838e-07 8.52900542014528e-08 2.15849952796259e-08 1.14071081837019e-08
"366" 20360 1.23477906024708e-07 3.62188545980879e-07 1.57455625671126e-08 4.35476943339703e-08 2.18133925487334e-07 8.57981472224509e-08 2.15849952796259e-08 1.15520794410737e-08
"367" 20361 1.23268361515296e-07 3.59673999869574e-07 1.56887060950088e-08 4.37262554691781e-08 2.18824050267831e-07 8.6306240243449e-08 2.15849952796259e-08 1.16970506984454e-08
"368" 20362 1.23058817005885e-07 3.57159453758269e-07 1.56318496229051e-08 4.39048166043859e-08 2.19514175048327e-07 8.68143332644471e-08 2.15849952796259e-08 1.18420219558171e-08
"369" 20363 1.22849272496474e-07 3.54644907646964e-07 1.55749931508013e-08 4.40833777395936e-08 2.20204299828824e-07 8.73224262854452e-08 2.15849952796259e-08 1.19869932131889e-08
"370" 20364 1.22639727987062e-07 3.52130361535659e-07 1.55181366786975e-08 4.42619388748014e-08 2.2089442460932e-07 8.78305193064433e-08 2.15849952796259e-08 1.21319644705606e-08
"371" 20365 1.22799397184753e-07 3.51111326296684e-07 1.55043857379682e-08 4.44112227601973e-08 2.2118429687686e-07 8.82887683695648e-08 2.16052437015846e-08 1.22860795789941e-08
"372" 20366 1.22715988582095e-07 3.49874832833996e-07 1.54599953272789e-08 4.52035169703209e-08 2.22942856488964e-07 8.81697577302854e-08 2.14719226976556e-08 1.2244184514757e-08
"373" 20367 1.22586667412581e-07 3.49153779771466e-07 1.55355128949827e-08 4.5533091813107e-08 2.23662966448335e-07 8.83008764661478e-08 2.14186796091439e-08 1.21966370030174e-08
"374" 20368 1.22468076255104e-07 3.47769780132633e-07 1.54767291039067e-08 4.55479097573761e-08 2.2353338376202e-07 8.81173996430381e-08 2.12788491610854e-08 1.22114333015816e-08
"375" 20369 1.22349485097628e-07 3.463857804938e-07 1.54179453128307e-08 4.55627277016452e-08 2.23403801075706e-07 8.79339228199283e-08 2.11390187130269e-08 1.22262296001458e-08
"376" 20370 1.22230893940152e-07 3.45001780854967e-07 1.53591615217548e-08 4.55775456459143e-08 2.23274218389392e-07 8.77504459968186e-08 2.09991882649684e-08 1.224102589871e-08
"377" 20371 1.22112302782676e-07 3.43617781216134e-07 1.53003777306788e-08 4.55923635901834e-08 2.23144635703078e-07 8.75669691737088e-08 2.08593578169099e-08 1.22558221972742e-08
"378" 20372 1.219937116252e-07 3.42233781577301e-07 1.52415939396028e-08 4.56071815344525e-08 2.23015053016764e-07 8.73834923505991e-08 2.07195273688514e-08 1.22706184958384e-08
"379" 20373 1.21875120467723e-07 3.40849781938469e-07 1.51828101485268e-08 4.56219994787216e-08 2.2288547033045e-07 8.72000155274893e-08 2.0579696920793e-08 1.22854147944026e-08
"380" 20374 1.21756529310247e-07 3.39465782299636e-07 1.51240263574508e-08 4.56368174229907e-08 2.22755887644136e-07 8.70165387043796e-08 2.04398664727345e-08 1.23002110929668e-08
"381" 20375 1.21637938152771e-07 3.38081782660803e-07 1.50652425663749e-08 4.56516353672598e-08 2.22626304957822e-07 8.68330618812698e-08 2.0300036024676e-08 1.23150073915309e-08
"382" 20376 1.21519346995295e-07 3.3669778302197e-07 1.50064587752989e-08 4.56664533115289e-08 2.22496722271508e-07 8.66495850581601e-08 2.01602055766175e-08 1.23298036900951e-08
"383" 20377 1.21400755837819e-07 3.35313783383137e-07 1.49476749842229e-08 4.5681271255798e-08 2.22367139585194e-07 8.64661082350503e-08 2.0020375128559e-08 1.23445999886593e-08
"384" 20378 1.21282164680342e-07 3.33929783744304e-07 1.48888911931469e-08 4.56960892000671e-08 2.2223755689888e-07 8.62826314119406e-08 1.98805446805005e-08 1.23593962872235e-08
"385" 20379 1.21234257101017e-07 3.31854805069529e-07 1.47980518155765e-08 4.57124154577918e-08 2.21942447277724e-07 8.63026128904729e-08 1.98800972345949e-08 1.24219063266099e-08
"386" 20380 1.21330792217499e-07 3.30110103476497e-07 1.49379113019156e-08 4.5742376807136e-08 2.21743299724294e-07 8.82289920175278e-08 2.03700332789345e-08 1.25080249796289e-08
"387" 20381 1.21330792217499e-07 3.2964543221076e-07 1.50706473245892e-08 4.58355185641582e-08 2.20902893557234e-07 9.01553711445827e-08 2.08926143853452e-08 1.26091060285558e-08
"388" 20382 1.21330792217499e-07 3.29180760945023e-07 1.52033833472629e-08 4.59286603211804e-08 2.20062487390174e-07 9.20817502716375e-08 2.14151954917559e-08 1.27101870774828e-08
"389" 20383 1.21330792217499e-07 3.28716089679286e-07 1.53361193699366e-08 4.60218020782026e-08 2.19222081223114e-07 9.40081293986924e-08 2.19377765981666e-08 1.28112681264097e-08
"390" 20384 1.21330792217499e-07 3.28251418413549e-07 1.54688553926103e-08 4.61149438352248e-08 2.18381675056054e-07 9.59345085257473e-08 2.24603577045772e-08 1.29123491753367e-08
"391" 20385 1.21079711834867e-07 3.28034773256626e-07 1.54662193237419e-08 4.61106720310406e-08 2.17450990992497e-07 9.58814713197092e-08 2.24521515452494e-08 1.29236540703416e-08
"392" 20386 1.20828631452235e-07 3.27818128099703e-07 1.54635832548735e-08 4.61064002268564e-08 2.16520306928939e-07 9.58284341136711e-08 2.24439453859215e-08 1.29349589653465e-08
"393" 20387 1.20577551069602e-07 3.2760148294278e-07 1.54609471860051e-08 4.61021284226722e-08 2.15589622865382e-07 9.5775396907633e-08 2.24357392265936e-08 1.29462638603514e-08
"394" 20388 1.2032647068697e-07 3.27384837785857e-07 1.54583111171366e-08 4.6097856618488e-08 2.14658938801824e-07 9.5722359701595e-08 2.24275330672657e-08 1.29575687553563e-08
"395" 20389 1.20075390304337e-07 3.27168192628934e-07 1.54556750482682e-08 4.60935848143038e-08 2.13728254738267e-07 9.56693224955569e-08 2.24193269079378e-08 1.29688736503612e-08
"396" 20390 1.19824309921705e-07 3.26951547472011e-07 1.54530389793998e-08 4.60893130101196e-08 2.12797570674709e-07 9.56162852895188e-08 2.24111207486099e-08 1.29801785453661e-08
"397" 20391 1.19573229539073e-07 3.26734902315088e-07 1.54504029105314e-08 4.60850412059354e-08 2.11866886611152e-07 9.55632480834807e-08 2.2402914589282e-08 1.2991483440371e-08
"398" 20392 1.1932214915644e-07 3.26518257158165e-07 1.5447766841663e-08 4.60807694017512e-08 2.10936202547594e-07 9.55102108774427e-08 2.23947084299541e-08 1.30027883353759e-08
"399" 20393 1.19071068773808e-07 3.26301612001242e-07 1.54451307727946e-08 4.6076497597567e-08 2.10005518484037e-07 9.54571736714046e-08 2.23865022706262e-08 1.30140932303808e-08
"400" 20394 1.18819988391175e-07 3.26084966844319e-07 1.54424947039262e-08 4.60722257933828e-08 2.09074834420479e-07 9.54041364653665e-08 2.23782961112983e-08 1.30253981253857e-08
"401" 20395 1.18568908008543e-07 3.25868321687396e-07 1.54398586350578e-08 4.60679539891986e-08 2.08144150356922e-07 9.53510992593284e-08 2.23700899519704e-08 1.30367030203906e-08
"402" 20396 1.1831782762591e-07 3.25651676530473e-07 1.54372225661894e-08 4.60636821850144e-08 2.07213466293364e-07 9.52980620532903e-08 2.23618837926425e-08 1.30480079153955e-08
"403" 20397 1.18066747243278e-07 3.2543503137355e-07 1.5434586497321e-08 4.60594103808302e-08 2.06282782229807e-07 9.52450248472523e-08 2.23536776333146e-08 1.30593128104004e-08
"404" 20398 1.17815666860646e-07 3.25218386216627e-07 1.54319504284526e-08 4.6055138576646e-08 2.05352098166249e-07 9.51919876412142e-08 2.23454714739867e-08 1.30706177054053e-08
"405" 20399 1.17564586478013e-07 3.25001741059704e-07 1.54293143595842e-08 4.60508667724618e-08 2.04421414102692e-07 9.51389504351761e-08 2.23372653146589e-08 1.30819226004102e-08
"406" 20400 1.17313506095381e-07 3.24785095902781e-07 1.54266782907158e-08 4.60465949682776e-08 2.03490730039134e-07 9.5085913229138e-08 2.2329059155331e-08 1.30932274954151e-08
"407" 20401 1.19376990069883e-07 3.23841454072719e-07 1.5417273824759e-08 4.61731622538652e-08 2.03198070304396e-07 9.52586715470904e-08 2.23256191907221e-08 1.30820886318846e-08
"408" 20402 1.21043422678853e-07 3.23573686138592e-07 1.54061561863824e-08 4.63719357196562e-08 2.03152423201437e-07 9.54513909797906e-08 2.23244468822467e-08 1.31075252384704e-08
"409" 20403 1.21555020616776e-07 3.27603197057639e-07 1.55054826664923e-08 4.64236131781829e-08 2.03793149929632e-07 9.54425624355103e-08 2.23210534518499e-08 1.30435188079935e-08
"410" 20404 1.22066618554698e-07 3.31632707976686e-07 1.56048091466023e-08 4.64752906367096e-08 2.04433876657826e-07 9.54337338912301e-08 2.2317660021453e-08 1.29795123775167e-08
"411" 20405 1.2257821649262e-07 3.35662218895733e-07 1.57041356267122e-08 4.65269680952363e-08 2.05074603386021e-07 9.54249053469499e-08 2.23142665910562e-08 1.29155059470399e-08
"412" 20406 1.23089814430543e-07 3.3969172981478e-07 1.58034621068222e-08 4.6578645553763e-08 2.05715330114215e-07 9.54160768026696e-08 2.23108731606594e-08 1.28514995165631e-08
"413" 20407 1.23601412368465e-07 3.43721240733827e-07 1.59027885869321e-08 4.66303230122897e-08 2.06356056842409e-07 9.54072482583894e-08 2.23074797302626e-08 1.27874930860862e-08
"414" 20408 1.24113010306387e-07 3.47750751652874e-07 1.6002115067042e-08 4.66820004708164e-08 2.06996783570604e-07 9.53984197141092e-08 2.23040862998657e-08 1.27234866556094e-08
"415" 20409 1.2462460824431e-07 3.51780262571922e-07 1.6101441547152e-08 4.67336779293432e-08 2.07637510298798e-07 9.53895911698289e-08 2.23006928694689e-08 1.26594802251326e-08
"416" 20410 1.25136206182232e-07 3.55809773490969e-07 1.62007680272619e-08 4.67853553878699e-08 2.08278237026993e-07 9.53807626255487e-08 2.22972994390721e-08 1.25954737946558e-08
"417" 20411 1.25647804120154e-07 3.59839284410016e-07 1.63000945073719e-08 4.68370328463966e-08 2.08918963755187e-07 9.53719340812684e-08 2.22939060086753e-08 1.25314673641789e-08
"418" 20412 1.26159402058077e-07 3.63868795329063e-07 1.63994209874818e-08 4.68887103049233e-08 2.09559690483382e-07 9.53631055369882e-08 2.22905125782785e-08 1.24674609337021e-08
"419" 20413 1.26670999995999e-07 3.6789830624811e-07 1.64987474675918e-08 4.694038776345e-08 2.10200417211576e-07 9.5354276992708e-08 2.22871191478816e-08 1.24034545032253e-08
"420" 20414 1.27182597933921e-07 3.71927817167157e-07 1.65980739477017e-08 4.69920652219767e-08 2.10841143939771e-07 9.53454484484277e-08 2.22837257174848e-08 1.23394480727484e-08
"421" 20415 1.27694195871844e-07 3.75957328086204e-07 1.66974004278116e-08 4.70437426805034e-08 2.11481870667965e-07 9.53366199041475e-08 2.2280332287088e-08 1.22754416422716e-08
"422" 20416 1.28205793809766e-07 3.79986839005252e-07 1.67967269079216e-08 4.70954201390302e-08 2.1212259739616e-07 9.53277913598673e-08 2.22769388566912e-08 1.22114352117948e-08
"423" 20417 1.28717391747688e-07 3.84016349924299e-07 1.68960533880315e-08 4.71470975975569e-08 2.12763324124354e-07 9.5318962815587e-08 2.22735454262943e-08 1.2147428781318e-08
"424" 20418 1.29228989685611e-07 3.88045860843346e-07 1.69953798681415e-08 4.71987750560836e-08 2.13404050852548e-07 9.53101342713068e-08 2.22701519958975e-08 1.20834223508411e-08
"425" 20419 1.29740587623533e-07 3.92075371762393e-07 1.70947063482514e-08 4.72504525146103e-08 2.14044777580743e-07 9.53013057270265e-08 2.22667585655007e-08 1.20194159203643e-08
"426" 20420 1.30252185561455e-07 3.9610488268144e-07 1.71940328283614e-08 4.7302129973137e-08 2.14685504308937e-07 9.52924771827463e-08 2.22633651351039e-08 1.19554094898875e-08
"427" 20421 1.30763783499378e-07 4.00134393600487e-07 1.72933593084713e-08 4.73538074316637e-08 2.15326231037132e-07 9.52836486384661e-08 2.22599717047071e-08 1.18914030594106e-08
"428" 20422 1.312753814373e-07 4.04163904519534e-07 1.73926857885812e-08 4.74054848901904e-08 2.15966957765326e-07 9.52748200941858e-08 2.22565782743102e-08 1.18273966289338e-08
"429" 20423 1.32360973048819e-07 4.0732458797456e-07 1.74599525324232e-08 4.64828609635896e-08 2.16769984308119e-07 9.52401520656774e-08 2.22348544736062e-08 1.1841860337594e-08
"430" 20424 1.33288244645717e-07 4.08362077311947e-07 1.74874544138819e-08 4.55680799568647e-08 2.17186495096491e-07 9.52245323334892e-08 2.22223599920702e-08 1.18495077975653e-08
"431" 20425 1.3299429106329e-07 4.08876705810697e-07 1.75381117020267e-08 4.56230753949007e-08 2.16769864324436e-07 9.52347520855294e-08 2.21990420905909e-08 1.18031239552733e-08
"432" 20426 1.32700337480862e-07 4.09391334309446e-07 1.75887689901715e-08 4.56780708329366e-08 2.16353233552381e-07 9.52449718375695e-08 2.21757241891116e-08 1.17567401129813e-08
"433" 20427 1.32406383898435e-07 4.09905962808195e-07 1.76394262783163e-08 4.57330662709726e-08 2.15936602780326e-07 9.52551915896097e-08 2.21524062876323e-08 1.17103562706893e-08
"434" 20428 1.32112430316007e-07 4.10420591306944e-07 1.76900835664611e-08 4.57880617090085e-08 2.15519972008271e-07 9.52654113416498e-08 2.2129088386153e-08 1.16639724283973e-08
"435" 20429 1.31011810874911e-07 4.10367597331514e-07 1.77158087317769e-08 4.59089332556838e-08 2.14607476766703e-07 9.53127395538215e-08 2.21094365587351e-08 1.16175885861053e-08
"436" 20430 1.29911191433816e-07 4.10314603356083e-07 1.77415338970927e-08 4.60298048023591e-08 2.13694981525135e-07 9.53600677659932e-08 2.20897847313172e-08 1.15712047438133e-08
"437" 20431 1.2881057199272e-07 4.10261609380652e-07 1.77672590624085e-08 4.61506763490344e-08 2.12782486283568e-07 9.54073959781649e-08 2.20701329038994e-08 1.15248209015213e-08
"438" 20432 1.27709952551624e-07 4.10208615405221e-07 1.77929842277243e-08 4.62715478957097e-08 2.11869991042e-07 9.54547241903365e-08 2.20504810764815e-08 1.14784370592293e-08
"439" 20433 1.26609333110528e-07 4.1015562142979e-07 1.781870939304e-08 4.6392419442385e-08 2.10957495800432e-07 9.55020524025082e-08 2.20308292490637e-08 1.14320532169374e-08
"440" 20434 1.25508713669432e-07 4.1010262745436e-07 1.78444345583558e-08 4.65132909890603e-08 2.10045000558865e-07 9.55493806146799e-08 2.20111774216458e-08 1.13856693746454e-08
"441" 20435 1.24408094228336e-07 4.10049633478929e-07 1.78701597236716e-08 4.66341625357356e-08 2.09132505317297e-07 9.55967088268516e-08 2.19915255942279e-08 1.13392855323534e-08
"442" 20436 1.23211632348515e-07 4.08864449563654e-07 1.78586897852337e-08 4.66681741805371e-08 2.08809878315101e-07 9.55833381705535e-08 2.19566850638413e-08 1.13010482983664e-08
"443" 20437 1.22015170468694e-07 4.07679265648378e-07 1.78472198467957e-08 4.67021858253386e-08 2.08487251312905e-07 9.55699675142554e-08 2.19218445334546e-08 1.12628110643794e-08
"444" 20438 1.21441757388435e-07 4.06258545515233e-07 1.7764494522836e-08 4.67407224105067e-08 2.08781351789207e-07 9.46398650320778e-08 2.16139229502902e-08 1.12220794061122e-08
"445" 20439 1.20868344308177e-07 4.04837825382087e-07 1.76817691988762e-08 4.67792589956748e-08 2.09075452265508e-07 9.37097625499002e-08 2.13060013671258e-08 1.1181347747845e-08
"446" 20440 1.20453163474071e-07 4.01041317586214e-07 1.76410165130633e-08 4.67582752024404e-08 2.09506996386087e-07 9.35576648292709e-08 2.12650009970916e-08 1.1193650412562e-08
"447" 20441 1.20037982639964e-07 3.9724480979034e-07 1.76002638272503e-08 4.67372914092059e-08 2.09938540506667e-07 9.34055671086417e-08 2.12240006270575e-08 1.1205953077279e-08
"448" 20442 1.19622801805858e-07 3.93448301994466e-07 1.75595111414374e-08 4.67163076159714e-08 2.10370084627246e-07 9.32534693880125e-08 2.11830002570234e-08 1.1218255741996e-08
"449" 20443 1.19207620971751e-07 3.89651794198592e-07 1.75187584556245e-08 4.6695323822737e-08 2.10801628747825e-07 9.31013716673832e-08 2.11419998869892e-08 1.1230558406713e-08
"450" 20444 1.18792440137645e-07 3.85855286402718e-07 1.74780057698115e-08 4.66743400295025e-08 2.11233172868404e-07 9.2949273946754e-08 2.11009995169551e-08 1.124286107143e-08
"451" 20445 1.1835250964407e-07 3.82348990431246e-07 1.75161237700139e-08 4.66218504111565e-08 2.11366448295761e-07 9.28318772248115e-08 2.10806950147853e-08 1.12754464507393e-08
"452" 20446 1.17912579150496e-07 3.78842694459774e-07 1.75542417702162e-08 4.65693607928105e-08 2.11499723723118e-07 9.27144805028691e-08 2.10603905126155e-08 1.13080318300486e-08
"453" 20447 1.17472648656922e-07 3.75336398488302e-07 1.75923597704186e-08 4.65168711744645e-08 2.11632999150475e-07 9.25970837809267e-08 2.10400860104456e-08 1.13406172093579e-08
"454" 20448 1.17032718163348e-07 3.7183010251683e-07 1.7630477770621e-08 4.64643815561185e-08 2.11766274577832e-07 9.24796870589843e-08 2.10197815082758e-08 1.13732025886672e-08
"455" 20449 1.16592787669773e-07 3.68323806545359e-07 1.76685957708234e-08 4.64118919377725e-08 2.11899550005189e-07 9.23622903370418e-08 2.0999477006106e-08 1.14057879679765e-08
"456" 20450 1.16152857176199e-07 3.64817510573887e-07 1.77067137710257e-08 4.63594023194265e-08 2.12032825432546e-07 9.22448936150994e-08 2.09791725039362e-08 1.14383733472858e-08
"457" 20451 1.15712926682625e-07 3.61311214602415e-07 1.77448317712281e-08 4.63069127010805e-08 2.12166100859903e-07 9.2127496893157e-08 2.09588680017664e-08 1.14709587265952e-08
"458" 20452 1.15272996189051e-07 3.57804918630943e-07 1.77829497714305e-08 4.62544230827345e-08 2.1229937628726e-07 9.20101001712145e-08 2.09385634995966e-08 1.15035441059045e-08
"459" 20453 1.14833065695476e-07 3.54298622659471e-07 1.78210677716328e-08 4.62019334643886e-08 2.12432651714617e-07 9.18927034492721e-08 2.09182589974268e-08 1.15361294852138e-08
"460" 20454 1.14393135201902e-07 3.50792326687999e-07 1.78591857718352e-08 4.61494438460426e-08 2.12565927141974e-07 9.17753067273297e-08 2.08979544952569e-08 1.15687148645231e-08
"461" 20455 1.13953204708328e-07 3.47286030716527e-07 1.78973037720376e-08 4.60969542276966e-08 2.12699202569331e-07 9.16579100053873e-08 2.08776499930871e-08 1.16013002438324e-08
"462" 20456 1.13513274214754e-07 3.43779734745056e-07 1.793542177224e-08 4.60444646093506e-08 2.12832477996688e-07 9.15405132834449e-08 2.08573454909173e-08 1.16338856231417e-08
"463" 20457 1.13073343721179e-07 3.40273438773584e-07 1.79735397724423e-08 4.59919749910046e-08 2.12965753424045e-07 9.14231165615024e-08 2.08370409887475e-08 1.1666471002451e-08
"464" 20458 1.12633413227605e-07 3.36767142802112e-07 1.80116577726447e-08 4.59394853726586e-08 2.13099028851402e-07 9.130571983956e-08 2.08167364865777e-08 1.16990563817603e-08
"465" 20459 1.12193482734031e-07 3.3326084683064e-07 1.80497757728471e-08 4.58869957543126e-08 2.13232304278759e-07 9.11883231176176e-08 2.07964319844079e-08 1.17316417610696e-08
"466" 20460 1.12276700376172e-07 3.29274106730041e-07 1.79760335380284e-08 4.58280539728985e-08 2.13931928645722e-07 9.1237508320488e-08 2.08069827606866e-08 1.17514253273282e-08
"467" 20461 1.12921607725005e-07 3.26026494889212e-07 1.79324264870211e-08 4.60021956702835e-08 2.15269718818886e-07 9.12643029670472e-08 2.08278068965799e-08 1.174544048753e-08
"468" 20462 1.12843006368916e-07 3.25470510609304e-07 1.78916696514346e-08 4.5854391455279e-08 2.15607381843802e-07 9.19527956046447e-08 2.12058056792116e-08 1.18071197767199e-08
"469" 20463 1.12764405012827e-07 3.24914526329396e-07 1.78509128158482e-08 4.57065872402745e-08 2.15945044868717e-07 9.26412882422423e-08 2.15838044618434e-08 1.18687990659098e-08
"470" 20464 1.12685803656738e-07 3.24358542049488e-07 1.78101559802618e-08 4.55587830252701e-08 2.16282707893632e-07 9.33297808798398e-08 2.19618032444752e-08 1.19304783550997e-08
"471" 20465 1.12607202300648e-07 3.2380255776958e-07 1.77693991446753e-08 4.54109788102656e-08 2.16620370918548e-07 9.40182735174374e-08 2.2339802027107e-08 1.19921576442896e-08
"472" 20466 1.12528600944559e-07 3.23246573489672e-07 1.77286423090889e-08 4.52631745952611e-08 2.16958033943463e-07 9.47067661550349e-08 2.27178008097387e-08 1.20538369334796e-08
"473" 20467 1.1244999958847e-07 3.22690589209763e-07 1.76878854735025e-08 4.51153703802566e-08 2.17295696968378e-07 9.53952587926324e-08 2.30957995923705e-08 1.21155162226695e-08
"474" 20468 1.12371398232381e-07 3.22134604929855e-07 1.7647128637916e-08 4.49675661652522e-08 2.17633359993293e-07 9.608375143023e-08 2.34737983750023e-08 1.21771955118594e-08
"475" 20469 1.12292796876292e-07 3.21578620649947e-07 1.76063718023296e-08 4.48197619502477e-08 2.17971023018209e-07 9.67722440678275e-08 2.38517971576341e-08 1.22388748010493e-08
"476" 20470 1.12214195520202e-07 3.21022636370039e-07 1.75656149667432e-08 4.46719577352432e-08 2.18308686043124e-07 9.74607367054251e-08 2.42297959402658e-08 1.23005540902392e-08
"477" 20471 1.12135594164113e-07 3.20466652090131e-07 1.75248581311568e-08 4.45241535202387e-08 2.18646349068039e-07 9.81492293430226e-08 2.46077947228976e-08 1.23622333794291e-08
"478" 20472 1.12056992808024e-07 3.19910667810223e-07 1.74841012955703e-08 4.43763493052343e-08 2.18984012092955e-07 9.88377219806202e-08 2.49857935055294e-08 1.2423912668619e-08
"479" 20473 1.11978391451935e-07 3.19354683530315e-07 1.74433444599839e-08 4.42285450902298e-08 2.1932167511787e-07 9.95262146182177e-08 2.53637922881612e-08 1.24855919578089e-08
"480" 20474 1.11899790095845e-07 3.18798699250406e-07 1.74025876243975e-08 4.40807408752253e-08 2.19659338142785e-07 1.00214707255815e-07 2.57417910707929e-08 1.25472712469988e-08
"481" 20475 1.11821188739756e-07 3.18242714970498e-07 1.7361830788811e-08 4.39329366602208e-08 2.19997001167701e-07 1.00903199893413e-07 2.61197898534247e-08 1.26089505361888e-08
"482" 20476 1.11742587383667e-07 3.1768673069059e-07 1.73210739532246e-08 4.37851324452164e-08 2.20334664192616e-07 1.0159169253101e-07 2.64977886360565e-08 1.26706298253787e-08
"483" 20477 1.11663986027578e-07 3.17130746410682e-07 1.72803171176382e-08 4.36373282302119e-08 2.20672327217531e-07 1.02280185168608e-07 2.68757874186883e-08 1.27323091145686e-08
"484" 20478 1.11585384671489e-07 3.16574762130774e-07 1.72395602820517e-08 4.34895240152074e-08 2.21009990242447e-07 1.02968677806205e-07 2.725378620132e-08 1.27939884037585e-08
"485" 20479 1.11506783315399e-07 3.16018777850866e-07 1.71988034464653e-08 4.33417198002029e-08 2.21347653267362e-07 1.03657170443803e-07 2.76317849839518e-08 1.28556676929484e-08
"486" 20480 1.1142818195931e-07 3.15462793570958e-07 1.71580466108789e-08 4.31939155851984e-08 2.21685316292277e-07 1.04345663081401e-07 2.80097837665836e-08 1.29173469821383e-08
"487" 20481 1.11349580603221e-07 3.14906809291049e-07 1.71172897752924e-08 4.3046111370194e-08 2.22022979317193e-07 1.05034155718998e-07 2.83877825492153e-08 1.29790262713282e-08
"488" 20482 1.11594157627045e-07 3.14794818269761e-07 1.71713734082768e-08 4.26413980990208e-08 2.22067107775331e-07 1.05097199341224e-07 2.83569833509779e-08 1.28337232803549e-08
"489" 20483 1.12138397505841e-07 3.14742033759087e-07 1.71713734082768e-08 4.25940768234057e-08 2.22200375146351e-07 1.05151127385571e-07 2.8378707151682e-08 1.28255766720499e-08
"490" 20484 1.12522981826983e-07 3.14747436956702e-07 1.70655645209009e-08 4.23987584671234e-08 2.22178414788291e-07 1.05206435647618e-07 2.83943689541622e-08 1.2833889114221e-08
"491" 20485 1.12907566148126e-07 3.14752840154318e-07 1.69597556335251e-08 4.22034401108411e-08 2.22156454430231e-07 1.05261743909665e-07 2.84100307566424e-08 1.28422015563921e-08
"492" 20486 1.13292150469268e-07 3.14758243351934e-07 1.68539467461493e-08 4.20081217545588e-08 2.22134494072171e-07 1.05317052171712e-07 2.84256925591226e-08 1.28505139985632e-08
"493" 20487 1.13676734790411e-07 3.1476364654955e-07 1.67481378587735e-08 4.18128033982764e-08 2.22112533714111e-07 1.05372360433759e-07 2.84413543616028e-08 1.28588264407342e-08
"494" 20488 1.13223891275937e-07 3.15623040296525e-07 1.66688347298798e-08 4.16174850419941e-08 2.22622913959527e-07 1.05403187449159e-07 2.84678395840264e-08 1.28611540431071e-08
"495" 20489 1.12771047761463e-07 3.16482434043501e-07 1.65895316009861e-08 4.14221666857118e-08 2.23133294204943e-07 1.0543401446456e-07 2.84943248064499e-08 1.286348164548e-08
"496" 20490 1.12318204246988e-07 3.17341827790476e-07 1.65102284720923e-08 4.12268483294295e-08 2.23643674450359e-07 1.0546484147996e-07 2.85208100288735e-08 1.28658092478528e-08
"497" 20491 1.11865360732514e-07 3.18201221537451e-07 1.64309253431986e-08 4.10315299731471e-08 2.24154054695776e-07 1.0549566849536e-07 2.8547295251297e-08 1.28681368502257e-08
"498" 20492 1.1141251721804e-07 3.19060615284427e-07 1.63516222143048e-08 4.08362116168648e-08 2.24664434941192e-07 1.05526495510761e-07 2.85737804737206e-08 1.28704644525985e-08
"499" 20493 1.10959673703566e-07 3.19920009031402e-07 1.62723190854111e-08 4.06408932605825e-08 2.25174815186608e-07 1.05557322526161e-07 2.86002656961441e-08 1.28727920549714e-08
"500" 20494 1.10506830189092e-07 3.20779402778378e-07 1.61930159565174e-08 4.04455749043002e-08 2.25685195432025e-07 1.05588149541561e-07 2.86267509185677e-08 1.28751196573443e-08
"501" 20495 1.10347174631438e-07 3.21581232083652e-07 1.60384701836798e-08 4.02099298701476e-08 2.25561083809097e-07 1.05871803659816e-07 2.8700361151068e-08 1.29249952984121e-08
"502" 20496 1.10650474050972e-07 3.22381357296354e-07 1.60292784810176e-08 3.97659386281458e-08 2.25524276367149e-07 1.06158884725869e-07 2.87821775428962e-08 1.29747046445278e-08
"503" 20497 1.10967643077529e-07 3.23043140659228e-07 1.60459528636957e-08 3.97917170868895e-08 2.25561258418796e-07 1.06312651314133e-07 2.88641430833596e-08 1.30131090956387e-08
"504" 20498 1.11249024639979e-07 3.23818681625776e-07 1.60624130998214e-08 3.97035508069354e-08 2.25140519421662e-07 1.06565478416987e-07 2.89442627599894e-08 1.30628184417545e-08
"505" 20499 1.11530406202429e-07 3.24594222592325e-07 1.60788733359471e-08 3.96153845269814e-08 2.24719780424528e-07 1.06818305519842e-07 2.90243824366192e-08 1.31125277878703e-08
"506" 20500 1.11811787764879e-07 3.25369763558873e-07 1.60953335720727e-08 3.95272182470273e-08 2.24299041427394e-07 1.07071132622697e-07 2.9104502113249e-08 1.31622371339861e-08
"507" 20501 1.12093169327329e-07 3.26145304525422e-07 1.61117938081984e-08 3.94390519670733e-08 2.2387830243026e-07 1.07323959725551e-07 2.91846217898788e-08 1.32119464801019e-08
"508" 20502 1.12374550889779e-07 3.26920845491971e-07 1.6128254044324e-08 3.93508856871192e-08 2.23457563433126e-07 1.07576786828406e-07 2.92647414665085e-08 1.32616558262176e-08
"509" 20503 1.12528197094076e-07 3.27094037337114e-07 1.61291092472761e-08 3.92681936373505e-08 2.24919837725857e-07 1.07842419894085e-07 2.93421764677046e-08 1.32638171336385e-08
"510" 20504 1.12681843298374e-07 3.27267229182256e-07 1.61299644502281e-08 3.91855015875818e-08 2.26382112018588e-07 1.08108052959764e-07 2.94196114689006e-08 1.32659784410593e-08
"511" 20505 1.12835489502671e-07 3.27440421027399e-07 1.61308196531802e-08 3.91028095378131e-08 2.27844386311319e-07 1.08373686025442e-07 2.94970464700966e-08 1.32681397484802e-08
"512" 20506 1.12989135706968e-07 3.27613612872542e-07 1.61316748561322e-08 3.90201174880444e-08 2.2930666060405e-07 1.08639319091121e-07 2.95744814712927e-08 1.3270301055901e-08
"513" 20507 1.13142781911266e-07 3.27786804717685e-07 1.61325300590843e-08 3.89374254382757e-08 2.30768934896781e-07 1.089049521568e-07 2.96519164724887e-08 1.32724623633219e-08
"514" 20508 1.13296428115563e-07 3.27959996562828e-07 1.61333852620363e-08 3.8854733388507e-08 2.32231209189512e-07 1.09170585222479e-07 2.97293514736848e-08 1.32746236707427e-08
"515" 20509 1.13450074319861e-07 3.2813318840797e-07 1.61342404649883e-08 3.87720413387383e-08 2.33693483482243e-07 1.09436218288158e-07 2.98067864748808e-08 1.32767849781635e-08
"516" 20510 1.13603720524158e-07 3.28306380253113e-07 1.61350956679404e-08 3.86893492889696e-08 2.35155757774974e-07 1.09701851353837e-07 2.98842214760768e-08 1.32789462855844e-08
"517" 20511 1.13757366728456e-07 3.28479572098256e-07 1.61359508708924e-08 3.86066572392009e-08 2.36618032067704e-07 1.09967484419516e-07 2.99616564772729e-08 1.32811075930052e-08
"518" 20512 1.13911012932753e-07 3.28652763943399e-07 1.61368060738445e-08 3.85239651894322e-08 2.38080306360435e-07 1.10233117485194e-07 3.00390914784689e-08 1.32832689004261e-08
"519" 20513 1.14064659137051e-07 3.28825955788542e-07 1.61376612767965e-08 3.84412731396635e-08 2.39542580653166e-07 1.10498750550873e-07 3.01165264796649e-08 1.32854302078469e-08
"520" 20514 1.14218305341348e-07 3.28999147633685e-07 1.61385164797486e-08 3.83585810898948e-08 2.41004854945897e-07 1.10764383616552e-07 3.0193961480861e-08 1.32875915152678e-08
"521" 20515 1.14371951545646e-07 3.29172339478827e-07 1.61393716827006e-08 3.82758890401261e-08 2.42467129238628e-07 1.11030016682231e-07 3.0271396482057e-08 1.32897528226886e-08
"522" 20516 1.14525597749943e-07 3.2934553132397e-07 1.61402268856527e-08 3.81931969903573e-08 2.43929403531359e-07 1.1129564974791e-07 3.03488314832531e-08 1.32919141301095e-08
"523" 20517 1.1467924395424e-07 3.29518723169113e-07 1.61410820886047e-08 3.81105049405886e-08 2.4539167782409e-07 1.11561282813589e-07 3.04262664844491e-08 1.32940754375303e-08
"524" 20518 1.14780992554275e-07 3.29683769257186e-07 1.61426488079686e-08 3.81704155851731e-08 2.45476094249147e-07 1.1152702885039e-07 3.04359432495228e-08 1.33053803325352e-08
"525" 20519 1.14802580086349e-07 3.27987905674377e-07 1.62131843775316e-08 3.81214368119992e-08 2.4170606689763e-07 1.11523855966013e-07 3.04325032849139e-08 1.34548393799205e-08
"526" 20520 1.15024485483978e-07 3.24932771576145e-07 1.62031374719174e-08 3.80409688026739e-08 2.4026114240248e-07 1.11421581839476e-07 3.03608993994897e-08 1.381893047287e-08
"527" 20521 1.16784945803808e-07 3.23405507143813e-07 1.61554036257213e-08 3.79694904035622e-08 2.38660368750937e-07 1.10234547804189e-07 3.01068896871956e-08 1.42312337304118e-08
"528" 20522 1.18545406123639e-07 3.21878242711481e-07 1.61076697795253e-08 3.78980120044506e-08 2.37059595099394e-07 1.09047513768902e-07 2.98528799749016e-08 1.46435369879536e-08
"529" 20523 1.20305866443469e-07 3.20350978279149e-07 1.60599359333293e-08 3.7826533605339e-08 2.35458821447851e-07 1.07860479733616e-07 2.95988702626076e-08 1.50558402454954e-08
"530" 20524 1.220663267633e-07 3.18823713846817e-07 1.60122020871333e-08 3.77550552062273e-08 2.33858047796309e-07 1.06673445698329e-07 2.93448605503135e-08 1.54681435030371e-08
"531" 20525 1.2382678708313e-07 3.17296449414485e-07 1.59644682409373e-08 3.76835768071157e-08 2.32257274144766e-07 1.05486411663042e-07 2.90908508380195e-08 1.58804467605789e-08
"532" 20526 1.25587247402961e-07 3.15769184982153e-07 1.59167343947412e-08 3.76120984080041e-08 2.30656500493223e-07 1.04299377627755e-07 2.88368411257255e-08 1.62927500181207e-08
"533" 20527 1.27347707722791e-07 3.14241920549821e-07 1.58690005485452e-08 3.75406200088924e-08 2.2905572684168e-07 1.03112343592468e-07 2.85828314134315e-08 1.67050532756625e-08
"534" 20528 1.29108168042622e-07 3.12714656117489e-07 1.58212667023492e-08 3.74691416097808e-08 2.27454953190138e-07 1.01925309557181e-07 2.83288217011374e-08 1.71173565332043e-08
"535" 20529 1.30868628362452e-07 3.11187391685157e-07 1.57735328561532e-08 3.73976632106692e-08 2.25854179538595e-07 1.00738275521894e-07 2.80748119888434e-08 1.7529659790746e-08
"536" 20530 1.32629088682283e-07 3.09660127252825e-07 1.57257990099572e-08 3.73261848115575e-08 2.24253405887052e-07 9.95512414866076e-08 2.78208022765494e-08 1.79419630482878e-08
"537" 20531 1.34389549002113e-07 3.08132862820492e-07 1.56780651637612e-08 3.72547064124459e-08 2.22652632235509e-07 9.83642074513208e-08 2.75667925642554e-08 1.83542663058296e-08
"538" 20532 1.36150009321944e-07 3.06605598388161e-07 1.56303313175651e-08 3.71832280133343e-08 2.21051858583967e-07 9.71771734160339e-08 2.73127828519613e-08 1.87665695633714e-08
"539" 20533 1.37910469641774e-07 3.05078333955828e-07 1.55825974713691e-08 3.71117496142226e-08 2.19451084932424e-07 9.59901393807471e-08 2.70587731396673e-08 1.91788728209132e-08
"540" 20534 1.39670929961605e-07 3.03551069523496e-07 1.55348636251731e-08 3.7040271215111e-08 2.17850311280881e-07 9.48031053454602e-08 2.68047634273733e-08 1.9591176078455e-08
"541" 20535 1.41431390281435e-07 3.02023805091164e-07 1.54871297789771e-08 3.69687928159994e-08 2.16249537629338e-07 9.36160713101733e-08 2.65507537150793e-08 2.00034793359967e-08
"542" 20536 1.43191850601266e-07 3.00496540658832e-07 1.54393959327811e-08 3.68973144168877e-08 2.14648763977796e-07 9.24290372748865e-08 2.62967440027852e-08 2.04157825935385e-08
"543" 20537 1.44952310921096e-07 2.989692762265e-07 1.5391662086585e-08 3.68258360177761e-08 2.13047990326253e-07 9.12420032395996e-08 2.60427342904912e-08 2.08280858510803e-08
"544" 20538 1.45515545519039e-07 2.9744082728465e-07 1.53375149098776e-08 3.68089793794787e-08 2.11868860053919e-07 9.02152603106692e-08 2.58531615717405e-08 2.08886014049532e-08
"545" 20539 1.45405618196824e-07 2.96071771274007e-07 1.5286573015168e-08 3.68374444694713e-08 2.10311005138208e-07 8.88563038454412e-08 2.5635684332032e-08 2.08659908903798e-08
"546" 20540 1.4618620478124e-07 2.94702715263364e-07 1.52364877066684e-08 3.67638746250594e-08 2.0914763080589e-07 8.79437407938387e-08 2.55246515081345e-08 2.10719750056144e-08
"547" 20541 1.46966791365656e-07 2.93333659252721e-07 1.51864023981687e-08 3.66903047806476e-08 2.07984256473571e-07 8.70311777422361e-08 2.54136186842369e-08 2.1277959120849e-08
"548" 20542 1.47884224300579e-07 2.92586672892707e-07 1.51778517519061e-08 3.64766531000678e-08 2.08044676339444e-07 8.6964801233744e-08 2.54394046976965e-08 2.13612507596837e-08
"549" 20543 1.48647111969352e-07 2.89232058027915e-07 1.51778517519061e-08 3.63940936454423e-08 2.08446879985701e-07 8.74217954945414e-08 2.55996583699547e-08 2.15434615471997e-08
"550" 20544 1.49409999638125e-07 2.85877443163122e-07 1.51778517519061e-08 3.63115341908168e-08 2.08849083631959e-07 8.78787897553389e-08 2.57599120422128e-08 2.17256723347158e-08
"551" 20545 1.50172887306899e-07 2.82522828298329e-07 1.51778517519061e-08 3.62289747361913e-08 2.09251287278216e-07 8.83357840161363e-08 2.5920165714471e-08 2.19078831222318e-08
"552" 20546 1.50935774975672e-07 2.79168213433537e-07 1.51778517519061e-08 3.61464152815658e-08 2.09653490924474e-07 8.87927782769337e-08 2.60804193867292e-08 2.20900939097479e-08
"553" 20547 1.51698662644445e-07 2.75813598568744e-07 1.51778517519061e-08 3.60638558269402e-08 2.10055694570731e-07 8.92497725377311e-08 2.62406730589874e-08 2.22723046972639e-08
"554" 20548 1.52461550313219e-07 2.72458983703951e-07 1.51778517519061e-08 3.59812963723147e-08 2.10457898216989e-07 8.97067667985285e-08 2.64009267312456e-08 2.245451548478e-08
"555" 20549 1.53224437981992e-07 2.69104368839159e-07 1.51778517519061e-08 3.58987369176892e-08 2.10860101863246e-07 9.01637610593259e-08 2.65611804035038e-08 2.2636726272296e-08
"556" 20550 1.53987325650765e-07 2.65749753974366e-07 1.51778517519061e-08 3.58161774630637e-08 2.11262305509504e-07 9.06207553201233e-08 2.6721434075762e-08 2.2818937059812e-08
"557" 20551 1.54750213319538e-07 2.62395139109574e-07 1.51778517519061e-08 3.57336180084381e-08 2.11664509155761e-07 9.10777495809207e-08 2.68816877480202e-08 2.30011478473281e-08
"558" 20552 1.55025685756556e-07 2.60545907661303e-07 1.52856570350085e-08 3.56868602913162e-08 2.11870810280249e-07 9.11880383438458e-08 2.68623342178727e-08 2.30169416521267e-08
"559" 20553 1.55301158193573e-07 2.58696676213033e-07 1.5393462318111e-08 3.56401025741942e-08 2.12077111404736e-07 9.1298327106771e-08 2.68429806877253e-08 2.30327354569253e-08
"560" 20554 1.55899334573335e-07 2.59472528463261e-07 1.54888692332955e-08 3.56336308377745e-08 2.12176396407378e-07 9.1390172994419e-08 2.68346253797622e-08 2.3103059251235e-08
"561" 20555 1.56497510953098e-07 2.6024838071349e-07 1.55842761484801e-08 3.56271591013547e-08 2.12275681410021e-07 9.14820188820669e-08 2.68262700717991e-08 2.31733830455446e-08
"562" 20556 1.57095687332861e-07 2.61024232963718e-07 1.56796830636647e-08 3.5620687364935e-08 2.12374966412664e-07 9.15738647697148e-08 2.6817914763836e-08 2.32437068398543e-08
"563" 20557 1.57693863712624e-07 2.61800085213947e-07 1.57750899788492e-08 3.56142156285152e-08 2.12474251415306e-07 9.16657106573628e-08 2.68095594558729e-08 2.33140306341639e-08
"564" 20558 1.58292040092387e-07 2.62575937464176e-07 1.58704968940338e-08 3.56077438920954e-08 2.12573536417949e-07 9.17575565450107e-08 2.68012041479098e-08 2.33843544284736e-08
"565" 20559 1.5889021647215e-07 2.63351789714404e-07 1.59659038092183e-08 3.56012721556757e-08 2.12672821420592e-07 9.18494024326587e-08 2.67928488399467e-08 2.34546782227833e-08
"566" 20560 1.59488392851913e-07 2.64127641964633e-07 1.60613107244029e-08 3.55948004192559e-08 2.12772106423234e-07 9.19412483203066e-08 2.67844935319836e-08 2.35250020170929e-08
"567" 20561 1.60240116991591e-07 2.65890713870175e-07 1.60861074602387e-08 3.56412567837797e-08 2.12551374590666e-07 9.20121449606977e-08 2.68387388997292e-08 2.36786172526291e-08
"568" 20562 1.6099184113127e-07 2.67653785775717e-07 1.61109041960745e-08 3.56877131483035e-08 2.12330642758099e-07 9.20830416010887e-08 2.68929842674749e-08 2.38322324881652e-08
"569" 20563 1.61743565270948e-07 2.69416857681259e-07 1.61357009319103e-08 3.57341695128273e-08 2.12109910925531e-07 9.21539382414797e-08 2.69472296352206e-08 2.39858477237013e-08
"570" 20564 1.62495289410626e-07 2.71179929586801e-07 1.61604976677461e-08 3.57806258773511e-08 2.11889179092963e-07 9.22248348818707e-08 2.70014750029663e-08 2.41394629592374e-08
"571" 20565 1.63247013550304e-07 2.72943001492343e-07 1.61852944035819e-08 3.58270822418749e-08 2.11668447260395e-07 9.22957315222617e-08 2.7055720370712e-08 2.42930781947736e-08
"572" 20566 1.63998737689983e-07 2.74706073397885e-07 1.62100911394177e-08 3.58735386063987e-08 2.11447715427827e-07 9.23666281626527e-08 2.71099657384576e-08 2.44466934303097e-08
"573" 20567 1.64750461829661e-07 2.76469145303427e-07 1.62348878752535e-08 3.59199949709225e-08 2.11226983595259e-07 9.24375248030438e-08 2.71642111062033e-08 2.46003086658458e-08
"574" 20568 1.65502185969339e-07 2.78232217208969e-07 1.62596846110894e-08 3.59664513354463e-08 2.11006251762692e-07 9.25084214434348e-08 2.7218456473949e-08 2.47539239013819e-08
"575" 20569 1.66253910109017e-07 2.79995289114511e-07 1.62844813469252e-08 3.60129076999701e-08 2.10785519930124e-07 9.25793180838258e-08 2.72727018416947e-08 2.49075391369181e-08
"576" 20570 1.67005634248696e-07 2.81758361020053e-07 1.6309278082761e-08 3.60593640644939e-08 2.10564788097556e-07 9.26502147242168e-08 2.73269472094404e-08 2.50611543724542e-08
"577" 20571 1.67757358388374e-07 2.83521432925595e-07 1.63340748185968e-08 3.61058204290177e-08 2.10344056264988e-07 9.27211113646078e-08 2.7381192577186e-08 2.52147696079903e-08
"578" 20572 1.68509082528052e-07 2.85284504831137e-07 1.63588715544326e-08 3.61522767935415e-08 2.1012332443242e-07 9.27920080049988e-08 2.74354379449317e-08 2.53683848435265e-08
"579" 20573 1.6926080666773e-07 2.87047576736679e-07 1.63836682902684e-08 3.61987331580654e-08 2.09902592599852e-07 9.28629046453899e-08 2.74896833126774e-08 2.55220000790626e-08
"580" 20574 1.70012530807408e-07 2.88810648642221e-07 1.64084650261042e-08 3.62451895225892e-08 2.09681860767284e-07 9.29338012857809e-08 2.75439286804231e-08 2.56756153145987e-08
"581" 20575 1.70281611970036e-07 2.89943441951023e-07 1.64140231536636e-08 3.62583303959477e-08 2.09403511756945e-07 9.29836452436575e-08 2.75316603083397e-08 2.56744512499346e-08
"582" 20576 1.70550693132664e-07 2.91076235259825e-07 1.64195812812229e-08 3.62714712693063e-08 2.09125162746605e-07 9.30334892015341e-08 2.75193919362563e-08 2.56732871852705e-08
"583" 20577 1.71284459195999e-07 2.91871206768007e-07 1.65234573165952e-08 3.62125294878922e-08 2.09160001143836e-07 9.29852058270315e-08 2.7513556047485e-08 2.56495130012495e-08
"584" 20578 1.72248935640258e-07 2.92673139989893e-07 1.66561933392689e-08 3.62551284226215e-08 2.09034341326052e-07 9.3055922101749e-08 2.75173969237875e-08 2.56506767365665e-08
"585" 20579 1.73213412084517e-07 2.93475073211779e-07 1.67889293619426e-08 3.62977273573508e-08 2.08908681508268e-07 9.31266383764664e-08 2.75212378000899e-08 2.56518404718835e-08
"586" 20580 1.74177888528776e-07 2.94277006433664e-07 1.69216653846163e-08 3.63403262920802e-08 2.08783021690484e-07 9.31973546511838e-08 2.75250786763924e-08 2.56530042072005e-08
"587" 20581 1.75142364973036e-07 2.9507893965555e-07 1.70544014072899e-08 3.63829252268095e-08 2.086573618727e-07 9.32680709259013e-08 2.75289195526948e-08 2.56541679425175e-08
"588" 20582 1.76106841417295e-07 2.95880872877436e-07 1.71871374299636e-08 3.64255241615388e-08 2.08531702054916e-07 9.33387872006187e-08 2.75327604289973e-08 2.56553316778345e-08
"589" 20583 1.76256889013018e-07 2.96651031476306e-07 1.73167386306517e-08 3.62233121751994e-08 2.06932089772458e-07 9.31358354094848e-08 2.74735883832902e-08 2.56445251407303e-08
"590" 20584 1.7723032937335e-07 2.97408929080468e-07 1.73283522556298e-08 3.62008321226133e-08 2.06936835537523e-07 9.32046946935034e-08 2.74735883832902e-08 2.56440262558742e-08
"591" 20585 1.78203769733682e-07 2.9816682668463e-07 1.73399658806079e-08 3.61783520700272e-08 2.06941581302588e-07 9.32735539775221e-08 2.74735883832902e-08 2.56435273710182e-08
"592" 20586 1.79177210094014e-07 2.98924724288792e-07 1.73515795055861e-08 3.61558720174411e-08 2.06946327067653e-07 9.33424132615407e-08 2.74735883832902e-08 2.56430284861621e-08
"593" 20587 1.80150650454346e-07 2.99682621892954e-07 1.73631931305642e-08 3.6133391964855e-08 2.06951072832718e-07 9.34112725455594e-08 2.74735883832902e-08 2.56425296013061e-08
"594" 20588 1.81124090814678e-07 3.00440519497116e-07 1.73748067555423e-08 3.61109119122689e-08 2.06955818597783e-07 9.3480131829578e-08 2.74735883832902e-08 2.56420307164501e-08
"595" 20589 1.8209753117501e-07 3.01198417101278e-07 1.73864203805204e-08 3.60884318596828e-08 2.06960564362848e-07 9.35489911135967e-08 2.74735883832902e-08 2.5641531831594e-08
"596" 20590 1.83070971535343e-07 3.0195631470544e-07 1.73980340054986e-08 3.60659518070967e-08 2.06965310127913e-07 9.36178503976154e-08 2.74735883832902e-08 2.5641032946738e-08
"597" 20591 1.84044411895675e-07 3.02714212309602e-07 1.74096476304767e-08 3.60434717545106e-08 2.06970055892978e-07 9.3686709681634e-08 2.74735883832902e-08 2.56405340618819e-08
"598" 20592 1.85017852256007e-07 3.03472109913764e-07 1.74212612554548e-08 3.60209917019245e-08 2.06974801658043e-07 9.37555689656527e-08 2.74735883832902e-08 2.56400351770259e-08
"599" 20593 1.85991292616339e-07 3.04230007517926e-07 1.7432874880433e-08 3.59985116493384e-08 2.06979547423108e-07 9.38244282496713e-08 2.74735883832902e-08 2.56395362921698e-08
"600" 20594 1.86964732976671e-07 3.04987905122088e-07 1.74444885054111e-08 3.59760315967523e-08 2.06984293188173e-07 9.389328753369e-08 2.74735883832902e-08 2.56390374073138e-08
"601" 20595 1.87938173337003e-07 3.0574580272625e-07 1.74561021303892e-08 3.59535515441663e-08 2.06989038953238e-07 9.39621468177086e-08 2.74735883832902e-08 2.56385385224577e-08
"602" 20596 1.88911613697335e-07 3.06503700330412e-07 1.74677157553674e-08 3.59310714915802e-08 2.06993784718303e-07 9.40310061017273e-08 2.74735883832902e-08 2.56380396376017e-08
"603" 20597 1.90087098882618e-07 3.05515213545059e-07 1.7365688279408e-08 3.55356612373227e-08 2.06905080984413e-07 9.41559500607845e-08 2.74787250630975e-08 2.56358783301808e-08
"604" 20598 1.90380447555757e-07 3.06634684697723e-07 1.74312432340881e-08 3.56390161543761e-08 2.06496680976448e-07 9.43339076294266e-08 2.74551392909531e-08 2.55994692208859e-08
"605" 20599 1.90518144336217e-07 3.09448066546756e-07 1.74421439593966e-08 3.56179238742063e-08 2.05711610437646e-07 9.42446088413277e-08 2.74692535268701e-08 2.55441072296594e-08
"606" 20600 1.90655841116677e-07 3.12261448395789e-07 1.7453044684705e-08 3.55968315940365e-08 2.04926539898844e-07 9.41553100532287e-08 2.74833677627871e-08 2.54887452384329e-08
"607" 20601 1.90793537897137e-07 3.15074830244821e-07 1.74639454100135e-08 3.55757393138667e-08 2.04141469360042e-07 9.40660112651298e-08 2.74974819987041e-08 2.54333832472064e-08
"608" 20602 1.90931234677597e-07 3.17888212093854e-07 1.74748461353219e-08 3.55546470336969e-08 2.03356398821239e-07 9.39767124770309e-08 2.75115962346211e-08 2.53780212559799e-08
"609" 20603 1.91068931458056e-07 3.20701593942887e-07 1.74857468606304e-08 3.55335547535271e-08 2.02571328282437e-07 9.38874136889319e-08 2.75257104705381e-08 2.53226592647534e-08
"610" 20604 1.91206628238516e-07 3.23514975791919e-07 1.74966475859388e-08 3.55124624733573e-08 2.01786257743635e-07 9.3798114900833e-08 2.75398247064551e-08 2.52672972735269e-08
"611" 20605 1.91344325018976e-07 3.26328357640952e-07 1.75075483112473e-08 3.54913701931875e-08 2.01001187204833e-07 9.37088161127341e-08 2.75539389423721e-08 2.52119352823004e-08
"612" 20606 1.91482021799436e-07 3.29141739489985e-07 1.75184490365557e-08 3.54702779130177e-08 2.0021611666603e-07 9.36195173246351e-08 2.75680531782891e-08 2.51565732910739e-08
"613" 20607 1.91619718579896e-07 3.31955121339017e-07 1.75293497618642e-08 3.54491856328479e-08 1.99431046127228e-07 9.35302185365362e-08 2.75821674142061e-08 2.51012112998474e-08
"614" 20608 1.91757415360355e-07 3.3476850318805e-07 1.75402504871727e-08 3.54280933526781e-08 1.98645975588426e-07 9.34409197484373e-08 2.75962816501231e-08 2.50458493086209e-08
"615" 20609 1.91895112140815e-07 3.37581885037083e-07 1.75511512124811e-08 3.54070010725083e-08 1.97860905049624e-07 9.33516209603383e-08 2.76103958860401e-08 2.49904873173944e-08
"616" 20610 1.92032808921275e-07 3.40395266886115e-07 1.75620519377896e-08 3.53859087923385e-08 1.97075834510822e-07 9.32623221722394e-08 2.76245101219571e-08 2.49351253261679e-08
"617" 20611 1.91731046681204e-07 3.40267544661312e-07 1.75634058938588e-08 3.58148289538888e-08 1.95577547014413e-07 9.27432879365068e-08 2.7622272892429e-08 2.48990485432993e-08
"618" 20612 1.91429284441133e-07 3.40139822436508e-07 1.75647598499281e-08 3.62437491154391e-08 1.94079259518005e-07 9.22242537007742e-08 2.76200356629009e-08 2.48629717604307e-08
"619" 20613 1.91127522201062e-07 3.40012100211705e-07 1.75661138059973e-08 3.66726692769894e-08 1.92580972021597e-07 9.17052194650417e-08 2.76177984333727e-08 2.48268949775621e-08
"620" 20614 1.90825759960991e-07 3.39884377986901e-07 1.75674677620666e-08 3.71015894385398e-08 1.91082684525189e-07 9.11861852293091e-08 2.76155612038446e-08 2.47908181946935e-08
"621" 20615 1.9052399772092e-07 3.39756655762098e-07 1.75688217181358e-08 3.75305096000901e-08 1.8958439702878e-07 9.06671509935765e-08 2.76133239743165e-08 2.47547414118249e-08
"622" 20616 1.90222235480849e-07 3.39628933537294e-07 1.75701756742051e-08 3.79594297616404e-08 1.88086109532372e-07 9.0148116757844e-08 2.76110867447883e-08 2.47186646289563e-08
"623" 20617 1.89920473240778e-07 3.39501211312491e-07 1.75715296302743e-08 3.83883499231908e-08 1.86587822035964e-07 8.96290825221114e-08 2.76088495152602e-08 2.46825878460877e-08
"624" 20618 1.89349545033734e-07 3.39392836076494e-07 1.75721720699317e-08 3.87717268477242e-08 1.86240805376017e-07 8.94223744056764e-08 2.75625985163885e-08 2.46739426164043e-08
"625" 20619 1.8877861682669e-07 3.39284460840498e-07 1.75728145095891e-08 3.91551037722577e-08 1.8589378871607e-07 8.92156662892413e-08 2.75163475175167e-08 2.4665297386721e-08
"626" 20620 1.88385705526502e-07 3.39800357867745e-07 1.7575309658433e-08 3.91100713424619e-08 1.86624703798885e-07 8.90310209679488e-08 2.74154293585994e-08 2.46559871748378e-08
"627" 20621 1.87992794226314e-07 3.40316254894993e-07 1.75778048072769e-08 3.90650389126662e-08 1.873556188817e-07 8.88463756466562e-08 2.73145111996822e-08 2.46466769629546e-08
"628" 20622 1.87599882926126e-07 3.4083215192224e-07 1.75802999561207e-08 3.90200064828705e-08 1.88086533964516e-07 8.86617303253637e-08 2.72135930407649e-08 2.46373667510714e-08
"629" 20623 1.87206971625938e-07 3.41348048949487e-07 1.75827951049646e-08 3.89749740530747e-08 1.88817449047331e-07 8.84770850040712e-08 2.71126748818476e-08 2.46280565391883e-08
"630" 20624 1.8681406032575e-07 3.41863945976734e-07 1.75852902538085e-08 3.8929941623279e-08 1.89548364130146e-07 8.82924396827786e-08 2.70117567229303e-08 2.46187463273051e-08
"631" 20625 1.86421149025563e-07 3.42379843003981e-07 1.75877854026523e-08 3.88849091934832e-08 1.90279279212962e-07 8.81077943614861e-08 2.69108385640131e-08 2.46094361154219e-08
"632" 20626 1.86028237725375e-07 3.42895740031229e-07 1.75902805514962e-08 3.88398767636875e-08 1.91010194295777e-07 8.79231490401935e-08 2.68099204050958e-08 2.46001259035387e-08
"633" 20627 1.85635326425187e-07 3.43411637058476e-07 1.759277570034e-08 3.87948443338918e-08 1.91741109378592e-07 8.7738503718901e-08 2.67090022461785e-08 2.45908156916555e-08
"634" 20628 1.85242415124999e-07 3.43927534085723e-07 1.75952708491839e-08 3.8749811904096e-08 1.92472024461408e-07 8.75538583976085e-08 2.66080840872612e-08 2.45815054797724e-08
"635" 20629 1.84849503824811e-07 3.4444343111297e-07 1.75977659980278e-08 3.87047794743003e-08 1.93202939544223e-07 8.73692130763159e-08 2.6507165928344e-08 2.45721952678892e-08
"636" 20630 1.84456592524623e-07 3.44959328140217e-07 1.76002611468716e-08 3.86597470445045e-08 1.93933854627038e-07 8.71845677550234e-08 2.64062477694267e-08 2.4562885056006e-08
"637" 20631 1.84063681224435e-07 3.45475225167465e-07 1.76027562957155e-08 3.86147146147088e-08 1.94664769709854e-07 8.69999224337309e-08 2.63053296105094e-08 2.45535748441228e-08
"638" 20632 1.83620553611604e-07 3.45681853835245e-07 1.7613802090822e-08 3.88321152381477e-08 1.94134539628475e-07 8.67932143172958e-08 2.62052341555856e-08 2.45682045842573e-08
"639" 20633 1.83070532115372e-07 3.45670278596938e-07 1.76622557529768e-08 3.90335678159398e-08 1.93715345243914e-07 8.65722447062542e-08 2.61041668480331e-08 2.45623855783252e-08
"640" 20634 1.83156290371458e-07 3.44654754527416e-07 1.76554155126183e-08 3.90842959846478e-08 1.95828254170776e-07 8.66321891418513e-08 2.61916282187848e-08 2.45856606140125e-08
"641" 20635 1.83242048627544e-07 3.43639230457894e-07 1.76485752722597e-08 3.91350241533558e-08 1.97941163097638e-07 8.66921335774484e-08 2.62790895895366e-08 2.46089356496998e-08
"642" 20636 1.83347999564858e-07 3.43438649317332e-07 1.76752951772943e-08 3.88370470336564e-08 2.00040214390511e-07 8.66541859966372e-08 2.62968955531208e-08 2.45961343636044e-08
"643" 20637 1.83453950502173e-07 3.43238068176771e-07 1.77020150823288e-08 3.85390699139569e-08 2.02139265683383e-07 8.66162384158259e-08 2.63147015167051e-08 2.4583333077509e-08
"644" 20638 1.83559901439487e-07 3.43037487036209e-07 1.77287349873634e-08 3.82410927942574e-08 2.04238316976255e-07 8.65782908350147e-08 2.63325074802893e-08 2.45705317914137e-08
"645" 20639 1.83665852376801e-07 3.42836905895648e-07 1.77554548923979e-08 3.79431156745579e-08 2.06337368269127e-07 8.65403432542034e-08 2.63503134438736e-08 2.45577305053183e-08
"646" 20640 1.83771803314115e-07 3.42636324755086e-07 1.77821747974324e-08 3.76451385548584e-08 2.08436419562e-07 8.65023956733921e-08 2.63681194074578e-08 2.45449292192229e-08
"647" 20641 1.8387775425143e-07 3.42435743614525e-07 1.7808894702467e-08 3.73471614351589e-08 2.10535470854872e-07 8.64644480925809e-08 2.63859253710421e-08 2.45321279331276e-08
"648" 20642 1.83983705188744e-07 3.42235162473964e-07 1.78356146075015e-08 3.70491843154595e-08 2.12634522147744e-07 8.64265005117696e-08 2.64037313346263e-08 2.45193266470322e-08
"649" 20643 1.84089656126058e-07 3.42034581333402e-07 1.7862334512536e-08 3.675120719576e-08 2.14733573440617e-07 8.63885529309583e-08 2.64215372982105e-08 2.45065253609368e-08
"650" 20644 1.84195607063372e-07 3.41834000192841e-07 1.78890544175706e-08 3.64532300760605e-08 2.16832624733489e-07 8.63506053501471e-08 2.64393432617948e-08 2.44937240748415e-08
"651" 20645 1.84301558000687e-07 3.41633419052279e-07 1.79157743226051e-08 3.6155252956361e-08 2.18931676026361e-07 8.63126577693358e-08 2.6457149225379e-08 2.44809227887461e-08
"652" 20646 1.84407508938001e-07 3.41432837911718e-07 1.79424942276396e-08 3.58572758366615e-08 2.21030727319234e-07 8.62747101885245e-08 2.64749551889633e-08 2.44681215026507e-08
"653" 20647 1.84513459875315e-07 3.41232256771156e-07 1.79692141326742e-08 3.55592987169621e-08 2.23129778612106e-07 8.62367626077133e-08 2.64927611525475e-08 2.44553202165554e-08
"654" 20648 1.84619410812629e-07 3.41031675630595e-07 1.79959340377087e-08 3.52613215972626e-08 2.25228829904978e-07 8.6198815026902e-08 2.65105671161318e-08 2.444251893046e-08
"655" 20649 1.84725361749944e-07 3.40831094490034e-07 1.80226539427433e-08 3.49633444775631e-08 2.27327881197851e-07 8.61608674460907e-08 2.6528373079716e-08 2.44297176443646e-08
"656" 20650 1.84831312687258e-07 3.40630513349472e-07 1.80493738477778e-08 3.46653673578636e-08 2.29426932490723e-07 8.61229198652795e-08 2.65461790433003e-08 2.44169163582693e-08
"657" 20651 1.84937263624572e-07 3.40429932208911e-07 1.80760937528123e-08 3.43673902381641e-08 2.31525983783595e-07 8.60849722844682e-08 2.65639850068845e-08 2.44041150721739e-08
"658" 20652 1.85043214561886e-07 3.40229351068349e-07 1.81028136578469e-08 3.40694131184647e-08 2.33625035076468e-07 8.60470247036569e-08 2.65817909704687e-08 2.43913137860785e-08
"659" 20653 1.85293461118727e-07 3.39775236704747e-07 1.81481241984691e-08 3.37207078300572e-08 2.33469245020146e-07 8.59491326872486e-08 2.65843264972673e-08 2.43936419154068e-08
"660" 20654 1.85392336996266e-07 3.39686915743126e-07 1.81333066747509e-08 3.37072053335808e-08 2.33665679427352e-07 8.57032991180943e-08 2.64731093251297e-08 2.43851630465448e-08
"661" 20655 1.86618296474311e-07 3.39597369078265e-07 1.81814025038131e-08 3.37145660892996e-08 2.3340787600126e-07 8.57076075304756e-08 2.64712891149018e-08 2.44189117000852e-08
"662" 20656 1.87844255952355e-07 3.39507822413403e-07 1.82294983328753e-08 3.37219268450185e-08 2.33150072575169e-07 8.57119159428568e-08 2.6469468904674e-08 2.44526603536256e-08
"663" 20657 1.890702154304e-07 3.39418275748542e-07 1.82775941619374e-08 3.37292876007373e-08 2.32892269149077e-07 8.57162243552381e-08 2.64676486944462e-08 2.4486409007166e-08
"664" 20658 1.90296174908445e-07 3.3932872908368e-07 1.83256899909996e-08 3.37366483564562e-08 2.32634465722986e-07 8.57205327676194e-08 2.64658284842183e-08 2.45201576607063e-08
"665" 20659 1.91522134386489e-07 3.39239182418819e-07 1.83737858200618e-08 3.3744009112175e-08 2.32376662296894e-07 8.57248411800007e-08 2.64640082739905e-08 2.45539063142467e-08
"666" 20660 1.92748093864534e-07 3.39149635753957e-07 1.84218816491239e-08 3.37513698678939e-08 2.32118858870803e-07 8.5729149592382e-08 2.64621880637627e-08 2.45876549677871e-08
"667" 20661 1.93974053342579e-07 3.39060089089096e-07 1.84699774781861e-08 3.37587306236127e-08 2.31861055444711e-07 8.57334580047632e-08 2.64603678535349e-08 2.46214036213275e-08
"668" 20662 1.95200012820623e-07 3.38970542424234e-07 1.85180733072483e-08 3.37660913793316e-08 2.3160325201862e-07 8.57377664171445e-08 2.6458547643307e-08 2.46551522748678e-08
"669" 20663 1.96425972298668e-07 3.38880995759373e-07 1.85661691363104e-08 3.37734521350504e-08 2.31345448592528e-07 8.57420748295258e-08 2.64567274330792e-08 2.46889009284082e-08
"670" 20664 1.97651931776712e-07 3.38791449094511e-07 1.86142649653726e-08 3.37808128907693e-08 2.31087645166437e-07 8.57463832419071e-08 2.64549072228514e-08 2.47226495819486e-08
