time,channel1,channel2,channel3,channel4,channel5,channel6,channel7,channel8,class
30901,1.0544059846617273e-8,1.0617754219917201e-9,1.9642156001630165e-9,3.0571644227673274e-8,7.302598053790896e-8,1.6278760963816175e-8,1.0771194646138386e-7,3.2439876824524004e-8,0
30902,1.0557251588029996e-8,1.0459602861759494e-9,1.9559617822555205e-9,3.098803963936867e-8,7.307796594939585e-8,1.6309781783164286e-8,1.0770807337547266e-7,3.255263398534714e-8,0
30903,1.0570443329442718e-8,1.0301451503601787e-9,1.947707964348024e-9,3.140443505106407e-8,7.312995136088273e-8,1.6340802602512393e-8,1.0770420028956145e-7,3.266539114617028e-8,0
30904,1.0583635070855441e-8,1.014330014544408e-9,1.9394541464405277e-9,3.182083046275946e-8,7.318193677236962e-8,1.6371823421860503e-8,1.0770032720365025e-7,3.277814830699342e-8,0
30905,1.0596826812268165e-8,9.985148787286374e-10,1.9312003285330313e-9,3.223722587445486e-8,7.32339221838565e-8,1.6402844241208614e-8,1.0769645411773904e-7,3.289090546781656e-8,0
30906,1.0610018553680888e-8,9.826997429128667e-10,1.922946510625535e-9,3.265362128615025e-8,7.328590759534337e-8,1.6433865060556725e-8,1.0769258103182783e-7,3.3003662628639697e-8,0
30907,1.062321029509361e-8,9.66884607097096e-10,1.914692692718039e-9,3.307001669784565e-8,7.333789300683026e-8,1.6464885879904835e-8,1.0768870794591663e-7,3.311641978946284e-8,0
30908,1.0636402036506333e-8,9.510694712813253e-10,1.9064388748105425e-9,3.3486412109541046e-8,7.338987841831714e-8,1.6495906699252946e-8,1.0768483486000542e-7,3.3229176950285975e-8,0
30909,1.0649593777919056e-8,9.352543354655546e-10,1.898185056903046e-9,3.3902807521236445e-8,7.344186382980403e-8,1.6526927518601057e-8,1.0768096177409423e-7,3.334193411110911e-8,0
30910,1.066278551933178e-8,9.19439199649784e-10,1.8899312389955497e-9,3.431920293293184e-8,7.34938492412909e-8,1.6557948337949167e-8,1.0767708868818302e-7,3.345469127193225e-8,0
30911,1.0675977260744503e-8,9.036240638340133e-10,1.8816774210880533e-9,3.473559834462724e-8,7.35458346527778e-8,1.6588969157297278e-8,1.0767321560227182e-7,3.356744843275539e-8,0
30912,1.0689169002157226e-8,8.878089280182425e-10,1.8734236031805573e-9,3.515199375632263e-8,7.359782006426467e-8,1.661998997664539e-8,1.0766934251636061e-7,3.368020559357853e-8,0
30913,1.0702360743569948e-8,8.719937922024718e-10,1.865169785273061e-9,3.556838916801803e-8,7.364980547575156e-8,1.66510107959935e-8,1.0766546943044941e-7,3.379296275440167e-8,0
30914,1.0715552484982671e-8,8.561786563867011e-10,1.8569159673655644e-9,3.5984784579713424e-8,7.370179088723844e-8,1.668203161534161e-8,1.076615963445382e-7,3.390571991522481e-8,0
30915,1.0728744226395395e-8,8.403635205709304e-10,1.848662149458068e-9,3.6401179991408823e-8,7.375377629872531e-8,1.671305243468972e-8,1.0765772325862699e-7,3.4018477076047945e-8,0
30916,1.0741935967808118e-8,8.245483847551598e-10,1.8404083315505718e-9,3.6817575403104216e-8,7.38057617102122e-8,1.674407325403783e-8,1.0765385017271579e-7,3.413123423687109e-8,0
30917,1.070964702524502e-8,8.204858778500775e-10,1.8441423277095566e-9,3.716201715035222e-8,7.387784110550906e-8,1.6774767764485783e-8,1.076481300103736e-7,3.40600308572632e-8,0
30918,1.064585705862905e-8,7.997919338133766e-10,1.8201489603230807e-9,3.699791626441656e-8,7.390555061309539e-8,1.6713476869671155e-8,1.0772268045256341e-7,3.436615897575394e-8,0
30919,1.0571354543545239e-8,7.752667389383403e-10,1.7734911523906467e-9,3.675021595634485e-8,7.386893541671718e-8,1.6631466526752712e-8,1.079473865800439e-7,3.440147906657892e-8,0
30920,1.0496852028461426e-8,7.50741544063304e-10,1.7268333444582129e-9,3.650251564827315e-8,7.383232022033898e-8,1.6549456183834268e-8,1.0817209270752441e-7,3.44367991574039e-8,0
30921,1.0422349513377614e-8,7.262163491882677e-10,1.6801755365257788e-9,3.6254815340201446e-8,7.379570502396077e-8,1.6467445840915825e-8,1.083967988350049e-7,3.4472119248228876e-8,0
30922,9.939354766375159e-9,7.225300622847851e-10,1.6821794186213635e-9,3.627992109882996e-8,7.37024238673739e-8,1.6301039972397305e-8,1.0854863206236954e-7,3.450749176321621e-8,0
30923,9.942556872802589e-9,7.104150235369647e-10,1.6642509152821825e-9,3.619632167669392e-8,7.360914271078702e-8,1.6032180111566417e-8,1.0780265708343101e-7,3.4540764417410004e-8,0
30924,9.945758979230019e-9,6.982999847891444e-10,1.6463224119430015e-9,3.611272225455789e-8,7.351586155420014e-8,1.576332025073553e-8,1.0705668210449249e-7,3.4574037071603796e-8,0
30925,9.948961085657449e-9,6.86184946041324e-10,1.6283939086038203e-9,3.602912283242185e-8,7.342258039761326e-8,1.549446038990464e-8,1.0631070712555396e-7,3.460730972579759e-8,0
30926,9.952163192084877e-9,6.740699072935037e-10,1.6104654052646393e-9,3.594552341028581e-8,7.332929924102637e-8,1.522560052907375e-8,1.0556473214661543e-7,3.464058237999138e-8,0
30927,9.955365298512307e-9,6.619548685456834e-10,1.5925369019254583e-9,3.586192398814978e-8,7.323601808443949e-8,1.4956740668242863e-8,1.0481875716767691e-7,3.467385503418518e-8,0
30928,9.958567404939737e-9,6.498398297978631e-10,1.5746083985862771e-09,3.577832456601374e-8,7.314273692785261e-8,1.4687880807411976e-8,1.0407278218873838e-7,3.470712768837897e-8,0
30929,9.961769511367167e-9,6.377247910500427e-10,1.5566798952470961e-9,3.569472514387771e-8,7.304945577126573e-8,1.4419020946581088e-8,1.0332680720979985e-7,3.474040034257276e-8,0
30930,9.964971617794595e-9,6.256097523022224e-10,1.5387513919079151e-9,3.561112572174167e-8,7.295617461467886e-8,1.41501610857502e-8,1.0258083223086133e-7,3.4773672996766554e-8,0
30931,9.968173724222025e-9,6.134947135544021e-10,1.520822888568734e-9,3.552752629960563e-8,7.286289345809198e-8,1.3881301224919313e-8,1.018348572519228e-7,3.4806945650960345e-8,0
30932,9.971375830649455e-9,6.013796748065817e-10,1.502894385229553e-9,3.54439268774696e-8,7.276961230150509e-8,1.3612441364088425e-8,1.0108888227298427e-7,3.484021830515414e-8,0
30933,9.974577937076885e-9,5.892646360587615e-10,1.484965881890372e-9,3.536032745533356e-8,7.267633114491821e-8,1.3343581503257536e-8,1.0034290729404575e-7,3.4873490959347936e-8,0
30934,9.977780043504313e-9,5.771495973109411e-10,1.4670373785511907e-9,3.527672803319752e-8,7.258304998833133e-8,1.3074721642426648e-8,9.959693231510722e-8,3.490676361354173e-8,0
30935,9.980982149931743e-9,5.650345585631208e-10,1.4491088752120097e-9,3.519312861106149e-8,7.248976883174445e-8,1.280586178159576e-8,9.88509573361687e-8,3.494003626773552e-8,0
30936,9.984184256359173e-9,5.529195198153004e-10,1.4311803718728287e-9,3.510952918892545e-8,7.239648767515758e-8,1.2537001920764873e-8,9.810498235723017e-8,3.497330892192931e-8,0
30937,9.987386362786601e-9,5.408044810674801e-10,1.4132518685336475e-9,3.502592976678941e-8,7.230320651857068e-8,1.2268142059933985e-8,9.735900737829164e-8,3.5006581576123103e-8,0
30938,9.903761708896555e-9,5.249306734487508e-10,1.4115217544702474e-9,3.504715571726329e-8,7.240477952353488e-8,1.2262464751893714e-8,9.759621333071372e-8,3.497791746328651e-8,0
30939,9.820137055006508e-9,5.090568658300216e-10,1.4097916404068474e-9,3.5068381667737155e-8,7.250635252849907e-8,1.2256787443853444e-8,9.78334192831358e-8,3.4949253350449925e-8,0
30940,9.73651240111646e-9,4.931830582112923e-10,1.4080615263434473e-9,3.508960761821103e-8,7.260792553346326e-8,1.2251110135813174e-8,9.807062523555787e-8,3.492058923761333e-8,0
30941,9.70301636459476e-9,4.811405014308983e-10,1.4050734424535838e-9,3.5150014631378225e-8,7.268758217309468e-8,1.226060502457405e-8,9.830783118797995e-8,3.491975045101562e-8,0
30942,9.618553359807964e-9,4.739042709040082e-10,1.4213117450497702e-9,3.525678824084638e-8,7.272939111946705e-8,1.2275647164637594e-8,9.830639457297808e-8,3.486752662551759e-8,0
30943,9.534090355021166e-9,4.666680403771181e-10,1.4375500476459568e-9,3.536356185031453e-8,7.277120006583942e-8,1.2290689304701138e-8,9.830495795797622e-8,3.481530280001956e-8,0
30944,9.449627350234368e-9,4.5943180985022813e-10,1.4537883502421432e-9,3.547033545978269e-8,7.281300901221179e-8,1.2305731444764682e-8,9.830352134297435e-8,3.476307897452153e-8,0
30945,9.36516434544757e-9,4.5219557932333804e-10,1.4700266528383296e-9,3.5577109069250846e-8,7.285481795858415e-8,1.2320773584828226e-8,9.830208472797248e-8,3.47108551490235e-8,0
30946,9.337407898862798e-9,4.607969154314641e-10,1.4812818590758245e-9,3.5533357565693504e-8,7.258471443603523e-8,1.2326320836130894e-8,9.808134702711045e-8,3.469300488512876e-8,0
30947,9.309651452278023e-9,4.693982515395901e-10,1.4925370653133196e-9,3.548960606213616e-8,7.23146109134863e-8,1.2331868087433562e-8,9.78606093262484e-8,3.467515462123403e-8,0
30948,9.28189500569325e-9,4.779995876477161e-10,1.5037922715508146e-9,3.5445854558578814e-8,7.204450739093738e-8,1.233741533873623e-8,9.763987162538637e-8,3.4657304357339287e-8,0
30949,9.254138559108476e-9,4.866009237558422e-10,1.5150474777883095e-9,3.540210305502147e-8,7.177440386838846e-8,1.2342962590038897e-8,9.741913392452434e-8,3.463945409344455e-8,0
30950,9.226382112523703e-9,4.952022598639682e-10,1.5263026840258044e-9,3.535835155146413e-8,7.150430034583953e-8,1.2348509841341567e-8,9.719839622366231e-8,3.4621603829549816e-8,0
30951,9.198625665938929e-9,5.038035959720942e-10,1.5375578902632996e-9,3.531460004790679e-8,7.123419682329061e-8,1.2354057092644235e-8,9.697765852280028e-8,3.4603753565655075e-8,0
30952,9.170869219354156e-9,5.124049320802203e-10,1.5488130965007945e-9,3.5270848544349446e-8,7.096409330074169e-8,1.2359604343946902e-8,9.675692082193823e-8,3.458590330176034e-8,0
30953,9.143112772769382e-9,5.210062681883463e-10,1.5600683027382894e-9,3.5227097040792104e-8,7.069398977819275e-8,1.236515159524957e-8,9.65361831210762e-8,3.4568053037865605e-8,0
30954,9.11535632618461e-9,5.296076042964724e-10,1.5713235089757846e-9,3.518334553723476e-8,7.042388625564383e-8,1.2370698846552238e-8,9.631544542021417e-8,3.455020277397087e-8,0
30955,9.084173612807063e-9,5.296076042964724e-10,1.5685825842378354e-9,3.509174306643684e-8,7.009407621815176e-8,1.2434767428373612e-8,9.633061324444492e-8,3.4583737548976445e-8,0
30956,9.053634235243236e-9,5.384263863068775e-10,1.565841659499886e-9,3.495263138912195e-8,6.976799244312657e-8,1.2420574158272936e-8,9.612809553086665e-8,3.455794619154076e-8,0
30957,9.023094857679408e-9,5.472451683172828e-10,1.5631007347619368e-9,3.481351971180707e-8,6.94419086681014e-8,1.2406380888172261e-8,9.592557781728838e-8,3.453215483410507e-8,0
30958,8.992555480115581e-9,5.560639503276879e-10,1.5603598100239876e-9,3.4674408034492175e-8,6.911582489307621e-8,1.2392187618071587e-8,9.572306010371009e-8,3.450636347666938e-8,0
30959,8.962016102551753e-9,5.648827323380931e-10,1.5576188852860384e-9,3.453529635717729e-8,6.878974111805102e-8,1.2377994347970912e-8,9.552054239013181e-8,3.448057211923369e-8,0
30960,8.931476724987924e-9,5.737015143484982e-10,1.5548779605480892e-9,3.4396184679862404e-8,6.846365734302584e-8,1.2363801077870237e-8,9.531802467655354e-8,3.4454780761798e-8,0
30961,8.900937347424097e-9,5.825202963589033e-10,1.55213703581014e-9,3.425707300254752e-8,6.813757356800065e-8,1.2349607807769562e-8,9.511550696297526e-8,3.4428989404362316e-8,0
30962,8.870397969860269e-9,5.913390783693085e-10,1.5493961110721908e-9,3.411796132523263e-8,6.781148979297546e-8,1.2335414537668888e-8,9.491298924939698e-8,3.440319804692663e-8,0
30963,8.839858592296442e-9,6.001578603797136e-10,1.5466551863342416e-9,3.397884964791774e-8,6.748540601795028e-8,1.2321221267568213e-8,9.47104715358187e-8,3.437740668949094e-8,0
30964,8.809319214732613e-9,6.089766423901189e-10,1.5439142615962924e-9,3.3839737970602854e-8,6.71593222429251e-8,1.2307027997467537e-8,9.450795382224043e-8,3.4351615332055254e-8,0
30965,8.778779837168785e-9,6.17795424400524e-10,1.5411733368583432e-9,3.370062629328797e-8,6.683323846789992e-8,1.2292834727366862e-8,9.430543610866214e-8,3.432582397461956e-8,0
30966,8.748240459604958e-9,6.266142064109292e-10,1.538432412120394e-9,3.356151461597308e-8,6.650715469287473e-8,1.2278641457266187e-8,9.410291839508387e-8,3.430003261718387e-8,0
30967,8.71770108204113e-9,6.354329884213343e-10,1.5356914873824448e-9,3.34224029386582e-8,6.618107091784954e-8,1.2264448187165512e-8,9.390040068150559e-8,3.4274241259748186e-8,0
30968,8.718344417854847e-9,6.381942510578293e-10,1.5060311987554536e-9,3.3229611471052405e-8,6.616083307491788e-8,1.2265599558083033e-8,9.390908706488571e-8,3.42773910509385e-8,0
30969,8.653615235569078e-9,6.472805301186946e-10,1.5112525846393027e-9,3.32333057328396e-8,6.557722006046785e-8,1.2158391445829036e-8,9.379674832481464e-8,3.427512044982989e-8,0
30970,8.58888605328331e-9,6.563668091795598e-10,1.5164739705231516e-9,3.323699999462678e-8,6.499360704601783e-8,1.2051183333575041e-8,9.368440958474357e-8,3.427284984872128e-8,0
30971,8.524156870997542e-9,6.65453088240425e-10,1.5216953564070006e-9,3.3240694256413974e-8,6.44099940315678e-8,1.1943975221321045e-8,9.357207084467249e-8,3.427057924761267e-8,0
30972,8.459427688711774e-9,6.745393673012903e-10,1.5269167422908495e-9,3.3244388518201166e-8,6.382638101711778e-8,1.1836767109067048e-8,9.345973210460141e-8,3.426830864650406e-8,0
30973,8.394698506426005e-9,6.836256463621555e-10,1.5321381281746986e-9,3.324808277998835e-8,6.324276800266775e-8,1.1729558996813052e-8,9.334739336453033e-8,3.426603804539545e-8,0
30974,8.329969324140238e-9,6.927119254230209e-10,1.5373595140585475e-9,3.325177704177554e-8,6.265915498821774e-8,1.1622350884559055e-8,9.323505462445926e-8,3.4263767444286837e-8,0
30975,8.265240141854469e-9,7.017982044838861e-10,1.5425808999423965e-9,3.325547130356273e-8,6.207554197376772e-8,1.151514277230506e-8,9.312271588438819e-8,3.426149684317823e-8,0
30976,8.200510959568702e-9,7.108844835447513e-10,1.5478022858262454e-9,3.325916556534992e-8,6.14919289593177e-8,1.1407934660051064e-8,9.301037714431712e-8,3.425922624206962e-8,0
30977,8.166321154846761e-9,7.111157396114983e-10,1.5530458457769864e-9,3.327795563622291e-8,6.090458968240078e-8,1.1305424929136865e-8,9.290713054970916e-8,3.430857731216675e-8,0
30978,8.17971576952061e-9,7.111157396114983e-10,1.5530369761502295e-9,3.334602393732837e-8,6.031725040548389e-8,1.1197909087516656e-8,9.277630694729002e-8,3.433780751726053e-8,0
30979,8.193110384194458e-9,7.111157396114983e-10,1.5530281065234728e-9,3.341409223843384e-8,5.972991112856698e-8,1.1090393245896445e-8,9.264548334487089e-8,3.4367037722354304e-8,0
30980,8.206504998868306e-9,7.111157396114983e-10,1.553019236896716e-9,3.348216053953931e-8,5.914257185165007e-8,1.0982877404276236e-8,9.251465974245175e-8,3.4396267927448086e-8,0
30981,8.219899613542154e-9,7.111157396114983e-10,1.5530103672699592e-9,3.3550228840644776e-8,5.855523257473317e-8,1.0875361562656026e-8,9.238383614003261e-8,3.442549813254187e-8,0
30982,8.298023410501771e-9,7.108844835447513e-10,1.5477801117593535e-9,3.3009069820063193e-8,5.841113132778813e-8,1.0852036871762518e-8,9.209616783108454e-8,3.4371566903893156e-8,0
30983,8.376147207461386e-9,7.106532274780044e-10,1.5425498562487477e-9,3.246791079948162e-8,5.826703008084309e-8,1.0828712180869011e-8,9.180849952213645e-8,3.431763567524445e-8,0
30984,8.454271004421004e-9,7.104219714112575e-10,1.537319600738142e-9,3.1926751778900034e-8,5.812292883389806e-8,1.0805387489975503e-8,9.152083121318836e-8,3.4263704446595746e-8,0
30985,8.532394801380619e-9,7.101907153445106e-10,1.5320893452275362e-9,3.138559275831845e-8,5.797882758695302e-8,1.0782062799081995e-8,9.123316290424028e-8,3.4209773217947034e-8,0
30986,8.610518598340236e-9,7.099594592777638e-10,1.5268590897169304e-9,3.0844433737736875e-8,5.7834726340007985e-8,1.0758738108188489e-8,9.094549459529219e-8,3.415584198929833e-8,0
30987,8.688642395299853e-9,7.097282032110168e-10,1.5216288342063247e-9,3.030327471715529e-8,5.769062509306295e-8,1.0735413417294981e-8,9.065782628634411e-8,3.410191076064962e-8,0
30988,8.766766192259469e-9,7.094969471442699e-10,1.5163985786957191e-9,2.9762115696573716e-8,5.7546523846117916e-8,1.0712088726401473e-8,9.037015797739602e-8,3.404797953200091e-8,0
30989,8.844889989219086e-9,7.09265691077523e-10,1.5111683231851134e-9,2.9220956675992133e-8,5.740242259917288e-8,1.0688764035507965e-8,9.008248966844795e-8,3.3994048303352206e-8,0
30990,8.921242934075216e-9,7.09265691077523e-10,1.5119098006408563e-9,2.9251392504553764e-8,5.7035800654097964e-8,1.0598121024913896e-8,9.007814647675788e-8,3.388537399511307e-8,0
30991,8.997595878931345e-9,7.09265691077523e-10,1.5126512780965992e-9,2.9281828333115395e-8,5.666917870902305e-8,1.0507478014319828e-8,9.007380328506782e-8,3.377669968687393e-8,0
30992,9.073948823787475e-9,7.09265691077523e-10,1.513392755552342e-9,2.9312264161677023e-8,5.6302556763948136e-8,1.0416835003725759e-8,9.006946009337776e-8,3.36680253786348e-8,0
30993,9.150301768643606e-9,7.09265691077523e-10,1.514134233008085e-9,2.9342699990238654e-8,5.593593481887322e-8,1.032619199313169e-8,9.00651169016877e-8,3.3559351070395657e-8,0
30994,9.226654713499736e-9,7.09265691077523e-10,1.5148757104638278e-9,2.9373135818800285e-8,5.556931287379831e-8,1.0235548982537622e-8,9.006077370999763e-8,3.345067676215652e-8,0
30995,9.303007658355865e-9,7.09265691077523e-10,1.5156171879195707e-9,2.9403571647361912e-8,5.5202690928723394e-8,1.0144905971943551e-8,9.005643051830757e-8,3.334200245391739e-8,0
30996,9.379360603211995e-9,7.09265691077523e-10,1.5163586653753136e-9,2.9434007475923543e-8,5.483606898364848e-8,1.0054262961349483e-8,9.005208732661751e-8,3.323332814567825e-8,0
30997,9.455713548068126e-9,7.09265691077523e-10,1.5171001428310565e-9,2.9464443304485174e-8,5.4469447038573566e-8,9.963619950755414e-9,9.004774413492745e-8,3.3124653837439114e-8,0
30998,9.532066492924256e-9,7.09265691077523e-10,1.5178416202867994e-9,2.9494879133046802e-8,5.410282509349865e-8,9.872976940161345e-9,9.004340094323738e-8,3.301597952919998e-8,0
30999,9.608419437780385e-9,7.09265691077523e-10,1.5185830977425423e-9,2.9525314961608433e-8,5.373620314842374e-8,9.782333929567277e-9,9.003905775154732e-8,3.290730522096084e-8,0
31000,9.64051336526045e-9,7.102269563282238e-10,1.5273223643271104e-9,2.9532593268399796e-8,5.3581469778740495e-8,9.694529572993343e-9,9.00482095413602e-8,3.2767130106519316e-8,0
31001,9.703471695442732e-9,7.104944533786839e-10,1.533294097293459e-9,2.9486870529197634e-8,5.3508718874894404e-8,9.62721125329278e-9,9.004776808291969e-8,3.2778065165913136e-8,0
31002,9.766430025625012e-9,7.107619504291439e-10,1.5392658302598077e-9,2.9441147789995472e-8,5.343596797104832e-8,9.55989293359222e-9,9.004732662447919e-8,3.2789000225306956e-8,0
31003,9.829388355807295e-9,7.11029447479604e-10,1.5452375632261564e-9,2.939542505079331e-8,5.336321706720223e-8,9.492574613891657e-9,9.004688516603867e-8,3.279993528470078e-8,0
31004,9.892346685989577e-9,7.112969445300642e-10,1.551209296192505e-9,2.9349702311591144e-8,5.329046616335614e-8,9.425256294191097e-9,9.004644370759816e-8,3.28108703440946e-8,0
31005,9.952153342130954e-9,7.09265691077523e-10,1.5484683714545557e-9,2.9333724768241232e-8,5.352414156862806e-8,9.44574233106447e-9,9.005034544084772e-8,3.221315296588158e-8,0
31006,1.0011959998272328e-8,7.072344376249819e-10,1.5457274467166065e-9,2.931774722489132e-8,5.375781697389998e-8,9.466228367937841e-9,9.005424717409728e-8,3.161543558766856e-8,0
31007,1.0071766654413705e-8,7.052031841724408e-10,1.5429865219786573e-9,2.930176968154141e-8,5.39914923791719e-8,9.486714404811214e-9,9.005814890734682e-8,3.1017718209455534e-8,0
31008,1.0131573310555082e-8,7.031719307198997e-10,1.540245597240708e-9,2.9285792138191498e-8,5.422516778444382e-8,9.507200441684587e-9,9.006205064059638e-8,3.0420000831242516e-8,0
31009,1.0191379966696458e-8,7.011406772673585e-10,1.5375046725027588e-9,2.9269814594841586e-8,5.445884318971574e-8,9.52768647855796e-9,9.006595237384594e-8,2.982228345302949e-8,0
31010,1.0251186622837835e-8,6.991094238148175e-10,1.5347637477648096e-9,2.9253837051491675e-8,5.469251859498766e-8,9.548172515431332e-9,9.00698541070955e-8,2.9224566074816467e-8,0
31011,1.031099327897921e-8,6.970781703622763e-10,1.5320228230268604e-9,2.9237859508141763e-8,5.4926194000259576e-8,9.568658552304705e-9,9.007375584034504e-8,2.8626848696603446e-8,0
31012,1.0370799935120586e-8,6.950469169097353e-10,1.5292818982889112e-9,2.9221881964791852e-8,5.5159869405531496e-8,9.589144589178078e-9,9.00776575735946e-8,2.8029131318390425e-8,0
31013,1.0430606591261963e-8,6.930156634571941e-10,1.526540973550962e-9,2.920590442144194e-8,5.5393544810803416e-8,9.609630626051449e-9,9.008155930684416e-8,2.7431413940177404e-8,0
31014,1.049041324740334e-8,6.90984410004653e-10,1.5238000488130128e-9,2.9189926878092026e-8,5.5627220216075335e-8,9.630116662924822e-9,9.00854610400937e-8,2.683369656196438e-8,0
31015,1.0550219903544716e-8,6.889531565521119e-10,1.5210591240750636e-9,2.9173949334742114e-8,5.5860895621347255e-8,9.650602699798195e-9,9.008936277334326e-8,2.6235979183751358e-8,0
31016,1.0610026559686091e-8,6.869219030995707e-10,1.5183181993371144e-9,2.9157971791392203e-8,5.6094571026619174e-8,9.671088736671568e-9,9.009326450659282e-8,2.5638261805538337e-8,0
31017,1.0669833215827468e-8,6.848906496470296e-10,1.5155772745991652e-9,2.914199424804229e-8,5.6328246431891094e-8,9.69157477354494e-9,9.009716623984236e-8,2.5040544427325315e-8,0
31018,1.0729639871968844e-8,6.828593961944885e-10,1.512836349861216e-9,2.912601670469238e-8,5.6561921837163013e-8,9.712060810418312e-9,9.010106797309192e-8,2.444282704911229e-8,0
31019,1.0789446528110221e-8,6.808281427419474e-10,1.5100954251232668e-9,2.9110039161342468e-8,5.679559724243493e-8,9.732546847291685e-9,9.010496970634148e-8,2.384510967089927e-8,0
31020,1.0849253184251596e-8,6.787968892894062e-10,1.5073545003853176e-9,2.9094061617992557e-8,5.702927264770685e-8,9.753032884165057e-9,9.010887143959103e-8,2.3247392292686248e-8,0
31021,1.0909059840392972e-8,6.767656358368652e-10,1.5046135756473684e-9,2.9078084074642645e-8,5.726294805297877e-8,9.77351892103843e-9,9.011277317284058e-8,2.2649674914473224e-8,0
31022,1.1087974341236833e-8,6.833357184924501e-10,1.5158687818848634e-9,2.9088986868824047e-8,5.742983857657618e-8,9.786412183950039e-9,9.019225385152575e-8,2.212040502947027e-8,0
31023,1.1111285727690205e-8,6.810369679894489e-10,1.5071561241805655e-9,2.9266014893421233e-8,5.7818002853267456e-8,9.795487866141042e-9,9.019122769795298e-8,2.143174239646088e-8,0
31024,1.1134597114143577e-8,6.787382174864476e-10,1.4984434664762677e-9,2.944304291801842e-8,5.820616712995873e-8,9.804563548332046e-9,9.019020154438023e-8,2.0743079763451493e-8,0
31025,1.115790850059695e-8,6.764394669834464e-10,1.4897308087719698e-9,2.9620070942615605e-8,5.859433140665001e-8,9.8136392305230492e-09,9.018917539080746e-8,2.00544171304421e-8,0
31026,1.1184371561091228e-8,6.762082109166995e-10,1.4899824027372624e-9,2.981597625608222e-8,5.8923220745763225e-8,9.81977813261264e-9,9.018996766632732e-8,2.010627398680363e-8,0
31027,1.1134481676729375e-8,6.698831944923293e-10,1.486252841391656e-9,2.9996455110113994e-8,5.93533665997729e-8,9.831384739457563e-9,8.956540477553857e-8,2.0169588697032924e-8,0
31028,1.1084591792367524e-8,6.635581780679591e-10,1.4825232800460497e-9,3.017693396414577e-8,5.978351245378258e-8,9.842991346302488e-9,8.894084188474982e-8,2.0232903407262218e-8,0
31029,1.1034701908005671e-8,6.572331616435888e-10,1.4787937187004433e-9,3.035741281817754e-8,6.021365830779225e-8,9.854597953147412e-9,8.831627899396107e-8,2.0296218117491512e-8,0
31030,1.0984812023643818e-8,6.509081452192186e-10,1.4750641573548369e-9,3.053789167220932e-8,6.064380416180193e-8,9.866204559992337e-9,8.769171610317231e-8,2.0359532827720806e-8,0
31031,1.0934922139281967e-8,6.445831287948484e-10,1.4713345960092305e-9,3.071837052624109e-8,6.107395001581162e-8,9.87781116683726e-9,8.706715321238357e-8,2.04228475379501e-8,0
31032,1.0885032254920114e-8,6.38258112370478e-10,1.467605034663624e-9,3.0898849380272867e-8,6.150409586982129e-8,9.889417773682186e-9,8.644259032159481e-8,2.0486162248179394e-8,0
31033,1.0835142370558263e-8,6.319330959461078e-10,1.4638754733180177e-9,3.107932823430464e-8,6.193424172383096e-8,9.90102438052711e-9,8.581802743080605e-8,2.0549476958408688e-8,0
31034,1.078525248619641e-8,6.256080795217376e-10,1.4601459119724113e-9,3.1259807088336416e-8,6.236438757784065e-8,9.912630987372035e-9,8.519346454001731e-8,2.0612791668637982e-8,0
31035,1.0735362601834557e-8,6.192830630973673e-10,1.4564163506268049e-9,3.144028594236819e-8,6.279453343185033e-8,9.924237594216958e-9,8.456890164922855e-8,2.0676106378867276e-8,0
31036,1.0658380893805866e-8,6.151480742248587e-10,1.464670168534301e-9,3.154567350926774e-8,6.279993821671831e-8,9.943978115620303e-9,8.39441621750636e-8,2.0724406071418004e-8,0
31037,1.0596267628983397e-8,6.090543138672354e-10,1.462940054470901e-9,3.1572089980880424e-8,6.28332156325012e-8,9.943978115620303e-9,8.332062543784761e-8,2.0725784014616914e-8,0
31038,1.0534154364160927e-8,6.02960553509612e-10,1.461209940407501e-9,3.1598506452493105e-8,6.28664930482841e-8,9.943978115620303e-9,8.269708870063162e-8,2.0727161957815823e-8,0
31039,1.0472041099338458e-8,5.968667931519887e-10,1.4594798263441008e-9,3.162492292410579e-8,6.289977046406699e-8,9.943978115620303e-9,8.207355196341563e-8,2.0728539901014733e-8,0
31040,1.0409927834515989e-8,5.907730327943653e-10,1.4577497122807007e-9,3.165133939571847e-8,6.293304787984989e-8,9.943978115620303e-9,8.145001522619964e-8,2.0729917844213645e-8,0
31041,1.034781456969352e-8,5.84679272436742e-10,1.4560195982173006e-9,3.1677755867331144e-8,6.296632529563277e-8,9.943978115620303e-9,8.082647848898365e-8,2.0731295787412555e-8,0
31042,1.0285701304871051e-8,5.785855120791186e-10,1.4542894841539006e-9,3.1704172338943826e-8,6.299960271141567e-8,9.943978115620303e-9,8.020294175176766e-8,2.0732673730611464e-8,0
31043,1.0223588040048582e-8,5.724917517214952e-10,1.4525593700905005e-9,3.173058881055651e-8,6.303288012719856e-8,9.943978115620303e-9,7.957940501455167e-8,2.0734051673810374e-8,0
31044,1.0161474775226113e-8,5.663979913638719e-10,1.4508292560271004e-9,3.175700528216919e-8,6.306615754298146e-8,9.943978115620303e-9,7.895586827733568e-8,2.0735429617009286e-8,0
31045,1.0099361510403644e-8,5.603042310062485e-10,1.4490991419637003e-9,3.178342175378187e-8,6.309943495876435e-8,9.943978115620303e-9,7.833233154011969e-8,2.0736807560208196e-8,0
31046,1.0037248245581174e-8,5.542104706486252e-10,1.4473690279003002e-9,3.1809838225394554e-8,6.313271237454725e-8,9.943978115620303e-9,7.77087948029037e-8,2.0738185503407105e-8,0
31047,9.975134980758707e-9,5.481167102910018e-10,1.4456389138369001e-9,3.1836254697007236e-8,6.316598979033014e-8,9.943978115620303e-9,7.708525806568771e-8,2.0739563446606015e-8,0
31048,9.972677074918042e-9,5.483479663577487e-10,1.4438910605199864e-9,3.186267116861992e-8,6.30733800178065e-8,9.943115894535052e-9,7.701605067109544e-8,2.074166330739956e-8,0
31049,9.986916754951703e-9,5.476179571737949e-10,1.4438910605199864e-9,3.188001731093915e-8,6.304723863688964e-8,9.901122506608387e-9,7.684843627702945e-8,2.073516604904787e-8,0
31050,1.0001156434985364e-8,5.46887947989841e-10,1.4438910605199864e-9,3.189736345325838e-8,6.302109725597279e-8,9.859129118681724e-9,7.668082188296345e-8,2.0728668790696184e-8,0
31051,1.0015396115019025e-8,5.461579388058871e-10,1.4438910605199864e-9,3.191470959557761e-8,6.299495587505593e-8,9.81713573075506e-9,7.651320748889744e-8,2.0722171532344498e-8,0
31052,1.0029635795052685e-8,5.454279296219332e-10,1.4438910605199864e-9,3.193205573789684e-8,6.296881449413906e-8,9.775142342828395e-9,7.634559309483145e-8,2.0715674273992808e-8,0
31053,1.0043875475086346e-8,5.446979204379793e-10,1.4438910605199864e-9,3.194940188021607e-8,6.294267311322221e-8,9.733148954901732e-9,7.617797870076544e-8,2.0709177015641122e-8,0
31054,1.0058115155120007e-8,5.439679112540255e-10,1.4438910605199864e-9,3.19667480225353e-8,6.291653173230535e-8,9.691155566975068e-9,7.601036430669943e-8,2.0702679757289436e-8,0
31055,1.0072354835153669e-8,5.432379020700716e-10,1.4438910605199864e-9,3.198409416485453e-8,6.28903903513885e-8,9.649162179048403e-9,7.584274991263344e-8,2.0696182498937747e-8,0
31056,1.008659451518733e-8,5.425078928861177e-10,1.4438910605199864e-9,3.2001440307173757e-08,6.286424897047164e-8,9.607168791121739e-9,7.567513551856743e-8,2.068968524058606e-8,0
31057,1.0100834195220991e-8,5.417778837021638e-10,1.4438910605199864e-9,3.201878644949299e-8,6.283810758955478e-8,9.565175403195076e-9,7.550752112450143e-8,2.0683187982234372e-8,0
31058,1.009948251856588e-8,5.469604299572673e-10,1.4618594771795731e-9,3.2126372018828105e-8,6.287994530775149e-8,9.534788622113335e-9,7.595902888324634e-8,2.0774642563676687e-8,0
31059,1.0096923747952166e-8,5.470329119246937e-10,1.4797879805187541e-9,3.247846316560238e-8,6.295914628975921e-8,9.57105708610872e-9,7.594405924071097e-8,2.0795708510752092e-8,0
31060,1.0094364977338454e-8,5.471053938921201e-10,1.4977164838579351e-9,3.2830554312376653e-8,6.303834727176695e-8,9.607325550104104e-9,7.59290895981756e-8,2.0816774457827493e-8,0
31061,1.0091806206724742e-8,5.471778758595464e-10,1.5156449871971163e-9,3.318264545915092e-8,6.311754825377467e-8,9.643594014099489e-9,7.591411995564024e-8,2.0837840404902898e-8,0
31062,1.0070663560719014e-8,5.479441260272135e-10,1.5348314603627607e-9,3.355923339465349e-8,6.31432052052435e-8,9.46518380599937e-9,7.581210239564654e-8,2.085859180700416e-8,0
31063,1.0063905177443458e-8,5.46787845693479e-10,1.54602014439958e-9,3.393434251440372e-8,6.330811022398953e-8,9.494642170570907e-9,7.539017650713557e-8,2.0887428107305447e-8,0
31064,1.0057146794167901e-8,5.456315653597445e-10,1.557208828436399e-9,3.430945163415395e-8,6.347301524273557e-8,9.524100535142444e-9,7.49682506186246e-8,2.0916264407606735e-8,0
31065,1.0050388410892344e-8,5.4447528502601e-10,1.5683975124732185e-9,3.4684560753904184e-8,6.36379202614816e-8,9.55355889971398e-9,7.454632473011364e-8,2.0945100707908023e-8,0
31066,1.004363002761679e-8,5.433190046922755e-10,1.5795861965100377e-9,3.505966987365441e-8,6.3802825280227635e-08,9.583017264285517e-9,7.412439884160267e-8,2.0973937008209307e-8,0
31067,1.0036871644341233e-8,5.421627243585411e-10,1.5907748805468569e-9,3.543477899340464e-8,6.396773029897367e-8,9.612475628857052e-9,7.370247295309169e-8,2.1002773308510595e-8,0
31068,1.0030113261065676e-8,5.410064440248066e-10,1.601963564583676e-9,3.580988811315488e-8,6.41326353177197e-8,9.64193399342859e-9,7.328054706458072e-8,2.1031609608811883e-8,0
31069,1.002335487779012e-8,5.398501636910722e-10,1.6131522486204952e-9,3.618499723290511e-8,6.429754033646574e-8,9.671392358000126e-9,7.285862117606975e-8,2.106044590911317e-8,0
31070,1.0016596494514563e-8,5.386938833573377e-10,1.6243409326573146e-9,3.656010635265534e-8,6.446244535521177e-8,9.700850722571662e-9,7.243669528755879e-8,2.108928220941446e-8,0
31071,1.0009838111239007e-8,5.375376030236032e-10,1.6355296166941338e-9,3.693521547240557e-8,6.46273503739578e-8,9.730309087143199e-9,7.201476939904782e-8,2.1118118509715743e-8,0
31072,1.0003079727963452e-8,5.363813226898687e-10,1.646718300730953e-9,3.73103245921558e-8,6.479225539270384e-8,9.759767451714734e-9,7.159284351053684e-8,2.114695481001703e-8,0
31073,9.996321344687895e-9,5.352250423561342e-10,1.6579069847677722e-9,3.768543371190603e-8,6.495716041144987e-8,9.789225816286271e-9,7.117091762202587e-8,2.117579111031832e-8,0
31074,9.989562961412339e-9,5.340687620223997e-10,1.6690956688045914e-9,3.806054283165627e-8,6.51220654301959e-8,9.818684180857807e-9,7.07489917335149e-8,2.1204627410619607e-8,0
31075,9.982804578136782e-9,5.329124816886652e-10,1.6802843528414105e-9,3.8435651951406496e-8,6.528697044894195e-8,9.848142545429344e-9,7.032706584500394e-8,2.1233463710920895e-8,0
31076,9.976046194861226e-9,5.317562013549307e-10,1.69147303687823e-9,3.8810761071156726e-8,6.545187546768798e-8,9.877600910000881e-9,6.990513995649297e-8,2.126230001122218e-8,0
31077,9.96928781158567e-9,5.305999210211962e-10,1.7026617209150491e-9,3.9185870190906955e-8,6.561678048643401e-8,9.907059274572416e-9,6.948321406798199e-8,2.1291136311523467e-8,0
31078,9.962529428310114e-9,5.294436406874617e-10,1.7138504049518683e-9,3.956097931065719e-8,6.578168550518004e-8,9.936517639143953e-9,6.906128817947102e-8,2.1319972611824755e-8,0
31079,9.955771045034558e-9,5.282873603537272e-10,1.7250390889886875e-9,3.993608843040742e-8,6.594659052392607e-8,9.965976003715489e-9,6.863936229096005e-8,2.1348808912126043e-8,0
31080,9.955771045034558e-9,5.263285888686125e-10,1.7282832016572222e-9,4.0190550848553995e-8,6.594884929886567e-8,9.917172516364977e-9,6.80789929659262e-8,2.1438281948927523e-8,0
31081,9.955771045034558e-9,5.243698173834977e-10,1.7315273143257567e-9,4.044501326670056e-8,6.595110807380528e-8,9.868369029014466e-9,6.7518623640892345e-08,2.1527754985729008e-8,0
31082,9.955771045034558e-9,5.224110458983829e-10,1.7347714269942913e-9,4.069947568484714e-8,6.595336684874488e-8,9.819565541663954e-9,6.69582543158585e-8,2.1617228022530488e-8,0
31083,9.955771045034558e-9,5.204522744132683e-10,1.7380155396628258e-9,4.0953938102993705e-8,6.595562562368448e-8,9.770762054313442e-9,6.639788499082464e-8,2.170670105933197e-8,0
31084,9.960599420868963e-9,5.184935029281535e-10,1.7492485718334288e-9,4.1201528194282394e-8,6.591325556449451e-8,9.769899833228191e-9,6.640774311414234e-8,2.1629326987024904e-8,0
31085,9.930190053360491e-9,5.184572619444403e-10,1.7614835450518243e-9,4.145419858992688e-8,6.573815481642707e-8,9.736064167805452e-9,6.580282227633918e-8,2.1711029670600505e-8,0
31086,9.899780685852019e-9,5.184210209607271e-10,1.7737185182702197e-9,4.170686898557136e-8,6.556305406835964e-8,9.702228502382712e-9,6.519790143853602e-8,2.1792732354176103e-8,0
31087,9.869371318343547e-9,5.183847799770139e-10,1.7859534914886152e-9,4.195953938121585e-8,6.538795332029221e-8,9.66839283695997e-9,6.459298060073286e-8,2.18744350377517e-8,0
31088,9.838961950835075e-9,5.183485389933007e-10,1.7981884647070106e-9,4.2212209776860335e-08,6.521285257222478e-8,9.63455717153723e-9,6.39880597629297e-8,2.19561377213273e-8,0
31089,9.808552583326603e-9,5.183122980095876e-10,1.810423437925406e-9,4.2464880172504816e-8,6.503775182415734e-8,9.60072150611449e-9,6.338313892512654e-8,2.20378404049029e-8,0
31090,9.778143215818131e-9,5.182760570258744e-10,1.8226584111438015e-9,4.27175505681493e-8,6.48626510760899e-8,9.56688584069175e-9,6.277821808732338e-8,2.2119543088478496e-8,0
31091,9.747733848309659e-9,5.182398160421612e-10,1.834893384362197e-9,4.297022096379378e-8,6.468755032802248e-8,9.53305017526901e-9,6.217329724952023e-8,2.2201245772054097e-8,0
31092,9.717324480801187e-9,5.18203575058448e-10,1.8471283575805924e-9,4.322289135943827e-8,6.451244957995504e-8,9.499214509846268e-9,6.156837641171707e-8,2.2282948455629695e-8,0
31093,9.686915113292715e-9,5.181673340747348e-10,1.8593633307989878e-9,4.347556175508276e-8,6.433734883188761e-8,9.465378844423529e-9,6.096345557391391e-8,2.2364651139205292e-8,0
31094,9.656505745784243e-9,5.181310930910216e-10,1.8715983040173833e-9,4.372823215072724e-8,6.416224808382017e-8,9.431543179000787e-9,6.035853473611075e-8,2.2446353822780893e-8,0
31095,9.626096378275771e-9,5.180948521073085e-10,1.8838332772357785e-9,4.3980902546371724e-8,6.398714733575275e-8,9.397707513578048e-9,5.975361389830759e-8,2.252805650635649e-8,0
31096,9.595687010767299e-9,5.180586111235953e-10,1.896068250454174e-9,4.4233572942016205e-8,6.381204658768531e-8,9.363871848155306e-9,5.914869306050443e-8,2.2609759189932088e-8,0
31097,9.565277643258827e-9,5.180223701398821e-10,1.9083032236725694e-9,4.448624333766069e-8,6.363694583961788e-8,9.330036182732566e-9,5.854377222270127e-8,2.269146187350769e-8,0
31098,9.534868275750355e-9,5.179861291561689e-10,1.9205381968909646e-09,4.473891373330517e-8,6.346184509155044e-8,9.296200517309827e-9,5.793885138489811e-8,2.2773164557083287e-8,0
31099,9.504458908241883e-9,5.179498881724557e-10,1.9327731701093603e-9,4.499158412894966e-8,6.328674434348302e-8,9.262364851887085e-9,5.7333930547094954e-8,2.2854867240658884e-8,0
31100,9.474049540733411e-9,5.179136471887425e-10,1.9450081433277555e-9,4.5244254524594146e-8,6.311164359541558e-8,9.228529186464346e-9,5.6729009709291795e-8,2.2936569924234485e-8,0
31101,9.443640173224939e-9,5.178774062050293e-10,1.957243116546151e-9,4.5496924920238626e-8,6.293654284734815e-8,9.194693521041604e-9,5.6124088871488636e-8,2.3018272607810083e-8,0
31102,1.0434625613654813e-8,5.264787423131554e-10,1.957494710511444e-9,4.549875182993929e-8,6.275513575575478e-8,9.162181670753436e-9,5.56598187624109e-8,2.3152464131994752e-8,0
31103,1.04089437572077e-8,5.272449924808224e-10,1.957494710511444e-9,4.549548099168487e-8,6.260946625765428e-8,9.131492388717044e-9,5.514948678317392e-8,2.3147529024985042e-8,0
31104,1.0383261900760586e-8,5.280112426484895e-10,1.957494710511444e-9,4.549221015343045e-8,6.246379675955378e-8,9.100803106680651e-9,5.4639154803936936e-8,2.3142593917975328e-8,0
31105,1.0357580044313473e-8,5.287774928161566e-10,1.957494710511444e-9,4.548893931517603e-8,6.231812726145328e-8,9.070113824644261e-9,5.4128822824699955e-8,2.3137658810965615e-8,0
31106,1.0331898187866359e-8,5.295437429838236e-10,1.957494710511444e-9,4.548566847692161e-8,6.217245776335279e-8,9.039424542607869e-9,5.361849084546297e-8,2.3132723703955904e-8,0
31107,1.0342176988244671e-8,5.283874626500891e-10,1.9564927694636514e-9,4.5484467980720454e-8,6.216586370158346e-8,8.955159073745394e-9,5.371307970402915e-8,2.312778859694619e-8,0
31108,1.0336864431934212e-8,5.255036668979868e-10,1.9562456103117373e-9,4.5484282434353006e-8,6.203339677517678e-8,8.909501969781231e-9,5.376720991575181e-8,2.308918837809982e-8,0
31109,1.0331551875623752e-8,5.226198711458845e-10,1.955998451159823e-9,4.548409688798555e-8,6.190092984877009e-8,8.863844865817068e-9,5.382134012747447e-8,2.305058815925345e-8,0
31110,1.0326239319313294e-8,5.197360753937821e-10,1.9557512920079087e-9,4.54839113416181e-8,6.176846292236341e-8,8.818187761852905e-9,5.3875470339197125e-8,2.301198794040708e-8,0
31111,1.0320926763002833e-8,5.168522796416798e-10,1.9555041328559942e-9,4.548372579525065e-8,6.163599599595672e-8,8.772530657888742e-9,5.392960055091979e-8,2.297338772156071e-8,0
31112,1.0315614206692375e-8,5.139684838895775e-10,1.95525697370408e-9,4.54835402488832e-8,6.150352906955004e-8,8.72687355392458e-9,5.398373076264245e-8,2.293478750271434e-8,0
31113,1.0310301650381916e-8,5.110846881374751e-10,1.9550098145521656e-9,4.5483354702515744e-8,6.137106214314335e-8,8.681216449960417e-9,5.4037860974365106e-8,2.2896187283867973e-8,0
31114,1.0304989094071456e-8,5.082008923853728e-10,1.9547626554002515e-9,4.548316915614829e-8,6.123859521673667e-8,8.635559345996254e-9,5.4091991186087764e-08,2.2857587065021603e-8,0
31115,1.0299676537760997e-8,5.053170966332704e-10,1.954515496248337e-9,4.548298360978084e-8,6.110612829032998e-8,8.58990224203209e-9,5.414612139781042e-8,2.2818986846175233e-8,0
31116,1.0294363981450537e-8,5.024333008811681e-10,1.954268337096423e-9,4.5482798063413386e-8,6.09736613639233e-8,8.544245138067928e-9,5.420025160953308e-8,2.2780386627328863e-8,0
31117,1.0289051425140079e-8,4.995495051290658e-10,1.9540211779445084e-9,4.548261251704594e-8,6.084119443751662e-8,8.498588034103765e-9,5.425438182125574e-8,2.2741786408482493e-8,0
31118,1.0283738868829618e-8,4.966657093769634e-10,1.9537740187925943e-9,4.548242697067848e-8,6.070872751110993e-8,8.452930930139602e-9,5.43085120329784e-8,2.2703186189636123e-8,0
31119,1.027842631251916e-8,4.937819136248611e-10,1.95352685964068e-9,4.5482241424311034e-8,6.057626058470325e-8,8.407273826175439e-9,5.4362642244701056e-8,2.2664585970789753e-8,0
31120,1.02731137562087e-8,4.908981178727588e-10,1.9532797004887657e-9,4.548205587794358e-8,6.044379365829656e-8,8.361616722211276e-9,5.441677245642372e-8,2.2625985751943383e-8,0
31121,1.0271646642139387e-8,4.916643680404258e-10,1.9532797004887657e-9,4.54334333932219e-8,6.047929626114301e-8,8.235763720869627e-9,5.385565595091973e-8,2.2558246708499953e-8,0
31122,1.025411070536831e-8,4.924306182080929e-10,1.9530325413368512e-9,4.542244338104406e-8,6.05140651202258e-8,8.237586289121405e-9,5.3875694367296105e-8,2.2561081954716122e-8,0
31123,1.0236574768597234e-8,4.9319686837576e-10,1.952785382184937e-9,4.5411453368866217e-8,6.054883397930859e-8,8.239408857373184e-9,5.389573278367249e-8,2.2563917200932295e-8,0
31124,1.0210111708102956e-8,4.9319686837576e-10,1.9525382230330226e-9,4.54423062877359e-8,6.083565542563039e-8,8.262640650596976e-9,5.380868251654111e-8,2.256519029580649e-8,0
31125,1.0183648647608679e-8,4.9319686837576e-10,1.9522910638811085e-9,4.547315920660558e-8,6.112247687195218e-8,8.285872443820768e-9,5.372163224940974e-8,2.2566463390680686e-8,0
31126,1.0157185587114401e-8,4.9319686837576e-10,1.952043904729194e-9,4.550401212547526e-8,6.140929831827398e-8,8.30910423704456e-9,5.3634581982278366e-8,2.2567736485554883e-8,0
31127,1.0130722526620124e-8,4.9319686837576e-10,1.95179674557728e-9,4.553486504434494e-8,6.169611976459578e-8,8.332336030268351e-9,5.3547531715146996e-8,2.2569009580429077e-8,0
31128,1.0130722526620124e-8,4.934643654262201e-10,1.9515495864253654e-9,4.53970696352015e-8,6.128264873886545e-8,8.259831032933906e-9,5.3370741583275876e-8,2.2528847210240735e-8,0
31129,1.0130722526620124e-8,4.937318624766801e-10,1.9513024272734513e-9,4.525927422605807e-8,6.086917771313514e-8,8.187326035599463e-9,5.3193951451404756e-8,2.248868484005239e-8,0
31130,1.0130722526620124e-8,4.977943693817623e-10,1.955036423432436e-9,4.507893414278317e-8,6.027819367317264e-8,8.090265429906657e-9,5.3104211586665006e-8,2.244724937498985e-8,0
31131,1.012830833870292e-8,5.13609505197533e-10,1.9637801248303825e-9,4.5155237036491115e-8,6.003741112934502e-8,7.992897094847637e-9,5.296517875566376e-8,2.2454008754153323e-8,0
31132,1.0125894150785717e-8,5.294246410133038e-10,1.972523826228329e-9,4.523153993019906e-8,5.979662858551739e-8,7.895528759788617e-9,5.282614592466252e-8,2.2460768133316796e-8,0
31133,1.0123479962868514e-8,5.452397768290745e-10,1.9812675276262755e-9,4.530784282390701e-8,5.955584604168976e-8,7.798160424729596e-9,5.268711309366127e-8,2.246752751248027e-8,0
31134,1.0121065774951311e-8,5.610549126448452e-10,1.9900112290242223e-9,4.538414571761496e-8,5.931506349786213e-8,7.700792089670576e-9,5.254808026266003e-8,2.247428689164374e-8,0
31135,1.0118651587034107e-8,5.768700484606159e-10,1.9987549304221688e-9,4.546044861132291e-8,5.907428095403451e-8,7.603423754611556e-9,5.2409047431658784e-8,2.2481046270807212e-8,0
31136,1.0116237399116904e-8,5.926851842763865e-10,2.0074986318201152e-9,4.553675150503086e-8,5.883349841020688e-8,7.506055419552535e-9,5.227001460065754e-8,2.2487805649970686e-8,0
31137,1.0113823211199702e-8,6.085003200921572e-10,2.0162423332180617e-9,4.561305439873881e-8,5.859271586637926e-8,7.408687084493514e-9,5.21309817696563e-8,2.249456502913416e-8,0
31138,1.0111409023282499e-8,6.243154559079279e-10,2.024986034616008e-9,4.568935729244676e-8,5.835193332255163e-8,7.311318749434494e-9,5.1991948938655055e-8,2.2501324408297632e-8,0
31139,1.0108994835365295e-8,6.401305917236987e-10,2.033729736013955e-9,4.5765660186154706e-8,5.8111150778724e-8,7.2139504143754734e-9,5.185291610765381e-8,2.2508083787461106e-8,0
31140,1.0106580647448092e-8,6.559457275394694e-10,2.0424734374119015e-9,4.584196307986265e-8,5.787036823489638e-8,7.116582079316453e-9,5.171388327665257e-8,2.251484316662458e-8,0
31141,1.0104166459530889e-8,6.717608633552401e-10,2.051217138809848e-9,4.591826597357061e-8,5.762958569106875e-8,7.019213744257433e-9,5.157485044565132e-8,2.252160254578805e-8,0
31142,1.0101752271613686e-8,6.875759991710107e-10,2.0599608402077944e-9,4.5994568867278554e-8,5.738880314724112e-8,6.9218454091984124e-9,5.1435817614650076e-8,2.2528361924951522e-8,0
31143,1.0099338083696482e-8,7.033911349867814e-10,2.068704541605741e-9,4.60708717609865e-8,5.7148020603413496e-8,6.824477074139392e-9,5.129678478364883e-8,2.2535121304114995e-8,0
31144,1.0099338083696482e-8,7.170162432506905e-10,2.077695402155602e-9,4.61851901083852e-8,5.755260532904482e-8,6.821638420119257e-9,5.124749181738734e-8,2.2584090490098e-8,0
31145,1.009692389577928e-8,7.328313790664612e-10,2.084435221457964e-9,4.643333683877624e-8,5.801211525726931e-8,6.818184307366695e-9,5.0985121380071166e-8,2.262093232878096e-8,0
31146,1.0094509707862077e-8,7.486465148822319e-10,2.0911750407603254e-9,4.668148356916729e-8,5.84716251854938e-8,6.814730194614132e-9,5.0722750942755e-8,2.2657774167463924e-8,0
31147,1.0092095519944872e-8,7.644616506980026e-10,2.0979148600626875e-9,4.692963029955833e-8,5.893113511371829e-8,6.8112760818615695e-9,5.046038050543883e-8,2.2694616006146887e-8,0
31148,1.008968133202767e-8,7.802767865137733e-10,2.104654679365049e-9,4.717777702994938e-8,5.939064504194278e-8,6.807821969109006e-9,5.019801006812266e-8,2.273145784482985e-8,0
31149,1.0087267144110467e-8,7.960919223295439e-10,2.111394498667411e-9,4.7425923760340425e-8,5.985015497016726e-8,6.804367856356444e-9,4.993563963080649e-8,2.2768299683512815e-8,0
31150,1.0084852956193264e-8,8.119070581453146e-10,2.1181343179697727e-9,4.7674070490731466e-8,6.030966489839176e-8,6.800913743603881e-9,4.9673269193490324e-8,2.2805141522195776e-8,0
31151,1.008243876827606e-8,8.277221939610854e-10,2.1248741372721347e-9,4.7922217221122514e-8,6.076917482661625e-8,6.797459630851319e-9,4.941089875617415e-8,2.284198336087874e-8,0
31152,1.0080024580358857e-8,8.435373297768561e-10,2.1316139565744967e-9,4.8170363951513555e-8,6.122868475484075e-8,6.794005518098756e-9,4.914852831885798e-8,2.2878825199561703e-8,0
31153,1.0080024580358857e-8,8.458360802798573e-10,2.135586242258639e-9,4.816376994420685e-8,6.132775436211545e-8,6.8246948001351475e-9,4.8844587139110486e-8,2.2938046483678254e-8,0
31154,1.0077819980165842e-8,8.498985871849395e-10,2.1373340955755525e-9,4.8536181530366874e-8,6.132678562770538e-8,6.827016121504132e-9,4.863150966805581e-8,2.2955529778436493e-8,0
31155,1.0075615379972826e-8,8.539610940900217e-10,2.139081948892466e-9,4.8908593116526896e-8,6.13258168932953e-8,6.829337442873117e-9,4.841843219700114e-8,2.297301307319473e-8,0
31156,1.007341077977981e-8,8.58023600995104e-10,2.14082980220938e-9,4.928100470268692e-8,6.132484815888523e-8,6.831658764242102e-9,4.8205354725946465e-8,2.2990496367952967e-8,0
31157,1.0071206179586795e-8,8.620861079001862e-10,2.1425776555262935e-9,4.965341628884694e-8,6.132387942447515e-8,6.833980085611087e-9,4.799227725489179e-8,2.3007979662711206e-8,0
31158,1.006900157939378e-8,8.661486148052684e-10,2.144325508843207e-9,5.0025827875006953e-8,6.132291069006508e-8,6.836301406980072e-9,4.777919978383712e-8,2.302546295746944e-8,0
31159,1.0066796979200765e-8,8.702111217103507e-10,2.146073362160121e-9,5.0398239461166975e-8,6.1321941955655e-8,6.838622728349057e-9,4.7566122312782443e-8,2.304294625222768e-8,0
31160,1.006459237900775e-8,8.742736286154329e-10,2.147821215477034e-9,5.0770651047326996e-8,6.132097322124493e-8,6.840944049718042e-9,4.735304484172777e-8,2.3060429546985916e-8,0
31161,1.0062387778814734e-8,8.783361355205151e-10,2.1495690687939478e-9,5.114306263348702e-8,6.132000448683486e-8,6.8432653710870265e-9,4.7139967370673096e-8,2.3077912841744155e-8,0
31162,1.0060183178621718e-8,8.823986424255974e-10,2.1513169221108614e-9,5.151547421964704e-8,6.131903575242478e-8,6.845586692456011e-9,4.692688989961843e-8,2.309539613650239e-8,0
31163,1.0057978578428703e-8,8.864611493306796e-10,2.153064775427775e-9,5.188788580580706e-8,6.131806701801471e-8,6.847908013824996e-9,4.6713812428563755e-8,2.311287943126063e-8,0
31164,1.0055773978235687e-8,8.905236562357618e-10,2.1548126287446888e-9,5.226029739196708e-8,6.131709828360463e-8,6.850229335193981e-9,4.650073495750908e-8,2.3130362726018864e-8,0
31165,1.0053569378042671e-8,8.94586163140844e-10,2.1565604820616024e-9,5.2632708978127103e-8,6.131612954919456e-8,6.852550656562966e-9,4.628765748645441e-8,2.3147846020777103e-8,0
31166,1.0032780902457642e-8,8.983811729954663e-10,2.1565782213151158e-9,5.299823079382996e-8,6.125980403482622e-8,6.856694546183729e-9,4.6377611980600916e-8,2.3157768658958887e-8,0
31167,1.0011992426872611e-8,9.021761828500884e-10,2.1565959605686296e-9,5.3363752609532804e-8,6.12034785204579e-8,6.860838435804492e-9,4.646756647474743e-8,2.3167691297140667e-8,0
31168,9.991203951287582e-9,9.059711927047105e-10,2.156613699822143e-9,5.372927442523565e-8,6.114715300608957e-8,6.864982325425255e-9,4.655752096889395e-8,2.317761393532245e-8,0
31169,9.970415475702553e-9,9.097662025593327e-10,2.1566314390756567e-9,5.4094796240938505e-8,6.109082749172124e-8,6.869126215046017e-9,4.664747546304046e-8,2.3187536573504234e-8,0
31170,9.949627000117522e-9,9.135612124139548e-10,2.15664917832917e-9,5.446031805664135e-8,6.103450197735292e-8,6.87327010466678e-9,4.673742995718697e-8,2.3197459211686017e-8,0
31171,9.928838524532493e-9,9.17356222268577e-10,2.156666917582684e-9,5.48258398723442e-8,6.097817646298459e-8,6.8774139942875426e-9,4.682738445133348e-8,2.3207381849867797e-8,0
31172,9.908050048947463e-9,9.211512321231991e-10,2.1566846568361972e-9,5.5191361688047054e-8,6.092185094861625e-8,6.881557883908305e-9,4.691733894548e-8,2.321730448804958e-8,0
31173,9.887261573362434e-9,9.249462419778213e-10,2.1567023960897106e-9,5.55568835037499e-8,6.086552543424793e-8,6.885701773529069e-9,4.7007293439626514e-8,2.3227227126231364e-8,0
31174,9.866473097777404e-9,9.287412518324434e-10,2.1567201353432244e-9,5.592240531945275e-8,6.08091999198796e-8,6.889845663149831e-9,4.709724793377302e-8,2.3237149764413145e-8,0
31175,9.876657747845731e-9,9.307725052849845e-10,2.1649429095570718e-9,5.593648062351756e-8,6.07569219740976e-8,6.893989552770594e-9,4.7159472784724394e-8,2.3247072402594928e-8,0
31176,9.86227348511556e-9,9.314662734852252e-10,2.161208913398087e-9,5.592198189591998e-8,6.072092543418568e-8,6.892665737636023e-9,4.7183942684478936e-8,2.322710881007865e-8,0
31177,9.84788922238539e-9,9.321600416854659e-10,2.1574749172391023e-9,5.5907483168322405e-8,6.068492889427377e-8,6.891341922501452e-9,4.7208412584233485e-8,2.320714521756238e-8,0
31178,9.833504959655218e-9,9.328538098857065e-10,2.1537409210801176e-9,5.5892984440724826e-8,6.064893235436184e-8,6.890018107366881e-9,4.723288248398803e-8,2.3187181625046102e-8,0
31179,9.81912069692505e-9,9.335475780859472e-10,2.150006924921133e-9,5.587848571312725e-8,6.061293581444992e-8,6.88869429223231e-9,4.725735238374257e-8,2.3167218032529825e-8,0
31180,9.804736434194878e-9,9.34241346286188e-10,2.146272928762148e-9,5.586398698552967e-8,6.057693927453801e-8,6.887370477097739e-9,4.728182228349712e-8,2.314725444001355e-8,0
31181,9.790352171464707e-9,9.349351144864287e-10,2.1425389326031634e-9,5.5849488257932083e-8,6.054094273462609e-8,6.886046661963169e-9,4.730629218325166e-8,2.3127290847497273e-8,0
31182,9.775967908734537e-9,9.356288826866694e-10,2.1388049364441782e-9,5.5834989530334505e-8,6.050494619471416e-8,6.884722846828597e-9,4.7330762083006204e-8,2.3107327254981e-8,0
31183,9.761583646004366e-9,9.3632265088691e-10,2.1350709402851935e-9,5.5820490802736926e-8,6.046894965480225e-8,6.883399031694027e-9,4.735523198276075e-8,2.3087363662464723e-8,0
31184,9.747199383274195e-9,9.370164190871507e-10,2.1313369441262087e-9,5.580599207513935e-8,6.043295311489033e-8,6.882075216559455e-9,4.7379701882515295e-8,2.3067400069948446e-8,0
31185,9.732815120544024e-9,9.377101872873915e-10,2.127602947967224e-9,5.579149334754177e-8,6.03969565749784e-8,6.880751401424885e-9,4.740417178226984e-8,2.304743647743217e-8,0
31186,9.718430857813853e-9,9.384039554876322e-10,2.1238689518082393e-9,5.577699461994419e-8,6.036096003506648e-8,6.879427586290314e-9,4.7428641682024387e-8,2.3027472884915894e-8,0
31187,9.704046595083682e-9,9.390977236878729e-10,2.1201349556492545e-9,5.576249589234661e-8,6.032496349515457e-8,6.878103771155743e-9,4.745311158177893e-8,2.300750929239962e-8,0
31188,9.697851969953011e-9,9.37868961386712e-10,2.1181310735536697e-9,5.5606566157840993e-8,6.03443237352009e-8,6.878411500521957e-9,4.747758148153347e-8,2.2965705411050952e-8,0
31189,9.66995765513479e-9,9.385627295869526e-10,2.1173762916577917e-9,5.551851284484867e-8,6.035849022525307e-8,6.87871922988817e-9,4.750266707343168e-8,2.2963382385779982e-8,0
31190,9.635659127461711e-9,9.385627295869526e-10,2.1163743506099993e-9,5.543175280124123e-8,6.060814968604823e-8,6.966438811503208e-9,4.755782108905405e-8,2.298625913718115e-8,0
31191,9.60136059978863e-9,9.385627295869526e-10,2.115372409562207e-9,5.534499275763379e-8,6.085780914684339e-8,7.054158393118246e-9,4.761297510467642e-8,2.300913588858232e-8,0
31192,9.56706207211555e-9,9.385627295869526e-10,2.1143704685144145e-9,5.525823271402635e-8,6.110746860763855e-8,7.141877974733284e-9,4.766812912029879e-8,2.3032012639983487e-8,0
31193,9.532763544442471e-9,9.385627295869526e-10,2.1133685274666225e-9,5.5171472670418905e-8,6.135712806843371e-8,7.229597556348321e-9,4.772328313592115e-8,2.3054889391384654e-8,0
31194,9.49846501676939e-9,9.385627295869526e-10,2.11236658641883e-9,5.508471262681146e-8,6.160678752922887e-8,7.317317137963359e-9,4.777843715154352e-8,2.307776614278582e-8,0
31195,9.464166489096312e-9,9.385627295869526e-10,2.1113646453710376e-9,5.499795258320402e-8,6.185644699002403e-8,7.4050367195783966e-9,4.783359116716589e-8,2.3100642894186988e-8,0
31196,9.429867961423231e-9,9.385627295869526e-10,2.110362704323245e-9,5.491119253959658e-8,6.210610645081919e-8,7.492756301193434e-9,4.788874518278826e-8,2.3123519645588155e-8,0
31197,9.395569433750152e-9,9.385627295869526e-10,2.1093607632754527e-9,5.4824432495989136e-8,6.235576591161435e-8,7.580475882808472e-9,4.794389919841063e-8,2.3146396396989326e-8,0
31198,9.361270906077072e-9,9.385627295869526e-10,2.1083588222276603e-9,5.4737672452381694e-8,6.260542537240951e-8,7.66819546442351e-9,4.7999053214033e-8,2.3169273148390493e-8,0
31199,9.326972378403991e-9,9.385627295869526e-10,2.1073568811798683e-9,5.465091240877425e-8,6.285508483320467e-8,7.755915046038548e-9,4.805420722965537e-8,2.319214989979166e-8,0
31200,9.292673850730912e-9,9.385627295869526e-10,2.106354940132076e-9,5.456415236516681e-8,6.310474429399983e-8,7.843634627653584e-9,4.8109361245277736e-8,2.3215026651192827e-8,0
31201,9.258375323057831e-9,9.385627295869526e-10,2.1053529990842835e-9,5.447739232155937e-8,6.3354403754795e-8,7.931354209268622e-9,4.8164515260900106e-8,2.3237903402593994e-8,0
31202,9.224076795384752e-9,9.385627295869526e-10,2.104351058036491e-9,5.4390632277951925e-8,6.360406321559016e-8,8.01907379088366e-9,4.8219669276522477e-8,2.326078015399516e-8,0
31203,9.189778267711672e-9,9.385627295869526e-10,2.1033491169886986e-9,5.430387223434448e-8,6.385372267638532e-8,8.106793372498698e-9,4.827482329214485e-8,2.328365690539633e-8,0
31204,9.155479740038593e-9,9.385627295869526e-10,2.1023471759409066e-9,5.421711219073704e-8,6.410338213718048e-8,8.194512954113736e-9,4.832997730776722e-8,2.3306533656797498e-8,0
31205,9.121181212365512e-9,9.385627295869526e-10,2.101345234893114e-9,5.41303521471296e-8,6.435304159797564e-8,8.282232535728773e-9,4.838513132338959e-8,2.3329410408198665e-8,0
31206,9.086882684692433e-9,9.385627295869526e-10,2.1003432938453217e-9,5.4043592103522156e-8,6.46027010587708e-8,8.369952117343811e-9,4.844028533901195e-8,2.3352287159599832e-8,0
31207,9.052584157019353e-9,9.385627295869526e-10,2.0993413527975293e-9,5.3956832059914714e-8,6.485236051956596e-8,8.45767169895885e-9,4.849543935463432e-8,2.3375163911001e-8,0
31208,9.018285629346272e-9,9.385627295869526e-10,2.098339411749737e-9,5.387007201630727e-8,6.510201998036112e-8,8.545391280573887e-9,4.855059337025669e-8,2.339804066240217e-8,0
31209,8.983987101673193e-9,9.385627295869526e-10,2.097337470701945e-9,5.378331197269983e-8,6.535167944115628e-8,8.633110862188923e-9,4.860574738587906e-8,2.3420917413803337e-8,0
31210,8.983134178135289e-9,9.385627295869526e-10,2.0970903115500304e-9,5.378539975835238e-8,6.557141853097074e-8,8.692345777521334e-9,4.865702831559023e-8,2.3440013836916275e-8,0
31211,8.964665740157477e-9,9.375289823688256e-10,2.0911141437703034e-9,5.370597035233417e-8,6.486871379275389e-8,8.820427202562251e-9,4.857051014826052e-8,2.324996341075405e-8,0
31212,8.946197302179663e-9,9.367264912174453e-10,2.1410338036247856e-9,5.3569909079707676e-8,6.397009502705115e-8,8.8143916549655e-9,4.8461261617273e-8,2.304336275122728e-8,0
31213,8.927728864201852e-9,9.35924000066065e-10,2.1909534634792675e-9,5.343384780708118e-8,6.30714762613484e-8,8.80835610736875e-9,4.8352013086285475e-8,2.2836762091700506e-8,0
31214,8.90926042622404e-9,9.351215089146847e-10,2.24087312333375e-9,5.3297786534454685e-8,6.217285749564566e-8,8.802320559771998e-9,4.824276455529796e-8,2.2630161432173733e-8,0
31215,8.890791988246228e-9,9.343190177633046e-10,2.2907927831882317e-9,5.3161725261828186e-8,6.127423872994292e-8,8.796285012175246e-9,4.813351602431044e-8,2.2423560772646962e-8,0
31216,8.872323550268415e-9,9.335165266119242e-10,2.340712443042714e-9,5.302566398920169e-8,6.037561996424018e-8,8.790249464578495e-9,4.802426749332292e-8,2.2216960113120188e-8,0
31217,8.853855112290603e-9,9.32714035460544e-10,2.3906321028971963e-9,5.2889602716575194e-8,5.9477001198537436e-8,8.784213916981743e-9,4.79150189623354e-8,2.2010359453593414e-8,0
31218,8.835386674312791e-9,9.319115443091637e-10,2.440551762751678e-9,5.27535414439487e-8,5.8578382432834696e-8,8.778178369384992e-9,4.780577043134788e-8,2.1803758794066644e-8,0
31219,8.816918236334978e-9,9.311090531577835e-10,2.4904714226061604e-9,5.26174801713222e-8,5.7679763667131955e-8,8.772142821788242e-9,4.7696521900360365e-8,2.159715813453987e-8,0
31220,8.798449798357166e-9,9.303065620064032e-10,2.5403910824606423e-9,5.248141889869571e-8,5.6781144901429215e-8,8.76610727419149e-9,4.758727336937284e-8,2.1390557475013096e-8,0
31221,8.779981360379355e-9,9.29504070855023e-10,2.5903107423151246e-9,5.234535762606921e-8,5.5882526135726474e-8,8.760071726594739e-9,4.747802483838532e-8,2.1183956815486326e-8,0
31222,8.761512922401541e-9,9.287015797036427e-10,2.6402304021696065e-9,5.220929635344272e-8,5.4983907370023734e-8,8.754036178997987e-9,4.7368776307397806e-8,2.0977356155959552e-8,0
31223,8.74304448442373e-9,9.278990885522624e-10,2.6901500620240887e-9,5.207323508081622e-8,5.408528860432099e-8,8.748000631401235e-9,4.7259527776410284e-8,2.0770755496432778e-8,0
31224,8.724576046445918e-9,9.270965974008823e-10,2.740069721878571e-9,5.1937173808189726e-8,5.318666983861825e-8,8.741965083804484e-9,4.715027924542276e-8,2.0564154836906007e-8,0
31225,8.706107608468106e-9,9.26294106249502e-10,2.789989381733053e-9,5.180111253556323e-8,5.228805107291551e-8,8.735929536207734e-9,4.704103071443525e-8,2.0357554177379234e-8,0
31226,8.687639170490293e-9,9.254916150981218e-10,2.839909041587535e-9,5.1665051262936735e-8,5.138943230721277e-8,8.729893988610982e-9,4.6931782183447725e-8,2.015095351785246e-8,0
31227,8.66917073251248e-9,9.246891239467415e-10,2.889828701442017e-9,5.1528989990310235e-8,5.049081354151003e-8,8.72385844101423e-9,4.6822533652460203e-8,1.994435285832569e-8,0
31228,8.650702294534669e-9,9.238866327953612e-10,2.9397483612964994e-9,5.139292871768374e-8,4.959219477580729e-8,8.717822893417479e-9,4.671328512147269e-8,1.9737752198798915e-8,0
31229,8.632233856556856e-9,9.23084141643981e-10,2.9896680211509816e-9,5.1256867445057244e-8,4.869357601010455e-8,8.711787345820728e-9,4.6604036590485166e-8,1.953115153927214e-8,0
31230,8.613765418579044e-9,9.222816504926007e-10,3.0395876810054635e-9,5.112080617243075e-8,4.779495724440181e-8,8.705751798223976e-9,4.649478805949765e-8,1.932455087974537e-8,0
31231,8.595296980601232e-9,9.214791593412204e-10,3.089507340859946e-9,5.098474489980426e-8,4.689633847869907e-8,8.699716250627226e-9,4.638553952851013e-8,1.9117950220218597e-8,0
31232,8.595940316414948e-9,9.207491501572666e-10,3.1254308697389835e-9,5.070135480085968e-8,4.670123006229468e-8,8.766474850197189e-9,4.651392666001993e-8,1.9086239717366778e-8,0
31233,8.593157385435894e-9,9.207491501572666e-10,3.1805719154773145e-9,5.0707525384633615e-8,4.67002613278846e-8,8.814145546164123e-9,4.640185279501316e-8,1.90780889271764e-8,0
31234,8.597935328883777e-9,9.296041731513849e-10,3.4039423549719887e-9,5.0778510874857884e-8,4.6705598937000465e-8,8.807945677061141e-9,4.619457437929656e-8,1.9066998042445136e-8,0
31235,8.641775170811466e-9,9.316716675876391e-10,3.415144343448943e-9,5.1064917269329714e-8,4.672070538963837e-8,8.823383215749053e-9,4.597937085870828e-8,1.905518524011924e-8,0
31236,8.685615012739158e-9,9.337391620238935e-10,3.4263463319258976e-9,5.135132366380154e-8,4.6735811842276273e-08,8.838820754436964e-9,4.576416733812001e-8,1.9043372437793343e-8,0
31237,8.729454854666847e-9,9.358066564601479e-10,3.4375483204028518e-9,5.163773005827336e-8,4.675091829491418e-8,8.854258293124876e-9,4.554896381753174e-8,1.9031559635467447e-08,0
31238,8.776720963387309e-9,9.38105406963149e-10,3.4475012086800995e-9,5.1924432215895656e-8,4.6757929610379414e-8,8.878827252605619e-9,4.558636795164921e-8,1.9029459774673906e-8,0
31239,8.758614554008285e-9,9.401729013994032e-10,3.4574674013974824e-9,5.206860675396705e-8,4.6757929610379414e-8,8.919799326352365e-9,4.5608136505430116e-8,1.9004483162479194e-8,0
31240,8.740508144629262e-9,9.422403958356576e-10,3.4674335941148653e-9,5.2212781292038443e-8,4.6757929610379414e-8,8.96077140009911e-9,4.562990505921102e-8,1.8979506550284483e-8,0
31241,8.722401735250238e-9,9.44307890271912e-10,3.4773997868322483e-9,5.235695583010984e-8,4.6757929610379414e-8,9.001743473845854e-9,4.565167361299192e-8,1.8954529938089775e-8,0
31242,8.704295325871215e-9,9.463753847081663e-10,3.487365979549631e-9,5.250113036818124e-8,4.6757929610379414e-8,9.0427155475926e-9,4.567344216677283e-8,1.8929553325895064e-8,0
31243,8.686188916492191e-9,9.484428791444205e-10,3.497332172267014e-9,5.264530490625263e-8,4.6757929610379414e-8,9.083687621339344e-9,4.569521072055373e-8,1.8904576713700356e-8,0
31244,8.668082507113168e-9,9.505103735806749e-10,3.507298364984397e-9,5.2789479444324024e-8,4.6757929610379414e-8,9.12465969508609e-9,4.571697927433464e-8,1.8879600101505645e-8,0
31245,8.649976097734146e-9,9.525778680169293e-10,3.51726455770178e-9,5.293365398239542e-8,4.6757929610379414e-8,9.165631768832835e-9,4.573874782811554e-8,1.8854623489310937e-8,0
31246,8.631869688355122e-9,9.546453624531834e-10,3.5272307504191625e-9,5.307782852046681e-8,4.6757929610379414e-8,9.206603842579579e-9,4.5760516381896444e-8,1.8829646877116226e-8,0
31247,8.613763278976099e-9,9.567128568894378e-10,3.5371969431365454e-9,5.3222003058538205e-8,4.6757929610379414e-8,9.247575916326325e-9,4.578228493567735e-8,1.8804670264921515e-8,0
31248,8.552655378566134e-9,9.586716283745524e-10,3.5708960396483546e-9,5.311594230252857e-8,4.6750745663968144e-8,9.256842622268322e-9,4.5768937890212266e-8,1.8795640284649435e-8,0
31249,8.49154747815617e-9,9.606303998596673e-10,3.604595136160164e-9,5.300988154651893e-8,4.6743561717556875e-8,9.266109328210318e-9,4.575559084474718e-8,1.8786610304377352e-8,0
31250,8.430439577746207e-9,9.62589171344782e-10,3.638294232671973e-9,5.290382079050929e-8,4.6736377771145605e-8,9.275376034152313e-9,4.5742243799282095e-8,1.877758032410527e-8,0
31251,8.369331677336244e-9,9.645479428298968e-10,3.6719933291837824e-9,5.279776003449965e-8,4.672919382473433e-8,9.28464274009431e-9,4.572889675381701e-8,1.8768550343833186e-8,0
31252,8.30822377692628e-9,9.665067143150115e-10,3.7056924256955917e-9,5.269169927849001e-8,4.672200987832306e-8,9.293909446036306e-9,4.5715549708351924e-8,1.8759520363561102e-8,0
31253,8.247115876516317e-9,9.684654858001261e-10,3.739391522207401e-9,5.258563852248037e-8,4.671482593191179e-8,9.303176151978303e-9,4.570220266288684e-8,1.875049038328902e-8,0
31254,8.186007976106354e-9,9.70424257285241e-10,3.77309061871921e-9,5.2479577766470735e-8,4.670764198550052e-8,9.3124428579203e-9,4.568885561742176e-8,1.8741460403016936e-8,0
31255,8.124900075696391e-9,9.723830287703557e-10,3.8067897152310195e-9,5.237351701046109e-8,4.670045803908925e-8,9.321709563862296e-9,4.5675508571956675e-8,1.8732430422744853e-8,0
31256,8.060590068858998e-9,9.73185519921736e-10,3.824731523010336e-9,5.223207967032834e-8,4.669650160202765e-8,9.35837053218279e-9,4.565987299162011e-8,1.8719266612876042e-8,0
31257,7.996280062021604e-9,9.739880110731162e-10,3.842673330789652e-9,5.2090642330195576e-8,4.6692545164966056e-8,9.395031500503284e-9,4.564423741128354e-8,1.8706102803007227e-8,0
31258,7.931970055184211e-9,9.747905022244966e-10,3.860615138568968e-9,5.194920499006282e-8,4.6688588727904457e-8,9.431692468823779e-9,4.562860183094697e-8,1.8692938993138412e-8,0
31259,7.867660048346818e-9,9.755929933758767e-10,3.878556946348284e-9,5.1807767649930066e-8,4.6684632290842864e-8,9.468353437144272e-9,4.561296625061041e-8,1.86797751832696e-8,0
31260,7.803350041509425e-9,9.76395484527257e-10,3.896498754127601e-9,5.1666330309797304e-8,4.668067585378127e-8,9.505014405464766e-9,4.559733067027384e-8,1.8666611373400786e-8,0
31261,7.796208342530864e-9,9.73366724840302e-10,3.896498754127601e-9,5.1413543364145085e-8,4.664371539551099e-8,9.433488334830793e-9,4.5163451154661275e-8,1.8658211930226616e-8,0
31262,7.785929542152552e-9,9.73366724840302e-10,3.915685227293244e-9,5.1408631162557453e-8,4.658351975955409e-8,9.429177229404543e-9,4.408424709940568e-8,1.8560823288390548e-8,0
31263,7.775650741774238e-9,9.73366724840302e-10,3.934871700458889e-9,5.140371896096982e-8,4.6523324123597185e-8,9.424866123978292e-9,4.300504304415008e-8,1.846343464655448e-8,0
31264,7.765371941395926e-9,9.73366724840302e-10,3.954058173624534e-9,5.139880675938219e-8,4.6463128487640274e-8,9.42055501855204e-9,4.1925838988894484e-8,1.8366046004718412e-8,0
31265,7.755093141017612e-9,9.73366724840302e-10,3.973244646790178e-9,5.139389455779456e-8,4.640293285168337e-8,9.41624391312579e-9,4.084663493363889e-8,1.826865736288234e-8,0
31266,7.744814340639299e-9,9.73366724840302e-10,3.992431119955823e-9,5.1388982356206926e-8,4.634273721572646e-8,9.41193280769954e-9,3.97674308783833e-8,1.8171268721046273e-8,0
31267,7.734535540260987e-9,9.73366724840302e-10,4.0116175931214674e-9,5.1384070154619295e-8,4.6282541579769555e-8,9.407621702273288e-9,3.86882268231277e-8,1.8073880079210205e-8,0
31268,7.724256739882673e-9,9.73366724840302e-10,4.030804066287111e-9,5.137915795303166e-8,4.622234594381265e-8,9.403310596847037e-9,3.7609022767872103e-08,1.7976491437374137e-8,0
31269,7.713977939504361e-9,9.73366724840302e-10,4.049990539452756e-9,5.137424575144403e-8,4.616215030785574e-8,9.398999491420786e-9,3.6529818712616506e-8,1.7879102795538066e-8,0
31270,7.781403760637289e-9,9.74631728125176e-10,4.0489974680317205e-9,5.138802529235837e-8,4.6090099684383225e-8,9.361537269028433e-9,3.5448824875606636e-8,1.7825394731366786e-8,0
31271,7.779524185582664e-9,9.7589673141005e-10,4.056968648280275e-9,5.205392492303956e-8,4.621369932592582e-8,9.321544121982159e-9,3.4365747734439836e-8,1.7716245711367177e-8,0
31272,7.777644610528037e-9,9.771617346949241e-10,4.064939828528831e-9,5.271982455372075e-8,4.633729896746841e-8,9.281550974935884e-9,3.3282670593273035e-8,1.760709669136757e-8,0
31273,7.775765035473411e-9,9.784267379797981e-10,4.072911008777386e-9,5.338572418440195e-8,4.6460898609011e-8,9.241557827889611e-9,3.2199593452106234e-8,1.749794767136796e-8,0
31274,7.773885460418785e-9,9.796917412646721e-10,4.08088218902594e-9,5.405162381508314e-8,4.65844982505536e-8,9.201564680843336e-9,3.1116516310939433e-8,1.7388798651368353e-8,0
31275,7.77200588536416e-9,9.809567445495462e-10,4.088853369274495e-9,5.471752344576433e-8,4.670809789209619e-8,9.161571533797062e-9,3.003343916977263e-8,1.7279649631368744e-8,0
31276,7.770126310309532e-9,9.822217478344204e-10,4.09682454952305e-9,5.538342307644552e-8,4.683169753363878e-8,9.121578386750787e-9,2.895036202860583e-8,1.7170500611369136e-8,0
31277,7.768246735254907e-9,9.834867511192944e-10,4.1047957297716054e-9,5.604932270712671e-8,4.6955297175181374e-8,9.081585239704514e-9,2.7867284887439028e-8,1.706135159136953e-8,0
31278,7.76636716020028e-9,9.847517544041684e-10,4.11276691002016e-9,5.6715222337807896e-8,4.7078896816723965e-8,9.04159209265824e-9,2.6784207746272227e-8,1.6952202571369923e-8,0
31279,7.764487585145655e-9,9.860167576890424e-10,4.120738090268715e-9,5.738112196848909e-8,4.7202496458266563e-8,9.001598945611965e-9,2.5701130605105426e-8,1.6843053551370314e-8,0
31280,7.762608010091028e-9,9.872817609739164e-10,4.12870927051727e-9,5.804702159917028e-8,4.7326096099809155e-8,8.961605798565692e-9,2.4618053463938626e-8,1.6733904531370706e-8,0
31281,7.760728435036403e-9,9.885467642587906e-10,4.136680450765825e-9,5.871292122985147e-8,4.744969574135175e-8,8.921612651519417e-9,2.3534976322771825e-8,1.6624755511371098e-8,0
31282,7.758848859981776e-9,9.898117675436646e-10,4.14465163101438e-9,5.937882086053266e-8,4.757329538289434e-8,8.881619504473142e-9,2.2451899181605024e-8,1.651560649137149e-8,0
31283,7.164567162814487e-9,9.800179101180909e-10,4.1496169881195575e-9,6.005051998225288e-8,4.7705138836783015e-8,8.851750056042552e-9,2.2282466358446397e-8,1.6097754780327125e-8,0
31284,7.171614711483062e-9,9.82085404554345e-10,4.157579298741356e-9,6.055263748893544e-8,4.778067109997254e-8,8.852575118059917e-9,2.2262163067005713e-8,1.6093935495704536e-8,0
31285,7.178662260151638e-9,9.841528989905994e-10,4.1655416093631545e-9,6.105475499561802e-8,4.7856203363162064e-8,8.85340018007728e-9,2.2241859775565025e-8,1.6090116211081948e-8,0
31286,7.1857098088202136e-9,9.862203934268538e-10,4.173503919984952e-9,6.155687250230058e-8,4.793173562635159e-8,8.854225242094644e-9,2.222155648412434e-8,1.608629692645936e-8,0
31287,7.192757357488789e-9,9.882878878631082e-10,4.181466230606751e-9,6.205899000898315e-8,4.8007267889541114e-8,8.855050304112009e-9,2.2201253192683656e-8,1.6082477641836772e-8,0
31288,7.199804906157365e-9,9.903553822993623e-10,4.189428541228549e-9,6.256110751566571e-8,4.808280015273064e-8,8.855875366129373e-9,2.218094990124297e-8,1.6078658357214184e-8,0
31289,7.20685245482594e-9,9.924228767356167e-10,4.197390851850347e-9,6.306322502234827e-8,4.815833241592016e-8,8.856700428146736e-9,2.2160646609802284e-8,1.6074839072591595e-8,0
31290,7.213900003494516e-9,9.94490371171871e-10,4.205353162472145e-9,6.356534252903084e-8,4.823386467910969e-8,8.8575254901641e-9,2.2140343318361597e-8,1.6071019787969007e-8,0
31291,7.220947552163092e-9,9.965578656081252e-10,4.213315473093944e-9,6.40674600357134e-8,4.830939694229921e-8,8.858350552181465e-9,2.2120040026920912e-8,1.606720050334642e-8,0
31292,7.227995100831668e-9,9.986253600443796e-10,4.221277783715741e-9,6.456957754239596e-8,4.838492920548874e-8,8.859175614198828e-9,2.2099736735480225e-8,1.606338121872383e-8,0
31293,7.229845530603986e-9,1.0005841315294942e-9,4.2561594582265814e-9,6.440396850869666e-8,4.827666619117876e-8,8.862531600870114e-9,2.2098942110287312e-8,1.605928634546146e-8,0
31294,7.231695960376304e-9,1.0025429030146091e-9,4.2910411327374214e-9,6.423835947499738e-8,4.816840317686878e-8,8.865887587541398e-9,2.2098147485094397e-8,1.6055191472199092e-8,0
31295,7.233546390148622e-9,1.0045016744997238e-9,4.3259228072482615e-9,6.407275044129809e-8,4.8060140162558804e-8,8.869243574212684e-9,2.2097352859901484e-8,1.6051096598936722e-8,0
31296,7.23539681992094e-9,1.0064604459848386e-9,4.3608044817591015e-9,6.390714140759879e-8,4.7951877148248833e-8,8.872599560883968e-9,2.209655823470857e-8,1.6047001725674353e-8,0
31297,7.237247249693259e-9,1.0084192174699533e-9,4.3956861562699415e-9,6.37415323738995e-8,4.7843614133938856e-8,8.875955547555254e-9,2.2095763609515653e-8,1.604290685241198e-8,0
31298,7.2265347012254165e-9,1.010609245021815e-9,4.4275886165176756e-9,6.332840780045853e-8,4.778341849798195e-8,8.848617023778585e-9,2.2115272275763425e-8,1.587364678468538e-8,0
31299,7.215822152757575e-9,1.0127992725736766e-9,4.459491076765409e-9,6.291528322701755e-8,4.772322286202504e-8,8.821278500001917e-9,2.2134780942011197e-8,1.5704386716958776e-8,0
31300,7.205109604289733e-9,1.0149893001255383e-9,4.491393537013142e-9,6.250215865357657e-8,4.766302722606814e-8,8.793939976225248e-9,2.215428960825897e-8,1.5535126649232173e-8,0
31301,7.1943970558218905e-9,1.0171793276773998e-9,4.523295997260875e-9,6.20890340801356e-8,4.7602831590111227e-8,8.76660145244858e-9,2.217379827450674e-8,1.5365866581505572e-8,0
31302,7.183684507354049e-9,1.0193693552292615e-9,4.5551984575086084e-9,6.167590950669462e-8,4.754263595415432e-8,8.739262928671912e-9,2.219330694075451e-8,1.519660651377897e-8,0
31303,7.172971958886207e-9,1.0215593827811231e-9,4.587100917756342e-9,6.126278493325364e-8,4.748244031819742e-8,8.711924404895243e-9,2.221281560700228e-8,1.5027346446052365e-8,0
31304,7.1622594104183645e-9,1.0237494103329848e-9,4.619003378004076e-9,6.084966035981266e-8,4.742224468224051e-8,8.684585881118575e-9,2.2232324273250054e-8,1.4858086378325763e-8,0
31305,7.150708511053772e-9,1.0247106755836856e-9,4.619021117257589e-9,6.043265597821704e-8,4.735095657435597e-8,8.657862816074334e-9,2.2332664291169813e-8,1.479825091923855e-8,0
31306,7.13915761168918e-9,1.0256719408343864e-9,4.619038856511102e-9,6.001565159662144e-8,4.727966846647143e-8,8.631139751030093e-9,2.243300430908957e-8,1.4738415460151338e-8,0
31307,7.127606712324587e-9,1.0266332060850872e-9,4.619056595764616e-9,5.959864721502581e-8,4.7208380358586895e-8,8.604416685985852e-9,2.253334432700933e-8,1.4678580001064125e-8,0
31308,7.116055812959995e-9,1.027594471335788e-9,4.619074335018129e-9,5.91816428334302e-8,4.713709225070236e-8,8.577693620941612e-9,2.2633684344929086e-8,1.4618744541976913e-8,0
31309,7.104504913595403e-9,1.0285557365864887e-9,4.619092074271643e-9,5.876463845183458e-8,4.706580414281782e-8,8.55097055589737e-9,2.2734024362848845e-8,1.45589090828897e-8,0
31310,7.092954014230811e-9,1.0295170018371895e-9,4.619109813525157e-9,5.834763407023896e-8,4.699451603493328e-8,8.52424749085313e-9,2.28343643807686e-8,1.4499073623802486e-8,0
31311,7.081403114866218e-9,1.0304782670878903e-9,4.61912755277867e-9,5.793062968864334e-8,4.692322792704874e-8,8.497524425808889e-9,2.293470439868836e-8,1.4439238164715274e-8,0
31312,7.069852215501626e-9,1.031439532338591e-9,4.6191452920321834e-9,5.751362530704773e-8,4.6851939819164205e-8,8.470801360764648e-9,2.303504441660812e-8,1.4379402705628061e-8,0
31313,7.057289237261465e-9,1.0324007975892918e-9,4.617415177968783e-9,5.712172668408062e-8,4.68215830547667e-8,8.441794133419309e-9,2.3047279366485392e-8,1.4216245991460653e-8,0
31314,7.044726259021305e-9,1.0333620628399926e-9,4.615685063905384e-9,5.672982806111352e-8,4.679122629036919e-8,8.41278690607397e-9,2.3059514316362663e-8,1.4053089277293244e-8,0
31315,7.032163280781145e-9,1.0343233280906934e-9,4.613954949841983e-9,5.633792943814641e-8,4.676086952597169e-8,8.38377967872863e-9,2.3071749266239938e-8,1.3889932563125837e-8,0
31316,7.019600302540985e-9,1.0352845933413942e-9,4.612224835778583e-9,5.594603081517931e-8,4.6730512761574185e-8,8.354772451383291e-9,2.308398421611721e-8,1.3726775848958429e-8,0
31317,7.007037324300824e-9,1.036245858592095e-9,4.610494721715183e-9,5.55541321922122e-8,4.670015599717668e-8,8.325765224037952e-9,2.309621916599448e-8,1.356361913479102e-8,0
31318,6.994474346060664e-9,1.0372071238427957e-9,4.608764607651783e-9,5.51622335692451e-8,4.666979923277918e-8,8.296757996692613e-9,2.3108454115871755e-8,1.3400462420623612e-8,0
31319,6.981911367820504e-9,1.0341058821884142e-9,4.586100167105825e-9,5.507863414710906e-8,4.651584282683908e-8,8.27787969637452e-9,2.3030118879458854e-8,1.3100162067052281e-8,0
31320,6.9800609380481855e-9,1.0348358913723681e-9,4.586100167105825e-9,5.507863414710906e-8,4.6426211124863515e-8,8.27972084416024e-9,2.2801627957755253e-8,1.3070669741146716e-8,0
31321,6.978210508275867e-9,1.035565900556322e-9,4.586100167105825e-9,5.507863414710906e-8,4.633657942288796e-8,8.281561991945961e-9,2.2573137036051648e-8,1.304117741524115e-8,0
31322,6.976360078503549e-9,1.0362959097402758e-9,4.586100167105825e-9,5.507863414710906e-8,4.624694772091239e-8,8.283403139731683e-9,2.2344646114348044e-8,1.3011685089335584e-8,0
31323,6.974509648731231e-9,1.0370259189242298e-9,4.586100167105825e-9,5.507863414710906e-8,4.6157316018936834e-08,8.285244287517404e-9,2.2116155192644443e-8,1.2982192763430018e-8,0
31324,6.972659218958913e-9,1.0377559281081836e-9,4.586100167105825e-9,5.507863414710906e-8,4.606768431696127e-8,8.287085435303125e-9,2.188766427094084e-8,1.2952700437524454e-8,0
31325,6.970808789186595e-9,1.0384859372921375e-9,4.586100167105825e-9,5.507863414710906e-8,4.597805261498571e-8,8.288926583088845e-9,2.1659173349237234e-8,1.2923208111618888e-8,0
31326,6.968958359414276e-9,1.0392159464760915e-9,4.586100167105825e-9,5.507863414710906e-8,4.5888420913010145e-8,8.290767730874566e-9,2.1430682427533633e-8,1.2893715785713322e-8,0
31327,6.967107929641958e-9,1.0399459556600452e-9,4.586100167105825e-9,5.507863414710906e-8,4.579878921103459e-8,8.292608878660288e-9,2.120219150583003e-8,1.2864223459807756e-8,0
31328,6.963905823214529e-9,1.0406759648439992e-9,4.590094626856859e-9,5.505740819663519e-8,4.5709531542775433e-8,8.363198410073237e-9,2.097041454302053e-8,1.2828627780342996e-8,0
31329,6.959850793249195e-9,1.0404447087772522e-9,4.6779106539923155e-9,5.506847353839747e-8,4.5578910953664157e-8,8.363869607407494e-9,2.0745002082035216e-8,1.2805435036818056e-8,0
31330,6.955795763283861e-9,1.0402134527105054e-9,4.765726681127771e-9,5.507953888015975e-8,4.5448290364552886e-8,8.364540804741752e-9,2.0519589621049903e-8,1.2782242293293118e-8,0
31331,6.951740733318527e-9,1.0399821966437585e-9,4.853542708263227e-9,5.509060422192203e-8,4.5317669775441616e-8,8.365212002076009e-9,2.029417716006459e-8,1.275904954976818e-8,0
31332,6.947685703353194e-9,1.0397509405770115e-9,4.9413587353986835e-9,5.510166956368431e-8,4.518704918633034e-8,8.365883199410266e-9,2.0068764699079277e-8,1.273585680624324e-8,0
31333,6.94363067338786e-9,1.0395196845102647e-9,5.029174762534139e-9,5.511273490544659e-8,4.505642859721907e-8,8.366554396744523e-9,1.9843352238093964e-8,1.2712664062718301e-8,0
31334,6.939575643422526e-9,1.0392884284435177e-9,5.116990789669595e-9,5.512380024720887e-8,4.492580800810779e-8,8.36722559407878e-9,1.961793977710865e-8,1.2689471319193361e-8,0
31335,6.935520613457192e-9,1.0390571723767709e-9,5.2048068168050515e-9,5.513486558897115e-8,4.479518741899652e-8,8.367896791413037e-9,1.939252731612334e-8,1.2666278575668423e-8,0
31336,6.931465583491859e-9,1.038825916310024e-9,5.292622843940507e-9,5.514593093073343e-8,4.466456682988525e-8,8.368567988747295e-9,1.9167114855138026e-8,1.2643085832143485e-8,0
31337,6.927410553526525e-9,1.038594660243277e-9,5.380438871075963e-9,5.515699627249571e-8,4.4533946240773975e-8,8.369239186081552e-9,1.8941702394152713e-8,1.2619893088618545e-8,0
31338,6.923355523561191e-9,1.0383634041765302e-9,5.4682548982114195e-9,5.516806161425799e-8,4.4403325651662705e-8,8.369910383415807e-9,1.87162899331674e-8,1.2596700345093606e-8,0
31339,6.919300493595857e-9,1.0381321481097832e-9,5.556070925346875e-9,5.517912695602027e-8,4.427270506255143e-8,8.370581580750064e-9,1.8490877472182087e-8,1.2573507601568666e-8,0
31340,6.9152454636305235e-9,1.0379008920430364e-9,5.643886952482331e-9,5.519019229778255e-8,4.414208447344016e-8,8.371252778084322e-9,1.8265465011196774e-8,1.2550314858043728e-8,0
31341,6.91119043366519e-9,1.0376696359762896e-9,5.7317029796177876e-9,5.520125763954483e-8,4.401146388432889e-8,8.371923975418579e-9,1.804005255021146e-8,1.252712211451879e-8,0
31342,6.857006786331508e-9,1.0336071290712072e-9,5.820776976579707e-9,5.517314191861378e-8,4.3902759660550384e-8,8.35742297595169e-9,1.7814640089226148e-08,1.2476104044754973e-8,0
31343,6.853790107262925e-9,1.0247382959126212e-9,5.890624587055576e-9,5.5098659601381775e-8,4.383190313003093e-8,8.337374725182133e-9,1.7827870195664784e-8,1.2476471013891473e-8,0
31344,6.850573428194341e-9,1.015869462754035e-9,5.960472197531446e-9,5.502417728414977e-8,4.3761046599511476e-8,8.317326474412576e-9,1.7841100302103416e-8,1.2476837983027972e-8,0
31345,6.847356749125758e-9,1.007000629595449e-9,6.030319808007315e-9,5.494969496691777e-8,4.369019006899202e-8,8.29727822364302e-9,1.7854330408542048e-8,1.2477204952164472e-8,0
31346,6.844140070057175e-9,9.981317964368627e-10,6.100167418483185e-9,5.4875212649685766e-8,4.3619333538472574e-8,8.277229972873463e-9,1.7867560514980683e-8,1.2477571921300971e-8,0
31347,6.840923390988591e-9,9.892629632782767e-10,6.1700150289590546e-9,5.480073033245376e-8,4.354847700795312e-8,8.257181722103906e-9,1.7880790621419315e-8,1.2477938890437473e-8,0
31348,6.837706711920008e-9,9.803941301196905e-10,6.239862639434924e-9,5.4726248015221754e-8,4.3477620477433666e-8,8.23713347133435e-9,1.789402072785795e-8,1.2478305859573972e-8,0
31349,6.834280445127237e-9,9.966441577400194e-10,6.444015562070304e-9,5.491916158802256e-8,4.340984278109048e-8,8.225680729172532e-9,1.7895810509612224e-8,1.2467214974842707e-8,0
31350,6.830709595637957e-9,9.880428216318933e-10,6.427777259474118e-9,5.481238797855441e-8,4.334030506292489e-8,8.204961281068718e-9,1.7902676114226672e-8,1.245540217251681e-8,0
31351,6.827138746148676e-9,9.794414855237674e-10,6.4115389568779316e-9,5.470561436908625e-8,4.32707673447593e-8,8.184241832964904e-9,1.7909541718841117e-8,1.2443589370190916e-8,0
31352,6.8235678966593955e-9,9.708401494156413e-10,6.395300654281745e-9,5.4598840759618095e-8,4.3201229626593716e-8,8.16352238486109e-9,1.7916407323455565e-8,1.243177656786502e-8,0
31353,6.819997047170114e-9,9.622388133075152e-10,6.379062351685559e-9,5.449206715014994e-8,4.313169190842813e-8,8.142802936757277e-9,1.792327292807001e-8,1.2419963765539123e-8,0
31354,6.8164261976808335e-9,9.536374771993893e-10,6.362824049089372e-9,5.438529354068179e-8,4.306215419026254e-8,8.122083488653463e-9,1.793013853268446e-8,1.2408150963213226e-8,0
31355,6.812855348191553e-9,9.450361410912632e-10,6.346585746493186e-9,5.427851993121363e-8,4.299261647209695e-8,8.101364040549649e-9,1.7937004137298904e-8,1.239633816088733e-8,0
31356,6.812710765495043e-9,9.450361410912632e-10,6.344343574872444e-9,5.4219597288986055e-8,4.298278526887451e-8,8.02212326192713e-9,1.7707964216820553e-8,1.2333140319661117e-8,0
31357,6.811922846984817e-9,9.362173590808581e-10,6.3421014032517015e-9,5.420818385327544e-8,4.2969227803185184e-8,8.0211443352266585e-09,1.7696609834151244e-8,1.2329268610876173e-8,0
31358,6.8111349284745905e-9,9.273985770704529e-10,6.33985923163096e-9,5.419677041756483e-8,4.2955670337495856e-8,8.020165408526189e-9,1.7685255451481936e-8,1.2325396902091227e-8,0
31359,6.810347009964364e-9,9.185797950600477e-10,6.337617060010217e-9,5.418535698185422e-8,4.294211287180653e-8,8.019186481825717e-9,1.7673901068812627e-8,1.2321525193306283e-8,0
31360,6.809559091454138e-9,9.097610130496426e-10,6.335374888389475e-9,5.417394354614361e-8,4.29285554061172e-8,8.018207555125246e-9,1.7662546686143315e-8,1.2317653484521337e-8,0
31361,6.808771172943911e-9,9.009422310392374e-10,6.3331327167687324e-09,5.4162530110432995e-8,4.291499794042787e-8,8.017228628424776e-9,1.7651192303474007e-8,1.2313781775736392e-8,0
31362,6.807983254433685e-9,8.921234490288322e-10,6.3308905451479906e-9,5.415111667472239e-8,4.2901440474738544e-8,8.016249701724305e-9,1.7639837920804698e-8,1.2309910066951446e-8,0
31363,6.808402429882061e-9,8.869547129381965e-10,6.330912719214882e-9,5.415614464828032e-8,4.2897714212271664e-8,8.035990223127647e-9,1.762161793352094e-8,1.2306865124085847e-8,0
31364,6.8088216053304356e-9,8.817859768475607e-10,6.330934893281774e-9,5.4161172621838246e-8,4.2893987949804784e-8,8.055730744530992e-9,1.7603397946237184e-8,1.2303820181220248e-8,0
31365,6.8092407807788105e-9,8.76617240756925e-10,6.330957067348666e-9,5.4166200595396175e-8,4.28902616873379e-8,8.075471265934334e-9,1.7585177958953427e-8,1.230077523835465e-8,0
31366,6.809659956227186e-9,8.714485046662892e-10,6.330979241415558e-9,5.417122856895411e-8,4.288653542487102e-8,8.095211787337677e-9,1.7566957971669674e-8,1.229773029548905e-8,0
31367,6.810079131675561e-9,8.662797685756534e-10,6.33100141548245e-9,5.417625654251204e-8,4.288280916240413e-8,8.11495230874102e-9,1.7548737984385917e-8,1.2294685352623451e-8,0
31368,6.810498307123936e-9,8.611110324850177e-10,6.331023589549342e-9,5.418128451606997e-8,4.287908289993725e-8,8.134692830144363e-9,1.753051799710216e-8,1.2291640409757852e-8,0
31369,6.810917482572312e-9,8.559422963943819e-10,6.3310457636162336e-9,5.4186312489627905e-8,4.2875356637470365e-8,8.154433351547706e-9,1.7512298009818403e-8,1.2288595466892253e-8,0
31370,6.811336658020687e-9,8.507735603037462e-10,6.331067937683126e-9,5.4191340463185834e-8,4.2871630375003485e-8,8.174173872951049e-9,1.749407802253465e-8,1.2285550524026654e-8,0
31371,6.8105487395104604e-9,8.456048242131104e-10,6.33707958396988e-9,5.418500733183102e-8,4.2898117017812414e-8,8.174173872951049e-9,1.7474567006613822e-8,1.228167881524171e-8,0
31372,6.809760821000234e-9,8.404360881224746e-10,6.343091230256634e-9,5.41786742004762e-8,4.2924603660621336e-8,8.174173872951049e-9,1.7455055990692998e-8,1.2277807106456764e-8,0
31373,6.808972902490008e-9,8.352673520318389e-10,6.349102876543388e-9,5.4172341069121386e-8,4.2951090303430264e-8,8.174173872951049e-9,1.7435544974772174e-8,1.227393539767182e-8,0
31374,6.808184983979781e-9,8.300986159412031e-10,6.3551145228301425e-9,5.416600793776657e-8,4.297757694623919e-8,8.174173872951049e-9,1.741603395885135e-8,1.2270063688886874e-8,0
31375,6.807397065469555e-9,8.249298798505674e-10,6.361126169116896e-9,5.415967480641176e-8,4.3004063589048115e-8,8.174173872951049e-9,1.7396522942930527e-8,1.226619198010193e-8,0
31376,6.806609146959328e-9,8.197611437599316e-10,6.367137815403651e-9,5.4153341675056944e-8,4.3030550231857044e-8,8.174173872951049e-9,1.73770119270097e-8,1.2262320271316983e-8,0
31377,6.805821228449102e-9,8.145924076692958e-10,6.3731494616904045e-9,5.414700854370213e-8,4.305703687466597e-8,8.174173872951049e-9,1.7357500911088876e-8,1.2258448562532039e-8,0
31378,6.774493932375048e-9,8.182786945727784e-10,6.379138933910267e-9,5.4125579603261516e-8,4.308724977994178e-8,8.16947549161125e-9,1.732889774970493e-8,1.2202955182541356e-8,0
31379,6.695582216905205e-9,8.22196237543008e-10,6.390380835707626e-9,5.4054872432588424e-8,4.311746268521759e-8,8.169783220977464e-9,1.7327871596132166e-8,1.2167582667554022e-8,0
31380,6.6166705014353625e-9,8.261137805132374e-10,6.4016227375049866e-9,5.398416526191533e-8,4.31476755904934e-8,8.170090950343677e-9,1.7326845442559403e-8,1.2132210152566686e-8,0
31381,6.53775878596552e-9,8.300313234834669e-10,6.412864639302346e-9,5.391345809124224e-8,4.317788849576921e-8,8.170398679709891e-9,1.732581928898664e-8,1.2096837637579351e-8,0
31382,6.458847070495677e-9,8.339488664536964e-10,6.424106541099706e-9,5.3842750920569146e-8,4.320810140104502e-8,8.170706409076105e-9,1.7324793135413875e-8,1.2061465122592015e-8,0
31383,6.3799353550258336e-9,8.378664094239258e-10,6.435348442897066e-9,5.377204374989605e-8,4.323831430632083e-8,8.17101413844232e-9,1.732376698184111e-8,1.2026092607604681e-8,0
31384,6.301023639555991e-9,8.417839523941554e-10,6.446590344694426e-9,5.370133657922296e-8,4.326852721159664e-8,8.171321867808532e-9,1.7322740828268347e-8,1.1990720092617347e-8,0
31385,6.222111924086148e-9,8.457014953643849e-10,6.457832246491786e-9,5.363062940854987e-8,4.329874011687245e-8,8.171629597174746e-9,1.7321714674695583e-8,1.195534757763001e-8,0
31386,6.143344791312815e-9,8.457014953643849e-10,6.457832246491786e-9,5.355157109526656e-8,4.3286885129356836e-8,8.17193732654096e-9,1.731989624560296e-8,1.1922074923436219e-8,0
31387,6.064433075842972e-9,8.459327514311318e-10,6.457090769036043e-9,5.34726983283507e-8,4.328708653212721e-8,8.171093684989654e-9,1.731989624560296e-8,1.188675483261124e-8,0
31388,5.98552136037313e-9,8.461640074978786e-10,6.4563492915802995e-9,5.339382556143485e-8,4.3287287934897585e-8,8.170250043438346e-9,1.731989624560296e-8,1.1851434741786262e-8,0
31389,5.906609644903287e-9,8.463952635646255e-10,6.455607814124557e-9,5.3314952794518985e-8,4.328748933766796e-8,8.16940640188704e-9,1.731989624560296e-8,1.1816114650961284e-8,0
31390,5.8276979294334435e-9,8.466265196313724e-10,6.454866336668814e-9,5.323608002760313e-8,4.328769074043833e-8,8.168562760335732e-9,1.731989624560296e-8,1.1780794560136306e-8,0
31391,5.748786213963601e-9,8.468577756981194e-10,6.454124859213071e-9,5.3157207260687274e-8,4.32878921432087e-8,8.167719118784425e-9,1.731989624560296e-8,1.1745474469311327e-8,0
31392,5.669874498493758e-9,8.470890317648662e-10,6.453383381757328e-9,5.307833449377142e-8,4.328809354597908e-8,8.166875477233119e-9,1.731989624560296e-8,1.171015437848635e-8,0
31393,5.590962783023915e-9,8.473202878316131e-10,6.452641904301586e-9,5.2999461726855564e-8,4.328829494874945e-8,8.166031835681811e-9,1.731989624560296e-8,1.1674834287661372e-8,0
31394,5.512051067554073e-9,8.4755154389836e-10,6.4519004268458425e-9,5.292058895993971e-8,4.328849635151983e-8,8.165188194130504e-9,1.731989624560296e-8,1.1639514196836394e-8,0
31395,5.43313935208423e-9,8.477827999651069e-10,6.4511589493900994e-9,5.2841716193023846e-8,4.3288697754290196e-8,8.164344552579196e-9,1.731989624560296e-8,1.1604194106011416e-8,0
31396,5.354227636614387e-9,8.480140560318539e-10,6.450417471934356e-9,5.276284342610799e-8,4.328889915706057e-8,8.16350091102789e-9,1.731989624560296e-8,1.1568874015186438e-8,0
31397,5.275315921144544e-9,8.482453120986007e-10,6.449675994478614e-9,5.2683970659192136e-8,4.3289100559830945e-8,8.162657269476582e-9,1.731989624560296e-8,1.1533553924361461e-8,0
31398,5.196404205674701e-9,8.484765681653476e-10,6.448934517022871e-9,5.260509789227628e-8,4.328930196260132e-8,8.161813627925276e-9,1.731989624560296e-8,1.1498233833536483e-8,0
31399,5.117492490204858e-9,8.487078242320945e-10,6.448193039567128e-9,5.2526225125360425e-8,4.3289503365371695e-8,8.16096998637397e-9,1.731989624560296e-8,1.1462913742711504e-8,0
31400,5.038580774735016e-9,8.489390802988414e-10,6.447451562111385e-9,5.244735235844456e-8,4.328970476814206e-8,8.160126344822661e-9,1.731989624560296e-8,1.1427593651886526e-8,0
31401,5.003928076641238e-9,8.482090711148876e-10,6.438712295526817e-9,5.239163711329897e-8,4.3078017595520767e-8,8.15644404925122e-9,1.730640126410002e-8,1.1423774367263938e-8,0
31402,4.938410975845244e-9,8.481728301311744e-10,6.432740562560468e-9,5.238892291414691e-8,4.278434795706232e-8,8.132275716806406e-9,1.730249953085047e-8,1.1268844908806003e-8,0
31403,4.872893875049249e-9,8.481365891474612e-10,6.4267688295941195e-9,5.238620871499485e-8,4.249067831860386e-8,8.10810738436159e-9,1.7298597797600914e-8,1.1113915450348066e-8,0
31404,4.807376774253255e-9,8.48100348163748e-10,6.420797096627771e-9,5.2383494515842786e-8,4.219700868014541e-8,8.083939051916775e-9,1.729469606435136e-8,1.095898599189013e-8,0
31405,4.74185967345726e-9,8.480641071800348e-10,6.414825363661423e-9,5.2380780316690723e-8,4.190333904168696e-8,8.059770719471961e-9,1.7290794331101804e-8,1.0804056533432194e-8,0
31406,4.6763425726612655e-9,8.480278661963216e-10,6.408853630695074e-9,5.2378066117538655e-8,4.16096694032285e-8,8.035602387027147e-9,1.7286892597852252e-8,1.0649127074974258e-8,0
31407,4.610825471865271e-9,8.479916252126085e-10,6.402881897728725e-9,5.237535191838659e-8,4.1315999764770054e-8,8.011434054582332e-9,1.7282990864602697e-8,1.0494197616516322e-8,0
31408,4.545308371069276e-9,8.479553842288953e-10,6.396910164762377e-9,5.237263771923453e-8,4.10223301263116e-8,7.987265722137518e-9,1.7279089131353142e-8,1.0339268158058386e-8,0
31409,4.479791270273282e-9,8.476878871784351e-10,6.391679909251771e-9,5.2369036230631066e-8,4.071854156638731e-8,7.96394103124401e-9,1.7275187398103587e-8,1.0185113041357439e-8,0
31410,4.414274169477287e-9,8.47420390127975e-10,6.386449653741165e-9,5.23654347420276e-8,4.0414753006463026e-8,7.940616340350502e-9,1.7271285664854035e-8,1.0030957924656493e-8,0
31411,4.348757068681293e-9,8.47152893077515e-10,6.3812193982305596e-9,5.236183325342414e-8,4.011096444653873e-8,7.917291649456994e-9,1.726738393160448e-8,9.876802807955545e-9,0
31412,4.283239967885299e-9,8.468853960270549e-10,6.375989142719954e-9,5.235823176482068e-8,3.9807175886614446e-8,7.893966958563488e-9,1.7263482198354925e-8,9.722647691254599e-9,0
31413,4.217722867089304e-9,8.466178989765948e-10,6.370758887209348e-9,5.2354630276217215e-8,3.950338732669016e-8,7.87064226766998e-9,1.725958046510537e-8,9.568492574553651e-9,0
31414,4.15220576629331e-9,8.463504019261347e-10,6.365528631698742e-9,5.235102878761375e-8,3.919959876676587e-8,7.847317576776472e-9,1.7255678731855815e-8,9.414337457852705e-9,0
31415,4.086688665497315e-9,8.460829048756746e-10,6.3602983761881365e-9,5.2347427299010286e-8,3.8895810206841586e-8,7.823992885882964e-9,1.7251776998606263e-8,9.260182341151757e-9,0
31416,4.021171564701321e-9,8.458154078252146e-10,6.355068120677531e-9,5.234382581040682e-8,3.85920216469173e-8,7.800668194989458e-9,1.7247875265356708e-8,9.10602722445081e-9,0
31417,3.955654463905326e-9,8.455479107747545e-10,6.349837865166925e-9,5.234022432180336e-8,3.828823308699301e-8,7.77734350409595e-9,1.7243973532107153e-8,8.951872107749864e-9,0
31418,3.890137363109332e-9,8.452804137242943e-10,6.344607609656319e-9,5.23366228331999e-8,3.798444452706872e-8,7.754018813202442e-9,1.7240071798857598e-8,8.797716991048916e-9,0
31419,3.824620262313337e-9,8.450129166738343e-10,6.3393773541457135e-9,5.2333021344596435e-8,3.7680655967144434e-8,7.730694122308935e-9,1.7236170065608046e-8,8.64356187434797e-9,0
31420,3.7591031615173425e-9,8.447454196233742e-10,6.334147098635108e-9,5.232941985599297e-8,3.737686740722015e-8,7.707369431415427e-9,1.723226833235849e-8,8.489406757647022e-9,0
31421,3.693586060721348e-9,8.444779225729142e-10,6.328916843124502e-9,5.2325818367389506e-8,3.707307884729586e-8,7.68404474052192e-9,1.7228366599108936e-8,8.335251640946076e-9,0
31422,3.6284231303460504e-9,8.452441727405812e-10,6.322693516192861e-9,5.2328016369825076e-8,3.6773251540484886e-8,7.660202716977262e-9,1.7222646436766757e-8,8.18032218248814e-9,0
31423,3.44415235526827e-9,8.374090868001222e-10,6.302474058285775e-9,5.230333403472933e-8,3.654020911534843e-8,7.643953467394367e-9,1.7141347328988966e-8,7.956945230820136e-9,0
31424,3.4154846945809766e-9,8.384428340182494e-10,6.302222464320482e-9,5.21125264692178e-8,3.6085892937118106e-8,7.63152179853208e-9,1.7140555053469105e-8,7.892961027158567e-9,0
31425,3.3868170338936834e-9,8.394765812363766e-10,6.30197087035519e-9,5.192171890370627e-8,3.5631576758887775e-8,7.619090129669792e-9,1.7139762777949245e-8,7.828976823497e-9,0
31426,3.3581493732063898e-9,8.405103284545037e-10,6.301719276389897e-9,5.173091133819474e-8,3.517726058065745e-8,7.606658460807503e-9,1.7138970502429384e-8,7.76499261983543e-9,0
31427,3.3294817125190966e-9,8.415440756726308e-10,6.301467682424604e-9,5.1540103772683214e-8,3.472294440242713e-8,7.594226791945214e-9,1.713817822690952e-8,7.701008416173861e-9,0
31428,3.3008140518318034e-9,8.42577822890758e-10,6.301216088459312e-9,5.134929620717168e-8,3.42686282241968e-8,7.581795123082926e-9,1.713738595138966e-8,7.637024212512293e-9,0
31429,3.27214639114451e-9,8.436115701088851e-10,6.3009644944940186e-9,5.115848864166015e-8,3.3814312045966474e-8,7.569363454220638e-9,1.71365936758698e-8,7.573040008850724e-9,0
31430,3.245054567477669e-9,8.499365865332554e-10,6.304694055839626e-9,5.096197435829332e-8,3.335480211774198e-8,7.557449118009499e-9,1.7136417092493595e-8,7.511103241820341e-9,0
31431,3.2179627438108287e-9,8.562616029576256e-10,6.308423617185232e-9,5.076546007492648e-8,3.289529218951749e-8,7.545534781798361e-9,1.713624050911739e-8,7.449166474789957e-9,0
31432,3.190870920143988e-9,8.625866193819958e-10,6.312153178530838e-9,5.056894579155964e-8,3.2435782261293005e-8,7.533620445587223e-9,1.713606392574119e-8,7.3872297077595735e-9,0
31433,3.1637790964771475e-9,8.689116358063662e-10,6.315882739876444e-9,5.0372431508192807e-8,3.197627233306851e-8,7.521706109376086e-9,1.7135887342364986e-8,7.32529294072919e-9,0
31434,3.1366872728103067e-9,8.752366522307364e-10,6.319612301222051e-9,5.017591722482597e-8,3.151676240484402e-8,7.509791773164946e-9,1.713571075898878e-8,7.263356173698806e-9,0
31435,3.109595449143466e-9,8.815616686551067e-10,6.323341862567657e-9,4.997940294145914e-8,3.105725247661953e-8,7.497877436953808e-9,1.713553417561258e-8,7.201419406668422e-9,0
31436,3.0825036254766256e-9,8.878866850794769e-10,6.3270714239132635e-9,4.97828886580923e-8,3.059774254839504e-8,7.48596310074267e-9,1.7135357592236376e-8,7.1394826396380394e-9,0
31437,3.0825036254766256e-9,8.920216739519855e-10,6.318817606005767e-9,4.966146566185769e-8,3.0562973689312244e-8,7.465914849973114e-9,1.7135357592236376e-8,7.092560890286222e-9,0
31438,3.0676351822704015e-9,8.981154343096088e-10,6.3205477200691674e-9,4.961901376090995e-8,3.050033219931454e-8,7.4656071206069e-9,1.7134154855287408e-8,7.092560890286222e-9,0
31439,3.052766739064178e-9,9.042091946672322e-10,6.322277834132568e-9,4.957656185996221e-8,3.0437690709316836e-8,7.465299391240686e-9,1.7132952118338444e-8,7.092560890286222e-9,0
31440,3.0378982958579538e-9,9.103029550248555e-10,6.324007948195968e-9,4.9534109959014465e-8,3.037504921931913e-8,7.464991661874473e-9,1.7131749381389475e-8,7.092560890286222e-9,0
31441,3.02302985265173e-9,9.163967153824789e-10,6.3257380622593675e-9,4.949165805806672e-8,3.031240772932142e-8,7.464683932508259e-9,1.713054664444051e-8,7.092560890286222e-9,0
31442,3.0081614094455065e-9,9.224904757401022e-10,6.327468176322768e-9,4.9449206157118975e-8,3.0249766239323714e-8,7.464376203142045e-9,1.7129343907491543e-8,7.092560890286222e-9,0
31443,2.9932929662392824e-9,9.285842360977256e-10,6.329198290386168e-9,4.940675425617123e-8,3.018712474932601e-8,7.46406847377583e-9,1.7128141170542578e-8,7.092560890286222e-9,0
31444,2.9784245230330587e-9,9.34677996455349e-10,6.330928404449568e-9,4.936430235522349e-8,3.01244832593283e-8,7.463760744409616e-9,1.712693843359361e-8,7.092560890286222e-9,0
31445,2.963556079826835e-9,9.407717568129724e-10,6.332658518512968e-9,4.932185045427575e-8,3.006184176933059e-8,7.463453015043404e-9,1.7125735696644642e-8,7.092560890286222e-9,0
31446,2.9511668295654924e-9,9.494093339048116e-10,6.350587021852149e-9,4.9298884812097655e-8,3.001856051937922e-8,7.46314528567719e-9,1.7123623745149363e-8,7.091182947087312e-9,0
31447,2.9347225493388155e-9,9.494093339048116e-10,6.352317135915549e-9,4.925722742741758e-8,2.9955976573030196e-8,7.461993914759669e-9,1.712180531605674e-8,7.0899098522131155e-9,0
31448,2.918278269112139e-9,9.494093339048116e-10,6.3540472499789494e-9,4.9215570042737515e-8,2.9893392626681165e-8,7.460842543842148e-9,1.7119986886964115e-8,7.08863675733892e-9,0
31449,2.9018339888854625e-9,9.494093339048116e-10,6.35577736404235e-9,4.917391265805745e-8,2.983080868033214e-8,7.459691172924626e-9,1.711816845787149e-8,7.087363662464724e-9,0
31450,2.885389708658786e-9,9.494093339048116e-10,6.357507478105749e-9,4.9132255273377374e-8,2.976822473398311e-8,7.458539802007105e-9,1.7116350028778866e-8,7.086090567590528e-9,0
31451,2.8689454284321096e-9,9.494093339048116e-10,6.3592375921691495e-9,4.9090597888697307e-08,2.9705640787634083e-8,7.457388431089585e-9,1.711453159968624e-8,7.084817472716332e-9,0
31452,2.852501148205433e-9,9.494093339048116e-10,6.36096770623255e-9,4.904894050401724e-8,2.9643056841285052e-8,7.456237060172064e-9,1.7112713170593617e-8,7.083544377842135e-9,0
31453,2.836056867978756e-9,9.494093339048116e-10,6.36269782029595e-9,4.9007283119337166e-8,2.9580472894936024e-8,7.455085689254544e-9,1.711089474150099e-8,7.08227128296794e-9,0
31454,2.8196125877520797e-9,9.494093339048116e-10,6.3644279343593496e-9,4.89656257346571e-8,2.9517888948586997e-8,7.453934318337022e-9,1.7109076312408365e-8,7.0809981880937435e-9,0
31455,2.8031683075254032e-9,9.494093339048116e-10,6.36615804842275e-9,4.892396834997703e-8,2.945530500223797e-8,7.452782947419501e-9,1.710725788331574e-8,7.079725093219548e-9,0
31456,2.7867240272987268e-9,9.494093339048116e-10,6.36788816248615e-9,4.888231096529696e-8,2.939272105588894e-8,7.45163157650198e-9,1.7105439454223116e-8,7.078451998345352e-9,0
31457,2.7702797470720503e-9,9.494093339048116e-10,6.3696182765495505e-9,4.884065358061689e-8,2.933013710953991e-8,7.45048020558446e-9,1.7103621025130492e-8,7.077178903471155e-9,0
31458,2.753835466845374e-9,9.494093339048116e-10,6.37134839061295e-9,4.879899619593682e-8,2.9267553163190884e-8,7.4493288346669385e-9,1.7101802596037868e-8,7.07590580859696e-9,0
31459,2.7529825433074696e-9,9.434967784657541e-10,6.3551100880167635e-9,4.866709938424086e-8,2.913699011772829e-8,7.4365708569044935e-9,1.6480862014134332e-8,6.976680873928763e-9,0
31460,2.7533367137281667e-9,9.42694287314374e-10,6.338911698740983e-9,4.829069699510575e-8,2.8969063808454673e-8,7.357157634064925e-9,1.6326398833511077e-8,6.947844573627476e-9,0
31461,2.753690884148864e-9,9.418917961629936e-10,6.322713309465202e-9,4.791429460597064e-8,2.8801137499181058e-8,7.277744411225356e-9,1.6171935652887818e-8,6.919008273326189e-9,0
31462,2.7540450545695613e-9,9.410893050116134e-10,6.306514920189421e-9,4.753789221683553e-8,2.8633211189907444e-8,7.198331188385787e-9,1.601747247226456e-8,6.890171973024901e-9,0
31463,2.7543992249902584e-9,9.40286813860233e-10,6.29031653091364e-9,4.7161489827700414e-8,2.846528488063383e-8,7.118917965546218e-9,1.5863009291641303e-8,6.861335672723614e-9,0
31464,2.754753395410956e-9,9.394843227088529e-10,6.274118141637859e-9,4.678508743856531e-8,2.8297358571360215e-8,7.039504742706648e-9,1.5708546111018044e-8,6.832499372422327e-9,0
31465,2.755107565831653e-9,9.386818315574725e-10,6.257919752362078e-9,4.6408685049430194e-8,2.81294322620866e-8,6.960091519867079e-9,1.5554082930394788e-8,6.80366307212104e-9,0
31466,2.7554617362523505e-9,9.378793404060924e-10,6.241721363086297e-9,4.603228266029508e-8,2.7961505952812983e-8,6.8806782970275105e-9,1.539961974977153e-8,6.774826771819753e-9,0
31467,2.7554617362523505e-9,9.368455931879652e-10,6.3422888558108694e-9,4.5736422955382896e-8,2.779357964353937e-8,6.801591383088099e-9,1.524506827746017e-8,6.745216129761477e-9,0
31468,2.756249654762577e-9,9.398743528749203e-10,6.3422888558108694e-9,4.540715868002984e-8,2.7630933399732936e-8,6.7416852704214315e-9,1.5092423525929536e-8,6.716379829460189e-9,0
31469,2.7570375732728033e-9,9.429031125618753e-10,6.3422888558108694e-9,4.5077894404676794e-8,2.7468287155926504e-8,6.681779157754764e-9,1.4939778774398905e-8,6.687543529158902e-9,0
31470,2.7578254917830297e-9,9.459318722488304e-10,6.3422888558108694e-9,4.474863012932375e-8,2.730564091212007e-8,6.621873045088097e-9,1.478713402286827e-8,6.658707228857615e-9,0
31471,2.7586134102932557e-9,9.489606319357856e-10,6.3422888558108694e-9,4.441936585397069e-8,2.714299466831364e-8,6.561966932421429e-9,1.4634489271337637e-8,6.629870928556328e-9,0
31472,2.759401328803482e-9,9.519893916227405e-10,6.3422888558108694e-9,4.4090101578617645e-8,2.6980348424507204e-8,6.502060819754762e-9,1.4481844519807004e-8,6.60103462825504e-9,0
31473,2.7601892473137086e-9,9.550181513096956e-10,6.3422888558108694e-9,4.37608373032646e-8,2.681770218070077e-8,6.4421547070880945e-9,1.432919976827637e-8,6.572198327953753e-9,0
31474,2.760977165823935e-9,9.580469109966508e-10,6.3422888558108694e-9,4.343157302791154e-8,2.665505593689434e-8,6.382248594421427e-9,1.4176555016745738e-8,6.543362027652466e-9,0
31475,2.7617650843341614e-9,9.61075670683606e-10,6.3422888558108694e-9,4.3102308752558496e-8,2.6492409693087907e-8,6.32234248175476e-9,1.4023910265215105e-8,6.514525727351179e-9,0
31476,2.7625530028443878e-9,9.641044303705609e-10,6.3422888558108694e-9,4.277304447720544e-8,2.632976344928147e-8,6.262436369088093e-9,1.3871265513684472e-8,6.485689427049892e-9,0
31477,2.763340921354614e-9,9.67133190057516e-10,6.3422888558108694e-9,4.2443780201852394e-8,2.616711720547504e-8,6.202530256421426e-9,1.3718620762153839e-8,6.456853126748604e-9,0
31478,2.7641288398648406e-9,9.701619497444712e-10,6.3422888558108694e-9,4.2114515926499346e-8,2.6004470961668606e-8,6.142624143754758e-9,1.3565976010623205e-8,6.428016826447317e-9,0
31479,2.764916758375067e-9,9.731907094314261e-10,6.3422888558108694e-9,4.178525165114629e-8,2.5841824717862174e-8,6.082718031088091e-9,1.3413331259092572e-8,6.39918052614603e-9,0
31480,2.7657046768852934e-9,9.762194691183813e-10,6.3422888558108694e-9,4.1455987375793244e-8,2.5679178474055742e-08,6.022811918421424e-9,1.326068650756194e-8,6.370344225844743e-9,0
31481,2.758946293609737e-9,9.759882130516345e-10,6.330305476557766e-9,4.119943717199412e-8,2.567313589300058e-8,6.0241357335559945e-9,1.3244666763461565e-8,6.280096847286271e-9,0
31482,2.7521879103341807e-9,9.757569569848874e-10,6.318322097304663e-9,4.094288696819499e-8,2.5667093311945417e-8,6.025459548690566e-9,1.3228647019361188e-8,6.1898494687278e-9,0
31483,2.745429527058624e-9,9.755257009181406e-10,6.306338718051561e-9,4.068633676439587e-8,2.5661050730890255e-8,6.0267833638251365e-9,1.3212627275260814e-8,6.0996020901693296e-9,0
31484,2.738671143783068e-9,9.752944448513936e-10,6.294355338798458e-9,4.042978656059674e-8,2.5655008149835092e-8,6.028107178959707e-9,1.3196607531160438e-8,6.009354711610859e-9,0
31485,2.731912760507512e-9,9.750631887846468e-10,6.282371959545356e-9,4.0173236356797615e-8,2.564896556877993e-8,6.0294309940942785e-9,1.3180587787060061e-8,5.919107333052388e-9,0
31486,2.7251543772319554e-9,9.748319327179e-10,6.270388580292252e-9,3.991668615299849e-8,2.5642922987724767e-8,6.030754809228849e-9,1.3164568042959687e-8,5.828859954493917e-9,0
31487,2.7183959939563993e-09,9.74600676651153e-10,6.25840520103915e-9,3.966013594919936e-8,2.563688040666961e-8,6.03207862436342e-9,1.314854829885931e-8,5.738612575935446e-9,0
31488,2.711637610680843e-9,9.743694205844061e-10,6.246421821786047e-9,3.940358574540024e-8,2.5630837825614446e-8,6.033402439497991e-9,1.3132528554758936e-8,5.648365197376975e-9,0
31489,2.705233397825984e-9,9.74138164517659e-10,6.240432349566185e-9,3.915091534975575e-8,2.563069396649275e-8,6.06327188792858e-9,1.3122670431441246e-8,5.5587873122507785e-9,0
31490,2.698829184971125e-9,9.739069084509123e-10,6.2344428773463225e-9,3.889824495411127e-8,2.5630550107371053e-8,6.0931413363591704e-09,1.3112812308123558e-8,5.469209427124583e-9,0
31491,2.692424972116266e-9,9.736756523841655e-10,6.22845340512646e-9,3.8645574558466786e-8,2.5630406248249358e-8,6.12301078478976e-9,1.310295418480587e-8,5.379631541998387e-9,0
31492,2.686020759261407e-9,9.734443963174184e-10,6.222463932906598e-9,3.83929041628223e-8,2.5630262389127663e-8,6.152880233220349e-9,1.309309606148818e-8,5.29005365687219e-9,0
31493,2.679616546406548e-9,9.732131402506716e-10,6.216474460686736e-9,3.814023376717782e-8,2.563011853000597e-8,6.182749681650939e-9,1.3083237938170493e-8,5.200475771745994e-9,0
31494,2.6732123335516893e-9,9.729818841839246e-10,6.2104849884668744e-9,3.788756337153333e-8,2.5629974670884274e-8,6.212619130081528e-9,1.3073379814852805e-8,5.1108978866197985e-9,0
31495,2.6668081206968303e-9,9.727506281171778e-10,6.204495516247012e-9,3.763489297588885e-8,2.562983081176258e-8,6.242488578512118e-9,1.3063521691535115e-8,5.021320001493602e-9,0
31496,2.6604039078419713e-9,9.72519372050431e-10,6.19850604402715e-9,3.7382222580244364e-8,2.5629686952640884e-8,6.2723580269427075e-9,1.3053663568217427e-8,4.931742116367406e-9,0
31497,2.6539996949871122e-9,9.72288115983684e-10,6.192516571807288e-9,3.712955218459988e-8,2.5629543093519186e-8,6.302227475373297e-9,1.3043805444899738e-8,4.8421642312412095e-9,0
31498,2.6475954821322532e-09,9.720568599169371e-10,6.1865270995874255e-9,3.68768817889554e-8,2.562939923439749e-8,6.332096923803887e-9,1.303394732158205e-8,4.752586346115014e-9,0
31499,2.641191269277394e-9,9.718256038501901e-10,6.180537627367563e-9,3.662421139331091e-8,2.5629255375275796e-8,6.361966372234476e-9,1.3024089198264362e-8,4.663008460988818e-9,0
31500,2.634787056422535e-9,9.715943477834433e-10,6.174548155147701e-9,3.637154099766643e-8,2.56291115161541e-8,6.391835820665066e-9,1.3014231074946672e-8,4.573430575862621e-9,0
31501,2.628382843567676e-9,9.713630917166965e-10,6.168558682927839e-9,3.611887060202194e-8,2.5628967657032406e-8,6.421705269095655e-9,1.3004372951628984e-8,4.483852690736425e-9,0
31502,2.621978630712817e-9,9.711318356499495e-10,6.162569210707977e-9,3.5866200206377456e-8,2.562882379791071e-8,6.451574717526245e-9,1.2994514828311296e-8,4.3942748056102295e-9,0
31503,1.5941796099196114e-9,9.66180545461593e-10,6.198201232301316e-9,3.5879979747291804e-8,2.563498628231495e-8,6.490244049437948e-9,1.283863663100536e-8,4.251262997802904e-9,0
31504,1.583047886003394e-9,9.690643412136953e-10,6.2340848478599484e-9,3.589885703616123e-8,2.5605411173226323e-8,6.5270908130978734e-9,1.2728820303858669e-8,4.247377821189962e-9,0
31505,1.5719161620871768e-9,9.719481369657976e-10,6.269968463418581e-9,3.5917734325030655e-8,2.5575836064137693e-8,6.563937576757799e-9,1.2619003976711977e-8,4.243492644577021e-9,0
31506,1.5607844381709597e-9,9.748319327179e-10,6.305852078977213e-9,3.5936611613900083e-8,2.5546260955049063e-8,6.6007843404177245e-9,1.2509187649565286e-8,4.239607467964079e-9,0
31507,1.5496527142547424e-9,9.777157284700023e-10,6.341735694535846e-9,3.595548890276951e-8,2.5516685845960436e-8,6.63763110407765e-9,1.2399371322418596e-8,4.2357222913511375e-9,0
31508,1.5385209903385254e-9,9.805995242221046e-10,6.377619310094478e-9,3.597436619163894e-8,2.5487110736871806e-8,6.6744778677375755e-9,1.2289554995271905e-8,4.231837114738196e-9,0
31509,1.527389266422308e-9,9.83483319974207e-10,6.413502925653111e-9,3.599324348050837e-8,2.5457535627783177e-8,6.711324631397501e-9,1.2179738668125214e-8,4.227951938125254e-9,0
31510,1.516257542506091e-9,9.863671157263093e-10,6.449386541211743e-9,3.60121207693778e-8,2.542796051869455e-8,6.7481713950574266e-9,1.2069922340978523e-8,4.224066761512312e-9,0
31511,1.5131204411063393e-9,9.916583849325523e-10,6.474302023005201e-9,3.601991527288566e-8,2.5772085721412202e-8,7.521610317407112e-9,1.198870917521578e-8,4.245381361571506e-9,0
31512,1.5099833397065876e-9,9.969496541387953e-10,6.499217504798657e-9,3.6027709776393516e-8,2.6116210924129857e-8,8.295049239756797e-9,1.1907496009453038e-8,4.266695961630699e-9,0
31513,1.5068462383068362e-9,1.0022409233450386e-9,6.524132986592115e-9,3.6035504279901376e-8,2.646033612684751e-8,9.068488162106483e-9,1.1826282843690294e-8,4.288010561689892e-9,0
31514,1.5037091369070845e-9,1.0075321925512816e-9,6.5490484683855724e-9,3.6043298783409235e-8,2.6804461329565165e-8,9.841927084456168e-9,1.1745069677927552e-8,4.309325161749085e-9,0
31515,1.500572035507333e-9,1.0128234617575246e-9,6.573963950179029e-9,3.6051093286917094e-8,2.7148586532282817e-8,1.0615366006805854e-8,1.166385651216481e-8,4.330639761808278e-9,0
31516,1.4974349341075813e-9,1.0181147309637679e-9,6.598879431972487e-9,3.6058887790424954e-8,2.7492711735000473e-8,1.1388804929155538e-8,1.1582643346402067e-8,4.351954361867471e-9,0
31517,1.4942978327078299e-9,1.023406000170011e-9,6.623794913765944e-9,3.606668229393281e-8,2.7836836937718125e-8,1.2162243851505225e-8,1.1501430180639323e-8,4.373268961926664e-9,0
31518,1.4911607313080782e-9,1.028697269376254e-9,6.648710395559401e-9,3.607447679744067e-8,2.818096214043578e-8,1.2935682773854911e-8,1.142021701487658e-8,4.394583561985857e-9,0
31519,1.4880236299083267e-9,1.0339885385824972e-9,6.673625877352858e-9,3.608227130094853e-8,2.8525087343153432e-8,1.3709121696204596e-8,1.1339003849113838e-8,4.41589816204505e-9,0
31520,1.484886528508575e-9,1.0392798077887402e-9,6.698541359146315e-9,3.609006580445639e-8,2.8869212545871088e-8,1.4482560618554282e-8,1.1257790683351094e-8,4.437212762104243e-9,0
31521,1.4817494271088234e-9,1.0445710769949832e-9,6.7234568409397726e-9,3.609786030796425e-8,2.921333774858874e-8,1.5255999540903968e-8,1.1176577517588352e-8,4.4585273621634364e-9,0
31522,1.4786123257090719e-9,1.0498623462012264e-9,6.74837232273323e-9,3.610565481147211e-8,2.9557462951306395e-8,1.6029438463253653e-8,1.109536435182561e-8,4.4798419622226295e-9,0
31523,1.4754752243093202e-9,1.0551536154074695e-9,6.773287804526687e-9,3.611344931497997e-8,2.990158815402405e-8,1.6802877385603337e-8,1.1014151186062867e-8,4.5011565622818226e-9,0
31524,1.4723381229095687e-9,1.0604448846137125e-9,6.798203286320144e-9,3.612124381848783e-8,3.02457133567417e-8,1.7576316307953022e-8,1.0932938020300123e-8,4.522471162341016e-9,0
31525,1.4781281452330187e-9,1.0665024039876228e-9,6.823118768113602e-9,3.6087195390948166e-8,3.033778597222035e-8,1.8328346005330694e-8,1.0958813538045134e-8,4.5453479137421835e-9,0
31526,1.4839181675564689e-9,1.0725599233615329e-9,6.8480342499070585e-9,3.6053146963408503e-8,3.0429858587699003e-08,1.9080375702708366e-8,1.0984689055790147e-8,4.5682246651433506e-9,0
31527,1.4897081898799188e-9,1.078617442735443e-9,6.872949731700516e-9,3.601909853586884e-8,3.052193120317765e-8,1.983240540008604e-8,1.1010564573535157e-8,4.5911014165445185e-9,0
31528,1.495498212203369e-9,1.0846749621093533e-9,6.897865213493973e-9,3.5985050108329185e-8,3.06140038186563e-8,2.0584435097463708e-8,1.1036440091280168e-8,4.613978167945686e-9,0
31529,1.5012882345268192e-9,1.0907324814832634e-9,6.92278069528743e-9,3.595100168078952e-8,3.070607643413495e-8,2.133646479484138e-8,1.1062315609025179e-8,4.636854919346853e-9,0
31530,1.5070782568502691e-9,1.0967900008571737e-9,6.947696177080888e-9,3.591695325324986e-8,3.0798149049613605e-8,2.2088494492219052e-8,1.108819112677019e-8,4.659731670748021e-9,0
31531,1.5128682791737193e-9,1.0990525103764615e-9,6.968630503563445e-9,3.5925449499841666e-8,3.1067734679324426e-8,2.2865079797955086e-8,1.1027016377383829e-8,4.683881517023385e-9,0
31532,1.5210724894143724e-9,1.089562390985061e-9,6.984555124807042e-9,3.567730276945062e-8,3.098711881290038e-8,2.3641972833057336e-8,1.1015134594258962e-8,4.659836519072735e-9,0
31533,1.5292766996550257e-9,1.0800722715936606e-9,7.000479746050638e-9,3.542915603905958e-8,3.0906502946476336e-8,2.4418865868159582e-8,1.1003252811134096e-8,4.635791521122086e-9,0
31534,1.5316908875722288e-9,1.0681746787481194e-9,7.000479746050638e-9,3.518156594777089e-8,3.054548718903978e-8,2.5149358617939944e-8,1.0961682068702767e-8,4.5887124992831975e-9,0
31535,1.5341050754894319e-9,1.0562770859025783e-9,7.000479746050638e-9,3.49339758564822e-8,3.018447143160322e-8,2.5879851367720302e-8,1.0920111326271437e-8,4.541633477444309e-9,0
31536,1.536519263406635e-9,1.0443794930570371e-09,7.000479746050638e-9,3.468638576519351e-8,2.9823455674166656e-8,2.6610344117500664e-8,1.0878540583840107e-8,4.494554455605421e-9,0
31537,1.538933451323838e-9,1.032481900211496e-9,7.000479746050638e-9,3.4438795673904825e-8,2.94624399167301e-8,2.7340836867281022e-8,1.0836969841408777e-8,4.447475433766533e-9,0
31538,1.5413476392410412e-9,1.0205843073659546e-9,7.000479746050638e-9,3.4191205582616135e-8,2.910142415929354e-8,2.8071329617061384e-8,1.0795399098977447e-8,4.4003964119276445e-9,0
31539,1.5437618271582443e-9,1.0086867145204134e-9,7.000479746050638e-9,3.3943615491327446e-8,2.874040840185698e-8,2.8801822366841742e-8,1.0753828356546118e-8,4.353317390088756e-9,0
31540,1.5461760150754474e-9,9.967891216748722e-10,7.000479746050638e-9,3.3696025400038756e-8,2.837939264442042e-8,2.9532315116622104e-8,1.0712257614114788e-8,4.306238368249868e-9,0
31541,1.5485902029926507e-9,9.84891528829331e-10,7.000479746050638e-9,3.3448435308750066e-8,2.8018376886983862e-8,3.0262807866402466e-8,1.0670686871683458e-8,4.259159346410979e-9,0
31542,1.5510043909098538e-9,9.7299393598379e-10,7.000479746050638e-9,3.320084521746138e-8,2.76573611295473e-8,3.099330061618282e-8,1.0629116129252128e-8,4.212080324572091e-9,0
31543,1.553418578827057e-9,9.610963431382485e-10,7.000479746050638e-9,3.2953255126172694e-8,2.729634537211074e-8,3.172379336596318e-8,1.05875453868208e-8,4.1650013027332024e-9,0
31544,1.55583276674426e-9,9.491987502927074e-10,7.000479746050638e-9,3.2705665034884004e-8,2.6935329614674183e-8,3.2454286115743544e-8,1.054597464438947e-8,4.117922280894314e-9,0
31545,1.5582469546614632e-9,9.373011574471662e-10,7.000479746050638e-9,3.2458074943595314e-8,2.6574313857237624e-8,3.3184778865523906e-8,1.050440390195814e-8,4.070843259055426e-9,0
31546,1.5606611425786663e-9,9.254035646016249e-10,7.000479746050638e-9,3.2210484852306625e-8,2.6213298099801065e-8,3.391527161530427e-8,1.0462833159526811e-8,4.023764237216538e-9,0
31547,1.5630753304958694e-9,9.135059717560838e-10,7.000479746050638e-9,3.196289476101794e-8,2.5852282342364503e-8,3.464576436508462e-8,1.0421262417095481e-8,3.9766852153776494e-9,0
31548,1.5654895184130725e-9,9.016083789105425e-10,7.000479746050638e-9,3.171530466972925e-8,2.5491266584927944e-8,3.5376257114864984e-8,1.0379691674664151e-8,3.92960619353876e-9,0
31549,1.5679037063302756e-9,8.897107860650013e-10,7.000479746050638e-9,3.146771457844056e-8,2.5130250827491385e-8,3.6106749864645346e-8,1.0338120932232822e-8,3.882527171699872e-9,0
31550,1.5703178942474787e-9,8.778131932194602e-10,7.000479746050638e-9,3.122012448715187e-8,2.4769235070054826e-8,3.683724261442571e-8,1.0296550189801492e-8,3.835448149860984e-9,0
31551,1.5727320821646818e-9,8.659156003739189e-10,7.000479746050638e-9,3.097253439586318e-8,2.4408219312618264e-8,3.756773536420606e-8,1.0254979447370162e-8,3.788369128022096e-9,0
31552,1.5725874994681722e-9,8.511342117762754e-10,6.991736044652692e-9,3.071779365816543e-8,2.396806962444011e-8,3.757351079832761e-8,1.027018061828538e-8,3.743009530012253e-9,0
31553,1.5724429167716625e-9,8.363528231786318e-10,6.982992343254745e-9,3.046305292046768e-8,2.352791993626195e-8,3.757928623244916e-8,1.0285381789200598e-8,3.6976499320024105e-9,0
31554,1.5698841461579496e-9,8.350878198937578e-10,6.977016175475018e-9,3.046305292046768e-8,2.3448210569033574e-8,3.7550918271781754e-8,1.0342153702547146e-8,3.629910888558979e-9,0
31555,1.5695299757372525e-9,8.320590602068027e-10,6.97326444006252e-9,3.008404732700096e-8,2.346853954348998e-8,3.7550918271781754e-8,1.0308061907200867e-8,3.6039098344738623e-9,0
31556,1.5691758053165552e-9,8.290303005198476e-10,6.969512704650021e-9,2.970504173353423e-8,2.348886851794639e-8,3.7550918271781754e-8,1.027397011185459e-8,3.5779087803887456e-9,0
31557,1.5688216348958579e-9,8.260015408328926e-10,6.965760969237523e-9,2.9326036140067505e-8,2.35091974924028e-8,3.7550918271781754e-8,1.0239878316508312e-8,3.551907726303629e-9,0
31558,1.5684674644751606e-9,8.229727811459374e-10,6.962009233825025e-9,2.894703054660078e-8,2.3529526466859206e-8,3.7550918271781754e-8,1.0205786521162033e-8,3.525906672218512e-9,0
31559,1.5681132940544633e-9,8.199440214589824e-10,6.958257498412527e-9,2.8568024953134054e-8,2.3549855441315616e-8,3.7550918271781754e-8,1.0171694725815756e-8,3.4999056181333955e-9,0
31560,1.567759123633766e-9,8.169152617720273e-10,6.954505763000028e-9,2.8189019359667327e-8,2.3570184415772026e-8,3.7550918271781754e-8,1.0137602930469478e-8,3.473904564048279e-9,0
31561,1.568192871723295e-9,8.169152617720273e-10,6.9507540275875296e-9,2.7811713015518963e-8,2.3618860818487937e-8,3.7550918271781754e-8,1.0047825019699168e-8,3.4442414978276456e-9,0
31562,1.568192871723295e-9,8.130840109336919e-10,6.95300063402165e-9,2.7439858068461296e-8,2.3873762065308486e-8,3.790732237571137e-8,1.0057594851328755e-8,3.4301056702307824e-9,0
31563,1.5690457952611993e-9,8.092527600953566e-10,6.961205668981985e-9,2.7058747245742727e-8,2.3874788343367237e-8,3.8009062783210033e-8,1.002986520813361e-8,3.404314312795094e-9,0
31564,1.568691624840502e-9,8.051902531902744e-10,6.9581998458386075e-9,2.6678541156074846e-8,2.388095082777148e-8,3.800445729953995e-8,9.939910713987096e-9,3.3744280820970356e-9,0
31565,1.5683374544198047e-9,8.011277462851922e-10,6.95519402269523e-9,2.6298335066406965e-8,2.3887113312175717e-8,3.799985181586987e-8,9.849956219840584e-9,3.3445418513989774e-9,0
31566,1.5679832839991074e-9,7.970652393801099e-10,6.952188199551854e-9,2.5918128976739085e-8,2.389327579657996e-8,3.7995246332199787e-8,9.760001725694071e-9,3.314655620700919e-9,0
31567,1.56762911357841e-9,7.930027324750277e-10,6.9491823764084765e-9,2.5537922887071204e-8,2.3899438280984197e-8,3.79906408485297e-8,9.670047231547557e-9,3.284769390002861e-9,0
31568,1.5672749431577128e-9,7.889402255699455e-10,6.946176553265099e-9,2.5157716797403323e-8,2.3905600765388438e-8,3.7986035364859615e-8,9.580092737401044e-9,3.2548831593048025e-9,0
31569,1.5669207727370155e-9,7.848777186648632e-10,6.943170730121722e-9,2.4777510707735442e-8,2.3911763249792676e-8,3.798142988118953e-8,9.49013824325453e-9,3.2249969286067442e-9,0
31570,1.5665666023163184e-9,7.80815211759781e-10,6.9401649069783455e-9,2.439730461806756e-8,2.3917925734196914e-8,3.797682439751945e-8,9.400183749108018e-9,3.195110697908686e-9,0
