time,channel1,channel2,channel3,channel4,channel5,channel6,channel7,channel8,class
50215,2.4115385353938955e-9,5.330889763306784e-9,2.825454226851647e-8,2.4610414599459627e-7,8.554929470195598e-8,1.7086796752293312e-8,1.21477528101082e-9,1.510220713958042e-9,0
50216,2.4163669112283017e-9,5.329552278054484e-9,2.823436272392979e-8,2.461364372868324e-7,8.597952687143867e-8,1.7130901858304025e-8,1.21116707016392e-9,1.5141058905709835e-9,0
50217,2.421195287062708e-9,5.328214792802183e-9,2.821418317934311e-8,2.461687285790686e-7,8.640975904092137e-8,1.717500696431474e-8,1.20755885931702e-9,1.517991067183925e-9,0
50218,2.426023662897114e-9,5.326877307549883e-9,2.819400363475643e-8,2.4620101987130474e-7,8.683999121040407e-8,1.721911207032545e-8,1.2039506484701201e-9,1.5218762437968669e-9,0
50219,2.4308520387315203e-9,5.325539822297582e-9,2.817382409016975e-8,2.462333111635409e-7,8.727022337988676e-8,1.7263217176336163e-8,1.20034243762322e-9,1.5257614204098085e-9,0
50220,2.4356804145659265e-9,5.324202337045282e-9,2.8153644545583067e-8,2.46265602455777e-7,8.770045554936946e-8,1.7307322282346876e-8,1.19673422677632e-9,1.52964659702275e-9,0
50221,2.43988002722777e-9,5.3190197907901785e-9,2.8147399044584537e-8,2.4559911207683233e-7,8.79446431740305e-8,1.7314132381770724e-8,1.1927728491770137e-9,1.531366020851796e-9,0
50222,2.4565776131020957e-9,5.349003649625556e-9,2.826180301500293e-8,2.4570373523751294e-7,8.778561761301105e-8,1.7279503584986944e-8,1.2131024382829958e-9,1.554400044740035e-9,0
50223,2.4732751989764216e-9,5.378987508460933e-9,2.8376206985421324e-8,2.4580835839819355e-7,8.76265920519916e-8,1.7244874788203163e-8,1.2334320273889778e-9,1.577434068628274e-9,0
50224,2.4899727848507474e-9,5.408971367296311e-9,2.8490610955839717e-8,2.4591298155887416e-7,8.746756649097215e-8,1.7210245991419383e-8,1.2537616164949599e-9,1.6004680925165129e-9,0
50225,2.5066703707250732e-9,5.438955226131688e-9,2.8605014926258114e-8,2.4601760471955477e-7,8.73085409299527e-8,1.7175617194635603e-8,1.2740912056009421e-9,1.6235021164047519e-9,0
50226,2.523367956599399e-9,5.4689390849670665e-9,2.8719418896676508e-8,2.461222278802354e-7,8.714951536893324e-8,1.7140988397851823e-8,1.2944207947069242e-9,1.6465361402929908e-9,0
50227,2.540065542473725e-9,5.498922943802444e-9,2.88338228670949e-8,2.4622685104091594e-7,8.699048980791379e-8,1.7106359601068042e-8,1.3147503838129063e-9,1.6695701641812298e-9,0
50228,2.5567631283480507e-9,5.528906802637821e-9,2.8948226837513294e-8,2.4633147420159655e-7,8.683146424689434e-8,1.7071730804284265e-8,1.3350799729188883e-9,1.6926041880694688e-9,0
50229,2.5734607142223765e-9,5.558890661473199e-9,2.906263080793169e-8,2.4643609736227716e-7,8.667243868587488e-8,1.7037102007500485e-8,1.3554095620248704e-9,1.7156382119577078e-9,0
50230,2.5907870632692647e-9,5.590955824909299e-9,2.9183028685383326e-8,2.47242773032393e-7,8.669620138850306e-8,1.7043142783508796e-8,1.3797005287301588e-9,1.7344725142588623e-9,0
50231,2.588857055828115e-9,5.589083345556078e-9,2.9189022592416565e-8,2.472663420892841e-7,8.680426300004266e-8,1.704728667312956e-8,1.38187212457519e-9,1.7342103934470767e-9,0
50232,2.586927048386965e-9,5.587210866202857e-9,2.9195016499449807e-8,2.472899111461751e-7,8.691232461158226e-8,1.7051430562750323e-8,1.3840437204202211e-9,1.733948272635291e-9,0
50233,2.584997040945815e-9,5.585338386849637e-9,2.9201010406483046e-8,2.473134802030661e-7,8.702038622312186e-8,1.7055574452371085e-8,1.3862153162652523e-9,1.7336861518235056e-09,0
50234,2.5830670335046646e-9,5.583465907496416e-9,2.9207004313516288e-8,2.4733704925995714e-7,8.712844783466147e-8,1.7059718341991847e-8,1.3883869121102834e-9,1.73342403101172e-9,0
50235,2.5811370260635147e-9,5.581593428143195e-9,2.9212998220549527e-8,2.4736061831684816e-7,8.723650944620107e-8,1.7063862231612612e-8,1.3905585079553146e-9,1.7331619101999344e-9,0
50236,2.579207018622365e-9,5.579720948789975e-9,2.921899212758277e-8,2.4738418737373924e-7,8.734457105774067e-8,1.7068006121233374e-8,1.3927301038003457e-9,1.7328997893881487e-9,0
50237,2.577277011181215e-9,5.577848469436754e-9,2.9224986034616007e-8,2.4740775643063026e-7,8.745263266928027e-8,1.7072150010854135e-8,1.3949016996453766e-9,1.7326376685763633e-9,0
50238,2.5753470037400645e-9,5.575975990083533e-9,2.923097994164925e-8,2.474313254875213e-7,8.756069428081988e-8,1.70762939004749e-8,1.3970732954904078e-9,1.7323755477645777e-9,0
50239,2.5734169962989146e-9,5.574103510730313e-9,2.923697384868249e-8,2.474548945444123e-7,8.766875589235948e-8,1.7080437790095662e-8,1.399244891335439e-9,1.732113426952792e-9,0
50240,2.5714869888577647e-9,5.5722310313770925e-9,2.924296775571573e-8,2.474784636013033e-7,8.777681750389908e-8,1.7084581679716424e-8,1.40141648718047e-9,1.7318513061410064e-9,0
50241,2.5695569814166148e-9,5.570358552023872e-9,2.9248961662748972e-8,2.475020326581944e-7,8.788487911543869e-8,1.708872556933719e-8,1.4035880830255012e-9,1.731589185329221e-9,0
50242,2.5676269739754645e-9,5.568486072670652e-9,2.925495556978221e-8,2.475256017150854e-7,8.799294072697829e-8,1.709286945895795e-8,1.4057596788705324e-9,1.7313270645174354e-9,0
50243,2.5656969665343145e-9,5.566613593317431e-9,2.9260949476815453e-8,2.4754917077197643e-7,8.810100233851789e-8,1.7097013348578713e-8,1.4079312747155635e-9,1.7310649437056497e-9,0
50244,2.564909048024088e-9,5.56474111396421e-9,2.9195162848291294e-8,2.472153075017855e-7,8.752012289635206e-8,1.700542044764124e-8,1.3983976708119318e-9,1.7361183668680731e-9,0
50245,2.5647644653275785e-9,5.5646323910130706e-9,2.9201408349289827e-8,2.472278865464987e-7,8.750825358516727e-8,1.6992532413141192e-8,1.4004809749688614e-9,1.7422217204272675e-9,0
50246,2.564619882631069e-9,5.56233364051007e-9,2.923160730435443e-8,2.498152369493509e-7,8.737829005645007e-8,1.697887505522561e-8,1.4010966671125194e-9,1.7424973090670496e-9,0
50247,2.5652632184447856e-9,5.561068637225195e-9,2.9232609245402222e-8,2.498330065152029e-7,8.727083277770758e-8,1.6968807095211757e-8,1.401008375424418e-9,1.7516321376638466e-9,0
50248,2.565906554258502e-9,5.559803633940322e-9,2.9233611186450015e-8,2.498507760810549e-7,8.716337549896508e-8,1.69587391351979e-8,1.4009200837363162e-9,1.7607669662606437e-9,0
50249,2.5665498900722188e-9,5.558538630655447e-9,2.9234613127497807e-8,2.498685456469069e-7,8.705591822022259e-8,1.6948671175184045e-8,1.4008317920482147e-9,1.7699017948574407e-9,0
50250,2.5671932258859356e-9,5.557273627370574e-9,2.92356150685456e-8,2.498863152127589e-7,8.694846094148009e-8,1.693860321517019e-8,1.400743500360113e-9,1.779036623454238e-9,0
50251,2.5678365616996523e-9,5.556008624085699e-9,2.9236617009593392e-8,2.499040847786109e-7,8.684100366273761e-8,1.6928535255156333e-8,1.4006552086720115e-9,1.788171452051035e-9,0
50252,2.5721011793891736e-9,5.565802481511273e-9,2.9261576839520633e-8,2.4989819251438817e-7,8.677236281166423e-8,1.6911503331035524e-8,1.4014474841918727e-9,1.7969917356736892e-9,0
50253,2.576365797078695e-9,5.5755963389368466e-9,2.9286536669447875e-8,2.498923002501654e-7,8.670372196059087e-8,1.6894471406914714e-8,1.402239759711734e-9,1.8058120192963436e-9,0
50254,2.5806304147682164e-9,5.585390196362421e-9,2.9311496499375116e-8,2.4988640798594266e-7,8.66350811095175e-8,1.6877439482793904e-8,1.4030320352315952e-9,1.8146323029189978e-9,0
50255,2.5848950324577377e-9,5.595184053787994e-9,2.9336456329302354e-8,2.498805157217199e-7,8.656644025844414e-8,1.6860407558673095e-8,1.4038243107514566e-9,1.8234525865416523e-9,0
50256,2.589159650147259e-9,5.604977911213568e-9,2.9361416159229595e-8,2.4987462345749715e-7,8.649779940737078e-8,1.6843375634552285e-8,1.404616586271318e-9,1.8322728701643065e-9,0
50257,2.59342426783678e-9,5.614771768639141e-9,2.9386375989156837e-8,2.4986873119327434e-7,8.642915855629741e-8,1.6826343710431475e-8,1.405408861791179e-9,1.841093153786961e-9,0
50258,2.5976888855263018e-9,5.6245656260647154e-9,2.9411335819084078e-8,2.498628389290516e-7,8.636051770522405e-8,1.6809311786310666e-8,1.4062011373110404e-9,1.8499134374096151e-9,0
50259,2.601953503215823e-9,5.634359483490289e-9,2.943629564901132e-8,2.4985694666482883e-7,8.629187685415069e-8,1.6792279862189856e-8,1.4069934128309016e-9,1.8587337210322696e-9,0
50260,2.6062181209053442e-9,5.644153340915863e-9,2.946125547893856e-8,2.498510544006061e-7,8.622323600307732e-8,1.6775247938069046e-8,1.407785688350763e-9,1.867554004654924e-9,0
50261,2.610482738594866e-9,5.653947198341436e-9,2.9486215308865802e-8,2.498451621363833e-7,8.615459515200396e-8,1.6758216013948237e-8,1.408577963870624e-9,1.876374288277578e-9,0
50262,2.614747356284387e-9,5.66374105576701e-9,2.9511175138793043e-8,2.4983926987216056e-7,8.60859543009306e-8,1.6741184089827427e-8,1.4093702393904854e-9,1.8851945719002325e-9,0
50263,2.6190119739739083e-9,5.6735349131925835e-9,2.9536134968720285e-8,2.498333776079378e-7,8.601731344985723e-8,1.6724152165706617e-8,1.4101625149103468e-9,1.894014855522887e-9,0
50264,2.62327659166343e-9,5.683328770618158e-9,2.9561094798647526e-8,2.4982748534371505e-7,8.594867259878385e-8,1.6707120241585804e-8,1.410954790430208e-9,1.9028351391455413e-9,0
50265,2.639930459614294e-9,5.729654138715449e-9,2.9729731004837404e-8,2.502328907432326e-7,8.613909565041474e-8,1.6929648906819018e-8,1.4533798024042041e-9,1.9116554227681953e-9,0
50266,2.652493437854454e-9,5.799841984961558e-9,2.995010449081546e-8,2.5064563233552666e-7,8.671375988057937e-8,1.7237313384710772e-8,1.49257371827595e-9,1.918624498581097e-9,0
50267,2.6650564160946145e-9,5.870029831207667e-9,3.017047797679351e-8,2.5105837392782073e-7,8.728842411074401e-8,1.7544977862602526e-8,1.5317676341476957e-9,1.925593574393998e-9,0
50268,2.678971070989886e-9,5.930315097077063e-9,3.012320611059603e-8,2.4974424190482695e-7,8.763298089082674e-8,1.786110256395286e-8,1.5695249350175728e-9,1.934452814351013e-9,0
50269,2.6928857258851574e-9,5.99060036294646e-9,3.0075934244398555e-8,2.484301098818331e-7,8.797753767090949e-8,1.8177227265303187e-8,1.6072822358874498e-9,1.943312054308028e-9,0
50270,2.706800380780429e-9,6.0508856288158555e-9,3.002866237820107e-8,2.4711597785883934e-7,8.832209445099222e-8,1.849335196665352e-8,1.6450395367573266e-9,1.952171294265043e-9,0
50271,2.7207150356757003e-9,6.111170894685252e-9,2.99813905120036e-8,2.458018458358455e-7,8.866665123107497e-8,1.8809476668003848e-8,1.6827968376272037e-9,1.961030534222058e-9,0
50272,2.734629690570972e-9,6.171456160554648e-9,2.9934118645806116e-8,2.4448771381285173e-7,8.90112080111577e-8,1.912560136935418e-8,1.7205541384970807e-9,1.969889774179073e-9,0
50273,2.7485443454662436e-9,6.231741426424044e-9,2.988684677960864e-8,2.431735817898579e-7,8.935576479124045e-8,1.9441726070704512e-8,1.7583114393669578e-9,1.978749014136088e-9,0
50274,2.747337251507642e-9,6.228517651654055e-9,2.963118037187283e-8,2.415598498025916e-7,8.913660113791276e-8,1.9439903502452734e-8,1.7555837957280206e-9,1.978696589973731e-9,0
50275,2.7461301575490405e-9,6.225293876884067e-9,2.937551396413702e-8,2.3994611781532525e-7,8.891743748458509e-8,1.9438080934200953e-8,1.7528561520890834e-9,1.978644165811374e-9,0
50276,2.7449230635904387e-9,6.222070102114078e-9,2.9119847556401212e-8,2.3833238582805892e-7,8.86982738312574e-8,1.9436258365949175e-8,1.7501285084501464e-9,1.9785917416490166e-9,0
50277,2.743715969631837e-9,6.218846327344089e-9,2.8864181148665404e-8,2.367186538407926e-7,8.847911017792972e-8,1.9434435797697398e-8,1.7474008648112093e-9,1.9785393174866596e-9,0
50278,2.7425088756732356e-9,6.2156225525741005e-9,2.8608514740929596e-8,2.3510492185352627e-7,8.825994652460203e-8,1.943261322944562e-8,1.744673221172272e-9,1.9784868933243023e-9,0
50279,2.738938026183955e-9,6.2083863220472104e-9,2.8442756938692394e-8,2.3349935390642783e-7,8.74846396821985e-8,1.9423407490517017e-8,1.7457590190947877e-9,1.9787100578017273e-9,0
50280,2.7353671766946745e-9,6.20115009152032e-9,2.8276999136455197e-8,2.318937859593294e-7,8.670933283979496e-8,1.941420175158841e-8,1.7468448170173032e-9,1.9789332222791524e-9,0
50281,2.7317963272053935e-9,6.19391386099343e-9,2.8111241334217996e-8,2.3028821801223097e-7,8.593402599739143e-8,1.9404996012659807e-8,1.7479306149398188e-9,1.979156386756577e-9,0
50282,2.728225477716113e-9,6.18667763046654e-9,2.7945483531980794e-8,2.2868265006513253e-7,8.515871915498788e-8,1.93957902737312e-8,1.7490164128623344e-9,1.9793795512340022e-9,0
50283,2.7246546282268323e-9,6.17944139993965e-9,2.7779725729743597e-8,2.270770821180341e-7,8.438341231258435e-8,1.9386584534802597e-8,1.75010221078485e-9,1.979602715711427e-9,0
50284,2.7210837787375517e-9,6.17220516941276e-9,2.7613967927506395e-8,2.2547151417093568e-7,8.36081054701808e-8,1.937737879587399e-8,1.7511880087073655e-9,1.979825880188852e-9,0
50285,2.7175129292482708e-09,6.16496893888587e-9,2.7448210125269198e-8,2.2386594622383723e-7,8.283279862777727e-8,1.9368173056945384e-8,1.7522738066298811e-9,1.980049044666277e-9,0
50286,2.71394207975899e-9,6.15773270835898e-9,2.7282452323031996e-8,2.222603782767388e-7,8.205749178537373e-8,1.935896731801678e-8,1.7533596045523967e-9,1.9802722091437017e-9,0
50287,2.7103712302697096e-9,6.15049647783209e-9,2.7116694520794795e-8,2.2065481032964035e-7,8.12821849429702e-8,1.9349761579088174e-8,1.7544454024749123e-9,1.980495373621127e-9,0
50288,2.706800380780429e-9,6.1432602473052e-9,2.6950936718557597e-8,2.1904924238254194e-7,8.050687810056666e-8,1.934055584015957e-8,1.7555312003974278e-9,1.980718538098552e-9,0
50289,2.7064462103597315e-9,6.152129080463786e-9,2.695795030589214e-8,2.1899327181663173e-7,8.020175146408161e-8,1.9306197613674117e-8,1.7524503900060843e-9,1.974838349016782e-9,0
50290,2.706236622635544e-9,6.153162827681913e-9,2.7104790968182504e-8,2.2067664525001445e-7,8.008575771421193e-8,1.928104512611727e-8,1.752097223253678e-9,1.971058020728555e-9,0
50291,2.7060270349113566e-9,6.15419657490004e-9,2.7251631630472867e-8,2.223600186833972e-7,7.996976396434225e-8,1.9255892638560423e-8,1.7517440565012716e-9,1.9672776924403273e-9,0
50292,2.7058174471871687e-9,6.155230322118167e-9,2.7398472292763227e-8,2.240433921167799e-7,7.985377021447257e-8,1.9230740151003576e-8,1.7513908897488652e-9,1.9634973641521e-9,0
50293,2.7056078594629812e-9,6.156264069336294e-9,2.754531295505359e-8,2.2572676555016263e-7,7.97377764646029e-8,1.920558766344673e-8,1.7510377229964586e-9,1.9597170358638727e-9,0
50294,2.7053982717387938e-9,6.157297816554422e-9,2.7692153617343953e-8,2.2741013898354535e-7,7.962178271473322e-8,1.9180435175889882e-8,1.7506845562440523e-9,1.955936707575645e-9,0
50295,2.705188684014606e-9,6.158331563772548e-9,2.7838994279634312e-8,2.2909351241692807e-7,7.950578896486354e-8,1.9155282688333035e-8,1.750331389491646e-9,1.952156379287418e-9,0
50296,2.7049790962904184e-9,6.159365310990676e-9,2.7985834941924675e-8,2.307768858503108e-7,7.938979521499387e-8,1.9130130200776185e-8,1.7499782227392395e-9,1.9483760509991906e-9,0
50297,2.704769508566231e-9,6.160399058208803e-9,2.8132675604215038e-8,2.324602592836935e-7,7.927380146512419e-8,1.9104977713219338e-8,1.7496250559868332e-9,1.944595722710963e-9,0
50298,2.7045599208420435e-9,6.16143280542693e-9,2.8279516266505398e-8,2.3414363271707625e-7,7.915780771525451e-8,1.907982522566249e-8,1.7492718892344268e-9,1.9408153944227357e-9,0
50299,2.7043503331178556e-9,6.162466552645057e-9,2.842635692879576e-8,2.3582700615045897e-7,7.904181396538483e-8,1.9054672738105644e-8,1.7489187224820204e-9,1.9370350661345084e-9,0
50300,2.704140745393668e-9,6.1635002998631845e-9,2.857319759108612e-8,2.375103795838417e-7,7.892582021551516e-8,1.9029520250548797e-8,1.7485655557296139e-9,1.9332547378462807e-9,0
50301,2.7039311576694806e-9,6.164534047081312e-9,2.8720038253376483e-8,2.3919375301722444e-7,7.880982646564548e-8,1.900436776299195e-8,1.7482123889772075e-9,1.9294744095580535e-9,0
50302,2.7037215699452928e-9,6.1655677942994384e-9,2.8866878915666846e-8,2.4087712645060716e-7,7.86938327157758e-8,1.8979215275435103e-8,1.7478592222248011e-9,1.9256940812698262e-9,0
50303,2.7013073820280897e-9,6.160457730011762e-9,2.9021681888579004e-8,2.4286671129916837e-7,7.877471703623634e-8,1.898659844611193e-8,1.7505868658637383e-9,1.9277939420633683e-9,0
50304,2.7014519647245993e-9,6.161491477229888e-9,2.9177235208573664e-8,2.4430181667500247e-7,7.862084682128327e-8,1.8991660295419773e-8,1.7520234808656072e-9,1.9291718852622786e-9,0
50305,2.7014519647245993e-9,6.160226473945015e-9,2.9332788528568323e-8,2.4603782083968126e-7,7.884178482010252e-8,1.9003168776183418e-8,1.7558369224270597e-9,1.9291718852622786e-9,0
50306,2.7014519647245993e-9,6.15896147066014e-9,2.9488341848562985e-8,2.4777382500436006e-7,7.906272281892177e-8,1.9014677256947066e-8,1.7596503639885125e-9,1.9291718852622786e-9,0
50307,2.7014519647245993e-9,6.157696467375267e-9,2.9643895168557644e-8,2.495098291690388e-7,7.928366081774102e-8,1.9026185737710713e-8,1.7634638055499652e-9,1.9291718852622786e-9,0
50308,2.7014519647245993e-9,6.156431464090392e-9,2.9799448488552303e-8,2.512458333337176e-7,7.950459881656027e-8,1.903769421847436e-8,1.7672772471114178e-9,1.9291718852622786e-9,0
50309,2.7014519647245993e-9,6.155166460805519e-9,2.995500180854696e-8,2.529818374983964e-7,7.972553681537952e-8,1.9049202699238005e-8,1.7710906886728705e-9,1.9291718852622786e-9,0
50310,2.7014519647245993e-9,6.153901457520644e-9,3.011055512854162e-8,2.547178416630752e-7,7.994647481419878e-8,1.9060711180001653e-8,1.774904130234323e-9,1.9291718852622786e-9,0
50311,2.7014519647245993e-9,6.152636454235771e-9,3.026610844853628e-8,2.564538458277539e-7,8.016741281301803e-8,1.90722196607653e-8,1.7787175717957758e-9,1.9291718852622786e-9,0
50312,2.7048782315173702e-9,6.1544002106378515e-9,3.0265856854570986e-8,2.5667767653863427e-7,8.056305826198142e-8,1.907406080855102e-8,1.7796267863420882e-9,1.9291718852622786e-9,0
50313,2.705087819241558e-9,6.152368957185311e-9,3.026784299741306e-8,2.5640962012594083e-7,8.057520096774041e-8,1.9082404326394377e-8,1.7805360008884006e-9,1.9268488599913114e-9,0
50314,2.7052974069657456e-9,6.152368957185311e-9,3.0269842444695264e-8,2.5701551794535087e-7,8.05871134989047e-8,1.909498985993977e-8,1.7816217988109161e-9,1.9247489991977693e-9,0
50315,2.705506994689933e-9,6.152368957185311e-9,3.0271841891977475e-8,2.576214157647609e-7,8.059902603006899e-8,1.9107575393485167e-8,1.7827075967334317e-9,1.9226491384042272e-9,0
50316,2.705716582414121e-9,6.152368957185311e-9,3.027384133925968e-8,2.5822731358417093e-7,8.061093856123328e-8,1.912016092703056e-8,1.7837933946559473e-9,1.9205492776106847e-9,0
50317,2.705716582414121e-9,6.150301462749056e-9,3.027981307222603e-8,2.600089072724823e-7,8.06070060799443e-8,1.9121139853731033e-8,1.7848791925784629e-9,1.9184494168171426e-9,0
50318,2.705716582414121e-9,6.150301462749056e-9,3.0279561478260735e-8,2.6012589382145993e-7,8.060409987671408e-8,1.9123442595566074e-8,1.7890458008923218e-9,1.9163495560236005e-9,0
50319,2.705716582414121e-9,6.150301462749056e-9,3.027930988429544e-8,2.6024288037043755e-7,8.060119367348386e-8,1.9125745337401116e-8,1.7932124092061809e-9,1.9142496952300584e-9,0
50320,2.705716582414121e-9,6.150301462749056e-9,3.027905829033015e-8,2.6035986691941517e-7,8.059828747025363e-8,1.9128048079236157e-8,1.79737901752004e-9,1.9121498344365163e-9,0
50321,2.705716582414121e-9,6.150301462749056e-9,3.027880669636486e-8,2.6047685346839274e-7,8.059538126702341e-8,1.91303508210712e-8,1.801545625833899e-9,1.9100499736429743e-9,0
50322,2.705716582414121e-9,6.150301462749056e-9,3.027855510239956e-8,2.6059384001737036e-7,8.059247506379319e-8,1.9132653562906242e-8,1.805712234147758e-9,1.9079501128494317e-9,0
50323,2.7039311576694806e-9,6.15156646603393e-9,3.027855510239956e-8,2.6069257569097804e-7,8.05894537732656e-8,1.9126612786897928e-8,1.8038651577167839e-9,1.9071233469300856e-9,0
50324,2.7040757403659903e-9,6.153865216536931e-9,3.027830350843427e-8,2.6113024860590777e-7,8.055474245783149e-8,1.912479021864615e-8,1.8078265353160902e-9,1.9070709227677286e-9,0
50325,2.7042203230625e-9,6.156163967039932e-9,3.027805191446898e-8,2.6156792152083744e-7,8.052003114239737e-8,1.9122967650394372e-8,1.8117879129153966e-9,1.9070184986053717e-9,0
50326,2.7043649057590095e-9,6.158462717542934e-9,3.0277800320503686e-8,2.6200559443576717e-7,8.048531982696326e-8,1.9121145082142595e-8,1.815749290514703e-9,1.9069660744430143e-9,0
50327,2.704509488455519e-9,6.160761468045935e-9,3.027754872653839e-8,2.6244326735069684e-7,8.045060851152914e-8,1.9119322513890817e-8,1.8197106681140092e-9,1.9069136502806573e-9,0
50328,2.704654071152029e-9,6.163060218548936e-9,3.02772971325731e-8,2.6288094026562657e-7,8.041589719609503e-8,1.911749994563904e-8,1.8236720457133156e-9,1.9068612261183004e-9,0
50329,2.7047986538485384e-9,6.165358969051937e-9,3.027704553860781e-8,2.6331861318055625e-7,8.03811858806609e-8,1.911567737738726e-8,1.827633423312622e-9,1.906808801955943e-9,0
50330,2.7049432365450485e-9,6.167657719554939e-9,3.0276793944642513e-8,2.6375628609548597e-7,8.034647456522679e-8,1.9113854809135484e-8,1.8315948009119283e-9,1.906756377793586e-9,0
50331,2.705087819241558e-9,6.16995647005794e-9,3.0276542350677225e-8,2.6419395901041565e-7,8.031176324979268e-8,1.9112032240883706e-8,1.8355561785112347e-9,1.9067039536312287e-9,0
50332,2.6739051058640137e-9,6.100493443486094e-9,3.024060551735805e-8,2.6403932732244476e-7,8.030067077786505e-8,1.890255070324521e-8,1.8191259729817538e-9,1.8981068344859993e-9,0
50333,2.6433657283001856e-9,6.03279417331633e-9,3.020690642084624e-8,2.636102196504666e-7,8.038859036956345e-8,1.8699109941615028e-8,1.7987343898529665e-9,1.8895621395031273e-9,0
50334,2.6164476326121623e-9,5.9731250041700574e-9,3.018694742653121e-8,2.6312468865703414e-7,8.11028768252077e-8,1.857863987006982e-8,1.7906660482895532e-9,1.8895621395031273e-9,0
50335,2.589529536924139e-9,5.913455835023785e-9,3.016698843221617e-8,2.6263915766360176e-7,8.181716328085194e-8,1.8458169798524608e-8,1.7825977067261399e-9,1.8895621395031273e-9,0
50336,2.5626114412361163e-9,5.853786665877513e-9,3.014702943790113e-8,2.621536266701693e-7,8.253144973649618e-8,1.83376997269794e-8,1.7745293651627265e-9,1.8895621395031273e-9,0
50337,2.535693345548093e-9,5.794117496731242e-9,3.01270704435861e-8,2.616680956767369e-7,8.324573619214041e-8,1.8217229655434188e-8,1.7664610235993132e-9,1.8895621395031273e-9,0
50338,2.452068691658046e-9,5.64989674323622e-9,2.9837639607535076e-8,2.599812420819083e-7,8.291759035338028e-8,1.7689121528148507e-8,1.7787842651646871e-9,1.862157653712736e-9,0
50339,2.3684440377679986e-9,5.505675989741198e-9,2.954820877148406e-8,2.582943884870797e-7,8.258944451462013e-8,1.716101340086283e-8,1.7911075067300613e-9,1.834753167922345e-9,0
50340,2.2848193838779514e-9,5.3614552362461755e-9,2.925877793543304e-8,2.566075348922511e-7,8.226129867585998e-8,1.663290527357715e-8,1.8034307482954352e-9,1.8073486821319539e-9,0
50341,2.2011947299879042e-9,5.217234482751153e-9,2.8969347099382023e-8,2.549206812974225e-7,8.193315283709984e-8,1.610479714629147e-8,1.8157539898608091e-9,1.7799441963415626e-9,0
50342,2.117570076097857e-9,5.073013729256131e-9,2.8679916263331005e-8,2.5323382770259383e-7,8.160500699833969e-8,1.5576689019005793e-8,1.828077231426183e-9,1.7525397105511715e-9,0
50343,2.03394542220781e-9,4.928792975761109e-9,2.8390485427279987e-8,2.5154697410776523e-7,8.127686115957954e-8,1.5048580891720112e-8,1.840400472991557e-9,1.7251352247607804e-9,0
50344,1.950320768317763e-9,4.784572222266088e-9,2.810105459122897e-8,2.4986012051293663e-7,8.09487153208194e-8,1.4520472764434432e-8,1.8527237145569311e-9,1.6977307389703893e-9,0
50345,1.866696114427716e-9,4.640351468771066e-9,2.781162375517795e-8,2.4817326691810803e-7,8.062056948205925e-8,1.3992364637148753e-8,1.865046956122305e-9,1.6703262531799983e-9,0
50346,1.7830714605376687e-9,4.496130715276044e-9,2.7522192919126934e-8,2.4648641332327943e-7,8.029242364329912e-8,1.3464256509863073e-8,1.877370197687679e-9,1.642921767389607e-9,0
50347,1.6994468066476215e-9,4.3519099617810215e-9,2.7232762083075916e-8,2.4479955972845083e-7,7.996427780453897e-8,1.2936148382577394e-8,1.889693439253053e-9,1.6155172815992159e-9,0
50348,1.6887342581797795e-9,4.333628680708151e-9,2.723279756158294e-8,2.446694200520584e-7,8.061014395160112e-8,1.302178528246545e-8,1.901136113610464e-9,1.6152027366250733e-9,0
50349,1.6780217097119374e-9,4.315347399635281e-9,2.723283304008997e-8,2.4453928037566597e-7,8.125601009866326e-8,1.3107422182353506e-8,1.912578787967875e-9,1.6148881916509305e-9,0
50350,1.6673091612440954e-9,4.297066118562412e-9,2.7232868518596998e-8,2.444091406992735e-7,8.190187624572541e-8,1.3193059082241562e-8,1.9240214623252862e-9,1.6145736466767879e-9,0
50351,1.6565966127762535e-9,4.278784837489542e-9,2.7232903997104023e-8,2.4427900102288105e-7,8.254774239278756e-8,1.3278695982129618e-8,1.9354641366826973e-9,1.614259101702645e-9,0
50352,1.6458840643084114e-9,4.2605035564166714e-9,2.723293947561105e-8,2.441488613464886e-7,8.31936085398497e-8,1.3364332882017674e-8,1.9469068110401084e-9,1.6139445567285025e-9,0
50353,1.6351715158405694e-9,4.242222275343801e-9,2.7232974954118077e-8,2.440187216700962e-7,8.383947468691185e-8,1.344996978190573e-8,1.9583494853975195e-9,1.6136300117543597e-9,0
50354,1.6244589673727275e-9,4.223940994270931e-9,2.7233010432625105e-8,2.438885819937037e-7,8.4485340833974e-8,1.3535606681793786e-8,1.9697921597549306e-9,1.613315466780217e-9,0
50355,1.6137464189048854e-9,4.197484648239716e-9,2.7217319666093287e-8,2.437383994194393e-7,8.45999101918099e-8,1.355064882185733e-8,1.9751615050177563e-9,1.6063463909673157e-9,0
50356,1.5986246700510124e-9,4.167110759238271e-9,2.7217355144600315e-8,2.4352799537837506e-7,8.452567747676736e-8,1.3554238219759057e-8,1.980530850280582e-9,1.5974871510103008e-9,0
50357,1.5835029211971394e-9,4.136736870236826e-9,2.721739062310734e-8,2.433175913373109e-7,8.445144476172481e-8,1.3557827617660784e-8,1.9859001955434077e-9,1.5886279110532858e-9,0
50358,1.5683811723432664e-9,4.106362981235381e-9,2.721742610161437e-8,2.431071872962467e-7,8.437721204668227e-8,1.3561417015562509e-8,1.9912695408062334e-9,1.5797686710962708e-9,0
50359,1.5532594234893933e-9,4.075989092233936e-9,2.7217461580121397e-8,2.428967832551825e-7,8.430297933163972e-8,1.3565006413464235e-8,1.996638886069059e-9,1.5709094311392559e-9,0
50360,1.5381376746355201e-9,4.045615203232491e-9,2.7217497058628422e-8,2.426863792141183e-7,8.422874661659718e-8,1.3568595811365962e-8,2.002008231331885e-9,1.5620501911822409e-9,0
50361,1.5230159257816471e-9,4.015241314231046e-9,2.721753253713545e-8,2.424759751730541e-7,8.415451390155463e-8,1.3572185209267689e-8,2.0073775765947105e-9,1.5531909512252257e-9,0
50362,1.5062174751342734e-9,3.973332242221191e-9,2.7123488748254973e-8,2.4249411583164103e-7,8.416058525443414e-8,1.3531669501158702e-8,1.997519453277022e-9,1.5473631863058133e-9,0
50363,1.505863304713576e-9,3.973332242221191e-9,2.7139219428107196e-8,2.4239181355662844e-7,8.398470766710955e-8,1.347849916978011e-8,1.9952619154169424e-9,1.5476387749455954e-9,0
50364,1.5055091342928787e-9,3.973332242221191e-9,2.715495010795942e-8,2.4228951128161586e-7,8.380883007978496e-8,1.3425328838401518e-8,1.993004377556863e-9,1.5479143635853774e-9,0
50365,1.5051549638721814e-9,3.973332242221191e-9,2.7170680787811642e-8,2.4218720900660327e-7,8.363295249246037e-8,1.3372158507022925e-8,1.9907468396967833e-9,1.5481899522251595e-9,0
50366,1.5048007934514841e-9,3.973332242221191e-9,2.7186411467663865e-8,2.420849067315907e-7,8.345707490513579e-8,1.3318988175644335e-8,1.9884893018367035e-9,1.5484655408649415e-9,0
50367,1.5044466230307868e-9,3.973332242221191e-9,2.7202142147516088e-8,2.419826044565781e-7,8.32811973178112e-8,1.3265817844265743e-8,1.986231763976624e-9,1.5487411295047236e-9,0
50368,1.5040924526100895e-9,3.973332242221191e-9,2.721787282736831e-8,2.418803021815655e-7,8.310531973048661e-8,1.321264751288715e-8,1.9839742261165443e-9,1.5490167181445056e-9,0
50369,1.5037382821893922e-9,3.973332242221191e-9,2.7233603507220534e-8,2.417779999065529e-7,8.292944214316202e-8,1.3159477181508558e-8,1.981716688256465e-9,1.5492923067842877e-9,0
50370,1.503384111768695e-9,3.973332242221191e-9,2.7249334187072757e-8,2.4167569763154034e-7,8.275356455583744e-8,1.3106306850129966e-8,1.979459150396385e-9,1.5495678954240697e-9,0
50371,1.5030299413479978e-9,3.973332242221191e-9,2.726506486692498e-8,2.4157339535652775e-7,8.257768696851285e-8,1.3053136518751374e-8,1.9772016125363054e-9,1.5498434840638518e-9,0
50372,1.5026757709273005e-9,3.973332242221191e-9,2.72807955467772e-8,2.414710930815152e-7,8.240180938118826e-8,1.2999966187372782e-8,1.974944074676226e-9,1.5501190727036338e-9,0
50373,1.5023216005066032e-9,3.973332242221191e-9,2.7296526226629423e-8,2.4136879080650263e-7,8.222593179386367e-8,1.294679585599419e-8,1.9726865368161463e-9,1.550394661343416e-9,0
50374,1.5019674300859059e-9,3.973332242221191e-9,2.7312256906481646e-8,2.4126648853149005e-7,8.205005420653908e-8,1.2893625524615597e-8,1.970428998956067e-9,1.550670249983198e-9,0
50375,1.5016132596652086e-9,3.973332242221191e-9,2.732798758633387e-8,2.4116418625647746e-7,8.18741766192145e-8,1.2840455193237005e-8,1.968171461095987e-9,1.55094583862298e-9,0
50376,1.5012590892445113e-9,3.973332242221191e-9,2.7343718266186092e-8,2.410618839814649e-7,8.169829903188991e-8,1.2787284861858413e-8,1.9659139232359074e-9,1.551221427262762e-9,0
50377,1.5012590892445113e-9,3.9772497851914214e-9,2.734971660803271e-8,2.410986814953552e-7,8.195541114210483e-8,1.2727150566372867e-8,1.9572012421904867e-9,1.551444591740187e-9,0
50378,1.5012590892445113e-9,3.9772497851914214e-9,2.73796684039454e-8,2.4175033694116595e-7,8.204432354847191e-8,1.2690248064111111e-8,1.9495743590675812e-9,1.5523896738122439e-9,0
50379,1.5012590892445113e-9,3.9772497851914214e-9,2.740962019985809e-8,2.424019923869767e-7,8.213323595483899e-8,1.2653345561849357e-8,1.9419474759446757e-9,1.5533347558843006e-9,0
50380,1.5012590892445113e-9,3.9772497851914214e-9,2.743957199577078e-8,2.4305364783278754e-7,8.222214836120608e-8,1.2616443059587602e-8,1.9343205928217707e-9,1.5542798379563575e-9,0
50381,1.5012590892445113e-9,3.9772497851914214e-9,2.7469523791683467e-8,2.437053032785983e-7,8.231106076757316e-8,1.2579540557325846e-8,1.926693709698865e-9,1.5552249200284144e-9,0
50382,1.5012590892445113e-9,3.9772497851914214e-9,2.749947558759616e-8,2.443569587244091e-7,8.239997317394025e-8,1.2542638055064092e-8,1.91906682657596e-9,1.5561700021004711e-9,0
50383,1.4948548763896522e-9,3.96143464937565e-9,2.746579866515124e-8,2.445405752011257e-7,8.251556880983492e-8,1.251108132353089e-8,1.919243409952163e-9,1.556065153775757e-9,0
50384,1.4884506635347932e-9,3.94561951355988e-9,2.7432121742706324e-8,2.447241916778423e-7,8.263116444572958e-8,1.2479524591997685e-8,1.9194199933283665e-9,1.5559603054510427e-9,0
50385,1.4888048339554905e-9,3.94561951355988e-9,2.745008572455253e-8,2.450457423344592e-7,8.289609829854294e-8,1.2503217979270797e-8,1.918393839755603e-9,1.5559603054510427e-9,0
50386,1.4891590043761878e-9,3.94561951355988e-9,2.7468049706398738e-8,2.4536729299107614e-7,8.316103215135631e-8,1.2526911366543911e-8,1.9173676861828396e-9,1.5559603054510427e-9,0
50387,1.4895131747968851e-9,3.94561951355988e-9,2.7486013688244948e-8,2.45688843647693e-7,8.342596600416968e-8,1.2550604753817023e-8,1.9163415326100758e-9,1.5559603054510427e-9,0
50388,1.4898673452175824e-9,3.94561951355988e-9,2.7503977670091155e-8,2.4601039430430994e-7,8.369089985698305e-8,1.2574298141090135e-8,1.9153153790373124e-9,1.5559603054510427e-9,0
50389,1.4902215156382797e-9,3.94561951355988e-9,2.7521941651937365e-8,2.4633194496092687e-7,8.395583370979642e-8,1.2597991528363248e-8,1.914289225464549e-9,1.5559603054510427e-9,0
50390,1.490575686058977e-9,3.94561951355988e-9,2.7539905633783572e-8,2.466534956175438e-7,8.422076756260978e-8,1.2621684915636361e-8,1.9132630718917855e-9,1.5559603054510427e-9,0
50391,1.4949848864450081e-9,3.957712121488455e-9,2.7617737728948132e-8,2.477901246396472e-7,8.471894524332999e-8,1.262396907793746e-8,1.912236918319022e-9,1.5589003999919275e-9,0
50392,1.4993940868310392e-9,3.96980472941703e-9,2.769556982411269e-8,2.489267536617506e-7,8.521712292405019e-8,1.2626253240238558e-8,1.9112107647462587e-9,1.5618404945328124e-9,0
50393,1.4997482572517365e-9,3.975948540922834e-9,2.7692325711444157e-8,2.496477429021153e-7,8.52600396479026e-8,1.2635920573216483e-8,1.915112497995813e-9,1.5619453428575265e-9,0
50394,1.5001024276724338e-9,3.982092352428638e-9,2.768908159877562e-8,2.5036873214248004e-7,8.530295637175502e-8,1.264558790619441e-8,1.919014231245367e-9,1.5620501911822409e-9,0
50395,1.500456598093131e-9,3.988236163934443e-9,2.7685837486107088e-8,2.5108972138284476e-7,8.534587309560745e-8,1.2655255239172336e-8,1.9229159644949214e-9,1.562155039506955e-9,0
50396,1.5008107685138282e-9,3.994379975440247e-9,2.7682593373438552e-8,2.518107106232094e-7,8.538878981945985e-8,1.2664922572150261e-8,1.9268176977444756e-9,1.5622598878316693e-9,0
50397,1.5008107685138282e-9,3.988177492131484e-9,2.7635507769402965e-8,2.5286180465276804e-7,8.49544430301247e-8,1.2664922572150261e-8,1.917224449491092e-9,1.5623647361563835e-9,0
50398,1.5008107685138282e-9,3.981975008822721e-9,2.7588422165367378e-8,2.539128986823266e-7,8.452009624078953e-8,1.2664922572150261e-8,1.9076312012377082e-9,1.5624695844810978e-9,0
50399,1.5008107685138282e-9,3.975772525513958e-9,2.754133656133179e-8,2.5496399271188516e-7,8.408574945145438e-8,1.2664922572150261e-8,1.8980379529843245e-9,1.562574432805812e-9,0
50400,1.5008107685138282e-9,3.9695700422051954e-9,2.7494250957296204e-8,2.5601508674144373e-7,8.365140266211921e-8,1.2664922572150261e-8,1.888444704730941e-9,1.5626792811305263e-9,0
50401,1.5008107685138282e-9,3.963367558896432e-9,2.744716535326062e-8,2.5706618077100234e-7,8.321705587278406e-8,1.2664922572150261e-8,1.878851456477557e-9,1.5627841294552404e-9,0
50402,1.5008107685138282e-9,3.957165075587669e-9,2.7400079749225033e-8,2.581172748005609e-7,8.278270908344889e-8,1.2664922572150261e-8,1.869258208224173e-9,1.5628889777799547e-9,0
50403,1.5008107685138282e-9,3.9509625922789065e-9,2.7352994145189446e-8,2.5916836883011947e-7,8.234836229411374e-8,1.2664922572150261e-8,1.8596649599707895e-9,1.5629938261046689e-9,0
50404,1.5008107685138282e-9,3.944760108970144e-9,2.730590854115386e-8,2.6021946285967803e-7,8.191401550477857e-8,1.2664922572150261e-8,1.8500717117174056e-9,1.5630986744293832e-9,0
50405,1.5008107685138282e-9,3.93855762566138e-9,2.7258822937118272e-8,2.6127055688923664e-7,8.147966871544341e-8,1.2664922572150261e-8,1.8404784634640219e-9,1.5632035227540973e-9,0
50406,1.4772752216951144e-9,3.8805711102949856e-09,2.712422611767306e-8,2.604388626784887e-7,8.082748671723788e-8,1.2568244013959441e-8,1.8377794671634343e-9,1.5551186245540714e-9,0
50407,1.4537396748764005e-9,3.822584594928591e-9,2.6989629298227853e-8,2.596071684677408e-7,8.017530471903234e-8,1.247156545576862e-8,1.8350804708628466e-9,1.5470337263540454e-9,0
50408,1.4302041280576867e-9,3.764598079562196e-9,2.6855032478782642e-8,2.5877547425699285e-7,7.952312272082681e-8,1.23748868975778e-8,1.832381474562259e-9,1.5389488281540196e-9,0
50409,1.4066685812389728e-9,3.7066115641958007e-9,2.6720435659337434e-8,2.5794378004624487e-7,7.887094072262128e-8,1.227820833938698e-8,1.8296824782616714e-9,1.5308639299539936e-9,0
50410,1.383133034420259e-9,3.648625048829406e-9,2.6585838839892223e-8,2.5711208583549694e-7,7.821875872441575e-8,1.218152978119616e-8,1.826983481961084e-9,1.5227790317539676e-9,0
50411,1.359597487601545e-9,3.590638533463011e-9,2.6451242020447015e-8,2.56280391624749e-7,7.75665767262102e-8,1.208485122300534e-8,1.8242844856604963e-9,1.5146941335539417e-9,0
50412,1.3360619407828313e-9,3.532652018096616e-9,2.6316645201001804e-8,2.554486974140011e-7,7.691439472800467e-8,1.198817266481452e-8,1.8215854893599087e-9,1.5066092353539157e-9,0
50413,1.3272939723972933e-9,3.5046493615655985e-9,2.6253815612673862e-08,2.556320530147658e-7,7.705287064759045e-8,1.1914800217983264e-8,1.8247832387777033e-9,1.4985243371538897e-9,0
50414,1.307813455543913e-9,3.4605554515135727e-9,2.6146164765997964e-8,2.536204532546503e-7,7.645107234632627e-8,1.182733262713261e-8,1.8253129889063128e-9,1.4893895085570927e-9,0
50415,1.2896341829591202e-9,3.4087714194559407e-9,2.6002824245154805e-8,2.519295398604869e-7,7.630136009569116e-8,1.1817185120571421e-8,1.8364024965113175e-9,1.4893895085570927e-9,0
50416,1.2714549103743275e-9,3.3569873873983087e-9,2.585948372431165e-8,2.502386264663235e-7,7.615164784505605e-8,1.1807037614010231e-8,1.8474920041163223e-9,1.4893895085570927e-9,0
50417,1.2532756377895346e-9,3.3052033553406767e-9,2.5716143203468493e-8,2.4854771307216006e-7,7.600193559442093e-8,1.1796890107449042e-8,1.858581511721327e-9,1.4893895085570927e-9,0
50418,1.2350963652047417e-9,3.2534193232830447e-9,2.5572802682625338e-8,2.468567996779967e-7,7.585222334378582e-8,1.1786742600887852e-8,1.8696710193263315e-9,1.4893895085570927e-9,0
50419,1.2169170926199488e-9,3.2016352912254127e-9,2.5429462161782182e-8,2.4516588628383325e-7,7.570251109315071e-8,1.1776595094326663e-8,1.8807605269313362e-9,1.4893895085570927e-9,0
50420,1.220697529833417e-9,3.212947838821853e-9,2.541750539140935e-8,2.4511325555253717e-7,7.621172839371559e-8,1.1859462429918794e-8,1.900562715581762e-9,1.4975792550818328e-9,0
50421,1.2262633917915258e-9,3.22502663658596e-9,2.5417500956595973e-8,2.4456730088037574e-7,7.669966712513489e-8,1.1957674406529121e-8,1.9192791063096722e-9,1.505769001606573e-9,0
50422,1.2318292537496344e-9,3.237105434350067e-9,2.5417496521782593e-8,2.4402134620821425e-7,7.718760585655419e-8,1.205588638313945e-8,1.937995497037582e-9,1.5139587481313132e-9,0
50423,1.237395115707743e-9,3.249184232114174e-9,2.5417492086969214e-8,2.4347539153605276e-7,7.767554458797349e-8,1.2154098359749776e-8,1.9567118877654922e-9,1.5221484946560535e-9,0
50424,1.2429609776658514e-9,3.2612630298782812e-9,2.5417487652155837e-8,2.4292943686389127e-7,7.816348331939279e-8,1.2252310336360104e-8,1.975428278493402e-9,1.5303382411807936e-9,0
50425,1.2485268396239602e-9,3.2733418276423883e-9,2.5417483217342457e-8,2.423834821917298e-7,7.865142205081209e-8,1.2350522312970431e-8,1.9941446692213123e-9,1.5385279877055337e-9,0
50426,1.2540927015820687e-9,3.2854206254064958e-9,2.541747878252908e-8,2.4183752751956835e-7,7.91393607822314e-8,1.2448734289580758e-8,2.012861059949222e-9,1.546717734230274e-9,0
50427,1.2607065021611152e-9,3.2912969398618398e-9,2.541946492537115e-8,2.427645136857515e-7,7.917578889950839e-8,1.244988566049828e-8,2.0117752620267065e-9,1.545995816635642e-9,0
50428,1.267320302740162e-9,3.297173254317184e-9,2.5421451068213222e-8,2.436914998519347e-7,7.92122170167854e-8,1.24510370314158e-8,2.0106894641041913e-9,1.5452738990410102e-9,0
50429,1.2739341033192084e-9,3.3030495687725285e-9,2.5423437211055295e-8,2.446184860181179e-7,7.924864513406241e-8,1.2452188402333321e-8,2.0096036661816757e-9,1.5445519814463782e-9,0
50430,1.280547903898255e-9,3.3089258832278725e-9,2.5425423353897364e-8,2.455454721843011e-7,7.928507325133941e-8,1.2453339773250842e-8,2.00851786825916e-9,1.5438300638517464e-9,0
50431,1.2871617044773016e-9,3.314802197683217e-9,2.5427409496739436e-8,2.464724583504843e-7,7.932150136861642e-8,1.2454491144168362e-8,2.0074320703366446e-9,1.5431081462571145e-9,0
50432,1.2937755050563482e-9,3.320678512138561e-9,2.5429395639581508e-8,2.473994445166675e-7,7.935792948589343e-8,1.2455642515085884e-8,2.006346272414129e-9,1.5423862286624825e-9,0
50433,1.3003893056353949e-9,3.3265548265939052e-9,2.5431381782423577e-8,2.4832643068285067e-7,7.939435760317043e-8,1.2456793886003405e-8,2.0052604744916135e-9,1.5416643110678507e-9,0
50434,1.3014518168974866e-9,3.3324311410492496e-9,2.5431130188458286e-8,2.4802795110804504e-7,7.940257264369218e-8,1.2538976673138898e-8,2.029553790869955e-9,1.552755195799115e-9,0
50435,1.3025143281595785e-9,3.3383074555045936e-9,2.543087859449299e-8,2.4772947153323937e-7,7.941078768421392e-8,1.2621159460274392e-8,2.0538471072482965e-9,1.5638460805303792e-9,0
50436,1.3035768394216704e-9,3.344183769959938e-9,2.54306270005277e-8,2.4743099195843375e-7,7.941900272473567e-8,1.2703342247409884e-8,2.078140423626638e-9,1.5749369652616436e-9,0
50437,1.3046393506837623e-9,3.3500600844152823e-9,2.5430375406562408e-8,2.471325123836281e-7,7.942721776525742e-8,1.2785525034545379e-8,2.1024337400049795e-9,1.5860278499929078e-9,0
50438,1.305701861945854e-9,3.3559363988706263e-9,2.5430123812597114e-8,2.468340328088224e-7,7.943543280577916e-8,1.2867707821680871e-8,2.126727056383321e-9,1.597118734724172e-9,0
50439,1.306764373207946e-9,3.3618127133259707e-9,2.5429872218631822e-8,2.465355532340168e-7,7.944364784630091e-8,1.2949890608816364e-8,2.1510203727616625e-9,1.6082096194554365e-9,0
50440,1.3054126965528348e-9,3.365766497279913e-9,2.5429620624666527e-8,2.4425774141450775e-7,7.920948332001522e-8,1.2923713912780341e-8,2.176194256347967e-9,1.6200224217813328e-9,0
50441,1.3040610198977234e-9,3.369720281233856e-9,2.5429369030701236e-8,2.419799295949988e-7,7.897531879372954e-8,1.2897537216744317e-8,2.2013681399342716e-9,1.6318352241072289e-9,0
50442,1.290146365002452e-9,3.3267326003673837e-9,2.4501574117945685e-8,2.404914005276758e-7,7.829198874371418e-8,1.2938575485916016e-8,2.2180345731897076e-9,1.63977631764818e-9,0
50443,1.2762317101071805e-9,3.2837449195009116e-9,2.3573779205190137e-8,2.390028714603528e-7,7.760865869369883e-8,1.2979613755087715e-8,2.234701006445144e-9,1.647717411189131e-9,0
50444,1.262317055211909e-9,3.240757238634439e-9,2.2645984292434586e-8,2.375143423930299e-7,7.692532864368347e-8,1.3020652024259412e-8,2.25136743970058e-9,1.6556585047300822e-9,0
50445,1.2484024003166376e-9,3.1977695577679668e-9,2.1718189379679035e-8,2.3602581332570691e-7,7.62419985936681e-8,1.3061690293431111e-8,2.2680338729560165e-9,1.6635995982710333e-9,0
50446,1.234487745421366e-9,3.1547818769014946e-9,2.0790394466923484e-8,2.3453728425838396e-7,7.555866854365274e-8,1.3102728562602808e-8,2.2847003062114525e-9,1.6715406918119844e-9,0
50447,1.2205730905260945e-9,3.1117941960350224e-9,1.9862599554167936e-8,2.33048755191061e-7,7.487533849363739e-8,1.3143766831774507e-8,2.301366739466889e-9,1.6794817853529353e-9,0
50448,1.206658435630823e-9,3.0688065151685502e-9,1.8934804641412385e-8,2.3156022612373806e-7,7.419200844362203e-8,1.3184805100946205e-8,2.318033172722325e-9,1.6874228788938864e-9,0
50449,1.1927437807355516e-9,3.0258188343020776e-9,1.8007009728656834e-8,2.300716970564151e-7,7.350867839360666e-8,1.3225843370117904e-8,2.3346996059777614e-9,1.6953639724348375e-9,0
50450,1.1859708248188415e-9,2.9890336367443685e-9,1.7099394360487964e-8,2.2816553163880972e-7,7.290974307559321e-8,1.3219685888494369e-8,2.3320006096771736e-9,1.7036720351122884e-9,0
50451,1.1791978689021312e-9,2.952248439186659e-9,1.6191778992319095e-8,2.2625936622120437e-7,7.231080775757974e-8,1.3213528406870835e-8,2.329301613376586e-9,1.7119800977897392e-9,0
50452,1.1708345033238145e-9,2.909260758320187e-9,1.526423123871546e-8,2.2442154742425564e-7,7.15807339576169e-8,1.317668164321091e-8,2.3216747302536807e-9,1.708108389004794e-9,0
50453,1.1624711377454977e-9,2.8662730774537143e-9,1.433668348511182e-8,2.225837286273069e-7,7.085066015765406e-8,1.3139834879550984e-8,2.3140478471307756e-9,1.7042366802198489e-9,0
50454,1.1688753506003567e-9,2.8721493919090586e-9,1.4336930644263736e-8,2.2273549467891941e-7,7.083378405109032e-8,1.3143960189637805e-8,2.315133645053291e-9,1.703514762625217e-9,0
50455,1.1752795634552157e-9,2.878025706364403e-9,1.433717780341565e-8,2.2288726073053195e-7,7.081690794452657e-8,1.3148085499724624e-8,2.3162194429758067e-9,1.702792845030585e-9,0
50456,1.1816837763100746e-9,2.883902020819747e-9,1.4337424962567564e-8,2.2303902678214446e-7,7.080003183796283e-8,1.3152210809811444e-8,2.3173052408983223e-9,1.7020709274359532e-9,0
50457,1.1880879891649336e-9,2.8897783352750914e-9,1.4337672121719479e-8,2.2319079283375697e-7,7.078315573139909e-8,1.3156336119898263e-8,2.3183910388208375e-9,1.7013490098413214e-9,0
50458,1.1944922020197926e-9,2.8956546497304358e-9,1.4337919280871394e-8,2.2334255888536947e-7,7.076627962483535e-8,1.3160461429985084e-8,2.319476836743353e-9,1.7006270922466894e-9,0
50459,1.2008964148746516e-9,2.9015309641857797e-9,1.4338166440023307e-8,2.2349432493698198e-7,7.074940351827161e-8,1.3164586740071903e-8,2.3205626346658686e-9,1.6999051746520575e-9,0
50460,1.2073006277295107e-9,2.907407278641124e-9,1.4338413599175222e-8,2.2364609098859452e-7,7.073252741170786e-8,1.3168712050158721e-8,2.321648432588384e-9,1.6991832570574255e-9,0
50461,1.2137048405843695e-9,2.9132835930964685e-9,1.4338660758327135e-8,2.2379785704020703e-7,7.071565130514412e-8,1.3172837360245542e-8,2.3227342305108998e-9,1.6984613394627937e-9,0
50462,1.2201090534392285e-9,2.9191599075518125e-9,1.433890791747905e-8,2.2394962309181954e-7,7.069877519858038e-8,1.317696267033236e-8,2.3238200284334153e-9,1.6977394218681616e-9,0
50463,1.2224582363287538e-9,2.9164348858990305e-9,1.4296981611940014e-8,2.237755233667157e-7,7.017230775773535e-8,1.3101847201796662e-8,2.3188921416110977e-9,1.6976869977058047e-9,0
50464,1.224807419218279e-9,2.913709864246249e-9,1.4255055306400979e-8,2.236014236416119e-7,6.964584031689031e-8,1.3026731733260962e-8,2.31396425478878e-9,1.6976345735434475e-9,0
50465,1.2271566021078041e-9,2.910984842593467e-9,1.4213129000861945e-8,2.2342732391650809e-7,6.911937287604528e-8,1.2951616264725264e-8,2.3090363679664624e-9,1.6975821493810903e-9,0
50466,1.2295057849973294e-9,2.908259820940685e-9,1.4171202695322909e-8,2.2325322419140429e-7,6.859290543520024e-8,1.2876500796189564e-8,2.3041084811441447e-9,1.6975297252187332e-9,0
50467,1.2318549678868547e-9,2.9055347992879037e-9,1.4129276389783874e-8,2.2307912446630046e-7,6.806643799435521e-8,1.2801385327653864e-8,2.299180594321827e-9,1.6974773010563762e-9,0
50468,1.23420415077638e-9,2.9028097776351217e-9,1.4087350084244838e-8,2.2290502474119666e-7,6.753997055351016e-8,1.2726269859118166e-8,2.294252707499509e-9,1.697424876894019e-9,0
50469,1.236553333665905e-9,2.90008475598234e-9,1.4045423778705804e-8,2.2273092501609284e-7,6.701350311266513e-8,1.2651154390582466e-8,2.2893248206771913e-9,1.6973724527316619e-9,0
50470,1.2389025165554303e-9,2.897359734329558e-9,1.4003497473166768e-8,2.2255682529098904e-7,6.648703567182009e-8,1.2576038922046768e-8,2.2843969338548737e-9,1.6973200285693047e-9,0
50471,1.2412516994449556e-9,2.8946347126767764e-9,1.3961571167627733e-8,2.223827255658852e-7,6.596056823097506e-8,1.2500923453511068e-8,2.279469047032556e-9,1.6972676044069477e-9,0
50472,1.2368424990589245e-9,2.88576587951819e-9,1.3928361954606375e-8,2.2203380692899434e-7,6.541130682191192e-8,1.2422353872222806e-8,2.279910505473064e-9,1.6979370978392224e-9,0
50473,1.2324332986728934e-9,2.876897046359604e-9,1.3895152741585015e-8,2.2168488829210347e-7,6.486204541284878e-8,1.2343784290934544e-8,2.2803519639135717e-9,1.6986065912714973e-9,0
50474,1.2288120167970888e-9,2.8743532296253883e-9,1.3865183206418812e-8,2.2326718138938648e-7,6.571216065575362e-8,1.227712904585742e-8,2.2743382791687385e-9,1.6983310026317152e-9,0
50475,1.225190734921284e-9,2.8718094128911723e-9,1.383521367125261e-8,2.2484947448666948e-7,6.656227589865847e-8,1.2210473800780296e-8,2.2683245944239053e-9,1.6980554139919332e-9,0
50476,1.2215694530454794e-9,2.8692655961569563e-9,1.3805244136086406e-8,2.2643176758395248e-7,6.74123911415633e-8,1.2143818555703172e-8,2.262310909679072e-9,1.6977798253521511e-9,0
50477,1.2223573715557056e-9,2.8753593565145797e-9,1.381521032880379e-8,2.2788566069654726e-7,6.870377817379554e-8,1.2154101347413526e-8,2.26140169513276e-9,1.697504236712369e-9,0
50478,1.223145290065932e-9,2.881453116872203e-9,1.3825176521521173e-8,2.2933955380914205e-7,6.999516520602776e-8,1.216438413912388e-8,2.2604924805864473e-9,1.697228648072587e-9,0
50479,1.2239332085761585e-9,2.8875468772298265e-9,1.3835142714238555e-8,2.307934469217368e-7,7.128655223825998e-8,1.2174666930834232e-8,2.259583266040135e-9,1.696953059432805e-9,0
50480,1.2247211270863849e-9,2.89364063758745e-9,1.3845108906955938e-8,2.3224734003433159e-7,7.257793927049221e-8,1.2184949722544586e-8,2.2586740514938225e-9,1.6966774707930229e-9,0
50481,1.2255090455966113e-9,2.8997343979450733e-9,1.3855075099673321e-8,2.3370123314692637e-7,7.386932630272443e-8,1.219523251425494e-8,2.2577648369475103e-9,1.6964018821532408e-9,0
50482,1.2262969641068375e-9,2.9058281583026967e-9,1.3865041292390705e-8,2.3515512625952115e-7,7.516071333495665e-8,1.2205515305965294e-8,2.2568556224011977e-9,1.6961262935134588e-9,0
50483,1.2270848826170639e-9,2.9119219186603197e-9,1.3875007485108086e-8,2.366090193721159e-7,7.645210036718887e-8,1.2215798097675647e-8,2.2559464078548855e-9,1.6958507048736767e-9,0
50484,1.227518630706593e-9,2.9143293921144608e-9,1.3862251584705592e-8,2.3729235158507534e-7,7.771046893005725e-8,1.2207664183117229e-08,2.2559464078548855e-9,1.6956275403962518e-9,0
50485,1.227952378796122e-9,2.9167368655686015e-9,1.3849495684303098e-8,2.3797568379803477e-7,7.896883749292564e-8,1.219953026855881e-8,2.2559464078548855e-9,1.695404375918827e-9,0
50486,1.2283861268856512e-9,2.919144339022742e-9,1.3836739783900603e-8,2.386590160109942e-7,8.022720605579402e-8,1.219139635400039e-8,2.2559464078548855e-9,1.6951812114414019e-9,0
50487,1.2288198749751803e-9,2.921551812476883e-9,1.3823983883498109e-8,2.393423482239536e-7,8.14855746186624e-8,1.2183262439441972e-8,2.2559464078548855e-9,1.694958046963977e-9,0
50488,1.2292536230647094e-9,2.9239592859310235e-9,1.3811227983095615e-8,2.4002568043691305e-7,8.274394318153078e-8,1.2175128524883554e-8,2.2559464078548855e-9,1.694734882486552e-9,0
50489,1.2296873711542385e-9,2.9263667593851642e-9,1.379847208269312e-8,2.407090126498725e-7,8.400231174439916e-8,1.2166994610325135e-8,2.2559464078548855e-9,1.6945117180091272e-9,0
50490,1.2301211192437674e-9,2.9287742328393053e-9,1.3785716182290626e-8,2.413923448628319e-7,8.526068030726754e-8,1.2158860695766716e-8,2.2559464078548855e-9,1.6942885535317023e-9,0
50491,1.2305548673332965e-9,2.931181706293446e-9,1.3772960281888132e-8,2.4207567707579134e-7,8.651904887013593e-8,1.2150726781208297e-8,2.2559464078548855e-9,1.6940653890542772e-9,0
50492,1.2309886154228256e-9,2.9335891797475867e-9,1.3760204381485638e-8,2.4275900928875077e-7,8.777741743300431e-8,1.2142592866649879e-8,2.2559464078548855e-9,1.6938422245768523e-9,0
50493,1.2314223635123547e-9,2.9359966532017274e-9,1.3747448481083143e-8,2.434423415017102e-7,8.903578599587268e-8,1.2134458952091461e-8,2.2559464078548855e-9,1.6936190600994275e-9,0
50494,1.2318561116018838e-9,2.938404126655868e-9,1.3734692580680649e-8,2.4412567371466963e-7,9.029415455874107e-8,1.2126325037533042e-8,2.2559464078548855e-9,1.6933958956220026e-9,0
50495,1.2350727906704673e-9,2.950591647371115e-9,1.3830382222170336e-8,2.445025700797721e-7,9.016317907563428e-8,1.210911544078362e-8,2.256151638569438e-9,1.6934483197843595e-9,0
50496,1.2350727906704673e-9,2.9469053604676322e-9,1.3805669551395008e-8,2.433154631092725e-7,9.002877468040745e-8,1.2088395992679807e-8,2.2570608531157506e-9,1.6934483197843595e-9,0
50497,1.2350727906704673e-9,2.94321907356415e-9,1.3780956880619682e-8,2.421283561387728e-7,8.989437028518062e-8,1.2067676544575993e-8,2.257970067662063e-9,1.6934483197843595e-9,0
50498,1.2310177607051335e-9,2.9345814964723105e-9,1.375628855797814e-8,2.4008481318036953e-7,8.917530264167239e-8,1.2067522679892885e-8,2.25779348428586e-9,1.6927264021897277e-9,0
50499,1.2184189227196031e-9,2.914776335718884e-9,1.3684428195779927e-8,2.390774706543683e-7,8.915940008557044e-8,1.2010431413300847e-8,2.2461742265522454e-9,1.6809135998638314e-9,0
50500,1.2058200847340727e-09,2.8949711749654573e-9,1.3612567833581717e-8,2.3807012812836705e-7,8.91434975294685e-8,1.195334014670881e-8,2.2345549688186313e-9,1.6691007975379352e-9,0
50501,1.1932212467485424e-9,2.875166014212031e-9,1.3540707471383506e-8,2.3706278560236584e-7,8.912759497336655e-8,1.1896248880116773e-8,2.222935711085017e-9,1.657287995212039e-9,0
50502,1.180622408763012e-9,2.8553608534586045e-9,1.3468847109185295e-8,2.360554430763646e-7,8.911169241726461e-8,1.1839157613524735e-8,2.2113164533514024e-9,1.6454751928861428e-9,0
50503,1.1680235707774816e-9,2.8355556927051777e-9,1.3396986746987085e-8,2.3504810055036336e-7,8.909578986116266e-8,1.1782066346932698e-8,2.1996971956177883e-9,1.6336623905602466e-9,0
50504,1.1554247327919512e-9,2.8157505319517513e-9,1.3325126384788874e-8,2.3404075802436212e-7,8.907988730506072e-8,1.1724975080340661e-8,2.188077937884174e-9,1.6218495882343503e-9,0
50505,1.1428258948064208e-9,2.7959453711983245e-9,1.3253266022590663e-8,2.330334154983609e-7,8.906398474895877e-8,1.1667883813748624e-8,2.1764586801505598e-9,1.610036785908454e-9,0
50506,1.1302270568208904e-9,2.776140210444898e-9,1.3181405660392451e-8,2.3202607297235966e-7,8.904808219285683e-8,1.1610792547156586e-8,2.1648394224169453e-9,1.598223983582558e-9,0
50507,1.1286512198004376e-9,2.7754102012609443e-9,1.3151453864479762e-8,2.320133551568896e-7,8.904485468350715e-8,1.1610792547156586e-8,2.165543406248705e-9,1.5822773516599309e-9,0
50508,1.127075382779985e-9,2.77468019207699e-9,1.3121502068567072e-8,2.3200063734141955e-7,8.904162717415747e-8,1.1610792547156586e-8,2.1662473900804646e-9,1.566330719737304e-9,0
50509,1.1254995457595322e-9,2.7739501828930364e-9,1.3091550272654383e-8,2.319879195259495e-7,8.90383996648078e-8,1.1610792547156586e-8,2.1669513739122243e-9,1.550384087814677e-9,0
50510,1.1239237087390795e-9,2.7732201737090826e-9,1.3061598476741694e-8,2.3197520171047943e-7,8.903517215545812e-8,1.1610792547156586e-8,2.167655357743984e-9,1.53443745589205e-9,0
50511,1.1223478717186267e-9,2.772490164525129e-9,1.3031646680829004e-8,2.3196248389500937e-7,8.903194464610844e-8,1.1610792547156586e-8,2.1683593415757436e-9,1.518490823969423e-9,0
50512,1.120772034698174e-9,2.7717601553411747e-9,1.3001694884916315e-8,2.3194976607953929e-7,8.902871713675877e-8,1.1610792547156586e-8,2.1690633254075033e-9,1.502544192046796e-9,0
50513,1.1191961976777213e-9,2.771030146157221e-9,1.2971743089003626e-8,2.3193704826406923e-7,8.90254896274091e-8,1.1610792547156586e-8,2.169767309239263e-9,1.486597560124169e-9,0
50514,1.1176203606572685e-9,2.770300136973267e-9,1.2941791293090938e-8,2.3192433044859917e-7,8.902226211805942e-8,1.1610792547156586e-8,2.1704712930710226e-9,1.4706509282015421e-9,0
50515,1.1160445236368159e-9,2.769570127789313e-9,1.2911839497178249e-8,2.319116126331291e-7,8.901903460870975e-8,1.1610792547156586e-8,2.1711752769027823e-9,1.454704296278915e-9,0
50516,1.114468686616363e-9,2.772526405508842e-9,1.2917577375432818e-8,2.3284652496231489e-7,8.901580709936007e-8,1.1610946411839694e-8,2.1711752769027823e-9,1.4388100885186452e-9,0
50517,1.1125386791752131e-9,2.771796396324888e-9,1.2893623921366747e-8,2.327286106815e-7,8.944419280706137e-8,1.1630281077795545e-8,2.1730819976835087e-9,1.4249633173895604e-9,0
50518,1.110608671734063e-9,2.771066387140934e-9,1.2869670467300677e-8,2.3261069640068515e-7,8.987257851476265e-8,1.1649615743751397e-8,2.1749887184642352e-9,1.4111165462604756e-9,0
50519,1.108678664292913e-9,2.7703363779569803e-9,1.2845717013234607e-8,2.3249278211987027e-7,9.030096422246395e-8,1.1668950409707248e-8,2.1768954392449613e-9,1.3972697751313908e-9,0
50520,1.106748656851763e-9,2.7696063687730265e-9,1.2821763559168537e-8,2.323748678390554e-7,9.072934993016525e-8,1.16882850756631e-8,2.1788021600256878e-9,1.383423004002306e-9,0
50521,1.0937956484455353e-9,2.760968791681187e-9,1.281206669966996e-8,2.323588902957055e-7,9.057180618034224e-8,1.1585401419957737e-8,2.1555349972201097e-9,1.3737100624699519e-9,0
50522,1.0808426400393076e-9,2.7523312145893477e-9,1.2802369840171383e-8,2.3234291275235558e-7,9.041426243051925e-8,1.1482517764252372e-8,2.1322678344145316e-9,1.3639971209375979e-9,0
50523,1.0804884696186102e-9,2.7525624706560947e-9,1.2808368182018001e-8,2.3234642146777532e-7,9.081280926666114e-8,1.149540579875242e-8,2.133293987987295e-9,1.3653750641365082e-9,0
50524,1.080134299197913e-9,2.7527937267228418e-9,1.2814366523864621e-8,2.3234993018319504e-7,9.121135610280304e-8,1.1508293833252466e-8,2.1343201415600584e-9,1.3667530073354184e-9,0
50525,1.0797801287772158e-9,2.7530249827895888e-9,1.282036486571124e-8,2.3235343889861478e-7,9.160990293894493e-8,1.1521181867752514e-8,2.135346295132822e-9,1.3681309505343287e-9,0
50526,1.0794259583565185e-9,2.7532562388563354e-9,1.2826363207557858e-8,2.3235694761403453e-7,9.200844977508683e-8,1.153406990225256e-8,2.1363724487055853e-9,1.3695088937332388e-9,0
50527,1.0790717879358212e-9,2.7534874949230824e-9,1.2832361549404479e-8,2.3236045632945427e-7,9.240699661122872e-8,1.1546957936752608e-8,2.1373986022783487e-9,1.370886836932149e-9,0
50528,1.078717617515124e-9,2.7537187509898294e-9,1.2838359891251097e-8,2.3236396504487399e-7,9.280554344737062e-8,1.1559845971252656e-8,2.138424755851112e-9,1.3722647801310593e-9,0
50529,1.0783634470944266e-9,2.753950007056576e-9,1.2844358233097716e-8,2.3236747376029373e-7,9.32040902835125e-8,1.1572734005752702e-8,2.139450909423876e-9,1.3736427233299696e-9,0
50530,1.0780092766737293e-9,2.754181263123323e-9,1.2850356574944334e-8,2.3237098247571347e-7,9.360263711965439e-8,1.158562204025275e-8,2.1404770629966394e-9,1.3750206665288798e-9,0
50531,1.077655106253032e-9,2.75441251919007e-9,1.2856354916790954e-8,2.3237449119113322e-7,9.400118395579629e-8,1.1598510074752796e-8,2.141503216569403e-9,1.37639860972779e-9,0
50532,1.0773009358323347e-9,2.7546437752568167e-9,1.2862353258637573e-8,2.3237799990655293e-7,9.439973079193818e-8,1.1611398109252844e-8,2.1425293701421662e-9,1.3777765529267004e-9,0
50533,1.0769467654116374e-9,2.7548750313235637e-9,1.2868351600484191e-8,2.3238150862197268e-7,9.479827762808008e-8,1.162428614375289e-8,2.1435555237149296e-9,1.3791544961256106e-9,0
50534,1.07659259499094e-9,2.7551062873903108e-09,1.287434994233081e-8,2.3238501733739242e-7,9.519682446422196e-8,1.1637174178252938e-8,2.144581677287693e-9,1.380532439324521e-9,0
50535,1.0762384245702428e-9,2.7553375434570578e-9,1.288034828417743e-8,2.3238852605281217e-7,9.559537130036386e-8,1.1650062212752984e-8,2.1456078308604565e-9,1.3819103825234312e-9,0
50536,1.0758842541495457e-9,2.7494249880180003e-9,1.270473840397341e-8,2.292589556819715e-7,9.565713506299023e-8,1.1643862343650004e-8,2.1477197823557355e-9,1.383957819154616e-9,0
50537,1.0755300837288484e-9,2.743512432578943e-9,1.252912852376939e-8,2.2612938531113086e-7,9.571889882561662e-8,1.1637662474547022e-8,2.1498317338510145e-9,1.3860052557858012e-9,0
50538,1.076173419542565e-9,2.748876183752612e-9,1.2429585146159502e-8,2.2582080223556134e-7,9.571114895033602e-8,1.1641037040752249e-8,2.150740948397327e-9,1.3868320217051474e-9,0
50539,1.0768167553562817e-9,2.7542399349262817e-9,1.2330041768549614e-8,2.255122191599918e-7,9.570339907505543e-8,1.1644411606957478e-8,2.1516501629436393e-9,1.3876587876244935e-9,0
50540,1.0766721726597719e-9,2.753546166726041e-9,1.2246189157471543e-8,2.2491338554703181e-7,9.568553027830898e-8,1.1644411606957478e-8,2.1519436853462935e-9,1.3874356231470685e-9,0
50541,1.0765275899632622e-9,2.753546166726041e-9,1.2152639686894895e-8,2.2419624278369803e-7,9.566569524091807e-8,1.1642262729805543e-8,2.152852899892606e-9,1.3874880473094256e-9,0
50542,1.0763830072667526e-9,2.753546166726041e-9,1.205909021631825e-8,2.2347910002036426e-7,9.564586020352714e-8,1.1640113852653608e-8,2.1537621144389182e-9,1.3875404714717828e-9,0
50543,1.0762384245702428e-9,2.753546166726041e-9,1.1965540745741603e-8,2.227619572570305e-7,9.562602516613622e-8,1.1637964975501673e-8,2.154671328985231e-9,1.38759289563414e-9,0
50544,1.0760938418737331e-9,2.753546166726041e-9,1.1871991275164955e-8,2.2204481449369671e-7,9.560619012874529e-8,1.1635816098349738e-8,2.155580543531543e-9,1.387645319796497e-9,0
50545,1.0763034295979208e-9,2.7525849014753402e-9,1.1844228433112467e-8,2.213405290946273e-7,9.564973032511572e-8,1.1639959987970502e-8,2.157957370091127e-9,1.387645319796497e-9,0
50546,1.0765130173221083e-9,2.7516236362246395e-9,1.181646559105998e-8,2.206362436955579e-7,9.569327052148614e-8,1.1644103877591264e-8,2.1603341966507108e-9,1.387645319796497e-9,0
50547,1.076722605046296e-9,2.7506623709739387e-9,1.1788702749007492e-8,2.199319582964885e-7,9.573681071785658e-8,1.1648247767212027e-8,2.1627110232102944e-9,1.387645319796497e-9,0
50548,1.0769321927704836e-9,2.749701105723238e-9,1.1760939906955003e-8,2.192276728974191e-7,9.5780350914227e-8,1.1652391656832789e-8,2.1650878497698785e-9,1.387645319796497e-9,0
50549,1.077141780494671e-9,2.748739840472537e-9,1.1733177064902517e-8,2.185233874983497e-7,9.582389111059742e-8,1.1656535546453552e-8,2.167464676329462e-9,1.387645319796497e-9,0
50550,1.0773513682188588e-9,2.7477785752218364e-9,1.1705414222850028e-8,2.1781910209928028e-7,9.586743130696785e-8,1.1660679436074316e-8,2.169841502889046e-9,1.387645319796497e-9,0
50551,1.0775609559430462e-9,2.7468173099711356e-9,1.1677651380797542e-8,2.171148167002109e-7,9.591097150333827e-8,1.1664823325695077e-8,2.17221832944863e-9,1.387645319796497e-9,0
50552,1.077770543667234e-9,2.745856044720435e-9,1.1649888538745053e-8,2.1641053130114148e-7,9.595451169970869e-8,1.1668967215315841e-8,2.1745951560082136e-9,1.387645319796497e-9,0
50553,1.0779801313914216e-9,2.744894779469734e-9,1.1622125696692566e-8,2.1570624590207206e-7,9.599805189607912e-8,1.1673111104936603e-8,2.1769719825677977e-9,1.387645319796497e-9,0
50554,1.078189719115609e-9,2.7439335142190332e-9,1.1594362854640078e-8,2.1500196050300268e-7,9.604159209244954e-8,1.1677254994557366e-8,2.1793488091273813e-9,1.387645319796497e-9,0
50555,1.0783993068397967e-9,2.7429722489683325e-9,1.156660001258759e-8,2.1429767510393326e-7,9.608513228881996e-8,1.168139888417813e-8,2.181725635686965e-9,1.387645319796497e-9,0
50556,1.0786088945639844e-9,2.7420109837176317e-9,1.1538837170535103e-8,2.1359338970486385e-7,9.612867248519039e-8,1.1685542773798891e-8,2.184102462246549e-9,1.387645319796497e-9,0
50557,1.0796714058260761e-9,2.7531423263955056e-9,1.1443041093524336e-8,2.12880033976501e-7,9.61088662196238e-8,1.16830675877468e-8,2.1843076929611016e-9,1.387645319796497e-9,0
50558,1.0771126352123634e-9,2.7472660119401616e-9,1.1400867628833385e-8,2.1172031165183718e-7,9.610016205808829e-8,1.170215549134983e-8,2.1864792888061327e-9,1.3857027314900261e-9,0
50559,1.0745538645986507e-9,2.7413896974848172e-9,1.1358694164142436e-8,2.1056058932717338e-7,9.609145789655278e-8,1.1721243394952858e-8,2.188650884651164e-9,1.3837601431835553e-9,0
50560,1.0741996941779533e-9,2.7414259384685303e-9,1.1316520699451486e-8,2.1062591409711548e-7,9.609099754736336e-8,1.1731605733210546e-8,2.1907341888080933e-9,1.3818175548770845e-9,0
50561,1.073845523757256e-9,2.741462179452244e-9,1.1274347234760537e-8,2.1069123886705758e-7,9.609053719817393e-8,1.1741968071468234e-8,2.1928174929650228e-9,1.3798749665706137e-9,0
50562,1.0734913533365587e-9,2.741498420435957e-9,1.1232173770069588e-8,2.107565636369997e-7,9.60900768489845e-8,1.1752330409725921e-8,2.1949007971219526e-9,1.377932378264143e-9,0
50563,1.0731371829158614e-9,2.74153466141967e-9,1.1190000305378637e-8,2.108218884069418e-7,9.608961649979508e-8,1.176269274798361e-8,2.196984101278882e-9,1.3759897899576722e-9,0
50564,1.0727830124951641e-9,2.741570902403383e-9,1.1147826840687689e-8,2.108872131768839e-7,9.608915615060567e-8,1.1773055086241298e-8,2.1990674054358115e-9,1.3740472016512014e-9,0
50565,1.0724288420744668e-9,2.7416071433870962e-9,1.110565337599674e-8,2.1095253794682604e-7,9.608869580141624e-8,1.1783417424498985e-8,2.201150709592741e-9,1.3721046133447306e-9,0
50566,1.0720746716537695e-9,2.7416433843708098e-9,1.1063479911305789e-8,2.1101786271676814e-7,9.608823545222681e-8,1.1793779762756673e-8,2.2032340137496704e-9,1.3701620250382598e-9,0
50567,1.0717205012330722e-9,2.741679625354523e-9,1.102130644661484e-8,2.1108318748671024e-7,9.608777510303739e-8,1.1804142101014362e-8,2.2053173179066e-9,1.368219436731789e-9,0
50568,1.0713663308123749e-9,2.741715866338236e-9,1.097913298192389e-8,2.1114851225665237e-7,9.608731475384796e-8,1.1814504439272048e-8,2.2074006220635298e-9,1.3662768484253182e-9,0
50569,1.0710121603916776e-9,2.741752107321949e-9,1.093695951723294e-8,2.1121383702659447e-7,9.608685440465853e-8,1.1824866777529737e-8,2.209483926220459e-9,1.3643342601188472e-9,0
50570,1.0706579899709803e-9,2.7417883483056626e-9,1.0894786052541992e-8,2.112791617965366e-7,9.608639405546911e-8,1.1835229115787425e-8,2.2115672303773887e-9,1.3623916718123764e-9,0
50571,1.0703038195502832e-9,2.7418245892893757e-9,1.0852612587851041e-8,2.113444865664787e-7,9.608593370627968e-8,1.1845591454045112e-8,2.213650534534318e-9,1.3604490835059056e-9,0
50572,1.0699496491295859e-9,2.7418608302730888e-9,1.0810439123160093e-8,2.114098113364208e-7,9.608547335709026e-8,1.18559537923028e-8,2.2157338386912476e-9,1.3585064951994348e-9,0
50573,1.0695954787088886e-9,2.741897071256802e-9,1.0768265658469142e-8,2.1147513610636293e-7,9.608501300790083e-8,1.1866316130560489e-8,2.2178171428481774e-9,1.356563906892964e-9,0
50574,1.0692413082881913e-9,2.741933312240515e-9,1.0726092193778193e-8,2.1154046087630503e-7,9.60845526587114e-8,1.1876678468818176e-8,2.219900447005107e-9,1.3546213185864932e-9,0
50575,1.068887137867494e-9,2.7419695532242285e-9,1.0683918729087244e-8,2.1160578564624713e-7,9.608409230952199e-8,1.1887040807075864e-8,2.2219837511620363e-9,1.3526787302800224e-9,0
50576,1.0685329674467966e-9,2.7420057942079416e-9,1.0641745264396294e-8,2.1167111041618926e-7,9.608363196033256e-8,1.1897403145333552e-8,2.2240670553189658e-9,1.3507361419735516e-9,0
50577,1.0681787970260993e-9,2.7420420351916547e-9,1.0599571799705345e-8,2.1173643518613136e-7,9.608317161114314e-8,1.190776548359124e-8,2.2261503594758952e-9,1.3487935536670808e-9,0
50578,1.067824626605402e-9,2.7420782761753678e-9,1.0557398335014396e-8,2.1180175995607346e-7,9.608271126195371e-8,1.1918127821848928e-8,2.228233663632825e-9,1.34685096536061e-9,0
50579,1.0674704561847047e-9,2.742114517159081e-9,1.0515224870323445e-8,2.118670847260156e-7,9.608225091276429e-8,1.1928490160106616e-8,2.2303169677897545e-9,1.3449083770541392e-9,0
50580,1.0674704561847047e-9,2.7414207489588402e-9,1.0499282509826336e-8,2.117872200080526e-7,9.613955479364612e-8,1.1941439161620054e-8,2.2303169677897545e-9,1.344855952891782e-9,0
50581,1.0674704561847047e-9,2.7407269807585996e-9,1.0483340149329226e-8,2.1170735529008962e-7,9.619685867452798e-8,1.1954388163133492e-8,2.2303169677897545e-9,1.3448035287294249e-9,0
50582,1.0638491743089e-9,2.728901869880485e-9,1.0478330444090264e-8,2.1134759807822722e-7,9.619465744323705e-8,1.1943569459238046e-8,2.2363306525345878e-9,1.344580364252e-9,0
50583,1.0602278924330954e-9,2.71707675900237e-9,1.0473320738851302e-8,2.1098784086636482e-7,9.619245621194612e-8,1.1932750755342598e-8,2.242344337279421e-9,1.3443571997745751e-9,0
50584,1.0577486994882145e-9,2.7072829015767964e-9,1.0470575379299974e-8,2.1063787317047912e-7,9.621032500869257e-8,1.1907202869161384e-8,2.2447211638390047e-9,1.344409623936932e-9,0
50585,1.0552695065433333e-9,2.6974890441512227e-9,1.0467830019748648e-8,2.1028790547459342e-7,9.6228193805439e-8,1.188165498298017e-8,2.2470979903985887e-9,1.3444620480992893e-9,0
50586,1.0527903135984524e-9,2.687695186725649e-9,1.046508466019732e-8,2.099379377787077e-7,9.624606260218543e-8,1.1856107096798955e-8,2.2494748169581724e-9,1.3445144722616464e-9,0
50587,1.0503111206535712e-9,2.6779013293000753e-9,1.0462339300645992e-8,2.09587970082822e-7,9.626393139893187e-8,1.1830559210617739e-8,2.2518516435177565e-9,1.3445668964240036e-9,0
50588,1.0478319277086903e-9,2.6681074718745016e-9,1.0459593941094664e-8,2.092380023869363e-7,9.62818001956783e-8,1.1805011324436524e-8,2.25422847007734e-9,1.3446193205863605e-9,0
50589,1.0453527347638093e-9,2.6583136144489275e-9,1.0456848581543336e-8,2.088880346910506e-7,9.629966899242473e-8,1.177946343825531e-8,2.256605296636924e-9,1.3446717447487177e-9,0
50590,1.0428735418189282e-9,2.648519757023354e-9,1.045410322199201e-8,2.085380669951649e-7,9.631753778917116e-8,1.1753915552074095e-8,2.258982123196508e-9,1.3447241689110749e-9,0
50591,1.0403943488740472e-9,2.63872589959778e-9,1.0451357862440682e-8,2.0818809929927916e-7,9.633540658591761e-8,1.1728367665892879e-8,2.2613589497560915e-9,1.344776593073432e-9,0
50592,1.037915155929166e-9,2.6289320421722064e-9,1.0448612502889354e-8,2.0783813160339346e-7,9.635327538266404e-8,1.1702819779711664e-8,2.263735776315675e-9,1.344829017235789e-9,0
50593,1.0354359629842851e-9,2.6191381847466327e-9,1.0445867143338026e-8,2.0748816390750776e-7,9.637114417941047e-8,1.167727189353045e-8,2.2661126028752593e-9,1.3448814413981462e-9,0
50594,1.0329567700394042e-9,2.609344327321059e-9,1.04431217837867e-8,2.0713819621162206e-7,9.638901297615691e-8,1.1651724007349235e-8,2.268489429434843e-9,1.3449338655605034e-9,0
50595,1.030477577094523e-9,2.5995504698954853e-9,1.0440376424235372e-8,2.0678822851573633e-7,9.640688177290334e-8,1.1626176121168021e-8,2.270866255994427e-9,1.3449862897228605e-9,0
50596,1.0279983841496421e-9,2.5897566124699116e-9,1.0437631064684044e-8,2.0643826081985063e-7,9.642475056964977e-8,1.1600628234986805e-8,2.2732430825540107e-9,1.3450387138852175e-9,0
50597,1.025519191204761e-9,2.579962755044338e-9,1.0434885705132716e-8,2.0608829312396493e-7,9.64426193663962e-8,1.157508034880559e-8,2.2756199091135943e-9,1.3450911380475746e-9,0
50598,1.02303999825988e-9,2.5701688976187642e-9,1.0432140345581388e-8,2.0573832542807923e-7,9.646048816314265e-8,1.1549532462624376e-8,2.2779967356731784e-9,1.3451435622099318e-9,0
50599,1.020560805314999e-9,2.5603750401931905e-9,1.0429394986030061e-8,2.053883577321935e-7,9.647835695988908e-8,1.1523984576443161e-8,2.280373562232762e-9,1.345195986372289e-9,0
50600,1.018081612370118e-9,2.550581182767617e-9,1.0426649626478733e-8,2.050383900363078e-7,9.649622575663551e-8,1.1498436690261945e-8,2.2827503887923458e-9,1.345248410534646e-9,0
50601,1.015602419425237e-9,2.540787325342043e-9,1.0423904266927406e-8,2.046884223404221e-7,9.651409455338195e-8,1.147288880408073e-8,2.28512721535193e-9,1.3453008346970031e-9,0
50602,1.015602419425237e-9,2.533999796784179e-9,1.0423926440994298e-8,2.0379977827916628e-7,9.626306824420169e-8,1.1475708878566923e-8,2.287298811196961e-9,1.3414815500744151e-9,0
50603,1.015602419425237e-9,2.527212268226315e-9,1.042394861506119e-8,2.0291113421791047e-7,9.601204193502145e-8,1.1478528953053115e-8,2.289470407041992e-9,1.3376622654518271e-9,0
50604,1.0089886188461903e-9,2.5265185000260744e-9,1.042394861506119e-8,2.028784718329394e-7,9.568302306045571e-8,1.1448081204957984e-8,2.2901743908737518e-9,1.3337770888388855e-9,0
50605,1.0023748182671438e-9,2.5258247318258337e-9,1.042394861506119e-8,2.0284580944796834e-7,9.535400418588997e-8,1.1417633456862853e-8,2.2908783747055115e-9,1.3298919122259437e-9,0
50606,9.957610176880973e-10,2.5251309636255927e-9,1.042394861506119e-8,2.028131470629973e-7,9.502498531132422e-8,1.1387185708767722e-8,2.291582358537271e-9,1.3260067356130021e-9,0
50607,9.891472171090506e-10,2.524437195425352e-9,1.042394861506119e-8,2.0278048467802624e-7,9.46959664367585e-8,1.135673796067259e-8,2.2922863423690308e-9,1.3221215590000605e-9,0
50608,9.82533416530004e-10,2.5237434272251114e-9,1.042394861506119e-8,2.027478222930552e-7,9.436694756219275e-8,1.132629021257746e-8,2.2929903262007904e-9,1.318236382387119e-9,0
50609,9.769821272130493e-10,2.5230496590248707e-9,1.0430171941992831e-8,2.0271244570893206e-7,9.392993906789125e-8,1.1276335354309427e-8,2.29369431003255e-9,1.3143512057741774e-9,0
50610,9.714308378960947e-10,2.52235589082463e-9,1.0436395268924472e-8,2.0267706912480895e-7,9.349293057358976e-8,1.1226380496041394e-8,2.2943982938643098e-9,1.3104660291612356e-9,0
50611,9.6587954857914e-10,2.5216621226243894e-9,1.0442618595856113e-8,2.0264169254068582e-7,9.305592207928826e-8,1.1176425637773362e-8,2.2951022776960694e-9,1.306580852548294e-9,0
50612,9.603282592621851e-10,2.5209683544241487e-09,1.0448841922787755e-8,2.026063159565627e-7,9.261891358498675e-8,1.1126470779505329e-8,2.295806261527829e-9,1.3026956759353524e-9,0
50613,9.547769699452305e-10,2.520274586223908e-9,1.0455065249719396e-8,2.0257093937243958e-7,9.218190509068526e-8,1.1076515921237296e-8,2.2965102453595888e-9,1.2988104993224108e-9,0
50614,9.492256806282758e-10,2.5195808180236674e-9,1.0461288576651037e-8,2.0253556278831647e-7,9.174489659638376e-8,1.1026561062969264e-8,2.2972142291913484e-9,1.2949253227094692e-9,0
50615,9.43674391311321e-10,2.5188870498234268e-9,1.046751190358268e-8,2.0250018620419334e-7,9.130788810208227e-8,1.0976606204701231e-8,2.297918213023108e-9,1.2910401460965276e-9,0
50616,9.381231019943664e-10,2.518193281623186e-9,1.047373523051432e-8,2.0246480962007023e-7,9.087087960778077e-8,1.0926651346433199e-8,2.2986221968548678e-9,1.2871549694835858e-9,0
50617,9.325718126774116e-10,2.517499513422945e-9,1.0479958557445962e-8,2.024294330359471e-7,9.043387111347926e-8,1.0876696488165166e-8,2.2993261806866274e-9,1.2832697928706442e-9,0
50618,9.270205233604569e-10,2.5168057452227044e-9,1.0486181884377603e-8,2.02394056451824e-7,8.999686261917777e-8,1.0826741629897133e-8,2.300030164518387e-9,1.2793846162577026e-9,0
50619,9.214692340435022e-10,2.5161119770224638e-9,1.0492405211309244e-8,2.0235867986770086e-7,8.955985412487627e-8,1.07767867716291e-8,2.3007341483501468e-9,1.275499439644761e-9,0
50620,9.159179447265475e-10,2.515418208822223e-9,1.0498628538240885e-8,2.0232330328357776e-7,8.912284563057478e-8,1.0726831913361068e-8,2.3014381321819064e-9,1.2716142630318195e-9,0
50621,9.103666554095928e-10,2.5147244406219824e-9,1.0504851865172526e-8,2.0228792669945462e-7,8.868583713627328e-8,1.0676877055093035e-8,2.302142116013666e-9,1.2677290864188777e-9,0
50622,9.048153660926381e-10,2.5140306724217418e-9,1.0511075192104169e-8,2.0225255011533152e-7,8.824882864197177e-8,1.0626922196825003e-8,2.3028460998454258e-9,1.263843909805936e-9,0
50623,8.86766103563201e-10,2.47817049913102e-9,1.0396649047618881e-8,2.014460599915831e-7,8.821503333335078e-8,1.0618406234764598e-8,2.279259116971897e-9,1.2386441331338014e-9,0
50624,8.68716841033764e-10,2.442310325840298e-9,1.0282222903133596e-8,2.006395698678347e-7,8.818123802472978e-8,1.0609890272704193e-8,2.255672134098368e-9,1.2134443564616668e-9,0
50625,8.49605067242235e-10,2.408372683050978e-9,1.0217716418502791e-8,1.9983845581159253e-7,8.814541893181562e-8,1.0602217952195095e-8,2.2349893782399798e-9,1.188244579789532e-9,0
50626,8.31555804712798e-10,2.40793779124642e-9,1.0187134015468819e-8,1.992006600134304e-7,8.810957106707711e-8,1.0596177176186782e-8,2.2115789787426544e-9,1.1669299797303388e-9,0
50627,8.135065421833609e-10,2.4075028994418614e-9,1.0156551612434846e-8,1.9856286421526825e-7,8.807372320233861e-8,1.0590136400178469e-8,2.1881685792453286e-9,1.1456153796711458e-9,0
50628,7.954572796539239e-10,2.4070680076373034e-9,1.0125969209400874e-8,1.979250684171061e-7,8.803787533760012e-8,1.0584095624170156e-8,2.164758179748003e-9,1.1243007796119527e-9,0
50629,7.774080171244869e-10,2.406633115832745e-9,1.0095386806366901e-8,1.9728727261894393e-7,8.800202747286161e-8,1.0578054848161843e-8,2.1413477802506774e-9,1.1029861795527597e-9,0
50630,7.593587545950498e-10,2.4061982240281865e-9,1.0064804403332929e-8,1.966494768207818e-7,8.79661796081231e-8,1.0572014072153529e-8,2.117937380753352e-9,1.0816715794935666e-9,0
50631,7.413094920656128e-10,2.4057633322236285e-9,1.0034222000298957e-8,1.9601168102261965e-7,8.79303317433846e-8,1.0565973296145216e-8,2.094526981256026e-9,1.0603569794343735e-9,0
50632,7.425165860242143e-10,2.4392660832083903e-9,1.0118043567683378e-8,1.961569918376823e-7,8.781018496973468e-8,1.0561829406524454e-8,2.093235952618958e-9,1.0581388024881207e-9,0
50633,7.437236799828159e-10,2.4727688341931525e-9,1.02018651350678e-8,1.96302302652745e-7,8.769003819608474e-8,1.055768551690369e-8,2.0919449239818896e-9,1.0559206255418678e-9,0
50634,7.449307739414174e-10,2.5062715851779143e-9,1.0285686702452221e-8,1.9644761346780768e-7,8.756989142243482e-8,1.0553541627282927e-8,2.0906538953448215e-9,1.0537024485956148e-9,0
50635,7.46137867900019e-10,2.539774336162676e-9,1.0369508269836644e-8,1.9659292428287037e-7,8.74497446487849e-8,1.0549397737662165e-8,2.0893628667077534e-9,1.051484271649362e-9,0
50636,7.473449618586205e-10,2.5732770871474384e-9,1.0453329837221065e-8,1.9673823509793305e-7,8.732959787513497e-8,1.0545253848041402e-8,2.088071838070685e-9,1.049266094703109e-9,0
50637,7.485520558172221e-10,2.6067798381322e-9,1.0537151404605487e-8,1.968835459129957e-7,8.720945110148505e-8,1.054110995842064e-8,2.086780809433617e-9,1.0470479177568562e-9,0
50638,7.497591497758238e-10,2.6402825891169624e-9,1.0620972971989908e-8,1.970288567280584e-7,8.708930432783511e-8,1.0536966068799877e-8,2.0854897807965483e-9,1.0448297408106034e-9,0
50639,7.509662437344253e-10,2.6737853401017242e-9,1.0704794539374331e-8,1.9717416754312109e-7,8.696915755418519e-8,1.0532822179179113e-8,2.0841987521594802e-9,1.0426115638643505e-9,0
50640,7.521733376930269e-10,2.707288091086486e-9,1.0788616106758752e-8,1.9731947835818377e-7,8.684901078053527e-8,1.0528678289558351e-8,2.082907723522412e-9,1.0403933869180977e-9,0
50641,7.533804316516284e-10,2.7407908420712483e-9,1.0872437674143175e-8,1.9746478917324643e-7,8.672886400688534e-8,1.0524534399937588e-8,2.0816166948853436e-9,1.0381752099718448e-9,0
50642,7.5458752561023e-10,2.77429359305601e-9,1.0956259241527596e-8,1.9761009998830912e-7,8.660871723323542e-8,1.0520390510316826e-8,2.0803256662482755e-9,1.035957033025592e-9,0
50643,7.557946195688315e-10,2.807796344040772e-9,1.1040080808912018e-8,1.977554108033718e-7,8.648857045958548e-8,1.0516246620696063e-8,2.0790346376112074e-9,1.0337388560793391e-9,0
50644,7.570017135274331e-10,2.841299095025534e-9,1.112390237629644e-8,1.979007216184345e-7,8.636842368593556e-8,1.05121027310753e-8,2.077743608974139e-9,1.0315206791330863e-9,0
50645,7.582088074860346e-10,2.874801846010296e-9,1.1207723943680862e-8,1.9804603243349715e-7,8.624827691228564e-8,1.0507958841454538e-8,2.076452580337071e-9,1.0293025021868334e-9,0
50646,7.594159014446362e-10,2.908304596995058e-9,1.1291545511065283e-8,1.9819134324855984e-7,8.61281301386357e-8,1.0503814951833774e-8,2.0751615517000023e-9,1.0270843252405806e-9,0
50647,7.606229954032377e-10,2.9439973755316817e-9,1.1351413624383635e-8,1.957618827054835e-7,8.61260775825182e-8,1.0500440385628547e-8,2.0753381350762057e-9,1.0306939132137401e-9,0
50648,7.61042170851613e-10,2.978656406850178e-9,1.1440478751718797e-8,1.9590200299940736e-7,8.610151877642599e-8,1.0493476421521592e-8,2.0762187022841684e-9,1.0254442612298847e-9,0
50649,7.614613462999881e-10,3.0133154381686747e-9,1.152954387905396e-8,1.9604212329333124e-7,8.607695997033377e-8,1.0486512457414638e-8,2.0770992694921314e-9,1.0201946092460292e-9,0
50650,7.618805217483634e-10,3.0479744694871712e-9,1.1618609006389122e-8,1.961822435872551e-7,8.605240116424155e-8,1.0479548493307682e-8,2.0779798367000945e-9,1.0149449572621738e-9,0
50651,7.622996971967385e-10,3.0826335008056673e-9,1.1707674133724286e-8,1.9632236388117896e-7,8.602784235814933e-8,1.0472584529200728e-8,2.078860403908057e-9,1.0096953052783184e-9,0
50652,7.627188726451138e-10,3.117292532124164e-9,1.1796739261059448e-8,1.9646248417510284e-7,8.60032835520571e-8,1.0465620565093773e-8,2.07974097111602e-9,1.0044456532944631e-9,0
50653,7.595167662176842e-10,3.1408927027322126e-9,1.1861846499515163e-8,1.9662626629910146e-7,8.593990831829576e-8,1.0465620565093773e-8,2.07974097111602e-9,9.995105462847503e-10,0
50654,7.552521485281629e-10,3.129833842021765e-9,1.1837133828739835e-8,1.966244393894008e-7,8.588536196547072e-8,1.0465158971044452e-8,2.078948695596159e-9,9.90690262662096e-10,0
50655,7.516308666523582e-10,3.1240662505175603e-9,1.1812425592777886e-8,1.9662769278405594e-7,8.584683325604499e-8,1.0478028426010556e-8,2.0778628976736432e-9,9.829199094362127e-10,0
50656,7.480095847765535e-10,3.1182986590133556e-9,1.1787717356815938e-8,1.9663094617871106e-7,8.580830454661924e-8,1.049089788097666e-8,2.0767770997511277e-9,9.751495562103295e-10,0
50657,7.443883029007488e-10,3.112531067509151e-9,1.176300912085399e-8,1.966341995733662e-7,8.57697758371935e-8,1.0503767335942764e-8,2.075691301828612e-9,9.673792029844463e-10,0
50658,7.407670210249442e-10,3.1067634760049463e-9,1.1738300884892041e-8,1.9663745296802132e-7,8.573124712776777e-8,1.0516636790908869e-8,2.0746055039060965e-9,9.59608849758563e-10,0
50659,7.371457391491394e-10,3.1009958845007416e-9,1.1713592648930093e-8,1.9664070636267647e-7,8.569271841834204e-8,1.0529506245874972e-8,2.073519705983581e-9,9.518384965326798e-10,0
50660,7.335244572733347e-10,3.095228292996537e-9,1.1688884412968145e-8,1.9664395975733158e-7,8.56541897089163e-8,1.0542375700841077e-8,2.0724339080610654e-9,9.440681433067966e-10,0
50661,7.299031753975301e-10,3.0894607014923323e-9,1.1664176177006196e-8,1.9664721315198673e-7,8.561566099949057e-8,1.055524515580718e-8,2.07134811013855e-9,9.362977900809132e-10,0
50662,7.262818935217254e-10,3.0836931099881276e-9,1.1639467941044248e-8,1.9665046654664184e-7,8.557713229006482e-8,1.0568114610773284e-8,2.0702623122160342e-9,9.2852743685503e-10,0
50663,7.226606116459207e-10,3.077925518483923e-9,1.16147597050823e-8,1.96653719941297e-7,8.553860358063909e-8,1.0580984065739389e-8,2.0691765142935187e-9,9.207570836291467e-10,0
50664,7.19039329770116e-10,3.0721579269797183e-9,1.1590051469120352e-8,1.966569733359521e-7,8.550007487121335e-8,1.0593853520705492e-8,2.068090716371003e-9,9.129867304032636e-10,0
50665,7.154180478943113e-10,3.0663903354755136e-9,1.1565343233158403e-8,1.9666022673060725e-7,8.546154616178762e-8,1.0606722975671597e-8,2.0670049184484875e-9,9.052163771773803e-10,0
50666,6.994075157571639e-10,3.024091233299592e-9,1.1396958620933817e-8,1.9625218246152208e-7,8.516395354965763e-8,1.038003184128368e-8,2.024286384071837e-9,8.97446023951497e-10,0
50667,6.850736854135172e-10,2.958038375925991e-9,1.1172837834356642e-8,1.9564031627026739e-07,8.45895770377364e-8,1.0074954026647676e-8,1.9827156416405076e-9,8.893611257514711e-10,0
50668,6.707398550698705e-10,2.8859279991784797e-9,1.0964407814311286e-8,1.9503897622527193e-7,8.399918288241585e-8,9.754704015210525e-9,1.9432568507044568e-9,8.802262971546741e-10,0
50669,6.564060247262239e-10,2.813817622430969e-9,1.075597779426593e-8,1.9443763618027647e-7,8.340878872709529e-8,9.434454003773376e-9,1.9037980597684064e-9,8.71091468557877e-10,0
50670,6.420721943825772e-10,2.741707245683458e-9,1.0547547774220573e-8,1.93836296135281e-7,8.281839457177475e-8,9.114203992336225e-9,1.8643392688323556e-9,8.619566399610799e-10,0
50671,6.277383640389305e-10,2.669596868935947e-9,1.0339117754175217e-8,1.9323495609028555e-7,8.22280004164542e-8,8.793953980899074e-9,1.824880477896305e-9,8.528218113642829e-10,0
50672,6.134045336952838e-10,2.597486492188436e-9,1.013068773412986e-8,1.926336160452901e-7,8.163760626113366e-8,8.473703969461925e-9,1.7854216869602545e-9,8.436869827674859e-10,0
50673,5.990707033516371e-10,2.525376115440925e-9,9.922257714084504e-9,1.9203227600029464e-7,8.104721210581312e-8,8.153453958024774e-9,1.7459628960242039e-9,8.345521541706888e-10,0
50674,5.847368730079904e-10,2.453265738693414e-9,9.713827694039148e-9,1.9143093595529918e-7,8.045681795049257e-8,7.833203946587625e-9,1.706504105088153e-9,8.254173255738918e-10,0
50675,5.855247915182168e-10,2.444664402585288e-9,9.713792215532121e-9,1.9112919587457622e-7,8.043014422858243e-8,7.830901204752582e-9,1.7075302586609167e-9,8.251941610964669e-10,0
50676,5.863127100284431e-10,2.4360630664771616e-9,9.713756737025093e-9,1.9082745579385328e-7,8.040347050667231e-8,7.82859846291754e-9,1.7085564122336801e-9,8.249709966190419e-10,0
50677,5.871006285386695e-10,2.4274617303690357e-9,9.713721258518066e-9,1.9052571571313035e-7,8.037679678476219e-8,7.826295721082498e-9,1.7095825658064436e-9,8.247478321416171e-10,0
50678,5.878885470488959e-10,2.41886039426091e-9,9.713685780011039e-9,1.902239756324074e-7,8.035012306285207e-8,7.823992979247457e-9,1.710608719379207e-9,8.245246676641921e-10,0
50679,5.886764655591222e-10,2.4102590581527835e-9,9.713650301504012e-9,1.8992223555168447e-7,8.032344934094194e-8,7.821690237412416e-9,1.7116348729519704e-9,8.243015031867672e-10,0
50680,5.894643840693486e-10,2.4016577220446576e-9,9.713614822996986e-9,1.8962049547096154e-7,8.029677561903181e-8,7.819387495577373e-9,1.712661026524734e-9,8.240783387093422e-10,0
50681,5.90252302579575e-10,2.3930563859365318e-9,9.713579344489957e-9,1.893187553902386e-7,8.027010189712168e-8,7.817084753742332e-9,1.7136871800974975e-9,8.238551742319173e-10,0
50682,5.910402210898014e-10,2.3844550498284054e-9,9.71354386598293e-9,1.8901701530951567e-7,8.024342817521156e-8,7.81478201190729e-9,1.7147133336702609e-9,8.236320097544923e-10,0
50683,5.911848037863111e-10,2.3758537137202796e-9,9.697813186130708e-9,1.8869569619683933e-7,8.023770690027585e-8,7.849140238392742e-9,1.7160043623073292e-9,8.243539273491242e-10,0
50684,5.913293864828207e-10,2.3672523776121537e-9,9.682082506278486e-9,1.8837437708416303e-7,8.023198562534014e-8,7.883498464878194e-9,1.7172953909443973e-9,8.250758449437562e-10,0
50685,5.914739691793305e-10,2.3586510415040274e-9,9.666351826426263e-9,1.880530579714867e-7,8.022626435040443e-8,7.917856691363646e-9,1.7185864195814656e-9,8.257977625383881e-10,0
50686,5.916185518758401e-10,2.3500497053959015e-9,9.65062114657404e-9,1.877317388588104e-7,8.022054307546871e-8,7.9522149178491e-9,1.7198774482185339e-9,8.2651968013302e-10,0
50687,5.917631345723498e-10,2.3414483692877756e-9,9.634890466721817e-9,1.8741041974613408e-7,8.0214821800533e-8,7.986573144334552e-9,1.7211684768556022e-9,8.27241597727652e-10,0
50688,5.919077172688596e-10,2.3328470331796493e-9,9.619159786869594e-9,1.8708910063345775e-7,8.020910052559729e-8,8.020931370820004e-9,1.7224595054926705e-9,8.279635153222839e-10,0
50689,5.920522999653692e-10,2.3242456970715234e-9,9.603429107017371e-9,1.8676778152078145e-7,8.020337925066159e-8,8.055289597305457e-9,1.7237505341297386e-9,8.286854329169157e-10,0
50690,5.921968826618789e-10,2.3156443609633975e-9,9.58769842716515e-9,1.8644646240810514e-7,8.019765797572588e-8,8.089647823790909e-9,1.7250415627668069e-9,8.294073505115476e-10,0
50691,5.921968826618789e-10,2.31487811079573e-9,9.432140672357111e-9,1.843857992961359e-7,8.000280381417481e-8,8.114800311347756e-9,1.723604947764938e-9,8.280294073126375e-10,0
50692,5.921968826618789e-10,2.3141118606280633e-9,9.276582917549074e-9,1.8232513618416667e-7,7.980794965262373e-8,8.139952798904603e-9,1.7221683327630691e-9,8.266514641137272e-10,0
50693,5.921968826618789e-10,2.313345610460396e-9,9.121025162741035e-9,1.8026447307219744e-7,7.961309549107266e-8,8.165105286461452e-9,1.7207317177612004e-9,8.252735209148169e-10,0
50694,5.921968826618789e-10,2.312579360292729e-9,8.965467407932998e-9,1.782038099602282e-7,7.941824132952159e-8,8.190257774018299e-9,1.7192951027593316e-9,8.238955777159067e-10,0
50695,5.921968826618789e-10,2.311813110125062e-9,8.80990965312496e-9,1.7614314684825897e-7,7.922338716797052e-8,8.215410261575146e-9,1.7178584877574627e-9,8.225176345169964e-10,0
50696,5.921968826618789e-10,2.3110468599573947e-9,8.654351898316921e-9,1.7408248373628973e-7,7.902853300641945e-8,8.240562749131993e-9,1.7164218727555938e-9,8.211396913180861e-10,0
50697,5.921968826618789e-10,2.310280609789728e-9,8.498794143508884e-9,1.720218206243205e-7,7.883367884486838e-8,8.26571523668884e-9,1.714985257753725e-9,8.19761748119176e-10,0
50698,5.921968826618789e-10,2.3095143596220606e-9,8.343236388700845e-9,1.6996115751235126e-7,7.863882468331731e-8,8.290867724245688e-9,1.713548642751856e-9,8.183838049202657e-10,0
50699,5.921968826618789e-10,2.3087481094543937e-9,8.187678633892808e-9,1.6790049440038203e-7,7.844397052176624e-8,8.316020211802535e-9,1.7121120277499872e-9,8.170058617213554e-10,0
50700,5.921968826618789e-10,2.3079818592867264e-9,8.03212087908477e-9,1.658398312884128e-7,7.824911636021517e-8,8.341172699359382e-9,1.7106754127481185e-9,8.156279185224452e-10,0
50701,5.921968826618789e-10,2.3072156091190596e-9,7.876563124276732e-9,1.6377916817644355e-7,7.80542621986641e-8,8.36632518691623e-9,1.7092387977462497e-9,8.142499753235349e-10,0
50702,5.921968826618789e-10,2.3064493589513923e-9,7.721005369468694e-9,1.6171850506447432e-7,7.785940803711303e-8,8.391477674473076e-9,1.7078021827443808e-9,8.128720321246246e-10,0
50703,5.921968826618789e-10,2.3056831087837255e-9,7.565447614660655e-9,1.5965784195250508e-7,7.766455387556196e-8,8.416630162029923e-9,1.706365567742512e-9,8.114940889257145e-10,0
50704,5.924064703860665e-10,2.3068393891174597e-9,7.415866027632345e-9,1.5760567508712766e-7,7.75836695551014e-8,8.503161213659555e-9,1.7046640776763384e-9,8.102209940515184e-10,0
50705,5.922618876895568e-10,2.3060368979660798e-9,7.272265043197139e-9,1.5554691421444353e-7,7.736273155628216e-8,8.491652732895907e-9,1.7019364340374012e-9,8.078979687805513e-10,0
50706,5.921173049930471e-10,2.3052344068146994e-9,7.128664058761934e-9,1.534881533417594e-7,7.714179355746291e-8,8.480144252132261e-9,1.699208790398464e-9,8.055749435095843e-10,0
50707,5.919727222965374e-10,2.304431915663319e-9,6.985063074326729e-9,1.5142939246907524e-7,7.692085555864366e-8,8.468635771368613e-9,1.696481146759527e-9,8.032519182386171e-10,0
50708,5.918281396000278e-10,2.3036294245119387e-9,6.841462089891523e-9,1.4937063159639111e-07,7.669991755982441e-8,8.457127290604967e-9,1.6937535031205899e-9,8.0092889296765e-10,0
50709,5.91683556903518e-10,2.3028269333605587e-9,6.697861105456318e-9,1.4731187072370698e-7,7.647897956100516e-8,8.44561880984132e-9,1.6910258594816527e-9,7.986058676966829e-10,0
50710,5.915389742070083e-10,2.3020244422091784e-9,6.554260121021112e-9,1.4525310985102285e-7,7.62580415621859e-8,8.434110329077673e-9,1.6882982158427157e-9,7.962828424257158e-10,0
50711,5.913943915104987e-10,2.301221951057798e-9,6.4106591365859065e-9,1.4319434897833872e-7,7.603710356336665e-8,8.422601848314027e-9,1.6855705722037786e-9,7.939598171547488e-10,0
50712,5.912498088139889e-10,2.300419459906418e-9,6.2670581521507005e-9,1.411355881056546e-7,7.58161655645474e-8,8.41109336755038e-9,1.6828429285648414e-9,7.916367918837817e-10,0
50713,5.876789593247083e-10,2.2965882090680825e-9,6.2792620816754476e-9,1.4058900068676888e-7,7.542052011558401e-8,8.409252219764659e-9,1.6830195119410446e-9,7.893137666128145e-10,0
50714,5.873247889040111e-10,2.2965519680843694e-9,6.28922827439283e-9,1.40534300391457e-7,7.540837740982502e-8,8.400908701921303e-9,1.6831960953172478e-9,7.893137666128145e-10,0
50715,5.869706184833137e-10,2.294484473648115e-9,6.299181162670078e-9,1.396056458640416e-7,7.539646487866073e-8,8.388323168375908e-9,1.6831960953172478e-9,7.890906021353896e-10,0
50716,5.866164480626164e-10,2.2924169792118607e-9,6.3091340509473254e-09,1.386769913366262e-7,7.538455234749643e-8,8.375737634830513e-9,1.6831960953172478e-9,7.888674376579647e-10,0
50717,5.862622776419191e-10,2.2903494847756063e-9,6.3190869392245736e-9,1.377483368092108e-7,7.537263981633214e-8,8.363152101285118e-9,1.6831960953172478e-9,7.886442731805397e-10,0
50718,5.861176949454094e-10,2.2903494847756063e-9,6.325067541817679e-9,1.356439864128941e-7,7.537657229762113e-8,8.362173174584647e-9,1.6831960953172478e-9,7.884211087031148e-10,0
50719,5.859731122488998e-10,2.288281990339352e-9,6.337271471342426e-9,1.3520424315591114e-7,7.537947850085135e-8,8.359870432749606e-9,1.6801152849259044e-9,7.881979442256899e-10,0
50720,5.8582852955239e-10,2.286214495903098e-9,6.349475400867173e-9,1.3476449989892818e-7,7.538238470408158e-8,8.357567690914563e-9,1.677034474534561e-9,7.87974779748265e-10,0
50721,5.856839468558804e-10,2.2841470014668436e-9,6.361679330391919e-9,1.3432475664194522e-7,7.53852909073118e-8,8.355264949079522e-9,1.6739536641432174e-9,7.8775161527084e-10,0
50722,5.855393641593707e-10,2.2820795070305892e-9,6.373883259916666e-9,1.3388501338496224e-7,7.538819711054202e-8,8.352962207244481e-9,1.6708728537518738e-9,7.875284507934151e-10,0
50723,5.85394781462861e-10,2.280012012594335e-9,6.386087189441412e-9,1.3344527012797928e-7,7.539110331377224e-8,8.350659465409438e-9,1.6677920433605303e-9,7.873052863159901e-10,0
50724,5.852501987663513e-10,2.2779445181580805e-9,6.398291118966159e-9,1.3300552687099632e-7,7.539400951700247e-8,8.348356723574397e-9,1.664711232969187e-9,7.870821218385652e-10,0
50725,5.851056160698416e-10,2.275877023721826e-9,6.410495048490906e-9,1.3256578361401337e-7,7.53969157202327e-8,8.346053981739356e-9,1.6616304225778434e-9,7.868589573611402e-10,0
50726,5.849610333733319e-10,2.273809529285572e-9,6.422698978015653e-9,1.3212604035703038e-7,7.539982192346293e-8,8.343751239904313e-9,1.6585496121865e-9,7.866357928837153e-10,0
50727,5.848164506768222e-10,2.271742034849318e-9,6.422950571980946e-9,1.3168448763394606e-7,7.539905940787494e-8,8.344958349423664e-9,1.6546765262752952e-9,7.864126284062904e-10,0
50728,5.846718679803126e-10,2.2696745404130634e-9,6.423202165946238e-9,1.3124293491086173e-7,7.539829689228697e-8,8.346165458943013e-9,1.6508034403640903e-9,7.861894639288655e-10,0
50729,5.845272852838028e-10,2.267607045976809e-9,6.423453759911531e-9,1.3080138218777737e-7,7.539753437669898e-8,8.347372568462364e-9,1.6469303544528856e-9,7.859662994514406e-10,0
50730,5.843827025872931e-10,2.2655395515405547e-9,6.423705353876823e-9,1.3035982946469305e-7,7.5396771861111e-8,8.348579677981714e-9,1.643057268541681e-9,7.857431349740156e-10,0
50731,5.842381198907835e-10,2.2634720571043003e-9,6.423956947842116e-9,1.299182767416087e-7,7.539600934552302e-8,8.349786787501065e-9,1.639184182630476e-9,7.855199704965907e-10,0
50732,5.840935371942737e-10,2.2614045626680464e-9,6.424208541807409e-9,1.2947672401852437e-7,7.539524682993504e-8,8.350993897020416e-9,1.6353110967192714e-9,7.852968060191657e-10,0
50733,5.839489544977641e-10,2.259337068231792e-9,6.4244601357727015e-9,1.2903517129544e-7,7.539448431434706e-8,8.352201006539765e-9,1.6314380108080665e-9,7.850736415417408e-10,0
50734,5.831610359875377e-10,2.2555058173934565e-9,6.422473992930631e-9,1.2886809455636296e-7,7.529470973513304e-8,8.347367340050801e-9,1.6315263024961682e-9,7.847980529019588e-10,0
50735,5.787518356015066e-10,2.2436444655316284e-9,6.406747747891786e-9,1.2875744113874016e-7,7.456856829197319e-8,8.259562983476868e-9,1.6192913526188957e-9,7.759777692793045e-10,0
50736,5.743426352154755e-10,2.2317831136698004e-9,6.391021502852942e-9,1.2864678772111737e-7,7.384242684881335e-8,8.171758626902934e-9,1.6070564027416235e-9,7.671574856566501e-10,0
50737,5.699334348294446e-10,2.2199217618079723e-9,6.375295257814097e-9,1.2853613430349457e-7,7.31162854056535e-8,8.083954270329e-9,1.594821452864351e-9,7.583372020339958e-10,0
50738,5.655242344434135e-10,2.2080604099461446e-9,6.359569012775253e-9,1.2842548088587177e-7,7.239014396249364e-8,7.996149913755066e-9,1.5825865029870786e-9,7.495169184113415e-10,0
50739,5.611150340573824e-10,2.1961990580843166e-9,6.343842767736409e-9,1.2831482746824897e-7,7.166400251933379e-8,7.908345557181133e-9,1.5703515531098063e-9,7.406966347886871e-10,0
50740,5.567058336713514e-10,2.1843377062224885e-9,6.328116522697564e-9,1.2820417405062618e-7,7.093786107617393e-8,7.820541200607199e-9,1.5581166032325339e-9,7.318763511660328e-10,0
50741,5.522966332853203e-10,2.1724763543606604e-9,6.31239027765872e-9,1.2809352063300338e-7,7.021171963301408e-8,7.732736844033265e-9,1.5458816533552614e-9,7.230560675433785e-10,0
50742,5.478874328992892e-10,2.1606150024988324e-9,6.296664032619876e-9,1.2798286721538058e-7,6.948557818985422e-8,7.64493248745933e-9,1.5336467034779892e-9,7.142357839207242e-10,0
50743,5.442661510234846e-10,2.1487898916207174e-9,6.282923930423103e-9,1.2787572251317753e-7,6.876014171863368e-8,7.570021393797005e-9,1.5214117536007168e-9,7.063605823701266e-10,0
50744,5.406448691476799e-10,2.1389960341951437e-9,6.267939162840001e-9,1.27764976322371e-7,6.811427557157153e-8,7.487973891810676e-9,1.5091768037234443e-9,6.978158873872544e-10,0
50745,5.370235872718752e-10,2.12920217676957e-9,6.2529543952569e-9,1.276542301315645e-7,6.746840942450939e-8,7.405926389824347e-9,1.496941853846172e-9,6.892711924043821e-10,0
50746,5.334023053960705e-10,2.1194083193439963e-9,6.2379696276737985e-9,1.2754348394075796e-7,6.682254327744724e-8,7.323878887838017e-9,1.4847069039688996e-9,6.807264974215098e-10,0
50747,5.297810235202658e-10,2.1096144619184226e-9,6.2229848600906976e-9,1.2743273774995143e-7,6.61766771303851e-8,7.241831385851687e-9,1.4724719540916272e-9,6.721818024386375e-10,0
50748,5.261597416444612e-10,2.099820604492849e-9,6.208000092507596e-9,1.2732199155914493e-07,6.553081098332295e-8,7.159783883865358e-9,1.460237004214355e-9,6.636371074557653e-10,0
50749,5.225384597686565e-10,2.0900267470672753e-9,6.193015324924494e-9,1.272112453683384e-7,6.48849448362608e-8,7.077736381879028e-9,1.4480020543370825e-9,6.55092412472893e-10,0
50750,5.189171778928517e-10,2.0802328896417016e-9,6.178030557341393e-9,1.2710049917753186e-7,6.423907868919866e-8,6.995688879892699e-9,1.43576710445981e-9,6.465477174900207e-10,0
50751,5.152958960170471e-10,2.070439032216128e-9,6.163045789758291e-9,1.2698975298672536e-7,6.359321254213651e-8,6.913641377906369e-9,1.4235321545825378e-9,6.380030225071483e-10,0
50752,5.116746141412424e-10,2.060645174790554e-9,6.1480610221751905e-9,1.2687900679591883e-7,6.294734639507436e-8,6.8315938759200395e-9,1.4112972047052653e-9,6.294583275242761e-10,0
50753,5.080533322654378e-10,2.0508513173649805e-9,6.133076254592089e-9,1.267682606051123e-7,6.230148024801222e-8,6.74954637393371e-9,1.399062254827993e-9,6.209136325414038e-10,0
50754,5.04432050389633e-10,2.0410574599394068e-9,6.118091487008988e-9,1.2665751441430576e-7,6.165561410095007e-8,6.66749887194738e-9,1.3868273049507207e-9,6.123689375585315e-10,0
50755,5.008107685138283e-10,2.0312636025138327e-9,6.103106719425886e-9,1.2654676822349926e-7,6.100974795388792e-8,6.585451369961051e-9,1.3745923550734482e-9,6.038242425756592e-10,0
50756,4.971894866380237e-10,2.0296448100466048e-9,6.103848196881629e-9,1.2645606493056474e-7,6.0895178596052e-8,6.573998627799234e-9,1.3684307342907613e-9,6.019340784315456e-10,0
50757,4.979774051482501e-10,2.0319435605496057e-9,6.0888634292985275e-9,1.2642558310442997e-7,6.096941131109456e-8,6.573998627799234e-9,1.3622691135080743e-9,6.019340784315456e-10,0
50758,4.987653236584764e-10,2.034242311052607e-9,6.073878661715426e-9,1.2639510127829517e-7,6.10436440261371e-8,6.573998627799234e-9,1.3561074927253872e-9,6.019340784315456e-10,0
50759,4.995532421687028e-10,2.036541061555608e-9,6.058893894132325e-9,1.263646194521604e-7,6.111787674117964e-8,6.573998627799234e-9,1.3499458719427003e-9,6.019340784315456e-10,0
50760,5.003411606789291e-10,2.0388398120586095e-9,6.043909126549223e-9,1.2633413762602563e-7,6.119210945622218e-8,6.573998627799234e-9,1.3437842511600133e-9,6.019340784315456e-10,0
50761,5.011290791891555e-10,2.0411385625616105e-9,6.028924358966122e-9,1.2630365579989086e-7,6.126634217126474e-8,6.573998627799234e-9,1.3376226303773264e-9,6.019340784315456e-10,0
50762,5.019169976993819e-10,2.043437313064612e-9,6.01393959138302e-9,1.262731739737561e-7,6.134057488630728e-8,6.573998627799234e-9,1.3314610095946393e-9,6.019340784315456e-10,0
50763,5.020615803958916e-10,2.043704810115072e-9,5.998963693426676e-9,1.2624248915765456e-7,6.146651961826248e-8,6.576240402620884e-9,1.3252993888119523e-9,6.019340784315456e-10,0
50764,5.022061630924013e-10,2.043972307165532e-9,5.983987795470331e-9,1.2621180434155306e-7,6.15924643502177e-8,6.578482177442534e-9,1.3191377680292654e-9,6.019340784315456e-10,0
50765,5.023507457889109e-10,2.0442398042159922e-9,5.9690118975139865e-9,1.2618111952545153e-7,6.171840908217291e-8,6.5807239522641844e-9,1.3129761472465783e-9,6.019340784315456e-10,0
50766,5.024953284854207e-10,2.044507301266452e-9,5.954035999557642e-9,1.2615043470935003e-7,6.184435381412812e-8,6.5829657270858355e-9,1.3068145264638915e-9,6.019340784315456e-10,0
50767,5.026399111819303e-10,2.044774798316912e-9,5.939060101601297e-9,1.261197498932485e-7,6.197029854608333e-8,6.585207501907486e-9,1.3006529056812044e-9,6.019340784315456e-10,0
50768,5.0278449387844e-10,2.045042295367372e-9,5.9240842036449525e-9,1.2608906507714698e-7,6.209624327803855e-8,6.587449276729136e-9,1.2944912848985173e-9,6.019340784315456e-10,0
50769,5.029290765749498e-10,2.0453097924178323e-9,5.909108305688608e-9,1.2605838026104547e-7,6.222218800999375e-8,6.589691051550786e-9,1.2883296641158305e-9,6.019340784315456e-10,0
50770,5.030736592714594e-10,2.0455772894682924e-9,5.894132407732263e-9,1.2602769544494395e-7,6.234813274194897e-8,6.5919328263724375e-9,1.2821680433331434e-9,6.019340784315456e-10,0
50771,5.032182419679691e-10,2.0458447865187526e-9,5.879156509775919e-9,1.2599701062884244e-7,6.247407747390418e-8,6.594174601194088e-9,1.2760064225504565e-9,6.019340784315456e-10,0
50772,5.033628246644788e-10,2.0461122835692127e-9,5.864180611819574e-9,1.2596632581274092e-7,6.260002220585939e-8,6.596416376015738e-9,1.2698448017677695e-9,6.019340784315456e-10,0
50773,5.035074073609885e-10,2.046379780619673e-9,5.849204713863229e-9,1.2593564099663941e-7,6.27259669378146e-8,6.598658150837388e-9,1.2636831809850826e-9,6.019340784315456e-10,0
50774,5.036519900574982e-10,2.046647277670133e-9,5.834228815906885e-9,1.259049561805379e-7,6.285191166976982e-8,6.600899925659039e-9,1.2575215602023955e-9,6.019340784315456e-10,0
50775,5.037965727540079e-10,2.046914774720593e-9,5.81925291795054e-9,1.2587427136443639e-7,6.297785640172502e-8,6.60314170048069e-9,1.2513599394197085e-9,6.019340784315456e-10,0
50776,5.039411554505176e-10,2.047182271771053e-9,5.804277019994195e-9,1.2584358654833486e-7,6.310380113368024e-8,6.60538347530234e-9,1.2451983186370216e-9,6.019340784315456e-10,0
50777,5.040857381470272e-10,2.047449768821513e-9,5.789301122037851e-9,1.2581290173223336e-7,6.322974586563545e-8,6.60762525012399e-9,1.2390366978543345e-9,6.019340784315456e-10,0
50778,5.038761504228397e-10,2.0437997229017437e-9,5.78405756208711e-9,1.2564311712722894e-7,6.292270090005116e-8,6.616830989052595e-9,1.239330220256989e-9,6.019865025939027e-10,0
50779,5.036665626986521e-10,2.044067219952204e-9,5.754860548070299e-9,1.2485847459030408e-7,6.278385563831469e-8,6.602804934757409e-9,1.2385379447371276e-9,6.013170091616279e-10,0
50780,5.034569749744645e-10,2.044334717002664e-9,5.725663534053488e-9,1.240738320533792e-7,6.264501037657823e-8,6.588778880462222e-9,1.2377456692172662e-9,6.00647515729353e-10,0
50781,5.032473872502768e-10,2.044602214053124e-9,5.696466520036676e-9,1.2328918951645432e-7,6.250616511484177e-8,6.5747528261670356e-9,1.236953393697405e-9,5.999780222970783e-10,0
50782,5.030377995260893e-10,2.044869711103584e-9,5.667269506019865e-9,1.2250454697952943e-7,6.236731985310531e-8,6.560726771871849e-9,1.2361611181775437e-9,5.993085288648035e-10,0
50783,5.028282118019017e-10,2.045137208154044e-9,5.638072492003054e-9,1.2171990444260455e-7,6.222847459136884e-8,6.546700717576662e-9,1.2353688426576826e-9,5.986390354325287e-10,0
50784,5.026186240777141e-10,2.045404705204504e-9,5.608875477986243e-9,1.2093526190567967e-7,6.208962932963239e-8,6.532674663281475e-9,1.2345765671378212e-9,5.979695420002539e-10,0
50785,5.022644536570168e-10,2.045635961271251e-9,5.614613356240812e-9,1.2018708623229607e-7,6.182742423305148e-8,6.519725661768036e-9,1.2334907692153056e-9,5.97247624405622e-10,0
50786,5.019102832363195e-10,2.045903458321711e-9,5.674397208104975e-9,1.1947372494874591e-7,6.159206548932675e-8,6.49434499139231e-9,1.2326102020073428e-9,5.965781309733472e-10,0
50787,5.015561128156222e-10,2.0461709553721713e-9,5.734181059969136e-9,1.1876036366519577e-7,6.135670674560201e-8,6.468964321016583e-9,1.23172963479938e-9,5.959086375410724e-10,0
50788,5.012019423949249e-10,2.0464384524226314e-9,5.7939649118332985e-9,1.1804700238164563e-7,6.112134800187726e-8,6.443583650640857e-9,1.230849067591417e-9,5.952391441087976e-10,0
50789,5.008477719742277e-10,2.0467059494730915e-9,5.853748763697461e-9,1.173336410980955e-7,6.088598925815253e-8,6.418202980265129e-9,1.2299685003834542e-9,5.945696506765227e-10,0
50790,5.004936015535304e-10,2.0469734465235517e-9,5.913532615561623e-9,1.1662027981454536e-7,6.065063051442779e-8,6.392822309889403e-9,1.2290879331754914e-9,5.93900157244248e-10,0
50791,5.001394311328331e-10,2.0472409435740114e-9,5.973316467425785e-9,1.1590691853099521e-7,6.041527177070306e-8,6.367441639513676e-9,1.2282073659675283e-9,5.932306638119732e-10,0
50792,4.95730230746802e-10,2.035415832695897e-9,5.973232205971596e-9,1.1437847888195856e-7,5.994666919907147e-8,6.3634701941099635e-9,1.2273267987595655e-9,5.896210758388136e-10,0
50793,4.91321030360771e-10,2.023590721817782e-9,5.973147944517406e-9,1.1285003923292191e-7,5.9478066627439907e-8,6.359498748706251e-9,1.2264462315516026e-9,5.86011487865654e-10,0
50794,4.909668599400736e-10,2.0177144073624375e-9,6.0541398908963115e-9,1.1173723936562398e-7,5.946472501267612e-8,6.34814413262571e-9,1.2206377775213221e-9,5.85237146108665e-10,0
50795,4.906126895193763e-10,2.0118380929070935e-9,6.135131837275217e-9,1.1062443949832604e-7,5.945138339791233e-8,6.3367895165451705e-9,1.2148293234910414e-9,5.844628043516759e-10,0
50796,4.902585190986791e-10,2.005961778451749e-9,6.216123783654121e-9,1.095116396310281e-7,5.943804178314854e-8,6.325434900464631e-9,1.209020869460761e-9,5.83688462594687e-10,0
50797,4.899043486779818e-10,2.000085463996405e-9,6.297115730033026e-9,1.0839883976373017e-7,5.942470016838475e-8,6.314080284384091e-9,1.2032124154304802e-9,5.829141208376979e-10,0
50798,4.895501782572845e-10,1.9942091495410608e-9,6.378107676411931e-9,1.0728603989643223e-7,5.941135855362096e-8,6.302725668303551e-9,1.1974039614001997e-9,5.821397790807089e-10,0
50799,4.891960078365872e-10,1.9883328350857164e-9,6.4590996227908355e-9,1.061732400291343e-7,5.9398016938857174e-8,6.2913710522230106e-9,1.191595507369919e-9,5.813654373237199e-10,0
50800,4.888418374158899e-10,1.9824565206303724e-9,6.540091569169741e-9,1.0506044016183636e-7,5.938467532409338e-8,6.280016436142471e-9,1.1857870533396385e-9,5.805910955667308e-10,0
50801,4.884876669951927e-10,1.976580206175028e-9,6.621083515548646e-9,1.0394764029453843e-7,5.937133370932959e-8,6.268661820061931e-9,1.1799785993093578e-9,5.798167538097418e-10,0
50802,4.881334965744954e-10,1.9707038917196837e-9,6.70207546192755e-9,1.0283484042724049e-7,5.93579920945658e-8,6.257307203981391e-9,1.1741701452790773e-9,5.790424120527527e-10,0
50803,4.877793261537981e-10,1.9648275772643397e-9,6.783067408306455e-9,1.0172204055994255e-7,5.934465047980201e-8,6.2459525879008514e-9,1.1683616912487968e-9,5.782680702957637e-10,0
50804,4.874251557331008e-10,1.9589512628089953e-9,6.8640593546853604e-9,1.0060924069264462e-7,5.9331308865038223e-8,6.234597971820311e-9,1.1625532372185161e-9,5.774937285387747e-10,0
50805,4.870709853124035e-10,1.9530749483536513e-9,6.945051301064265e-9,9.94964408253467e-8,5.9317967250274435e-8,6.223243355739771e-9,1.1567447831882356e-9,5.767193867817856e-10,0
50806,4.867168148917062e-10,1.947198633898307e-9,7.02604324744317e-9,9.838364095804876e-8,5.9304625635510646e-8,6.211888739659231e-9,1.150936329157955e-9,5.759450450247966e-10,0
50807,4.86362644471009e-10,1.9410548223925025e-9,7.017052386893309e-9,9.720046457042677e-8,5.9257833974017926e-8,6.201359185596055e-9,1.1449226444131217e-9,5.751182791054505e-10,0
50808,4.860084740503117e-10,1.9349110108866984e-9,7.017052386893309e-9,9.601728818280479e-8,5.92650802801296e-8,6.201359185596055e-9,1.1398181742146006e-9,5.751182791054505e-10,0
50809,4.856543036296143e-10,1.928767199380894e-9,7.017052386893309e-9,9.48341117951828e-8,5.927232658624127e-8,6.201359185596055e-9,1.1347137040160798e-9,5.751182791054505e-10,0
50810,4.85300133208917e-10,1.9226233878750898e-9,7.017052386893309e-9,9.365093540756082e-8,5.927957289235294e-8,6.201359185596055e-9,1.129609233817559e-9,5.751182791054505e-10,0
50811,4.849459627882197e-10,1.9164795763692853e-9,7.017052386893309e-9,9.246775901993883e-8,5.928681919846461e-8,6.201359185596055e-9,1.124504763619038e-9,5.751182791054505e-10,0
50812,4.845917923675224e-10,1.910335764863481e-9,7.017052386893309e-9,9.128458263231685e-8,5.929406550457628e-8,6.201359185596055e-9,1.119400293420517e-9,5.751182791054505e-10,0
50813,4.842376219468252e-10,1.9041919533576767e-9,7.017052386893309e-9,9.010140624469486e-8,5.9301311810687954e-8,6.201359185596055e-9,1.114295823221996e-9,5.751182791054505e-10,0
50814,4.691158730929521e-10,1.8680642830164947e-9,6.9452851557760444e-09,8.790318004556023e-8,5.85179001990083e-8,6.178053074236491e-9,1.103294607305093e-9,5.751182791054505e-10,0
50815,4.6470667270692104e-10,1.8480278661963213e-9,6.918339183006732e-9,8.789990920730581e-8,5.847476280817863e-8,6.168842106896324e-9,1.0949613906773748e-9,5.761682095022215e-10,0
50816,4.5899622805230277e-10,1.8356815713817541e-9,6.927082884404678e-9,8.75759520030993e-8,5.797953936671987e-8,6.082311055266693e-9,1.0760684165732616e-9,5.680833113021956e-10,0
50817,4.532857833976845e-10,1.823335276567187e-9,6.935826585802625e-9,8.725199479889279e-8,5.7484315925261123e-8,5.9957800036370624e-9,1.0571754424691484e-9,5.599984131021696e-10,0
50818,4.4757533874306617e-10,1.8109889817526197e-9,6.944570287200572e-9,8.692803759468628e-8,5.698909248380237e-8,5.909248952007433e-9,1.0382824683650352e-9,5.519135149021437e-10,0
50819,4.418648940884479e-10,1.7986426869380525e-9,6.953313988598518e-9,8.660408039047978e-8,5.649386904234362e-8,5.822717900377802e-9,1.0193894942609218e-9,5.438286167021177e-10,0
50820,4.361544494338296e-10,1.7862963921234853e-9,6.962057689996465e-9,8.628012318627328e-8,5.599864560088487e-8,5.736186848748171e-9,1.0004965201568086e-9,5.357437185020918e-10,0
50821,4.312319232894377e-10,1.7739500973089181e-9,6.964048267651914e-9,8.595546423898282e-8,5.5447096645057786e-8,5.638301181038001e-9,9.80694331506383e-10,5.266088899052948e-10,0
50822,4.2630939714504574e-10,1.7626375497124779e-9,6.9638011084999994e-9,8.563298585052865e-8,5.496737295416023e-8,5.556664762910725e-9,9.611856652586117e-10,5.174740613084977e-10,0
50823,4.213868710006538e-10,1.7513250021160379e-9,6.963553949348085e-9,8.531050746207447e-8,5.448764926326268e-8,5.475028344783448e-9,9.416769990108405e-10,5.083392327117006e-10,0
50824,4.164643448562619e-10,1.7400124545195978e-9,6.963306790196171e-9,8.49880290736203e-8,5.4007925572365126e-8,5.3933919266561714e-9,9.221683327630692e-10,4.992044041149036e-10,0
50825,4.1154181871187e-10,1.7286999069231576e-9,6.963059631044257e-9,8.466555068516612e-8,5.352820188146757e-8,5.311755508528895e-9,9.026596665152978e-10,4.900695755181066e-10,0
50826,4.066192925674781e-10,1.7173873593267176e-9,6.962812471892342e-9,8.434307229671195e-8,5.304847819057002e-8,5.230119090401619e-9,8.831510002675266e-10,4.809347469213095e-10,0
50827,4.0169676642308616e-10,1.7060748117302776e-9,6.962565312740428e-9,8.402059390825777e-8,5.2568754499672465e-8,5.148482672274343e-9,8.636423340197552e-10,4.717999183245125e-10,0
50828,3.9572630165775623e-10,1.7009647474426005e-9,6.9603275759330644e-9,8.222517468145894e-8,5.254054142291721e-8,5.163906859839873e-9,8.639358564224095e-10,4.715767538470876e-10,0
50829,3.8975583689242635e-10,1.6958546831549232e-9,6.958089839125701e-9,8.042975545466009e-8,5.2512328346161943e-8,5.179331047405403e-9,8.642293788250638e-10,4.713535893696626e-10,0
50830,3.837853721270964e-10,1.690744618867246e-9,6.955852102318337e-9,7.863433622786124e-8,5.2484115269406686e-8,5.194755234970933e-9,8.64522901227718e-10,4.711304248922377e-10,0
50831,3.7781490736176654e-10,1.685634554579569e-9,6.953614365510973e-9,7.68389170010624e-8,5.245590219265143e-8,5.210179422536463e-9,8.648164236303723e-10,4.709072604148128e-10,0
50832,3.718444425964366e-10,1.6805244902918918e-9,6.951376628703609e-9,7.504349777426355e-8,5.2427689115896165e-8,5.225603610101994e-9,8.651099460330267e-10,4.706840959373879e-10,0
50833,3.6587397783110674e-10,1.6754144260042145e-9,6.949138891896245e-9,7.32480785474647e-8,5.239947603914091e-8,5.241027797667524e-9,8.65403468435681e-10,4.704609314599629e-10,0
50834,3.599035130657768e-10,1.6703043617165374e-9,6.946901155088881e-9,7.145265932066586e-8,5.237126296238564e-8,5.256451985233054e-9,8.656969908383352e-10,4.70237766982538e-10,0
50835,3.594843376174016e-10,1.6651942974288603e-9,6.946901155088881e-9,7.088270583485586e-8,5.237126296238564e-8,5.1908447565806115e-9,8.406113989401324e-10,4.5820180017921683e-10,0
50836,3.590651621690264e-10,1.6600842331411832e-9,6.946901155088881e-9,7.031275234904586e-8,5.237126296238564e-8,5.125237527928169e-9,8.155258070419296e-10,4.4616583337589567e-10,0
50837,3.586459867206512e-10,1.6549741688535058e-9,6.946901155088881e-9,6.974279886323587e-8,5.237126296238564e-8,5.059630299275727e-9,7.904402151437267e-10,4.3412986657257446e-10,0
50838,3.58226811272276e-10,1.6498641045658287e-9,6.946901155088881e-9,6.917284537742586e-8,5.237126296238564e-8,4.994023070623285e-9,7.653546232455239e-10,4.220938997692533e-10,0
50839,3.5780763582390083e-10,1.6447540402781516e-9,6.946901155088881e-9,6.860289189161586e-8,5.237126296238564e-8,4.928415841970843e-9,7.402690313473211e-10,4.1005793296593215e-10,0
50840,3.5738846037552563e-10,1.6396439759904745e-9,6.946901155088881e-9,6.803293840580587e-8,5.237126296238564e-8,4.8628086133184e-9,7.151834394491182e-10,3.98021966162611e-10,0
50841,3.5696928492715044e-10,1.6345339117027972e-9,6.946901155088881e-9,6.746298491999587e-8,5.237126296238564e-8,4.797201384665958e-9,6.900978475509154e-10,3.8598599935928983e-10,0
50842,3.565501094787753e-10,1.62942384741512e-9,6.946901155088881e-9,6.689303143418587e-8,5.237126296238564e-8,4.731594156013516e-9,6.650122556527126e-10,3.7395003255596867e-10,0
50843,3.561309340304001e-10,1.624313783127443e-9,6.946901155088881e-9,6.632307794837588e-8,5.237126296238564e-8,4.6659869273610735e-9,6.399266637545098e-10,3.619140657526475e-10,0
50844,3.557117585820249e-10,1.6192037188397658e-9,6.946901155088881e-9,6.575312446256588e-8,5.237126296238564e-8,4.600379698708631e-9,6.14841071856307e-10,3.4987809894932635e-10,0
50845,3.552925831336497e-10,1.6140936545520885e-9,6.946901155088881e-9,6.518317097675587e-8,5.237126296238564e-8,4.534772470056189e-9,5.897554799581041e-10,3.378421321460052e-10,0
50846,3.548734076852745e-10,1.6089835902644114e-9,6.946901155088881e-9,6.461321749094589e-8,5.237126296238564e-8,4.469165241403746e-9,5.646698880599013e-10,3.2580616534268404e-10,0
50847,3.544542322368993e-10,1.6038735259767343e-9,6.946901155088881e-9,6.404326400513588e-8,5.237126296238564e-8,4.403558012751304e-9,5.395842961616985e-10,3.137701985393628e-10,0
50848,3.540350567885241e-10,1.5987634616890572e-9,6.946901155088881e-9,6.34733105193259e-8,5.237126296238564e-8,4.337950784098862e-9,5.144987042634956e-10,3.0173423173604167e-10,0
50849,3.5361588134014893e-10,1.5936533974013799e-9,6.946901155088881e-9,6.290335703351589e-8,5.237126296238564e-8,4.27234355544642e-9,4.894131123652928e-10,2.896982649327205e-10,0
50850,3.5319670589177373e-10,1.5885433331137028e-9,6.946901155088881e-9,6.233340354770589e-8,5.237126296238564e-8,4.206736326793978e-9,4.6432752046708997e-10,2.7766229812939935e-10,0
50851,3.456358314648372e-10,1.5761970382991356e-9,6.926721610502201e-9,6.217979314279343e-8,5.2250780558947094e-8,4.191256400626618e-9,4.583138357222567e-10,2.652593621895784e-10,0
50852,3.380749570379007e-10,1.5641182405350285e-9,6.907544006963314e-9,6.202926802976793e-8,5.2094824324486445e-8,4.1974138822501515e-9,4.583138357222567e-10,2.5313201488953945e-10,0
50853,3.3210449227257075e-10,1.558241926079684e-9,6.908298788859191e-9,6.181039629608578e-8,5.2070006571975175e-8,4.234260645910077e-9,4.632417225445744e-10,2.5318443905189657e-10,0
50854,3.2613402750724087e-10,1.55236561162434e-9,6.90905357075507e-9,6.159152456240364e-8,5.2045188819463905e-8,4.2711074095700026e-9,4.681696093668922e-10,2.532368632142537e-10,0
50855,3.2016356274191094e-10,1.5464892971689957e-9,6.909808352650948e-9,6.13726528287215e-8,5.202037106695263e-8,4.307954173229928e-9,4.730974961892099e-10,2.532892873766108e-10,0
50856,3.1419309797658106e-10,1.5406129827136516e-9,6.9105631345468256e-9,6.115378109503935e-8,5.199555331444136e-8,4.344800936889854e-9,4.780253830115276e-10,2.533417115389679e-10,0
50857,3.0822263321125113e-10,1.5347366682583072e-9,6.911317916442704e-9,6.093490936135721e-8,5.197073556193009e-8,4.381647700549779e-9,4.829532698338453e-10,2.5339413570132504e-10,0
50858,3.0181842035639215e-10,1.5307828843043646e-9,6.9150696518552024e-09,6.071832840329437e-8,5.194785527823897e-8,4.390107924008354e-9,4.842442984709136e-10,2.531709712239001e-10,0
50859,2.9541420750153317e-10,1.526829100350422e-9,6.918821387267701e-9,6.050174744523152e-8,5.1924974994547846e-8,4.39856814746693e-9,4.855353271079818e-10,2.5294780674647516e-10,0
50860,2.890099946466742e-10,1.5228753163964793e-9,6.922573122680199e-9,6.028516648716866e-8,5.1902094710856725e-8,4.407028370925506e-9,4.868263557450501e-10,2.527246422690502e-10,0
50861,2.826057817918152e-10,1.5189215324425365e-9,6.926324858092697e-9,6.006858552910582e-8,5.1879214427165604e-8,4.415488594384081e-9,4.881173843821183e-10,2.525014777916253e-10,0
50862,2.7620156893695623e-10,1.5149677484885939e-9,6.930076593505196e-9,5.985200457104297e-8,5.185633414347448e-8,4.423948817842657e-9,4.894084130191866e-10,2.5227831331420035e-10,0
50863,2.6979735608209725e-10,1.5110139645346513e-9,6.933828328917694e-9,5.963542361298012e-8,5.183345385978336e-8,4.432409041301232e-9,4.906994416562548e-10,2.520551488367754e-10,0
50864,2.6339314322723827e-10,1.5070601805807086e-9,6.937580064330192e-9,5.941884265491727e-8,5.181057357609224e-8,4.4408692647598076e-9,4.919904702933231e-10,2.518319843593505e-10,0
50865,2.569889303723793e-10,1.5031063966267658e-9,6.94133179974269e-9,5.9202261696854426e-8,5.178769329240112e-8,4.449329488218384e-9,4.932814989303914e-10,2.5160881988192554e-10,0
50866,2.505847175175203e-10,1.4991526126728232e-9,6.945083535155189e-9,5.898568073879157e-8,5.176481300870999e-8,4.457789711676959e-9,4.945725275674596e-10,2.5138565540450065e-10,0
50867,2.4418050466266133e-10,1.4951988287188806e-9,6.9488352705676874e-9,5.876909978072873e-8,5.174193272501887e-8,4.466249935135535e-9,4.958635562045279e-10,2.511624909270757e-10,0
50868,2.3777629180780235e-10,1.491245044764938e-9,6.952587005980186e-9,5.855251882266588e-8,5.171905244132775e-8,4.47471015859411e-9,4.971545848415961e-10,2.509393264496508e-10,0
50869,2.3137207895294334e-10,1.4872912608109951e-9,6.956338741392684e-9,5.833593786460303e-8,5.169617215763663e-8,4.4831703820526855e-9,4.984456134786644e-10,2.5071616197222584e-10,0
50870,2.2496786609808436e-10,1.4833374768570525e-9,6.960090476805182e-9,5.811935690654018e-8,5.1673291873945506e-8,4.4916306055112616e-9,4.997366421157327e-10,2.504929974948009e-10,0
50871,2.1856365324322538e-10,1.47938369290311e-9,6.963842212217681e-9,5.7902775948477335e-8,5.1650411590254384e-8,4.500090828969837e-9,5.010276707528009e-10,2.5026983301737597e-10,0
50872,2.121594403883664e-10,1.475429908949167e-9,6.967593947630179e-9,5.768619499041448e-8,5.162753130656326e-8,4.508551052428412e-9,5.023186993898692e-10,2.5004666853995103e-10,0
50873,2.1251361080906368e-10,1.4776199365010288e-9,6.962628590525001e-9,5.7644432944138686e-8,5.162744499109025e-8,4.520465388639551e-9,4.982403827641117e-10,2.4910158646789417e-10,0
50874,2.1286778122976099e-10,1.4798099640528904e-9,6.957663233419823e-9,5.760267089786289e-8,5.162735867561723e-8,4.5323797248506885e-9,4.941620661383542e-10,2.4815650439583735e-10,0
50875,2.124340331402319e-10,1.475674975180382e-9,6.949458198459489e-9,5.562969711741322e-8,5.022789570817623e-8,4.5323797248506885e-9,4.96538892697938e-10,2.4815650439583735e-10,0
50876,2.120002850507028e-10,1.4715399863078732e-9,6.9412531634991545e-9,5.365672333696356e-8,4.882843274073523e-8,4.5323797248506885e-9,4.989157192575219e-10,2.4815650439583735e-10,0
50877,2.1156653696117373e-10,1.4674049974353646e-9,6.933048128538821e-9,5.16837495565139e-8,4.742896977329423e-8,4.5323797248506885e-9,5.012925458171057e-10,2.4815650439583735e-10,0
50878,2.1113278887164465e-10,1.463270008562856e-9,6.9248430935784865e-9,4.971077577606424e-8,4.602950680585323e-8,4.5323797248506885e-9,5.036693723766895e-10,2.4815650439583735e-10,0
50879,2.1069904078211558e-10,1.4591350196903474e-9,6.916638058618153e-9,4.7737801995614576e-8,4.4630043838412224e-8,4.5323797248506885e-9,5.060461989362733e-10,2.4815650439583735e-10,0
