time,channel1,channel2,channel3,channel4,channel5,channel6,channel7,channel8,class
43018,2.163009591366329e-8,3.7583011192898085e-9,4.183566542723324e-8,8.41547749773499e-8,4.825194734842164e-8,9.298396938104506e-8,4.3573862788101556e-8,1.1060962615998673e-7,0
43019,2.1678090516398887e-8,3.742157938486723e-9,4.158519573225301e-8,8.421724231990064e-8,4.812730916048681e-8,9.279269680183094e-8,4.3478351579016843e-8,1.1041058010795163e-7,0
43020,2.187132744882158e-8,3.7321347459909375e-9,4.1309359306093926e-8,8.421821518555508e-8,4.800267097255197e-8,9.304428991949575e-8,4.377646045308509e-8,1.1074130875022095e-7,0
43021,2.250461015922365e-8,3.736397032618754e-9,4.104553668020287e-8,8.45261489250293e-8,4.809603809108692e-8,9.462239892474037e-8,4.3712640875115464e-8,1.1178401551793115e-7,0
43022,2.3137892869625715e-8,3.740659319246572e-9,4.078171405431182e-8,8.483408266450351e-8,4.8189405209621876e-8,9.620050792998498e-8,4.3648821297145843e-08,1.1282672228564134e-7,0
43023,2.377117558002778e-8,3.744921605874389e-9,4.051789142842077e-8,8.514201640397774e-8,4.8282772328156826e-8,9.777861693522959e-8,4.3585001719176216e-8,1.1386942905335153e-7,0
43024,2.4404458290429848e-8,3.749183892502206e-9,4.025406880252972e-8,8.544995014345196e-8,4.8376139446691775e-8,9.93567259404742e-8,4.3521182141206594e-8,1.1491213582106172e-7,0
43025,2.5037741000831914e-8,3.753446179130023e-9,3.999024617663867e-8,8.575788388292619e-8,4.8469506565226725e-8,1.0093483494571881e-7,4.345736256323697e-8,1.1595484258877192e-7,0
43026,2.5671023711233984e-8,3.75770846575784e-9,3.972642355074762e-8,8.60658176224004e-8,4.8562873683761674e-8,1.0251294395096342e-7,4.3393542985267345e-8,1.169975493564821e-7,0
43027,2.630430642163605e-8,3.7619707523856565e-9,3.9462600924856567e-8,8.637375136187463e-8,4.8656240802296624e-8,1.0409105295620804e-7,4.3329723407297724e-8,1.180402561241923e-7,0
43028,2.6937589132038117e-8,3.766233039013474e-9,3.9198778298965514e-8,8.668168510134885e-8,4.874960792083157e-8,1.0566916196145264e-7,4.3265903829328096e-8,1.190829628919025e-7,0
43029,2.7570871842440183e-8,3.770495325641291e-9,3.893495567307447e-8,8.698961884082307e-8,4.884297503936653e-8,1.0724727096669726e-7,4.3202084251358475e-8,1.2012566965961268e-7,0
43030,2.820415455284225e-8,3.774757612269108e-9,3.8671133047183416e-8,8.729755258029729e-8,4.893634215790148e-8,1.0882537997194186e-7,4.313826467338885e-8,1.2116837642732289e-7,0
43031,2.883743726324432e-8,3.779019898896925e-9,3.8407310421292364e-8,8.760548631977152e-8,4.902970927643643e-8,1.1040348897718648e-7,4.3074445095419226e-8,1.2221108319503306e-7,0
43032,2.9377119361181364e-8,3.750227168999735e-9,3.789783890900506e-8,8.788424399214208e-8,4.899918556508667e-8,1.1201536181430363e-7,4.311879258366833e-8,1.2284616230145452e-7,0
43033,2.937436193110126e-8,3.7094233138035244e-9,3.7965494431124935e-8,8.726102039984132e-8,4.896028251329426e-8,1.1162140424136989e-7,4.296631956838281e-8,1.2179777657452333e-7,0
43034,2.932434374002591e-8,3.708290856668295e-9,3.80331499532448e-8,8.725877304005502e-8,4.8939484539171756e-8,1.1144366968034582e-7,4.296927052218288e-8,1.2179458745845785e-7,0
43035,2.9274325548950558e-8,3.7071583995330662e-9,3.8100805475364676e-8,8.725652568026873e-8,4.891868656504925e-8,1.1126593511932173e-7,4.2972221475982955e-8,1.2179139834239234e-7,0
43036,2.9224307357875205e-8,3.706025942397837e-9,3.816846099748455e-8,8.725427832048244e-8,4.889788859092675e-8,1.1108820055829765e-7,4.297517242978302e-8,1.2178820922632685e-7,0
43037,2.9174289166799855e-8,3.704893485262608e-9,3.823611651960442e-8,8.725203096069615e-8,4.887709061680424e-8,1.1091046599727356e-7,4.297812338358309e-8,1.2178502011026137e-7,0
43038,2.9124270975724503e-8,3.7037610281273788e-9,3.830377204172429e-8,8.724978360090987e-8,4.885629264268174e-8,1.1073273143624949e-7,4.2981074337383166e-8,1.2178183099419589e-7,0
43039,2.9528429806639583e-8,3.743432426188361e-9,3.8371427563844164e-8,8.77635180106953e-8,4.880497116297633e-8,1.1056466917737447e-7,4.3531967989231576e-8,1.2257719702190933e-7,0
43040,2.993258863755466e-8,3.783103824249343e-9,3.843908308596404e-8,8.827725242048075e-8,4.8753649683270924e-8,1.1039660691849945e-7,4.408286164107998e-8,1.2337256304962277e-7,0
43041,3.033674746846974e-8,3.822775222310324e-9,3.8506738608083905e-8,8.87909868302662e-8,4.870232820356551e-8,1.1022854465962445e-7,4.463375529292839e-8,1.2416792907733624e-7,0
43042,3.074090629938482e-8,3.862446620371306e-9,3.857439413020378e-8,8.930472124005165e-8,4.86510067238601e-8,1.1006048240074943e-7,4.51846489447768e-8,1.2496329510504968e-7,0
43043,3.11450651302999e-8,3.9021180184322885e-9,3.864204965232365e-8,8.98184556498371e-8,4.8599685244154693e-08,1.0989242014187442e-7,4.573554259662521e-8,1.2575866113276312e-7,0
43044,3.154922396121498e-8,3.94178941649327e-9,3.870970517444352e-8,9.033219005962255e-8,4.8548363764449285e-8,1.097243578829994e-7,4.628643624847362e-8,1.265540271604766e-7,0
43045,3.195338279213006e-8,3.981460814554252e-9,3.8777360696563393e-8,9.0845924469408e-8,4.849704228474388e-8,1.095562956241244e-7,4.6837329900322033e-8,1.2734939318819003e-7,0
43046,3.235754162304514e-8,4.021132212615234e-9,3.884501621868327e-8,9.135965887919345e-8,4.844572080503847e-8,1.0938823336524938e-7,4.7388223552170444e-8,1.2814475921590347e-7,0
43047,3.2761700453960224e-8,4.060803610676215e-9,3.891267174080314e-8,9.18733932889789e-8,4.839439932533306e-8,1.0922017110637436e-7,4.7939117204018855e-8,1.2894012524361694e-7,0
43048,3.3165859284875304e-8,4.100475008737197e-9,3.898032726292301e-8,9.238712769876435e-8,4.834307784562765e-8,1.0905210884749936e-7,4.8490010855867265e-8,1.2973549127133038e-7,0
43049,3.357001811579038e-8,4.1401464067981794e-9,3.904798278504288e-8,9.29008621085498e-8,4.8291756365922245e-8,1.0888404658862434e-7,4.9040904507715676e-8,1.3053085729904385e-7,0
43050,3.397417694670546e-8,4.179817804859161e-9,3.9115638307162755e-8,9.341459651833524e-8,4.824043488621684e-8,1.0871598432974933e-7,4.9591798159564087e-8,1.313262233267573e-7,0
43051,3.437833577762054e-8,4.219489202920143e-9,3.918329382928262e-8,9.392833092812068e-8,4.818911340651142e-8,1.0854792207087431e-7,5.01426918114125e-8,1.3212158935447073e-7,0
43052,3.478249460853562e-8,4.259160600981125e-9,3.9250949351402496e-8,9.444206533790613e-8,4.8137791926806014e-8,1.083798598119993e-7,5.06935854632609e-8,1.329169553821842e-7,0
43053,3.51866534394507e-8,4.298831999042106e-9,3.931860487352237e-8,9.495579974769158e-8,4.8086470447100606e-8,1.0821179755312429e-7,5.124447911510931e-8,1.3371232140989764e-7,0
43054,3.486925290746624e-8,4.295292597070011e-9,3.937343287751579e-8,9.537278001375069e-8,4.811100912104387e-8,1.0773853975208514e-7,5.143901365185291e-8,1.3301304442315765e-7,0
43055,3.451600195203289e-8,4.262285710696651e-9,3.933960511645585e-8,9.567464885256079e-8,4.826716904097999e-8,1.0789218278338575e-7,5.153893053490699e-8,1.3133022511898652e-7,0
43056,3.429222677597685e-8,4.274665357989126e-9,3.962741161742791e-8,9.571691966462351e-8,4.8295448414744025e-8,1.0796185207490863e-7,5.155804936153183e-8,1.3116705633011348e-7,0
43057,3.4148757333446824e-8,4.310300960849336e-9,3.987877500926804e-8,9.613834536909525e-8,4.831315420184659e-8,1.0800598295496957e-7,5.160002775318356e-8,1.3100779320177065e-7,0
43058,3.400528789091679e-8,4.345936563709547e-9,4.013013840110818e-8,9.655977107356698e-8,4.8330859988949144e-8,1.0805011383503052e-7,5.164200614483529e-8,1.3084853007342783e-7,0
43059,3.386181844838677e-8,4.381572166569757e-9,4.038150179294831e-8,9.698119677803872e-8,4.834856577605171e-8,1.0809424471509147e-7,5.168398453648702e-8,1.3068926694508498e-7,0
43060,3.371834900585674e-8,4.417207769429968e-9,4.0632865184788454e-8,9.740262248251046e-8,4.8366271563154264e-8,1.0813837559515242e-7,5.172596292813875e-8,1.3053000381674215e-7,0
43061,3.357487956332671e-8,4.452843372290178e-9,4.088422857662859e-8,9.78240481869822e-8,4.8383977350256827e-8,1.0818250647521337e-7,5.176794131979048e-8,1.3037074068839933e-7,0
43062,3.343141012079669e-8,4.488478975150389e-9,4.113559196846872e-8,9.8245473891453935e-08,4.840168313735939e-8,1.0822663735527431e-7,5.180991971144221e-8,1.302114775600565e-7,0
43063,3.328794067826666e-8,4.524114578010599e-9,4.138695536030886e-8,9.866689959592567e-8,4.8419388924461946e-8,1.0827076823533526e-7,5.185189810309394e-8,1.3005221443171368e-7,0
43064,3.314447123573664e-8,4.55975018087081e-9,4.163831875214899e-8,9.908832530039741e-8,4.843709471156451e-8,1.0831489911539621e-7,5.189387649474567e-8,1.2989295130337085e-7,0
43065,3.3001001793206607e-8,4.595385783731021e-9,4.188968214398913e-8,9.950975100486915e-8,4.8454800498667065e-8,1.0835902999545716e-7,5.19358548863974e-8,1.2973368817502802e-7,0
43066,3.300922989501644e-8,4.628708342169127e-9,4.2128034229326815e-8,9.95690779852368e-8,4.8450810679496256e-8,1.0822709626035548e-7,5.184443765308957e-8,1.296956773797276e-7,0
43067,3.305403194795228e-8,4.660445460617913e-9,4.240350378605744e-8,9.994823287764583e-8,4.835958905329771e-8,1.0826548270875668e-7,5.197587990764605e-8,1.2964213539280947e-7,0
43068,3.309883400088812e-8,4.692182579066698e-9,4.267897334278807e-8,1.0032738777005484e-7,4.826836742709917e-8,1.0830386915715789e-7,5.210732216220253e-8,1.2958859340589135e-7,0
43069,3.314363605382395e-8,4.7239196975154835e-9,4.295444289951869e-8,1.0070654266246386e-7,4.8177145800900626e-8,1.0834225560555908e-7,5.223876441675901e-8,1.2953505141897323e-7,0
43070,3.318843810675979e-8,4.755656815964269e-9,4.322991245624932e-8,1.0108569755487287e-7,4.808592417470208e-8,1.0838064205396028e-7,5.237020667131549e-8,1.2948150943205513e-7,0
43071,3.323324015969562e-8,4.787393934413054e-9,4.350538201297995e-8,1.0146485244728188e-7,4.799470254850354e-8,1.0841902850236147e-7,5.250164892587198e-8,1.2942796744513701e-7,0
43072,3.3278042212631464e-8,4.81913105286184e-9,4.378085156971058e-8,1.0184400733969091e-7,4.7903480922304996e-8,1.0845741495076268e-7,5.263309118042846e-8,1.293744254582189e-7,0
43073,3.33228442655673e-8,4.850868171310625e-9,4.40563211264412e-8,1.0222316223209993e-7,4.781225929610645e-8,1.0849580139916387e-7,5.276453343498494e-8,1.2932088347130077e-7,0
43074,3.336764631850313e-8,4.882605289759411e-9,4.433179068317183e-8,1.0260231712450894e-7,4.7721037669907905e-8,1.0853418784756507e-7,5.289597568954142e-8,1.2926734148438265e-7,0
43075,3.342785904798622e-8,4.90912602572055e-9,4.458891159858738e-8,1.0295124718191403e-7,4.7580588627488944e-8,1.0838861409178897e-7,5.302837388542914e-8,1.2935701816164933e-7,0
43076,3.34880717774693e-8,4.935646761681689e-9,4.484603251400293e-8,1.0330017723931913e-7,4.744013958506998e-8,1.0824304033601287e-7,5.3160772081316866e-8,1.2944669483891597e-7,0
43077,3.3524067729521e-8,4.942308913480779e-9,4.50545905886734e-8,1.0330628349911957e-7,4.739091216884956e-8,1.0826156913263304e-7,5.3250402152392595e-8,1.2940427845966918e-7,0
43078,3.384460749197089e-8,4.939314034889006e-9,4.50493318182152e-8,1.0323495982285306e-7,4.729619885929687e-8,1.0822214532996139e-7,5.3259255013792806e-8,1.318944405409288e-7,0
43079,3.416514725442078e-8,4.936319156297233e-9,4.504407304775699e-8,1.0316363614658657e-7,4.720148554974418e-8,1.0818272152728974e-7,5.3268107875193016e-8,1.3438460262218846e-7,0
43080,3.448568701687067e-8,4.93332427770546e-9,4.503881427729878e-8,1.0309231247032006e-7,4.71067722401915e-8,1.0814329772461809e-7,5.3276960736593226e-8,1.3687476470344808e-7,0
43081,3.480622677932056e-8,4.930329399113688e-9,4.503355550684057e-8,1.0302098879405355e-7,4.701205893063881e-8,1.0810387392194644e-7,5.328581359799344e-8,1.3936492678470773e-7,0
43082,3.512676654177045e-8,4.927334520521914e-9,4.5028296736382366e-8,1.0294966511778705e-7,4.6917345621086124e-8,1.0806445011927478e-7,5.329466645939365e-8,1.4185508886596739e-7,0
43083,3.5447306304220345e-8,4.924339641930142e-9,4.502303796592416e-8,1.0287834144152054e-7,4.6822632311533434e-8,1.0802502631660313e-7,5.330351932079386e-8,1.44345250947227e-7,0
43084,3.576784606667023e-8,4.921344763338369e-9,4.501777919546595e-8,1.0280701776525404e-7,4.672791900198075e-8,1.0798560251393148e-7,5.331237218219406e-8,1.4683541302848666e-7,0
43085,3.6088385829120125e-8,4.9183498847465956e-9,4.501252042500774e-8,1.0273569408898754e-7,4.663320569242806e-8,1.0794617871125984e-7,5.332122504359427e-8,1.493255751097463e-7,0
43086,3.640892559157002e-8,4.915355006154823e-9,4.5007261654549535e-8,1.0266437041272103e-7,4.653849238287537e-8,1.0790675490858819e-7,5.333007790499448e-8,1.5181573719100594e-7,0
43087,3.6729465354019905e-8,4.91236012756305e-9,4.500200288409132e-8,1.0259304673645452e-7,4.644377907332269e-8,1.0786733110591654e-7,5.333893076639469e-8,1.543058992722656e-7,0
43088,3.70500051164698e-8,4.909365248971278e-9,4.4996744113633116e-8,1.0252172306018803e-7,4.634906576377e-8,1.0782790730324489e-7,5.33477836277949e-8,1.5679606135352522e-7,0
43089,3.7370544878919686e-8,4.906370370379504e-9,4.499148534317491e-8,1.0245039938392152e-7,4.6254352454217313e-8,1.0778848350057324e-7,5.335663648919511e-8,1.5928622343478487e-7,0
43090,3.741797709514052e-8,4.867604938026706e-9,4.593112803676068e-8,1.011882690874668e-7,4.6292207702641555e-8,1.0785926659518059e-7,5.335663648919511e-8,1.6182678352699927e-7,0
43091,3.744950636335259e-8,4.892313742571478e-9,4.691552733452987e-8,9.989909678332436e-8,4.6205424763130964e-8,1.0779987036140836e-7,5.3333797745201096e-8,1.6367830304443488e-7,0
43092,3.7470091638857034e-8,4.910902558808952e-9,4.78713843013645e-8,9.997584954069656e-8,4.6232905864410563e-8,1.0767726155543607e-7,5.327968301912371e-8,1.6621886313664928e-7,0
43093,3.749067691436148e-8,4.929491375046425e-9,4.882724126819913e-8,1.0005260229806878e-7,4.626038696569016e-8,1.075546527494638e-7,5.3225568293046325e-8,1.687594232288637e-7,0
43094,3.751126218986593e-8,4.9480801912838984e-9,4.978309823503376e-8,1.0012935505544098e-7,4.628786806696976e-8,1.0743204394349151e-7,5.317145356696894e-8,1.712999833210781e-7,0
43095,3.753184746537038e-8,4.9666690075213724e-9,5.0738955201868383e-8,1.002061078128132e-7,4.631534916824936e-8,1.0730943513751924e-7,5.3117338840891555e-8,1.7384054341329253e-7,0
43096,3.755243274087483e-8,4.985257823758846e-9,5.169481216870301e-8,1.002828605701854e-7,4.634283026952896e-8,1.0718682633154696e-7,5.3063224114814167e-8,1.7638110350550693e-7,0
43097,3.752074114834102e-8,4.985486675074423e-9,5.1936873445812955e-8,1.0092366174398238e-7,4.635998741791425e-8,1.0704840880592159e-7,5.305538950351867e-8,1.7637244262457534e-7,0
43098,3.748904955580722e-8,4.985715526389999e-9,5.21789347229229e-8,1.0156446291777935e-7,4.637714456629954e-8,1.0690999128029622e-7,5.304755489222318e-8,1.7636378174364374e-7,0
43099,3.745735796327342e-8,4.985944377705576e-9,5.2420996000032844e-8,1.0220526409157634e-7,4.639430171468483e-8,1.0677157375467086e-7,5.303972028092768e-8,1.7635512086271214e-7,0
43100,3.742566637073962e-8,4.986173229021153e-9,5.266305727714278e-8,1.0284606526537332e-7,4.641145886307012e-8,1.0663315622904549e-7,5.3031885669632194e-8,1.7634645998178054e-7,0
43101,3.739397477820582e-8,4.98640208033673e-9,5.290511855425273e-8,1.034868664391703e-7,4.642861601145541e-8,1.0649473870342012e-7,5.30240510583367e-8,1.7633779910084895e-7,0
43102,3.736228318567202e-8,4.986630931652306e-9,5.314717983136267e-8,1.0412766761296728e-7,4.6445773159840704e-8,1.0635632117779475e-7,5.3016216447041205e-8,1.7632913821991735e-7,0
43103,3.7330591593138213e-08,4.986859782967883e-9,5.338924110847261e-8,1.0476846878676427e-7,4.6462930308225993e-8,1.0621790365216939e-7,5.300838183574571e-8,1.7632047733898575e-7,0
43104,3.7298900000604414e-8,4.9870886342834596e-9,5.3631302385582556e-8,1.0540926996056125e-7,4.648008745661128e-8,1.0607948612654402e-7,5.3000547224450215e-8,1.7631181645805415e-7,0
43105,3.7267208408070615e-8,4.987317485599037e-9,5.38733636626925e-8,1.0605007113435823e-7,4.649724460499657e-8,1.0594106860091865e-7,5.299271261315472e-8,1.7630315557712256e-7,0
43106,3.723551681553681e-8,4.987546336914613e-9,5.4115424939802445e-8,1.066908723081552e-7,4.651440175338186e-8,1.0580265107529328e-7,5.2984878001859226e-8,1.7629449469619093e-7,0
43107,3.720382522300301e-8,4.98777518823019e-9,5.4357486216912384e-8,1.073316734819522e-7,4.653155890176715e-8,1.0566423354966792e-7,5.297704339056373e-8,1.7628583381525934e-7,0
43108,3.717213363046921e-8,4.9880040395457665e-9,5.459954749402233e-8,1.0797247465574917e-7,4.654871605015244e-8,1.0552581602404255e-7,5.2969208779268236e-8,1.7627717293432774e-7,0
43109,3.7140442037935405e-8,4.988232890861344e-9,5.4841608771132273e-8,1.0861327582954615e-7,4.656587319853773e-8,1.0538739849841718e-7,5.296137416797275e-8,1.7626851205339614e-7,0
43110,3.7108750445401606e-8,4.98846174217692e-9,5.508367004824221e-8,1.0925407700334313e-7,4.658303034692302e-8,1.0524898097279181e-7,5.2953539556677254e-8,1.7625985117246454e-7,0
43111,3.691768646232902e-8,4.992497537377692e-9,5.538081279552027e-8,1.1002862189530332e-7,4.6603778641212306e-8,1.0530378166123624e-7,5.297172323728287e-8,1.743333236719183e-7,0
43112,3.6726622479256424e-8,4.996533332578463e-9,5.567795554279833e-8,1.108031667872635e-7,4.66245269355016e-8,1.0535858234968067e-7,5.298990691788848e-8,1.7240679617137207e-7,0
43113,3.6749371573207123e-8,5.0312171994673745e-9,5.57047570347623e-8,1.1078872758744448e-7,4.665884123227218e-8,1.0718477241188785e-7,5.321027271732933e-8,1.7229984129051171e-7,0
43114,3.670249526184536e-8,5.0325785079181806e-9,5.57047570347623e-8,1.1078707952360119e-7,4.672228275224101e-8,1.0718477241188785e-7,5.329576735060844e-8,1.7275069291448152e-7,0
43115,3.66556189504836e-8,5.047769952749967e-9,5.593623927238932e-8,1.1078176770387765e-7,4.7657144916103184e-8,1.0730326211923724e-7,5.326037667459876e-8,1.7268154830912884e-7,0
43116,3.660874263912183e-8,5.062961397581753e-9,5.616772151001633e-8,1.107764558841541e-7,4.859200707996535e-8,1.0742175182658662e-7,5.322498599858908e-8,1.7261240370377616e-7,0
43117,3.656186632776007e-8,5.0781528424135394e-9,5.639920374764334e-8,1.1077114406443055e-7,4.9526869243827525e-8,1.0754024153393602e-7,5.31895953225794e-8,1.7254325909842345e-7,0
43118,3.651499001639831e-8,5.093344287245326e-9,5.663068598527036e-8,1.10765832244707e-7,5.04617314076897e-8,1.076587312412854e-7,5.3154204646569716e-8,1.7247411449307077e-7,0
43119,3.646811370503654e-8,5.108535732077112e-9,5.686216822289737e-8,1.1076052042498346e-7,5.1396593571551866e-8,1.0777722094863479e-7,5.3118813970560034e-8,1.724049698877181e-7,0
43120,3.642123739367478e-8,5.123727176908898e-9,5.7093650460524385e-8,1.107552086052599e-7,5.233145573541404e-8,1.0789571065598417e-7,5.308342329455035e-8,1.7233582528236538e-7,0
43121,3.637436108231301e-8,5.138918621740684e-9,5.73251326981514e-8,1.1074989678553635e-7,5.326631789927621e-8,1.0801420036333357e-7,5.304803261854067e-8,1.722666806770127e-7,0
43122,3.632748477095125e-8,5.154110066572471e-9,5.7556614935778415e-8,1.107445849658128e-7,5.420118006313838e-8,1.0813269007068295e-7,5.301264194253099e-8,1.7219753607166002e-7,0
43123,3.628060845958949e-8,5.169301511404257e-9,5.778809717340543e-8,1.1073927314608925e-7,5.5136042227000553e-8,1.0825117977803234e-7,5.297725126652131e-8,1.7212839146630731e-7,0
43124,3.623373214822772e-8,5.184492956236043e-9,5.8019579411032446e-8,1.1073396132636571e-7,5.607090439086273e-8,1.0836966948538172e-7,5.294186059051162e-8,1.7205924686095463e-7,0
43125,3.618685583686596e-8,5.1996844010678295e-9,5.825106164865946e-8,1.1072864950664215e-7,5.70057665547249e-8,1.0848815919273112e-7,5.290646991450194e-8,1.7199010225560195e-7,0
43126,3.61399795255042e-8,5.214875845899615e-9,5.848254388628647e-8,1.107233376869186e-7,5.794062871858707e-8,1.086066489000805e-7,5.287107923849226e-8,1.7192095765024924e-7,0
43127,3.609310321414243e-8,5.230067290731402e-9,5.871402612391349e-8,1.1071802586719506e-7,5.887549088244924e-8,1.0872513860742988e-7,5.2835688562482576e-8,1.7185181304489656e-7,0
43128,3.604622690278067e-8,5.245258735563188e-9,5.89455083615405e-8,1.107127140474715e-7,5.981035304631141e-8,1.0884362831477927e-7,5.2800297886472894e-8,1.7178266843954388e-7,0
43129,3.599935059141891e-8,5.260450180394974e-9,5.9176990599167514e-8,1.1070740222774796e-7,6.074521521017359e-8,1.0896211802212865e-7,5.276490721046321e-8,1.7171352383419118e-7,0
43130,3.595247428005714e-8,5.275641625226761e-9,5.940847283679453e-8,1.107020904080244e-7,6.168007737403576e-8,1.0908060772947805e-7,5.272951653445353e-8,1.716443792288385e-7,0
43131,3.590559796869538e-8,5.2908330700585464e-9,5.963995507442155e-8,1.1069677858830085e-7,6.261493953789792e-8,1.0919909743682743e-7,5.269412585844385e-8,1.715752346234858e-7,0
43132,3.5858721657333616e-8,5.306024514890333e-9,5.987143731204856e-8,1.106914667685773e-7,6.35498017017601e-8,1.0931758714417682e-7,5.265873518243417e-8,1.715060900181331e-7,0
43133,3.581184534597185e-8,5.3212159597221196e-9,6.010291954967558e-8,1.1068615494885375e-7,6.448466386562227e-8,1.094360768515262e-7,5.2623344506424487e-8,1.7143694541278042e-7,0
43134,3.5670748883888444e-8,5.337086878835043e-9,6.033118175476828e-8,1.1016448977035294e-7,6.528590987390619e-8,1.0955682448350346e-7,5.241328628855315e-8,1.713148960932964e-7,0
43135,3.566063094218965e-8,5.304031862310036e-9,6.043908732990526e-8,1.0988731218160346e-7,6.621518598227896e-8,1.0966748552107507e-7,5.2218627134262606e-8,1.7112562850624318e-7,0
43136,3.58884052740872e-8,5.263948531881016e-9,6.04497804799655e-8,1.0961379834873422e-7,6.631014871983196e-8,1.1004394212208196e-7,5.2048427652306364e-8,1.7195854228954833e-7,0
43137,3.5912167486831863e-8,5.223865201451996e-9,6.033349243930185e-8,1.0932749337988926e-7,6.630216856707323e-8,1.1062688576087061e-7,5.185757149374963e-8,1.716726696368497e-7,0
43138,3.593592969957652e-8,5.183781871022976e-9,6.02172043986382e-8,1.090411884110443e-7,6.629418841431448e-8,1.1120982939965925e-7,5.16667153351929e-8,1.7138679698415112e-7,0
43139,3.595969191232118e-8,5.143698540593956e-9,6.010091635797456e-8,1.0875488344219932e-7,6.628620826155576e-8,1.117927730384479e-7,5.147585917663617e-8,1.711009243314525e-7,0
43140,3.5983454125065835e-8,5.103615210164936e-9,5.998462831731092e-8,1.0846857847335435e-7,6.627822810879701e-8,1.1237571667723654e-7,5.1285003018079445e-8,1.7081505167875388e-7,0
43141,3.600721633781049e-8,5.063531879735916e-9,5.986834027664728e-8,1.0818227350450937e-7,6.627024795603829e-8,1.129586603160252e-7,5.1094146859522714e-8,1.7052917902605525e-7,0
43142,3.603097855055515e-8,5.023448549306896e-9,5.975205223598363e-8,1.0789596853566441e-7,6.626226780327954e-8,1.1354160395481384e-7,5.090329070096598e-8,1.7024330637335666e-7,0
43143,3.6054740763299814e-8,4.983365218877876e-9,5.963576419531998e-8,1.0760966356681944e-7,6.625428765052081e-8,1.1412454759360249e-7,5.071243454240925e-8,1.6995743372065804e-7,0
43144,3.607850297604447e-8,4.943281888448856e-9,5.951947615465634e-8,1.0732335859797447e-7,6.624630749776207e-8,1.1470749123239113e-7,5.052157838385252e-8,1.6967156106795942e-7,0
43145,3.610226518878913e-8,4.903198558019836e-9,5.9403188113992694e-8,1.070370536291295e-7,6.623832734500334e-8,1.1529043487117977e-7,5.033072222529579e-8,1.6938568841526083e-7,0
43146,3.6126027401533786e-8,4.863115227590816e-9,5.928690007332905e-8,1.0675074866028452e-7,6.62303471922446e-8,1.1587337850996842e-7,5.013986606673906e-8,1.690998157625622e-7,0
43147,3.614978961427844e-8,4.823031897161796e-9,5.9170612032665405e-8,1.0646444369143956e-7,6.622236703948587e-8,1.1645632214875706e-7,4.9949009908182326e-8,1.6881394310986358e-07,0
43148,3.61735518270231e-8,4.782948566732776e-9,5.9054323992001764e-8,1.0617813872259459e-7,6.621438688672713e-8,1.170392657875457e-7,4.9758153749625595e-8,1.6852807045716496e-7,0
43149,3.6348484255119486e-8,4.741458157589835e-9,5.8834435365879997e-8,1.0617813872259459e-7,6.611563346086987e-8,1.1858535259080469e-7,4.975836157414146e-8,1.6852247586235141e-7,0
43150,3.643947944776291e-8,4.739419734746422e-9,5.901009209327918e-8,1.0618245303608372e-7,6.60426659518409e-8,1.180794735619059e-7,4.9980639153361373e-8,1.6914490798533413e-7,0
43151,3.654441763347289e-8,4.739602815798884e-9,5.9250368098639914e-8,1.0612998341595119e-7,6.611648120742068e-8,1.1783638956569252e-7,5.029674467883138e-8,1.6993683297405877e-7,0
43152,3.664935581918287e-8,4.7397858968513454e-9,5.9490644104000656e-8,1.0607751379581865e-7,6.619029646300047e-8,1.1759330556947914e-7,5.06128502043014e-8,1.7072875796278337e-7,0
43153,3.675429400489285e-8,4.739968977903807e-9,5.97309201093614e-8,1.0602504417568611e-7,6.626411171858025e-8,1.1735022157326577e-7,5.092895572977141e-8,1.71520682951508e-7,0
43154,3.6859232190602835e-8,4.7401520589562686e-9,5.997119611472214e-8,1.0597257455555358e-7,6.633792697416004e-8,1.1710713757705239e-7,5.1245061255241424e-8,1.723126079402326e-7,0
43155,3.696417037631282e-8,4.740335140008729e-9,6.021147212008288e-8,1.0592010493542104e-7,6.641174222973982e-8,1.1686405358083903e-7,5.156116678071144e-8,1.7310453292895724e-7,0
43156,3.697842770395961e-8,4.73666314702435e-9,6.025212458875134e-8,1.0599220039169037e-7,6.66590741989247e-8,1.1664450497157213e-7,5.1665239948315866e-8,1.7306528839422116e-7,0
43157,3.699268503160641e-8,4.7329911540399705e-9,6.02927770574198e-8,1.0606429584795971e-7,6.690640616810956e-8,1.1642495636230524e-7,5.176931311592029e-8,1.7302604385948507e-7,0
43158,3.70069423592532e-8,4.729319161055591e-9,6.033342952608827e-8,1.0613639130422904e-7,6.715373813729444e-8,1.1620540775303834e-7,5.187338628352472e-8,1.72986799324749e-7,0
43159,3.70211996869e-8,4.725647168071212e-9,6.037408199475672e-8,1.0620848676049838e-7,6.74010701064793e-8,1.1598585914377146e-7,5.1977459451129146e-8,1.729475547900129e-7,0
43160,3.703545701454679e-8,4.721975175086833e-9,6.041473446342519e-8,1.0628058221676772e-7,6.764840207566418e-8,1.1576631053450457e-7,5.208153261873357e-8,1.7290831025527682e-7,0
43161,3.704971434219359e-8,4.718303182102454e-9,6.045538693209364e-8,1.0635267767303706e-7,6.789573404484905e-8,1.1554676192523768e-7,5.2185605786338005e-8,1.7286906572054076e-7,0
43162,3.706397166984038e-8,4.7146311891180745e-9,6.049603940076211e-8,1.064247731293064e-7,6.814306601403392e-8,1.153272133159708e-7,5.228967895394243e-8,1.7282982118580468e-7,0
43163,3.707822899748718e-8,4.710959196133695e-9,6.053669186943056e-8,1.0649686858557573e-7,6.839039798321879e-8,1.151076647067039e-7,5.239375212154686e-8,1.727905766510686e-7,0
43164,3.709248632513397e-8,4.707287203149316e-9,6.057734433809903e-8,1.0656896404184506e-7,6.863772995240367e-8,1.14888116097437e-7,5.2497825289151285e-8,1.727513321163325e-7,0
43165,3.710674365278077e-8,4.703615210164936e-9,6.06179968067675e-8,1.066410594981144e-7,6.888506192158854e-8,1.1466856748817012e-7,5.260189845675571e-8,1.7271208758159642e-7,0
43166,3.712100098042756e-8,4.699943217180557e-9,6.065864927543595e-8,1.0671315495438373e-7,6.913239389077341e-8,1.1444901887890323e-7,5.270597162436014e-8,1.7267284304686034e-7,0
43167,3.713525830807436e-8,4.696271224196178e-9,6.069930174410441e-8,1.0678525041065308e-7,6.937972585995828e-8,1.1422947026963634e-7,5.281004479196457e-8,1.7263359851212428e-7,0
43168,3.714951563572115e-8,4.692599231211798e-9,6.073995421277287e-8,1.0685734586692242e-7,6.962705782914315e-8,1.1400992166036946e-7,5.2914117959569e-8,1.725943539773882e-7,0
43169,3.71759144934065e-8,4.686476883015968e-9,6.074720799569991e-8,1.0688043833429969e-7,6.986586121261886e-8,1.1389097781272746e-7,5.289308725028167e-8,1.7271639937444168e-7,0
43170,3.718591813162157e-8,4.661994569898242e-9,6.076799779059023e-8,1.0696323531276785e-7,7.010047492587325e-8,1.1319328110894517e-7,5.299942558936512e-8,1.728450196009884e-7,0
43171,3.715218085653277e-8,4.653106194426216e-9,6.074324392310587e-8,1.06530514731672e-7,6.978920391820342e-8,1.1267940600607781e-7,5.2462268559295765e-8,1.7274970360033973e-7,0
43172,3.7118443581443974e-8,4.6442178189541895e-9,6.071849005562152e-8,1.0609779415057613e-7,6.947793291053358e-8,1.1216553090321046e-7,5.192511152922641e-8,1.7265438759969105e-7,0
43173,3.718596615245958e-8,4.636054688026417e-9,6.064364224914113e-8,1.0605076153357291e-7,6.891932993367888e-8,1.1224131907061363e-7,5.128639586672982e-8,1.7368172523003632e-7,0
43174,3.777125426012605e-8,4.6271663125543906e-9,6.080142384332235e-8,1.0547846202089311e-7,6.836192390257542e-8,1.1165837543182498e-7,5.0642900497577025e-08,1.767026175353979e-7,0
43175,3.835654236779252e-8,4.618277937082365e-9,6.095920543750358e-8,1.0490616250821331e-7,6.780451787147196e-8,1.1107543179303634e-7,4.999940512842423e-8,1.7972350984075952e-7,0
43176,3.8941830475459e-8,4.609389561610339e-9,6.11169870316848e-8,1.0433386299553351e-7,6.72471118403685e-8,1.104924881542477e-7,4.935590975927143e-8,1.827444021461211e-7,0
43177,3.952711858312547e-8,4.600501186138313e-9,6.127476862586602e-8,1.037615634828537e-7,6.668970580926504e-8,1.0990954451545905e-7,4.871241439011863e-8,1.8576529445148273e-7,0
43178,4.011240669079195e-8,4.591612810666287e-9,6.143255022004725e-8,1.031892639701739e-7,6.613229977816158e-8,1.0932660087667041e-7,4.8068919020965835e-8,1.8878618675684431e-7,0
43179,4.069769479845842e-8,4.582724435194261e-9,6.159033181422847e-8,1.026169644574941e-7,6.557489374705812e-8,1.0874365723788176e-7,4.742542365181304e-8,1.9180707906220593e-7,0
43180,4.12829829061249e-8,4.573836059722235e-9,6.174811340840969e-8,1.020446649448143e-7,6.501748771595466e-8,1.081607135990931e-7,4.678192828266024e-8,1.9482797136756754e-7,0
43181,4.186827101379137e-8,4.5649476842502095e-9,6.190589500259092e-8,1.0147236543213449e-7,6.44600816848512e-8,1.0757776996030446e-7,4.613843291350744e-8,1.9784886367292913e-7,0
43182,4.245355912145784e-8,4.556059308778183e-9,6.206367659677213e-8,1.0090006591945468e-7,6.390267565374774e-8,1.0699482632151582e-7,4.5494937544354645e-8,2.0086975597829074e-7,0
43183,4.303884722912432e-8,4.547170933306158e-9,6.222145819095335e-8,1.0032776640677489e-7,6.334526962264428e-8,1.0641188268272717e-7,4.485144217520185e-8,2.0389064828365233e-7,0
43184,4.362413533679079e-8,4.538282557834131e-9,6.237923978513457e-8,9.975546689409508e-8,6.278786359154082e-8,1.0582893904393853e-7,4.420794680604905e-8,2.0691154058901395e-7,0
43185,4.420942344445727e-8,4.529394182362106e-9,6.25370213793158e-8,9.918316738141528e-8,6.223045756043736e-8,1.0524599540514988e-7,4.356445143689625e-8,2.0993243289437553e-7,0
43186,4.479471155212374e-8,4.5205058068900795e-9,6.269480297349702e-8,9.861086786873547e-8,6.167305152933392e-8,1.0466305176636124e-7,4.2920956067743455e-8,2.1295332519973715e-7,0
43187,4.5379999659790216e-8,4.511617431418054e-9,6.285258456767824e-8,9.803856835605568e-8,6.111564549823046e-8,1.040801081275726e-7,4.227746069859066e-8,2.1597421750509876e-7,0
43188,4.596528776745669e-8,4.502729055946028e-9,6.301036616185947e-8,9.746626884337587e-8,6.0558239467127e-8,1.0349716448878395e-7,4.163396532943786e-8,2.1899510981046035e-7,0
43189,4.655057587512316e-8,4.493840680474002e-9,6.316814775604069e-8,9.689396933069606e-8,6.000083343602354e-8,1.0291422084999531e-7,4.099046996028506e-8,2.2201600211582196e-7,0
43190,4.7135863982789636e-8,4.484952305001976e-9,6.332592935022191e-8,9.632166981801626e-8,5.944342740492007e-8,1.0233127721120666e-7,4.0346974591132266e-8,2.2503689442118355e-7,0
43191,4.772115209045611e-8,4.47606392952995e-9,6.348371094440314e-8,9.574937030533646e-8,5.8886021373816616e-8,1.01748333572418e-7,3.970347922197947e-8,2.2805778672654517e-7,0
43192,4.835043829426483e-8,4.446367593813108e-9,6.365919347730557e-8,9.549747137955515e-8,5.800901446866703e-8,1.0174697115154018e-7,3.966513756644886e-8,2.3129604042960894e-7,0
43193,4.838212988679863e-8,4.4473193297844066e-9,6.35487592976832e-8,9.667328680463537e-8,5.910063497389923e-8,1.016851831546663e-7,3.963496298999741e-8,2.3140372754465615e-7,0
43194,4.833107913196224e-8,4.422610525239634e-9,6.350114135116176e-8,9.649937377122179e-8,5.885888895732034e-8,1.018468413190897e-7,3.95027933882167e-8,2.3171340967217216e-7,0
43195,4.828002837712585e-8,4.397901720694862e-9,6.34535234046403e-8,9.632546073780822e-8,5.8617142940741447e-8,1.0200849948351311e-7,3.9370623786436e-8,2.320230917996882e-7,0
43196,4.822897762228946e-8,4.373192916150089e-9,6.340590545811885e-8,9.615154770439463e-8,5.8375396924162555e-8,1.021701576479365e-7,3.9238454184655296e-8,2.3233277392720424e-7,0
43197,4.817792686745307e-8,4.348484111605317e-9,6.335828751159739e-8,9.597763467098106e-8,5.813365090758366e-8,1.023318158123599e-7,3.910628458287459e-8,2.3264245605472027e-7,0
43198,4.812687611261668e-8,4.323775307060545e-9,6.331066956507594e-8,9.580372163756748e-8,5.7891904891004766e-8,1.024934739767833e-7,3.897411498109388e-8,2.3295213818223628e-7,0
43199,4.80758253577803e-8,4.299066502515772e-9,6.326305161855448e-8,9.562980860415391e-8,5.7650158874425874e-8,1.0265513214120671e-7,3.8841945379313176e-8,2.3326182030975232e-7,0
43200,4.802477460294391e-8,4.274357697971e-9,6.321543367203303e-8,9.545589557074032e-8,5.740841285784698e-8,1.028167903056301e-7,3.870977577753247e-8,2.3357150243726836e-7,0
43201,4.797372384810752e-8,4.2496488934262275e-9,6.316781572551157e-8,9.528198253732675e-8,5.716666684126809e-8,1.029784484700535e-7,3.857760617575176e-8,2.338811845647844e-7,0
43202,4.792267309327113e-8,4.224940088881455e-9,6.312019777899013e-8,9.510806950391317e-8,5.69249208246892e-8,1.0314010663447691e-7,3.8445436573971056e-8,2.341908666923004e-7,0
43203,4.787162233843474e-8,4.200231284336683e-9,6.307257983246867e-8,9.49341564704996e-8,5.668317480811031e-8,1.0330176479890031e-7,3.831326697219035e-8,2.3450054881981645e-7,0
43204,4.782057158359835e-8,4.17552247979191e-9,6.302496188594722e-8,9.476024343708601e-8,5.644142879153142e-8,1.034634229633237e-7,3.818109737040964e-8,2.3481023094733248e-7,0
43205,4.776952082876196e-8,4.150813675247138e-9,6.297734393942576e-8,9.458633040367244e-8,5.6199682774952526e-8,1.036250811277471e-7,3.8048927768628936e-8,2.351199130748485e-7,0
43206,4.78143228816978e-8,4.150587183820093e-9,6.297734393942576e-8,9.455101947517654e-8,5.620372258260682e-8,1.0349456720318304e-7,3.804524946760464e-8,2.3566646329719887e-7,0
43207,4.776327212686141e-8,4.12587837927532e-9,6.291480712484317e-8,9.433019306664782e-8,5.616486951929789e-8,1.0351374613301796e-7,3.794531178923854e-8,2.3511310201215404e-7,0
43208,4.771222137202502e-8,4.101169574730547e-9,6.285227031026057e-8,9.410936665811909e-8,5.612601645598896e-8,1.0353292506285287e-7,3.784537411087245e-8,2.3455974072710922e-7,0
43209,4.766117061718863e-8,4.076460770185775e-9,6.278973349567798e-8,9.388854024959037e-8,5.6087163392680034e-8,1.035521039926878e-7,3.774543643250635e-8,2.340063794420644e-7,0
43210,4.761011986235224e-8,4.051751965641003e-9,6.272719668109538e-8,9.366771384106164e-8,5.6048310329371104e-8,1.0357128292252272e-7,3.764549875414025e-8,2.3345301815701956e-7,0
43211,4.755906910751585e-8,4.027043161096231e-9,6.266465986651279e-8,9.34468874325329e-8,5.600945726606217e-8,1.0359046185235763e-7,3.754556107577415e-8,2.3289965687197473e-7,0
43212,4.750801835267946e-8,4.002334356551458e-9,6.26021230519302e-8,9.322606102400419e-8,5.597060420275324e-8,1.0360964078219255e-7,3.744562339740805e-8,2.3234629558692993e-7,0
43213,4.745696759784307e-8,3.9776255520066854e-9,6.25395862373476e-8,9.300523461547545e-8,5.593175113944432e-8,1.0362881971202748e-7,3.734568571904196e-8,2.317929343018851e-7,0
43214,4.736770640242257e-8,3.9552297918840175e-9,6.256653597146468e-8,9.292398713853066e-8,5.5961127379109195e-8,1.0406605727409672e-7,3.724959260131284e-8,2.3074421228762313e-7,0
43215,4.727844520700207e-8,3.93283403176135e-9,6.259348570558178e-8,9.284273966158587e-8,5.599050361877407e-8,1.0450329483616597e-7,3.715349948358372e-8,2.2969549027336117e-7,0
43216,4.714914088285035e-8,3.909168503714107e-9,6.253407258606762e-8,9.293654858726301e-8,5.59664136065811e-8,1.0458661692519845e-7,3.7806554266048945e-8,2.2932505130451544e-7,0
43217,4.701983655869863e-8,3.885502975666864e-9,6.247465946655348e-8,9.303035751294016e-8,5.5942323594388125e-8,1.0466993901423095e-7,3.845960904851416e-8,2.2895461233566968e-7,0
43218,4.689053223454692e-8,3.861837447619621e-9,6.241524634703934e-8,9.31241664386173e-8,5.5918233582195156e-8,1.0475326110326343e-7,3.911266383097938e-8,2.2858417336682395e-7,0
43219,4.67612279103952e-8,3.8381719195723775e-9,6.23558332275252e-8,9.321797536429444e-8,5.5894143570002186e-8,1.0483658319229592e-7,3.9765718613444596e-8,2.2821373439797821e-7,0
43220,4.663192358624348e-8,3.814506391525135e-9,6.229642010801105e-8,9.33117842899716e-8,5.587005355780921e-8,1.049199052813284e-7,4.0418773395909814e-8,2.2784329542913246e-7,0
43221,4.6502619262091764e-8,3.790840863477892e-9,6.223700698849691e-8,9.340559321564874e-8,5.584596354561624e-8,1.0500322737036089e-7,4.107182817837503e-8,2.2747285646028672e-7,0
43222,4.637331493794005e-8,3.767175335430648e-9,6.217759386898277e-8,9.349940214132588e-8,5.582187353342327e-8,1.0508654945939337e-7,4.172488296084025e-8,2.2710241749144097e-7,0
43223,4.6244010613788334e-8,3.7435098073834054e-9,6.211818074946863e-8,9.359321106700303e-8,5.5797783521230295e-8,1.0516987154842586e-7,4.2377937743305465e-8,2.2673197852259524e-7,0
43224,4.6114706289636615e-8,3.7198442793361626e-9,6.205876762995449e-8,9.368701999268017e-8,5.5773693509037326e-8,1.0525319363745834e-7,4.303099252577069e-8,2.263615395537495e-7,0
43225,4.59854019654849e-8,3.6961787512889194e-9,6.199935451044034e-8,9.378082891835731e-8,5.5749603496844356e-8,1.0533651572649083e-7,4.3684047308235906e-8,2.2599110058490375e-7,0
43226,4.5856097641333185e-8,3.6725132232416766e-9,6.193994139092619e-8,9.387463784403446e-8,5.572551348465138e-8,1.0541983781552331e-7,4.433710209070112e-8,2.2562066161605801e-7,0
43227,4.584253909790011e-8,3.6732842380490447e-9,6.194374762748785e-8,9.416578250057164e-8,5.571952824147805e-8,1.0566075311275803e-7,4.509009455153244e-8,2.2619155577975144e-7,0
43228,4.582898055446704e-8,3.674055252856413e-9,6.194755386404951e-8,9.445692715710883e-8,5.571354299830472e-8,1.0590166840999274e-7,4.5843087012363756e-8,2.267624499434449e-7,0
43229,4.5862212594782934e-8,3.677864556630138e-9,6.200372029136218e-8,9.464976816839631e-8,5.627454089549614e-8,1.0588273809795117e-7,4.584504045992941e-8,2.265749293683677e-7,0
43230,4.582099402293603e-8,3.680994386122726e-9,6.196084458907028e-8,9.48634316272007e-8,5.68415240358609e-8,1.0577192091549346e-7,4.578371462182496e-8,2.26369581603748e-7,0
43231,4.583016247923842e-8,3.692422297443902e-9,6.224168561218935e-8,9.531922201559976e-8,5.6894990287718746e-8,1.0565097729059407e-7,4.586434641864152e-8,2.2629810019433257e-7,0
43232,4.5839330935540807e-8,3.7038502087650786e-9,6.25225266353084e-8,9.577501240399884e-8,5.69484565395766e-8,1.055300336656947e-7,4.5944978215458075e-8,2.262266187849171e-7,0
43233,4.58484993918432e-8,3.7152781200862546e-9,6.280336765842747e-8,9.62308027923979e-8,5.700192279143445e-8,1.0540909004079531e-7,4.602561001227463e-8,2.2615513737550164e-7,0
43234,4.585766784814559e-8,3.726706031407431e-9,6.308420868154653e-8,9.668659318079698e-8,5.7055389043292296e-8,1.0528814641589593e-7,4.610624180909119e-8,2.260836559660862e-7,0
43235,4.586683630444797e-8,3.7381339427286074e-9,6.33650497046656e-8,9.714238356919604e-8,5.710885529515015e-8,1.0516720279099655e-7,4.618687360590774e-8,2.2601217455667074e-7,0
43236,4.587600476075036e-8,3.7495618540497834e-9,6.364589072778466e-8,9.759817395759512e-8,5.7162321547007993e-8,1.0504625916609717e-7,4.6267505402724295e-8,2.259406931472553e-7,0
43237,4.5885173217052744e-8,3.7609897653709594e-9,6.392673175090372e-8,9.805396434599419e-8,5.7215787798865846e-8,1.0492531554119778e-7,4.634813719954085e-8,2.2586921173783983e-7,0
43238,4.5894341673355135e-8,3.7724176766921354e-9,6.420757277402278e-8,9.850975473439326e-8,5.72692540507237e-8,1.048043719162984e-7,4.642876899635741e-8,2.257977303284244e-7,0
43239,4.5903510129657525e-8,3.783845588013312e-9,6.448841379714185e-8,9.896554512279233e-8,5.732272030258154e-8,1.0468342829139902e-7,4.6509400793173965e-8,2.2572624891900893e-7,0
43240,4.591267858595991e-8,3.795273499334488e-9,6.476925482026091e-8,9.94213355111914e-8,5.7376186554439395e-8,1.0456248466649963e-7,4.6590032589990515e-8,2.2565476750959346e-7,0
43241,4.59218470422623e-8,3.806701410655664e-9,6.505009584337998e-8,9.987712589959047e-8,5.742965280629725e-8,1.0444154104160026e-7,4.667066438680707e-8,2.2558328610017803e-7,0
43242,4.593101549856469e-8,3.81812932197684e-9,6.533093686649903e-8,1.0033291628798954e-7,5.748311905815509e-8,1.0432059741670087e-7,4.675129618362363e-8,2.2551180469076256e-7,0
43243,4.594018395486707e-8,3.829557233298017e-9,6.56117778896181e-8,1.0078870667638861e-7,5.7536585310012945e-8,1.0419965379180148e-7,4.6831927980440185e-8,2.2544032328134712e-7,0
43244,4.594935241116946e-8,3.840985144619193e-9,6.589261891273716e-8,1.0124449706478769e-7,5.759005156187079e-8,1.040787101669021e-7,4.691255977725674e-8,2.2536884187193166e-7,0
43245,4.595852086747185e-8,3.852413055940369e-9,6.617345993585623e-8,1.0170028745318675e-7,5.764351781372864e-8,1.0395776654200272e-7,4.69931915740733e-8,2.2529736046251622e-7,0
43246,4.5967689323774237e-8,3.863840967261545e-9,6.645430095897528e-8,1.0215607784158583e-7,5.7696984065586494e-8,1.0383682291710333e-7,4.707382337088985e-8,2.2522587905310075e-7,0
43247,4.597685778007663e-8,3.875268878582721e-9,6.673514198209435e-8,1.026118682299849e-7,5.775045031744434e-8,1.0371587929220395e-7,4.7154455167706405e-8,2.251543976436853e-7,0
43248,4.598602623637901e-8,3.886696789903898e-9,6.701598300521341e-8,1.0306765861838397e-7,5.780391656930219e-8,1.0359493566730457e-7,4.723508696452296e-8,2.2508291623426985e-7,0
43249,4.607317163419127e-8,3.898804175506211e-9,6.737141836863817e-8,1.0332442385294339e-7,5.785244517558803e-8,1.0173487024116335e-7,4.696087672661919e-8,2.2502620082100834e-7,0
43250,4.60790995198559e-8,3.896763392774268e-9,6.783938814817572e-8,1.0331562076139938e-7,5.824027596990851e-8,1.0170077657789489e-7,4.698909785550498e-8,2.25395710958305e-7,0
43251,4.60798905133381e-8,3.896763392774268e-9,6.788004061684417e-8,1.0363547331402072e-7,5.82479069234668e-8,1.0166998295831329e-7,4.711835801694708e-8,2.254748887036945e-7,0
43252,4.6080681506820306e-8,3.896763392774268e-9,6.792069308551264e-8,1.0395532586664206e-7,5.82555378770251e-8,1.0163918933873169e-7,4.724761817838918e-8,2.2555406644908401e-7,0
43253,4.608147250030252e-8,3.896763392774268e-9,6.79613455541811e-8,1.0427517841926339e-7,5.826316883058339e-8,1.0160839571915009e-7,4.7376878339831275e-8,2.256332441944735e-7,0
43254,4.608226349378472e-8,3.896763392774268e-9,6.800199802284956e-8,1.0459503097188472e-7,5.827079978414168e-8,1.015776020995685e-7,4.750613850127337e-8,2.2571242193986302e-7,0
43255,4.6083054487266927e-8,3.896763392774268e-9,6.804265049151802e-8,1.0491488352450606e-7,5.827843073769998e-8,1.015468084799869e-7,4.7635398662715465e-8,2.2579159968525253e-7,0
43256,4.608384548074914e-8,3.896763392774268e-9,6.808330296018648e-8,1.0523473607712739e-7,5.8286061691258274e-8,1.0151601486040531e-7,4.776465882415756e-8,2.2587077743064202e-7,0
43257,4.608463647423134e-8,3.896763392774268e-9,6.812395542885494e-8,1.0555458862974873e-7,5.829369264481656e-8,1.0148522124082372e-7,4.789391898559966e-8,2.2594995517603153e-7,0
43258,4.608542746771355e-8,3.896763392774268e-9,6.81646078975234e-8,1.0587444118237007e-7,5.830132359837486e-8,1.0145442762124212e-7,4.8023179147041757e-8,2.2602913292142104e-7,0
43259,4.608621846119576e-8,3.896763392774268e-9,6.820526036619186e-8,1.061942937349914e-7,5.8308954551933155e-8,1.0142363400166052e-7,4.815243930848385e-8,2.2610831066681053e-7,0
43260,4.608700945467796e-8,3.896763392774268e-9,6.824591283486033e-8,1.0651414628761273e-7,5.831658550549145e-8,1.0139284038207892e-7,4.8281699469925947e-8,2.2618748841220004e-7,0
43261,4.608780044816017e-8,3.896763392774268e-9,6.828656530352878e-8,1.0683399884023406e-7,5.832421645904974e-8,1.0136204676249732e-7,4.841095963136805e-8,2.2626666615758953e-7,0
43262,4.6088826530265515e-8,3.892727597573497e-9,6.779110260397834e-8,1.0642150339121802e-7,5.822087510123804e-8,1.0079118321305264e-7,4.854136276334523e-8,2.2624661047450856e-7,0
43263,4.609788981398803e-8,3.8857884643071835e-9,6.79387164608837e-8,1.0632846030402598e-7,5.7576436805507096e-8,1.0066604555824685e-7,4.8578166594621046e-8,2.2608707147712553e-7,0
43264,4.610695309771055e-8,3.87884933104087e-9,6.808633031778906e-8,1.0623541721683395e-7,5.6931998509776154e-8,1.0054090790344106e-7,4.861497042589686e-8,2.259275324797425e-7,0
43265,4.6116016381433064e-8,3.871910197774557e-9,6.823394417469443e-8,1.0614237412964192e-7,5.628756021404521e-8,1.0041577024863526e-7,4.8651774257172674e-8,2.2576799348235947e-7,0
43266,4.6125079665155584e-8,3.8649710645082434e-9,6.838155803159979e-8,1.060493310424499e-7,5.564312191831427e-8,1.0029063259382946e-7,4.868857808844849e-8,2.2560845448497644e-7,0
43267,4.6134142948878105e-8,3.85803193124193e-9,6.852917188850515e-8,1.0595628795525787e-7,5.499868362258333e-8,1.0016549493902368e-7,4.87253819197243e-8,2.254489154875934e-7,0
43268,4.614320623260062e-8,3.851092797975617e-9,6.867678574541051e-8,1.0586324486806583e-7,5.4354245326852386e-8,1.0004035728421788e-7,4.8762185751000117e-8,2.2528937649021035e-7,0
43269,4.615226951632314e-8,3.844153664709303e-9,6.882439960231588e-8,1.057702017808738e-7,5.3709807031121444e-8,9.991521962941208e-8,4.879898958227593e-8,2.2512983749282732e-7,0
43270,4.616133280004565e-8,3.83721453144299e-9,6.897201345922124e-8,1.0567715869368178e-7,5.30653687353905e-8,9.97900819746063e-8,4.883579341355175e-8,2.249702984954443e-7,0
43271,4.6170396083768173e-8,3.830275398176677e-9,6.91196273161266e-8,1.0558411560648975e-7,5.242093043965956e-8,9.96649443198005e-8,4.8872597244827565e-8,2.2481075949806126e-7,0
43272,4.6172597608989207e-8,3.825242096741491e-9,6.924339665354835e-8,1.0535827702620897e-7,5.1772950986508106e-8,9.998912583393841e-8,4.886118825762613e-8,2.2456966906751858e-7,0
43273,4.622167544557201e-8,3.8361207649052835e-9,6.968315754732752e-8,1.0514328583110098e-7,5.126502159385854e-8,9.991043913826977e-8,4.885289648383746e-8,2.243325831813367e-7,0
43274,4.62707532821548e-8,3.846999433069076e-9,7.012291844110668e-8,1.0492829463599299e-7,5.075709220120896e-8,9.983175244260112e-8,4.8844604710048785e-8,2.2409549729515485e-7,0
43275,4.6319831118737604e-8,3.857878101232867e-9,7.056267933488585e-8,1.0471330344088498e-7,5.0249162808559395e-8,9.975306574693248e-8,4.8836312936260114e-8,2.2385841140897297e-7,0
43276,4.6368908955320406e-8,3.868756769396659e-9,7.100244022866501e-8,1.0449831224577699e-7,4.974123341590982e-8,9.967437905126383e-8,4.882802116247144e-8,2.236213255227911e-7,0
43277,4.64179867919032e-8,3.879635437560451e-9,7.144220112244418e-8,1.0428332105066899e-7,4.923330402326025e-8,9.959569235559519e-8,4.8819729388682766e-8,2.2338423963660924e-7,0
43278,4.6467064628486e-8,3.890514105724243e-9,7.188196201622334e-8,1.04068329855561e-7,4.8725374630610684e-8,9.951700565992654e-8,4.8811437614894095e-8,2.2314715375042736e-7,0
43279,4.65161424650688e-8,3.9013927738880355e-9,7.232172291000252e-8,1.03853338660453e-7,4.821744523796111e-8,9.94383189642579e-8,4.8803145841105424e-8,2.2291006786424548e-7,0
43280,4.65652203016516e-8,3.912271442051827e-9,7.276148380378169e-8,1.03638347465345e-7,4.770951584531154e-8,9.935963226858925e-8,4.8794854067316747e-8,2.2267298197806363e-7,0
43281,4.66142981382344e-8,3.923150110215619e-9,7.320124469756085e-8,1.0342335627023701e-7,4.7201586452661966e-8,9.92809455729206e-8,4.8786562293528076e-8,2.2243589609188175e-7,0
43282,4.66633759748172e-8,3.934028778379411e-9,7.364100559134002e-8,1.0320836507512901e-7,4.66936570600124e-8,9.920225887725196e-8,4.8778270519739405e-8,2.221988102056999e-7,0
43283,4.6712453811399995e-8,3.944907446543203e-9,7.408076648511918e-8,1.0299337388002102e-7,4.618572766736282e-8,9.91235721815833e-8,4.876997874595073e-8,2.2196172431951802e-7,0
43284,4.6760505565877455e-8,3.963857705108538e-9,7.45399698639137e-8,1.0294002995655394e-7,4.632936887376871e-8,9.917425377140485e-8,4.8757925541331416e-8,2.219415155973443e-7,0
43285,4.680855732035491e-8,3.982807963673872e-9,7.499917324270821e-8,1.0288668603308685e-7,4.647301008017459e-8,9.922493536122638e-8,4.8745872336712105e-8,2.2192130687517055e-7,0
43286,4.679051648052266e-8,3.991922830572943e-9,7.499996030089947e-8,1.0269718646963409e-7,4.6464182180865056e-8,9.904224510501965e-8,4.871125057282982e-8,2.2194583681688324e-7,0
43287,4.683380017989164e-8,3.991922830572943e-9,7.491955582500756e-8,1.0252249967571177e-7,4.669954417812038e-8,9.889956663025098e-8,4.8739097617587066e-8,2.2201005589118706e-7,0
43288,4.695677007453001e-8,3.992195092263105e-9,7.484527644944307e-8,1.0272192502034873e-7,4.6700292462121325e-8,9.872234035192122e-8,4.877585990968057e-8,2.2206360455266728e-7,0
43289,4.707973996916838e-8,3.992467353953266e-9,7.477099707387857e-8,1.029213503649857e-7,4.6701040746122275e-8,9.854511407359147e-8,4.881262220177407e-8,2.221171532141475e-7,0
43290,4.720270986380675e-8,3.992739615643427e-9,7.469671769831408e-8,1.0312077570962266e-7,4.670178903012322e-8,9.836788779526171e-8,4.884938449386756e-8,2.2217070187562776e-7,0
43291,4.732567975844513e-8,3.993011877333588e-9,7.462243832274959e-8,1.0332020105425962e-7,4.6702537314124166e-8,9.819066151693195e-8,4.888614678596106e-8,2.2222425053710798e-7,0
43292,4.74486496530835e-8,3.993284139023749e-9,7.45481589471851e-8,1.0351962639889658e-7,4.670328559812511e-8,9.80134352386022e-8,4.8922909078054564e-8,2.222777991985882e-7,0
43293,4.757161954772187e-8,3.993556400713911e-9,7.44738795716206e-8,1.0371905174353354e-7,4.670403388212606e-8,9.783620896027244e-8,4.895967137014806e-8,2.2233134786006844e-7,0
43294,4.7694589442360246e-8,3.993828662404071e-9,7.439960019605612e-8,1.0391847708817052e-7,4.6704782166127e-8,9.76589826819427e-8,4.899643366224156e-8,2.2238489652154866e-7,0
43295,4.7817559336998616e-8,3.994100924094233e-9,7.432532082049163e-8,1.0411790243280748e-7,4.670553045012795e-8,9.748175640361293e-8,4.903319595433506e-8,2.224384451830289e-7,0
43296,4.7940529231636986e-8,3.994373185784394e-9,7.425104144492713e-8,1.0431732777744444e-7,4.670627873412889e-8,9.730453012528319e-8,4.906995824642856e-8,2.224919938445091e-7,0
43297,4.8063499126275356e-8,3.994645447474555e-9,7.417676206936264e-8,1.045167531220814e-7,4.670702701812984e-8,9.712730384695343e-8,4.9106720538522055e-8,2.2254554250598934e-7,0
43298,4.818646902091373e-8,3.994917709164716e-9,7.410248269379815e-8,1.0471617846671836e-7,4.6707775302130784e-8,9.695007756862368e-8,4.9143482830615556e-8,2.2259909116746956e-7,0
43299,4.83094389155521e-8,3.995189970854877e-9,7.402820331823365e-8,1.0491560381135534e-7,4.670852358613173e-8,9.677285129029392e-8,4.918024512270906e-8,2.226526398289498e-7,0
43300,4.843240881019047e-8,3.995462232545039e-9,7.395392394266916e-8,1.051150291559923e-7,4.6709271870132676e-8,9.659562501196416e-8,4.921700741480255e-8,2.2270618849043001e-7,0
43301,4.855537870482885e-8,3.9957344942352e-9,7.387964456710467e-8,1.0531445450062926e-7,4.6710020154133625e-8,9.641839873363441e-8,4.925376970689605e-8,2.2275973715191024e-7,0
43302,4.867834859946722e-8,3.996006755925361e-9,7.380536519154017e-8,1.0551387984526622e-7,4.6710768438134574e-8,9.624117245530465e-8,4.9290531998989553e-8,2.2281328581339047e-7,0
43303,4.880131849410559e-8,3.996279017615522e-9,7.373108581597568e-8,1.0571330518990318e-7,4.671151672213552e-8,9.60639461769749e-8,4.932729429108305e-8,2.2286683447487072e-7,0
43304,4.892428838874396e-8,3.996551279305683e-9,7.365680644041119e-8,1.0591273053454014e-7,4.6712265006136466e-8,9.588671989864514e-8,4.936405658317655e-8,2.2292038313635094e-7,0
43305,4.906732271155434e-8,3.98444389370337e-9,7.36505590502743e-8,1.0634863679796724e-7,4.6657950699077544e-8,9.581997620658861e-8,4.9435523768958675e-8,2.2300857532155756e-7,0
43306,4.919830123193895e-8,3.9847161553935306e-9,7.365573036982236e-8,1.0636926014033845e-7,4.650892308246593e-8,9.581997620658861e-8,4.948756035276089e-8,2.2301663581340978e-7,0
43307,4.9329279752323564e-8,3.984988417083692e-9,7.366090168937043e-8,1.0638988348270966e-7,4.6359895465854326e-8,9.581997620658861e-8,4.953959693656311e-8,2.2302469630526197e-7,0
43308,4.946025827270818e-8,3.985260678773853e-9,7.36660730089185e-8,1.0641050682508088e-7,4.6210867849242714e-8,9.581997620658861e-8,4.959163352036532e-8,2.230327567971142e-7,0
43309,4.9472733582294044e-8,3.98934224423774e-9,7.366539046742529e-8,1.060152499309591e-7,4.604747606054881e-8,9.588414643698704e-8,4.9692402445353143e-8,2.2318562325147234e-7,0
43310,4.948520889187991e-8,3.993423809701627e-9,7.366470792593208e-8,1.0561999303683735e-7,4.5884084271854896e-8,9.594831666738545e-8,4.979317137034097e-8,2.2333848970583048e-7,0
43311,4.971209737177861e-8,3.9943755456729246e-9,7.379617718738729e-8,1.0520403689809853e-7,4.572208897131248e-8,9.654416573277315e-8,5.006035752542152e-8,2.2334876692392958e-7,0
43312,4.9938985851677315e-8,3.995327281644223e-9,7.392764644884249e-8,1.0478808075935971e-7,4.556009367077007e-8,9.714001479816083e-8,5.032754368050208e-8,2.233590441420287e-7,0
43313,5.016587433157602e-8,3.996279017615522e-9,7.405911571029768e-8,1.0437212462062091e-7,4.539809837022765e-8,9.773586386354853e-8,5.059472983558264e-8,2.2336932136012778e-7,0
43314,5.039276281147472e-8,3.997230753586821e-9,7.419058497175289e-8,1.039561684818821e-7,4.523610306968524e-8,9.833171292893621e-8,5.08619159906632e-8,2.2337959857822689e-7,0
43315,5.0619651291373415e-8,3.998182489558119e-9,7.43220542332081e-8,1.0354021234314329e-7,4.507410776914282e-8,9.89275619943239e-8,5.112910214574375e-8,2.2338987579632597e-7,0
43316,5.084653977127212e-8,3.999134225529418e-9,7.445352349466329e-8,1.0312425620440448e-7,4.491211246860041e-8,9.95234110597116e-8,5.139628830082431e-8,2.2340015301442508e-7,0
43317,5.107342825117082e-8,4.000085961500717e-9,7.458499275611849e-8,1.0270830006566566e-7,4.4750117168057995e-8,1.0011926012509928e-7,5.1663474455904866e-8,2.2341043023252416e-7,0
43318,5.130031673106952e-8,4.0010376974720154e-9,7.47164620175737e-8,1.0229234392692686e-7,4.4588121867515584e-8,1.0071510919048697e-7,5.1930660610985426e-8,2.2342070745062327e-7,0
43319,5.1533218824245636e-8,4.001717171753153e-9,7.484888505980825e-8,1.0189651237744204e-7,4.4582286486909287e-8,1.0130813942368125e-7,5.219784676606598e-8,2.2350103574133994e-7,0
43320,5.176612091742175e-8,4.00239664603429e-9,7.498130810204278e-8,1.0150068082795724e-7,4.4576451106302995e-8,1.0190116965687553e-7,5.246503292114654e-8,2.235813640320566e-7,0
43321,5.199902301059787e-8,4.0030761203154274e-9,7.511373114427733e-8,1.0110484927847244e-7,4.45706157256967e-8,1.0249419989006982e-7,5.2732219076227095e-8,2.2366169232277326e-7,0
43322,5.228148224850691e-8,4.018580877323428e-9,7.526904492521615e-8,1.007283685577329e-7,4.4596900189875326e-8,1.025104627500155e-7,5.283207357334514e-8,2.2375279658470621e-7,0
43323,5.231713529010744e-8,4.0206216600553715e-9,7.53332351278592e-8,1.0042381080920288e-7,4.535500441361282e-8,1.0265499915152116e-7,5.2824051958566656e-8,2.238207364894696e-7,0
43324,5.2352788331707966e-8,4.022662442787315e-9,7.539742533050224e-8,1.0011925306067287e-7,4.611310863735032e-8,1.0279953555302681e-7,5.281603034378817e-8,2.23888676394233e-7,0
43325,5.238844137330849e-8,4.024703225519258e-9,7.54616155331453e-8,9.981469531214284e-8,4.687121286108781e-8,1.0294407195453246e-7,5.280800872900969e-8,2.239566162989964e-7,0
43326,5.238844137330849e-8,4.014957014490695e-9,7.533090667021418e-8,9.969859033967123e-8,4.7636548953583094e-8,1.025896464690738e-7,5.282037365754236e-8,2.237819985527118e-7,0
43327,5.238844137330849e-8,4.0052108034621325e-9,7.520019780728307e-8,9.958248536719962e-8,4.840188504607838e-8,1.0223522098361515e-7,5.283273858607503e-8,2.236073808064272e-7,0
43328,5.238844137330849e-8,3.995464592433569e-9,7.506948894435194e-8,9.946638039472801e-8,4.9167221138573664e-8,1.018807954981565e-7,5.2845103514607705e-8,2.2343276306014262e-7,0
43329,5.3047738491762417e-8,3.9836775986730634e-9,7.48807149791052e-8,9.928301569266747e-8,4.92342533929128e-8,1.0150606298541278e-7,5.2846142585745294e-8,2.232022810423003e-7,0
43330,5.3707035610216346e-8,3.971890604912558e-9,7.469194101385844e-8,9.909965099060693e-8,4.930128564725194e-8,1.0113133047266907e-7,5.2847181656882876e-8,2.22971799024458e-7,0
43331,5.4366332728670276e-8,3.960103611152051e-9,7.45031670486117e-8,9.89162862885464e-8,4.936831790159109e-8,1.0075659795992534e-7,5.2848220728020466e-8,2.227413170066157e-7,0
43332,5.5025629847124205e-8,3.948316617391545e-9,7.431439308336494e-8,9.873292158648586e-8,4.943535015593023e-8,1.0038186544718163e-7,5.284925979915805e-8,2.225108349887734e-7,0
43333,5.5684926965578135e-8,3.9365296236310386e-9,7.41256191181182e-8,9.854955688442532e-8,4.9502382410269366e-8,1.000071329344379e-7,5.285029887029564e-8,2.222803529709311e-7,0
43334,5.6344224084032064e-8,3.924742629870533e-9,7.393684515287144e-8,9.83661921823648e-8,4.9569414664608505e-8,9.963240042169418e-8,5.285133794143322e-8,2.2204987095308882e-7,0
43335,5.7003521202485994e-8,3.912955636110026e-9,7.374807118762469e-8,9.818282748030426e-8,4.963644691894765e-8,9.925766790895046e-8,5.285237701257081e-8,2.218193889352465e-7,0
43336,5.766281832093992e-8,3.90116864234952e-9,7.355929722237793e-8,9.799946277824372e-8,4.970347917328679e-8,9.888293539620674e-8,5.285341608370839e-8,2.215889069174042e-7,0
43337,5.832211543939385e-8,3.889381648589014e-9,7.337052325713119e-8,9.781609807618318e-8,4.977051142762593e-8,9.850820288346303e-8,5.285445515484598e-8,2.213584248995619e-7,0
43338,5.898141255784778e-8,3.877594654828508e-9,7.318174929188443e-8,9.763273337412264e-8,4.983754368196507e-8,9.81334703707193e-8,5.2855494225983564e-8,2.211279428817196e-7,0
43339,5.964070967630172e-8,3.865807661068002e-9,7.299297532663769e-8,9.74493686720621e-8,4.990457593630421e-8,9.775873785797559e-8,5.285653329712115e-8,2.208974608638773e-7,0
43340,6.030000679475565e-8,3.8540206673074954e-9,7.280420136139093e-8,9.726600397000157e-8,4.997160819064335e-8,9.738400534523186e-8,5.2857572368258736e-8,2.20666978846035e-7,0
43341,6.095930391320958e-8,3.84223367354699e-9,7.261542739614419e-8,9.708263926794103e-8,5.003864044498249e-8,9.700927283248815e-8,5.285861143939632e-8,2.204364968281927e-7,0
43342,6.161860103166351e-8,3.830446679786483e-9,7.242665343089743e-8,9.68992745658805e-8,5.010567269932163e-8,9.663454031974442e-8,5.285965051053391e-8,2.202060148103504e-7,0
43343,6.157690580091463e-8,3.8207004687579206e-9,7.223270814610262e-8,9.670024941204085e-8,5.0107318615473445e-8,9.615184129272583e-8,5.2861957246916096e-8,2.200522391365958e-7,0
43344,6.153521057016576e-8,3.810954257729357e-9,7.203876286130779e-8,9.650122425820119e-8,5.010896453162525e-8,9.566914226570723e-8,5.2864263983298285e-8,2.1989846346284118e-7,0
43345,6.150214350341976e-8,3.805014990585989e-9,7.185271017547814e-8,9.629614014521513e-8,5.018442570335685e-8,9.522580012212337e-8,5.286833713804229e-8,2.1966042755112494e-7,0
43346,6.146907643667374e-8,3.79907572344262e-9,7.16666574896485e-8,9.609105603222906e-8,5.0259886875088443e-8,9.478245797853952e-8,5.2872410292786286e-8,2.194223916394087e-7,0
43347,6.143600936992774e-8,3.793136456299252e-9,7.148060480381884e-8,9.588597191924301e-8,5.033534804682004e-8,9.433911583495568e-8,5.287648344753028e-8,2.1918435572769244e-7,0
43348,6.140294230318173e-8,3.787197189155884e-9,7.129455211798921e-8,9.568088780625695e-8,5.0410809218551635e-8,9.389577369137183e-8,5.2880556602274287e-8,2.189463198159762e-7,0
43349,6.121672297192656e-8,3.789418693051758e-9,7.127346442414558e-8,9.565400639959362e-8,5.048487390213174e-8,9.396082513115461e-8,5.284847014316035e-8,2.1878756328561164e-7,0
43350,6.120976900415659e-8,3.73133212025164e-9,7.025946520528798e-8,9.315521873927713e-8,5.054277904644439e-8,9.381834589656613e-8,5.2546329627809566e-8,2.1834236942687753e-7,0
43351,6.121235497901112e-8,3.728611863238559e-9,6.982932957021239e-8,9.214103584778739e-8,5.0613452229404166e-8,9.247497744054668e-8,5.176952171206183e-8,2.1816639001848036e-7,0
43352,6.121494095386563e-8,3.725891606225479e-9,6.939919393513681e-8,9.112685295629763e-8,5.0684125412363944e-8,9.11316089845272e-8,5.099271379631409e-8,2.179904106100832e-7,0
43353,6.121752692872016e-8,3.7231713492123976e-9,6.896905830006122e-8,9.011267006480787e-8,5.075479859532372e-8,8.978824052850775e-8,5.021590588056636e-8,2.1781443120168603e-7,0
43354,6.122011290357467e-8,3.720451092199317e-9,6.853892266498565e-8,8.909848717331812e-8,5.08254717782835e-8,8.844487207248829e-8,4.943909796481862e-8,2.1763845179328887e-7,0
43355,6.122269887842918e-8,3.7177308351862362e-9,6.810878702991006e-8,8.808430428182836e-8,5.089614496124328e-8,8.710150361646884e-8,4.866229004907089e-8,2.174624723848917e-7,0
43356,6.122528485328371e-8,3.7150105781731556e-9,6.767865139483448e-8,8.707012139033862e-8,5.096681814420306e-8,8.575813516044938e-8,4.7885482133323154e-8,2.1728649297649454e-7,0
43357,6.122787082813823e-8,3.712290321160075e-9,6.724851575975889e-8,8.605593849884886e-8,5.103749132716284e-8,8.441476670442992e-8,4.710867421757542e-8,2.1711051356809737e-7,0
43358,6.123045680299275e-8,3.7095700641469942e-9,6.681838012468331e-8,8.504175560735911e-8,5.110816451012262e-8,8.307139824841046e-8,4.633186630182768e-8,2.169345341597002e-7,0
43359,6.123304277784727e-8,3.706849807133913e-9,6.638824448960773e-8,8.402757271586935e-8,5.1178837693082395e-8,8.1728029792391e-8,4.5555058386079945e-8,2.1675855475130304e-7,0
43360,6.12356287527018e-8,3.7041295501208324e-9,6.595810885453215e-8,8.30133898243796e-8,5.124951087604217e-8,8.038466133637154e-8,4.477825047033221e-8,2.1658257534290588e-7,0
43361,6.123821472755631e-8,3.7014092931077518e-9,6.552797321945656e-8,8.199920693288985e-8,5.132018405900195e-8,7.904129288035209e-8,4.400144255458447e-8,2.1640659593450871e-7,0
43362,6.124080070241082e-8,3.698689036094671e-9,6.509783758438098e-8,8.09850240414001e-8,5.139085724196173e-8,7.769792442433263e-8,4.3224634638836736e-8,2.1623061652611155e-7,0
43363,6.124338667726535e-8,3.6959687790815904e-9,6.46677019493054e-8,7.997084114991034e-8,5.1461530424921506e-8,7.635455596831317e-8,4.2447826723089006e-8,2.1605463711771438e-7,0
43364,6.06528252797175e-8,3.7018622759618433e-9,6.423756631422982e-8,7.99605664395947e-8,5.1023026972346715e-8,7.591121382472931e-8,4.2295519967416174e-8,2.1354069301865102e-7,0
43365,6.048030737125005e-8,3.706938987771613e-9,6.419722881030256e-8,7.984398537407995e-8,5.081699153492305e-8,7.578287336393247e-8,4.211723648474541e-8,2.1239232986177089e-7,0
43366,6.031922572695174e-8,3.706847447245382e-9,6.416041741709511e-8,7.974912371949073e-8,5.0739435373755655e-8,7.567806829008211e-8,4.1977294657605246e-8,2.1120899198656309e-7,0
43367,6.014001751520839e-8,3.70988573621174e-9,6.412360602388765e-8,7.967319202328129e-8,5.07037738571331e-8,7.557613943808493e-8,4.1801068521897637e-8,2.1004173428892178e-7,0
43368,6.00580726429761e-8,3.7110181933469687e-9,6.409020733814623e-8,7.963359142187624e-8,5.067125513331452e-8,7.563568705195469e-8,4.163107681301555e-8,2.0892109018981982e-7,0
43369,5.99761277707438e-8,3.712150650482198e-9,6.405680865240481e-8,7.959399082047119e-8,5.063873640949594e-8,7.569523466582445e-8,4.146108510413346e-8,2.078004460907179e-7,0
43370,5.989418289851153e-8,3.713283107617427e-9,6.402340996666337e-8,7.955439021906614e-8,5.060621768567736e-8,7.575478227969422e-8,4.1291093395251364e-8,2.0667980199161595e-7,0
43371,5.981223802627923e-8,3.7144155647526557e-9,6.399001128092195e-8,7.951478961766108e-8,5.057369896185878e-8,7.581432989356398e-8,4.112110168636927e-8,2.05559157892514e-7,0
43372,5.973029315404694e-8,3.715548021887885e-9,6.395661259518053e-8,7.947518901625603e-8,5.05411802380402e-8,7.587387750743375e-8,4.095110997748718e-8,2.0443851379341206e-7,0
43373,5.964834828181465e-8,3.716680479023114e-9,6.3923213909439107e-08,7.943558841485098e-8,5.050866151422162e-8,7.593342512130352e-8,4.0781118268605084e-8,2.0331786969431012e-7,0
43374,5.9566403409582356e-8,3.717812936158343e-9,6.388981522369767e-8,7.939598781344593e-8,5.047614279040304e-8,7.599297273517329e-8,4.061112655972299e-8,2.0219722559520816e-7,0
43375,5.9484458537350064e-8,3.718945393293572e-9,6.385641653795625e-8,7.935638721204087e-8,5.044362406658446e-8,7.605252034904305e-8,4.04411348508409e-8,2.0107658149610623e-7,0
43376,5.940251366511777e-8,3.7200778504288013e-9,6.382301785221483e-8,7.931678661063582e-8,5.041110534276588e-8,7.611206796291282e-8,4.0271143141958804e-8,1.999559373970043e-7,0
43377,5.9485904126615514e-8,3.7183550996501345e-9,6.365759783256666e-8,7.939037634575087e-8,5.0641679145482546e-8,7.635915151364097e-8,4.0163267030062274e-8,1.999371852983432e-7,0
43378,5.956929458811326e-8,3.7166323488714677e-9,6.34921778129185e-8,7.946396608086592e-8,5.08722529481992e-8,7.660623506436911e-8,4.005539091816575e-8,1.999184331996821e-7,0
43379,5.9652685049611e-8,3.714909598092801e-9,6.332675779327034e-8,7.953755581598098e-8,5.1102826750915866e-8,7.685331861509727e-8,3.994751480626922e-8,1.9989968110102103e-7,0
43380,5.973607551110874e-8,3.713186847314134e-9,6.316133777362219e-8,7.961114555109603e-8,5.133340055363253e-8,7.710040216582542e-8,3.98396386943727e-8,1.9988092900235994e-7,0
43381,5.981946597260649e-8,3.7114640965354673e-9,6.299591775397402e-8,7.968473528621108e-8,5.156397435634919e-8,7.734748571655357e-8,3.9731762582476174e-8,1.9986217690369884e-7,0
43382,5.990285643410424e-8,3.7097413457568005e-9,6.283049773432586e-8,7.975832502132613e-8,5.1794548159065855e-8,7.759456926728172e-8,3.9623886470579644e-8,1.9984342480503777e-7,0
43383,5.998624689560197e-8,3.7080185949781337e-9,6.26650777146777e-8,7.983191475644117e-8,5.202512196178252e-8,7.784165281800988e-8,3.951601035868312e-8,1.9982467270637667e-7,0
43384,6.008547667171092e-8,3.6940511478078076e-9,6.224004442867502e-8,7.95484179392042e-8,5.218971100487794e-8,7.782551903174942e-8,3.946420236898792e-8,1.9988766863823748e-7,0
43385,6.018470644781989e-8,3.680083700637481e-9,6.181501114267235e-8,7.92649211219672e-8,5.235430004797336e-8,7.780938524548895e-8,3.941239437929273e-8,1.9995066457009832e-7,0
43386,6.018840423239253e-8,3.6649837963319253e-9,6.137442017257041e-8,7.890229900416595e-8,5.247100817451637e-8,7.754278340395283e-8,3.9348450055171875e-8,1.999750744339951e-7,0
43387,6.01921020169652e-8,3.64988389202637e-9,6.093382920246845e-8,7.853967688636467e-8,5.258771630105938e-8,7.727618156241671e-8,3.9284505731051024e-8,1.9999948429789193e-7,0
43388,6.022188432464296e-8,3.633740711223285e-9,6.049323823236651e-8,7.818842554743338e-8,5.2511108069176606e-8,7.706973761992905e-8,3.9220332812823156e-8,2.000249497457158e-7,0
43389,6.025166663232072e-8,3.6175975304202003e-9,6.005264726226455e-8,7.783717420850206e-8,5.243449983729383e-8,7.686329367744141e-8,3.915615989459529e-8,2.0005041519353971e-7,0
43390,6.028144893999849e-8,3.6014543496171154e-9,5.961205629216261e-8,7.748592286957076e-8,5.2357891605411055e-8,7.665684973495375e-8,3.909198697636742e-8,2.000758806413636e-7,0
43391,6.031123124767625e-8,3.5853111688140306e-9,5.917146532206066e-8,7.713467153063945e-8,5.228128337352828e-8,7.64504057924661e-8,3.9027814058139545e-8,2.001013460891875e-7,0
43392,6.034101355535402e-8,3.5691679880109457e-9,5.873087435195871e-8,7.678342019170815e-8,5.2204675141645504e-8,7.624396184997846e-8,3.896364113991168e-8,2.001268115370114e-7,0
43393,6.037079586303179e-8,3.553024807207861e-9,5.829028338185676e-8,7.643216885277684e-8,5.212806690976273e-8,7.60375179074908e-8,3.889946822168381e-8,2.0015227698483528e-7,0
43394,6.040057817070955e-8,3.536881626404776e-9,5.784969241175482e-8,7.608091751384553e-8,5.205145867787995e-8,7.583107396500316e-8,3.883529530345594e-8,2.0017774243265919e-7,0
43395,6.043036047838732e-8,3.520738445601691e-9,5.740910144165287e-8,7.572966617491423e-8,5.197485044599718e-8,7.56246300225155e-8,3.877112238522807e-8,2.0020320788048307e-7,0
43396,6.046014278606508e-8,3.5045952647986063e-9,5.696851047155092e-8,7.537841483598292e-8,5.18982422141144e-8,7.541818608002785e-8,3.8706949467000204e-8,2.0022867332830697e-7,0
43397,6.035791136034903e-8,3.423385327443037e-9,5.574526245729745e-8,7.532507091251584e-8,5.118961329134629e-8,7.548049037164268e-8,3.869487549278973e-8,2.0023441428765116e-7,0
43398,6.0255679934633e-8,3.3421753900874674e-9,5.452201444304398e-8,7.527172698904877e-8,5.048098436857817e-8,7.554279466325751e-8,3.868280151857926e-8,2.0024015524699537e-7,0
43399,6.022162832496396e-8,3.3421753900874674e-9,5.4466460172102286e-8,7.522078024935373e-8,5.048831611141951e-8,7.549385946811145e-8,3.8658071687234776e-8,2.0017459295243268e-7,0
43400,6.018757671529491e-8,3.3421753900874674e-9,5.441090590116059e-8,7.51698335096587e-8,5.049564785426085e-8,7.54449242729654e-8,3.8633341855890284e-8,2.0010903065786996e-7,0
43401,6.014858824453998e-8,3.351015635407847e-9,5.435902669041534e-8,7.510833903276239e-8,5.0495797511061044e-8,7.53984111593799e-8,3.86510268348204e-8,2.0003867742949745e-7,0
43402,6.010959977378505e-8,3.359855880728227e-9,5.4307147479670094e-8,7.504684455586609e-8,5.049594716786123e-8,7.535189804579441e-8,3.866871181375052e-8,1.9996832420112492e-7,0
43403,6.009420854220487e-8,3.3662047203511023e-9,5.426047442737226e-8,7.534714915510235e-8,5.07110092239273e-8,7.524065855903352e-8,3.8644937923737276e-8,1.999187549675897e-7,0
43404,6.00788173106247e-8,3.372553559973978e-9,5.421380137507443e-8,7.564745375433863e-8,5.092607127999336e-8,7.512941907227262e-8,3.8621164033724026e-8,1.9986918573405449e-7,0
43405,6.006342607904454e-8,3.3789023995968536e-9,5.41671283227766e-8,7.59477583535749e-8,5.114113333605942e-8,7.501817958551173e-8,3.8597390143710776e-8,1.998196165005193e-7,0
43406,6.004803484746437e-8,3.3852512392197294e-9,5.412045527047877e-8,7.624806295281117e-8,5.1356195392125485e-8,7.490694009875082e-8,3.857361625369753e-8,1.9977004726698408e-7,0
43407,6.00326436158842e-8,3.3916000788426053e-9,5.407378221818094e-8,7.654836755204744e-8,5.1571257448191554e-8,7.479570061198993e-8,3.8549842363684283e-8,1.9972047803344886e-7,0
43408,6.001725238430402e-8,3.3979489184654807e-9,5.402710916588311e-8,7.684867215128371e-8,5.1786319504257617e-8,7.468446112522903e-8,3.8526068473671034e-8,1.9967090879991364e-7,0
43409,6.000186115272386e-8,3.4042977580883565e-9,5.398043611358528e-8,7.714897675051998e-8,5.200138156032368e-8,7.457322163846814e-8,3.850229458365779e-8,1.9962133956637842e-7,0
43410,5.998646992114368e-8,3.410646597711232e-9,5.393376306128745e-8,7.744928134975626e-8,5.221644361638975e-8,7.446198215170724e-8,3.847852069364454e-8,1.9957177033284323e-7,0
43411,5.997107868956352e-8,3.4169954373341078e-9,5.388709000898962e-8,7.774958594899252e-8,5.243150567245581e-8,7.435074266494635e-8,3.845474680363129e-8,1.9952220109930801e-7,0
43412,5.995568745798334e-8,3.4233442769569836e-9,5.384041695669179e-8,7.804989054822879e-8,5.2646567728521873e-8,7.423950317818544e-8,3.843097291361805e-8,1.994726318657728e-7,0
43413,5.994029622640318e-8,3.429693116579859e-9,5.379374390439396e-8,7.835019514746506e-8,5.286162978458794e-8,7.412826369142455e-8,3.84071990236048e-8,1.9942306263223758e-7,0
43414,5.9924904994823e-8,3.436041956202735e-9,5.374707085209613e-8,7.865049974670133e-8,5.3076691840654005e-8,7.401702420466365e-8,3.838342513359155e-8,1.993734933987024e-7,0
43415,5.990951376324284e-8,3.4423907958256103e-9,5.3700397799798296e-8,7.89508043459376e-8,5.329175389672007e-8,7.390578471790276e-8,3.8359651243578305e-8,1.9932392416516717e-7,0
43416,5.989412253166266e-8,3.448739635448486e-9,5.3653724747500465e-8,7.925110894517387e-8,5.350681595278613e-8,7.379454523114186e-8,3.8335877353565056e-8,1.9927435493163195e-7,0
43417,5.98787313000825e-8,3.455088475071362e-9,5.3607051695202633e-8,7.955141354441015e-8,5.37218780088522e-8,7.368330574438096e-8,3.8312103463551806e-8,1.9922478569809674e-7,0
43418,5.986334006850233e-8,3.4614373146942374e-9,5.35603786429048e-8,7.985171814364641e-8,5.393694006491826e-8,7.357206625762007e-8,3.828832957353856e-8,1.9917521646456152e-7,0
43419,5.984794883692216e-8,3.467786154317113e-9,5.351370559060697e-8,8.015202274288269e-8,5.4152002120984325e-8,7.346082677085917e-8,3.826455568352531e-8,1.9912564723102633e-7,0
43420,5.9832557605342e-8,3.4741349939399886e-9,5.3467032538309147e-8,8.045232734211896e-8,5.4367064177050394e-8,7.334958728409828e-8,3.824078179351206e-8,1.990760779974911e-7,0
43421,5.967192404407472e-8,3.4743638452555654e-9,5.344572621719017e-8,8.081412641825153e-8,5.4582126233116456e-8,7.279548210045844e-8,3.782338782034586e-8,1.984967340696515e-7,0
43422,5.907124470482807e-8,3.4603072174475395e-9,5.3412406095803164e-8,8.086896462056433e-8,5.4579182982712736e-8,7.09148610292388e-8,3.776792229921753e-8,1.9720541201637099e-7,0
43423,5.844668236769736e-8,3.4399017500166373e-9,5.337610234226864e-8,8.056332554153044e-8,5.4363571670628855e-8,6.914547944478006e-8,3.781083581116763e-8,1.9588522035998515e-7,0
43424,5.779961250689477e-8,3.421672016218494e-9,5.334573990068552e-8,8.038541456115558e-8,5.4155291998502894e-8,6.729554046108053e-8,3.775441434870806e-8,1.9455243979785327e-7,0
43425,5.7152542646092183e-8,3.4034422824203505e-9,5.331537745910241e-8,8.020750358078072e-8,5.394701232637693e-8,6.544560147738099e-8,3.7697992886248483e-8,1.932196592357214e-7,0
43426,5.65054727852896e-8,3.3852125486222067e-9,5.32850150175193e-8,8.002959260040586e-8,5.373873265425097e-8,6.359566249368145e-8,3.7641571423788907e-8,1.9188687867358952e-7,0
43427,5.5858402924487015e-8,3.3669828148240634e-9,5.3254652575936186e-8,7.9851681620031e-8,5.353045298212501e-8,6.174572350998192e-8,3.758514996132933e-8,1.9055409811145764e-7,0
43428,5.5211333063684424e-8,3.34875308102592e-9,5.322429013435307e-8,7.967377063965615e-8,5.332217330999905e-8,5.989578452628238e-8,3.752872849886976e-8,1.8922131754932576e-7,0
43429,5.456426320288184e-8,3.3305233472277766e-9,5.3193927692769957e-8,7.949585965928128e-8,5.311389363787309e-8,5.8045845542582845e-8,3.747230703641018e-8,1.8788853698719388e-7,0
43430,5.3917193342079256e-8,3.3122936134296328e-9,5.316356525118684e-8,7.931794867890643e-8,5.2905613965747126e-8,5.619590655888331e-8,3.7415885573950606e-8,1.86555756425062e-7,0
43431,5.327012348127667e-8,3.2940638796314894e-9,5.313320280960373e-8,7.914003769853158e-8,5.2697334293621165e-8,5.434596757518377e-8,3.7359464111491036e-08,1.8522297586293012e-7,0
43432,5.262305362047408e-8,3.275834145833346e-9,5.310284036802061e-8,7.896212671815671e-8,5.2489054621495203e-8,5.2496028591484237e-08,3.730304264903146e-8,1.8389019530079824e-7,0
43433,5.19759837596715e-8,3.2576044120352022e-9,5.3072477926437505e-8,7.878421573778186e-8,5.228077494936924e-8,5.06460896077847e-8,3.724662118657188e-8,1.8255741473866636e-7,0
43434,5.197196515886291e-8,3.2587368691704315e-9,5.297502839365042e-8,7.88594269156543e-8,5.225264533528883e-8,5.0675079443031045e-8,3.724271429144057e-8,1.8254875385773476e-7,0
43435,5.196662823558398e-8,3.257693592672902e-9,5.286655368027399e-8,7.880873054277083e-8,5.24958378285027e-8,5.069258041495789e-8,3.723903599041628e-8,1.82603088908664e-7,0
43436,5.196129131230505e-8,3.256650316175373e-9,5.2758078966897566e-8,7.875803416988735e-8,5.273903032171657e-8,5.071008138688473e-8,3.723535768939198e-8,1.8265742395959321e-7,0
43437,5.1955954389026117e-8,3.2556070396778435e-9,5.264960425352114e-8,7.870733779700387e-8,5.298222281493045e-8,5.0727582358811576e-8,3.723167938836769e-8,1.8271175901052245e-7,0
43438,5.195061746574719e-8,3.254563763180314e-9,5.254112954014471e-8,7.865664142412039e-8,5.322541530814432e-8,5.074508333073842e-8,3.7228001087343395e-8,1.8276609406145167e-07,0
43439,5.194528054246826e-8,3.253520486682785e-9,5.2432654826768285e-8,7.860594505123691e-8,5.3468607801358195e-8,5.076258430266526e-8,3.72243227863191e-8,1.828204291123809e-7,0
43440,5.148576659719889e-8,3.2116733549890445e-9,5.232418011339186e-8,7.803926690878169e-8,5.3742323800154974e-8,5.0770412972443034e-8,3.6672701787246464e-8,1.8207620901953116e-7,0
43441,5.102625265192953e-8,3.1698262232953045e-9,5.221570540001543e-8,7.747258876632648e-8,5.401603979895175e-8,5.077824164222081e-8,3.612108078817383e-8,1.8133198892668145e-7,0
43442,5.0566738706660174e-8,3.127979091601564e-9,5.2107230686639005e-8,7.690591062387126e-8,5.428975579774853e-8,5.078607031199859e-8,3.55694597891012e-8,1.8058776883383173e-7,0
43443,5.0178568551366644e-8,3.0870836958791227e-9,5.1997985980859235e-8,7.634768664382858e-8,5.443040386815063e-8,5.0790946311109164e-8,3.501783879002856e-8,1.8000657508775497e-7,0
43444,4.976004457097674e-8,3.051585403808258e-9,5.1889423816572665e-8,7.580090736439578e-8,5.508656394241188e-8,5.117523158189383e-8,3.4522410659308484e-8,1.792705316421428e-7,0
43445,4.934152059058683e-8,3.0160871117373934e-9,5.17808616522861e-8,7.5254128084963e-8,5.574272401667314e-8,5.15595168526785e-8,3.402698252858841e-8,1.7853448819653065e-7,0
43446,4.892299661019693e-8,2.980588819666529e-9,5.167229948799954e-8,7.47073488055302e-8,5.639888409093439e-8,5.194380212346317e-8,3.353155439786833e-8,1.7779844475091851e-7,0
43447,4.850447262980703e-8,2.945090527595664e-9,5.156373732371297e-8,7.416056952609741e-8,5.705504416519565e-8,5.232808739424784e-8,3.303612626714825e-8,1.7706240130530636e-7,0
43448,4.808594864941712e-8,2.9095922355248e-9,5.14551751594264e-8,7.361379024666462e-8,5.77112042394569e-8,5.271237266503251e-8,3.254069813642817e-8,1.763263578596942e-7,0
43449,4.7667424669027215e-8,2.8740939434539354e-9,5.134661299513984e-8,7.306701096723182e-8,5.836736431371816e-8,5.309665793581718e-8,3.2045270005708096e-8,1.7559031441408204e-7,0
43450,4.724890068863731e-8,2.8385956513830708e-9,5.123805083085327e-8,7.252023168779903e-8,5.902352438797941e-8,5.348094320660185e-8,3.154984187498802e-8,1.7485427096846988e-7,0
43451,4.6830376708247403e-8,2.803097359312206e-9,5.1129488666566706e-8,7.197345240836623e-8,5.967968446224067e-8,5.386522847738652e-8,3.105441374426794e-8,1.7411822752285772e-7,0
43452,4.64118527278575e-8,2.7675990672413415e-9,5.102092650228014e-8,7.142667312893344e-8,6.033584453650193e-8,5.424951374817119e-8,3.0558985613547866e-8,1.7338218407724556e-7,0
43453,4.599332874746759e-8,2.732100775170477e-9,5.091236433799357e-8,7.087989384950065e-8,6.099200461076317e-8,5.463379901895586e-8,3.006355748282779e-8,1.726461406316334e-7,0
43454,4.557480476707769e-8,2.6966024830996123e-9,5.080380217370701e-8,7.033311457006785e-8,6.164816468502443e-8,5.501808428974053e-8,2.956812935210771e-8,1.7191009718602124e-7,0
43455,4.5610457808678216e-8,2.6941110774021084e-9,5.074897416971359e-8,6.978633529063507e-8,6.214871358095027e-8,5.5260091083647414e-8,2.9414222437685756e-8,1.719505146303687e-7,0
43456,4.5646110850278744e-8,2.6916196717046044e-9,5.069414616572017e-8,6.923955601120227e-8,6.264926247687609e-8,5.5502097877554295e-8,2.9260315523263805e-8,1.7199093207471618e-7,0
43457,4.568783465689855e-8,2.6855888640350056e-9,5.037112086835814e-8,6.922062605282247e-8,6.327968682855942e-8,5.5824716213103696e-8,2.9207198354862542e-8,1.717226609753515e-7,0
43458,4.5613599688391804e-8,2.650996537672324e-9,5.0095957389812997e-08,6.880264233901123e-8,6.345784105106873e-8,5.579346368844093e-8,2.9601524964206853e-8,1.7142892835059344e-7,0
43459,4.553936471988506e-8,2.616404211309643e-9,4.982079391126785e-8,6.83846586252e-8,6.363599527357806e-8,5.5762211163778166e-8,2.999585157355116e-8,1.711351957258354e-7,0
43460,4.546512975137832e-8,2.5818118849469614e-9,4.9545630432722716e-8,6.796667491138876e-8,6.381414949608739e-8,5.573095863911541e-8,3.039017818289547e-8,1.7084146310107734e-7,0
43461,4.544091297394693e-8,2.548352015719509e-9,4.925809446371326e-8,6.761519784622587e-8,6.385185529347829e-8,5.568428938064382e-8,3.0261686882139064e-8,1.7051878827609814e-7,0
43462,4.5416696196515546e-8,2.514892146492057e-9,4.89705584947038e-8,6.726372078106298e-8,6.388956109086919e-8,5.563762012217224e-8,3.013319558138265e-8,1.701961134511189e-7,0
43463,4.539247941908415e-8,2.4814322772646047e-9,4.868302252569435e-8,6.691224371590009e-8,6.392726688826009e-8,5.559095086370066e-8,3.000470428062624e-8,1.6987343862613967e-7,0
43464,4.5368262641652766e-8,2.4479724080371525e-9,4.8395486556684896e-8,6.65607666507372e-8,6.3964972685651e-8,5.554428160522907e-8,2.9876212979869826e-8,1.6955076380116047e-7,0
43465,4.534404586422137e-8,2.4145125388097002e-9,4.810795058767544e-8,6.620928958557432e-8,6.400267848304189e-8,5.5497612346757495e-8,2.9747721679113413e-8,1.6922808897618124e-7,0
43466,4.531982908678999e-8,2.381052669582248e-9,4.782041461866598e-8,6.585781252041143e-8,6.40403842804328e-8,5.545094308828591e-8,2.9619230378357e-8,1.6890541415120203e-7,0
43467,4.52956123093586e-8,2.3475928003547958e-9,4.753287864965653e-8,6.550633545524854e-8,6.40780900778237e-8,5.540427382981433e-8,2.949073907760059e-8,1.685827393262228e-7,0
43468,4.527139553192721e-8,2.314132931127344e-9,4.7245342680647076e-8,6.515485839008565e-8,6.411579587521461e-8,5.5357604571342746e-8,2.936224777684418e-8,1.6826006450124357e-7,0
43469,4.524717875449582e-8,2.2806730618998917e-9,4.6957806711637616e-8,6.480338132492276e-8,6.41535016726055e-8,5.531093531287117e-8,2.9233756476087766e-8,1.6793738967626437e-7,0
43470,4.522296197706443e-8,2.2472131926724395e-9,4.667027074262816e-8,6.445190425975988e-8,6.41912074699964e-8,5.526426605439958e-8,2.9105265175331353e-8,1.6761471485128514e-7,0
43471,4.519874519963304e-8,2.2137533234449873e-9,4.638273477361871e-8,6.410042719459699e-8,6.422891326738731e-8,5.5217596795928004e-8,2.8976773874574944e-8,1.6729204002630593e-7,0
43472,4.517452842220165e-8,2.180293454217535e-9,4.6095198804609256e-8,6.37489501294341e-8,6.42666190647782e-8,5.517092753745642e-8,2.884828257381853e-8,1.669693652013267e-7,0
43473,4.515031164477026e-8,2.1468335849900828e-9,4.5807662835599796e-8,6.339747306427121e-8,6.430432486216911e-8,5.512425827898484e-8,2.871979127306212e-8,1.6664669037634747e-7,0
43474,4.5126094867338875e-8,2.1133737157626306e-9,4.552012686659034e-8,6.304599599910832e-8,6.434203065956002e-8,5.5077589020513255e-8,2.859129997230571e-8,1.6632401555136826e-7,0
43475,4.510187808990748e-8,2.0799138465351783e-9,4.523259089758089e-8,6.269451893394543e-8,6.437973645695092e-8,5.503091976204168e-8,2.8462808671549297e-8,1.6600134072638903e-7,0
43476,4.5077661312476095e-8,2.046453977307726e-9,4.4945054928571436e-8,6.234304186878255e-8,6.441744225434181e-8,5.498425050357009e-8,2.8334317370792884e-8,1.6567866590140983e-7,0
43477,4.50534445350447e-8,2.012994108080274e-9,4.4657518959561976e-8,6.199156480361966e-8,6.445514805173272e-8,5.493758124509851e-8,2.820582607003647e-8,1.653559910764306e-7,0
43478,4.50534445350447e-8,1.99939282301487e-9,4.44185458312976e-8,6.198291153606141e-8,6.440163222292508e-8,5.472680943423065e-8,2.812010289409206e-8,1.6516540930796486e-7,0
43479,4.476890072464651e-8,1.9954485683403297e-9,4.4393389548161906e-8,6.205168820457012e-8,6.439360228744971e-8,5.457399022265462e-8,2.811515692782316e-8,1.6244224907899265e-7,0
43480,4.442905895163589e-8,1.9902803160043293e-9,4.436918704580555e-8,6.208467983204571e-8,6.452886425629635e-8,5.450860895147591e-8,2.8187476155539028e-8,1.5969930628384808e-7,0
43481,4.412427277618442e-8,1.9843868191240764e-9,4.4346209563514684e-8,6.213258675238346e-8,6.511898824496837e-8,5.4380335409915956e-8,2.8187476155539028e-8,1.569761460548759e-7,0
43482,4.381948660073294e-8,1.978493322243823e-9,4.4323232081223816e-8,6.218049367272121e-8,6.570911223364039e-8,5.425206186835601e-8,2.8187476155539028e-8,1.5425298582590368e-7,0
43483,4.3514700425281465e-8,1.9725998253635702e-9,4.430025459893294e-8,6.222840059305896e-8,6.629923622231241e-8,5.412378832679605e-8,2.8187476155539028e-8,1.5152982559693147e-7,0
43484,4.320991424982999e-8,1.966706328483317e-9,4.4277277116642074e-8,6.227630751339671e-8,6.688936021098443e-8,5.3995514785236103e-8,2.8187476155539028e-8,1.4880666536795928e-7,0
43485,4.290512807437851e-8,1.960812831603064e-9,4.4254299634351206e-8,6.232421443373446e-8,6.747948419965645e-8,5.386724124367615e-8,2.8187476155539028e-8,1.4608350513898707e-7,0
43486,4.260034189892704e-8,1.9549193347228107e-9,4.423132215206034e-8,6.237212135407221e-8,6.806960818832847e-8,5.37389677021162e-8,2.8187476155539028e-8,1.4336034491001486e-7,0
43487,4.229555572347557e-8,1.9490258378425578e-9,4.420834466976947e-8,6.242002827440996e-8,6.865973217700049e-8,5.3610694160556244e-8,2.8187476155539028e-8,1.4063718468104268e-7,0
43488,4.1990769548024094e-8,1.9431323409623045e-9,4.4185367187478596e-8,6.246793519474771e-8,6.92498561656725e-8,5.3482420618996296e-8,2.8187476155539028e-8,1.3791402445207046e-7,0
43489,4.1685983372572615e-8,1.9372388440820516e-9,4.416238970518773e-8,6.251584211508546e-8,6.983998015434453e-8,5.335414707743634e-8,2.8187476155539028e-8,1.3519086422309825e-7,0
43490,4.138119719712114e-8,1.9313453472017987e-9,4.413941222289686e-8,6.256374903542322e-8,7.043010414301656e-8,5.322587353587639e-8,2.8187476155539028e-8,1.3246770399412607e-7,0
43491,4.136095483206786e-8,1.906863034084072e-9,4.312154385426401e-8,6.239148406585291e-8,7.105060249488841e-8,5.3180784997617064e-8,2.819402228055705e-8,1.299391575349941e-7,0
43492,4.134071246701458e-8,1.8823807209663452e-9,4.2103675485631157e-8,6.221921909628262e-8,7.167110084676027e-8,5.313569645935774e-8,2.820056840557507e-8,1.2741061107586217e-7,0
43493,4.129328025079375e-8,1.857898407848619e-9,4.1092474695898e-8,6.243378149900151e-8,7.217429347372259e-8,5.3195092693129976e-8,2.8254683131652454e-8,1.2487005098364777e-7,0
43494,4.1237219870570055e-8,1.8334160947308922e-9,4.00734687581098e-8,6.231283881934359e-8,7.226107641323317e-8,5.312632691740375e-8,2.825871472149328e-8,1.2232323273711824e-7,0
43495,4.118115949034636e-8,1.8089337816131657e-9,3.905446282032161e-8,6.219189613968566e-8,7.234785935274377e-8,5.3057561141677523e-8,2.826274631133411e-8,1.1977641449058872e-7,0
43496,4.112509911012266e-8,1.7844514684954392e-9,3.803545688253342e-8,6.207095346002772e-8,7.243464229225436e-8,5.29887953659513e-8,2.826677790117494e-8,1.172295962440592e-7,0
43497,4.1069038729898965e-8,1.7599691553777127e-9,3.701645094474522e-8,6.19500107803698e-8,7.252142523176495e-8,5.292002959022507e-8,2.8270809491015766e-8,1.1468277799752969e-7,0
43498,4.1065255217713516e-8,1.7538468071818829e-9,3.6711240696681715e-8,6.12650196842871e-8,7.261853212416985e-8,5.2867072534151936e-8,2.8228560966074702e-8,1.1468518072414619e-7,0
43499,4.106147170552807e-8,1.747724458986053e-9,3.640603044861821e-8,6.05800285882044e-8,7.271563901657476e-8,5.2814115478078795e-8,2.818631244113364e-8,1.1468758345076269e-7,0
43500,4.105768819334262e-8,1.7416021107902232e-9,3.610082020055469e-8,5.98950374921217e-8,7.281274590897965e-8,5.276115842200566e-8,2.8144063916192573e-8,1.1468998617737917e-7,0
43501,4.105390468115717e-8,1.7354797625943933e-9,3.5795609952491186e-8,5.9210046396039e-8,7.290985280138456e-8,5.270820136593252e-8,2.810181539125151e-8,1.1469238890399567e-7,0
43502,4.105012116897172e-8,1.730174199469047e-9,3.5493435948585986e-8,5.844799497258896e-8,7.30092045457923e-8,5.265983985518718e-8,2.8062081401487638e-8,1.1469328085183737e-7,0
43503,4.1047100074397546e-8,1.7238253598461713e-9,3.5189363269677825e-8,5.767449884852904e-8,7.327628637708123e-8,5.2611478344441846e-8,2.802962090968687e-8,1.1469347744919963e-7,0
43504,4.104407897982338e-8,1.7174765202232955e-9,3.488529059076966e-8,5.690100272446912e-8,7.3543368208370155e-08,5.256311683369651e-8,2.79971604178861e-8,1.1469367404656188e-7,0
43505,4.1041057885249206e-8,1.7111276806004199e-9,3.458121791186149e-8,5.6127506600409206e-8,7.381045003965909e-8,5.251475532295117e-8,2.796469992608533e-8,1.1469387064392412e-7,0
43506,4.103803679067503e-8,1.7047788409775442e-9,3.427714523295333e-8,5.5354010476349284e-8,7.407753187094803e-8,5.2466393812205835e-8,2.793223943428456e-8,1.1469406724128637e-7,0
43507,4.103501569610086e-8,1.6984300013546686e-9,3.397307255404516e-8,5.458051435228937e-8,7.434461370223696e-8,5.24180323014605e-8,2.789977894248379e-8,1.1469426383864863e-7,0
43508,4.1031994601526686e-8,1.692081161731793e-9,3.3668999875136996e-8,5.380701822822945e-8,7.46116955335259e-8,5.2369670790715155e-8,2.786731845068302e-8,1.1469446043601087e-7,0
43509,4.102897350695251e-8,1.6857323221089172e-9,3.3364927196228835e-8,5.303352210416953e-8,7.487877736481483e-8,5.232130927996982e-8,2.783485795888225e-8,1.1469465703337312e-7,0
43510,4.102595241237834e-8,1.6793834824860415e-9,3.306085451732067e-8,5.226002598010961e-8,7.514585919610375e-8,5.227294776922448e-8,2.780239746708148e-8,1.1469485363073537e-7,0
43511,4.102293131780417e-8,1.673034642863166e-9,3.27567818384125e-8,5.1486529856049694e-8,7.541294102739269e-8,5.2224586258479145e-8,2.776993697528071e-8,1.1469505022809761e-7,0
43512,4.101991022323e-8,1.6666858032402903e-9,3.2452709159504334e-8,5.071303373198977e-8,7.568002285868162e-8,5.217622474773381e-8,2.773747648347994e-8,1.1469524682545987e-7,0
43513,4.1016889128655825e-8,1.6603369636174147e-9,3.214863648059617e-8,4.993953760792985e-8,7.594710468997056e-8,5.212786323698847e-8,2.7705015991679173e-8,1.1469544342282212e-7,0
43514,4.094608828022767e-8,1.624701360757204e-9,3.211516740973251e-8,4.9935722047557924e-8,7.62026154283636e-8,5.0296596417960024e-8,2.7465115716581755e-8,1.1463264408832354e-7,0
43515,4.094491283711198e-8,1.6223883163350996e-9,3.210849983083282e-8,4.9919115351210246e-8,7.642899894355838e-8,5.0291519661138756e-8,2.7360086607646086e-8,1.1401203824899478e-7,0
43516,4.094373739399629e-8,1.6062451355320147e-9,3.187035001430612e-8,4.990617241074284e-8,7.578396181485985e-8,5.0167953196968106e-8,2.737594280799921e-8,1.1391142863898855e-7,0
43517,4.094373739399629e-8,1.5903284461559756e-9,3.163029263622073e-8,4.994552462584224e-8,7.525084482393249e-8,5.023540441189916e-8,2.7439180528766137e-8,1.1381991666290791e-7,0
43518,4.094373739399629e-8,1.5744117567799366e-9,3.139023525813533e-8,4.998487684094164e-8,7.471772783300514e-8,5.030285562683022e-8,2.7502418249533065e-8,1.1372840468682729e-7,0
43519,4.094546874197105e-8,1.56044430960961e-9,3.1150860421543145e-8,5.002998638671005e-8,7.394102049866449e-8,5.019219458925861e-8,2.7502148090522876e-8,1.136473229679385e-7,0
43520,4.094720008994581e-8,1.5464768624392838e-9,3.091148558495096e-8,5.0075095932478445e-8,7.316431316432384e-8,5.0081533551687e-8,2.750187793151269e-8,1.135662412490497e-7,0
43521,4.0948931437920566e-8,1.5325094152689573e-9,3.067211074835877e-8,5.012020547824684e-8,7.238760582998319e-8,4.9970872514115386e-8,2.75016077725025e-8,1.1348515953016091e-7,0
43522,4.0950662785895325e-8,1.5185419680986308e-9,3.0432735911766583e-8,5.016531502401524e-8,7.161089849564254e-8,4.9860211476543776e-8,2.750133761349231e-8,1.1340407781127212e-7,0
43523,4.0952394133870085e-8,1.5045745209283042e-9,3.0193361075174396e-8,5.021042456978364e-8,7.08341911613019e-8,4.9749550438972166e-8,2.750106745448212e-8,1.1332299609238332e-7,0
43524,4.0954125481844844e-8,1.4906070737579777e-9,2.995398623858221e-8,5.0255534115552037e-8,7.005748382696125e-8,4.9638889401400556e-8,2.750079729547193e-8,1.1324191437349453e-7,0
43525,4.09558568298196e-8,1.4766396265876512e-9,2.971461140199002e-8,5.0300643661320434e-08,6.92807764926206e-8,4.952822836382894e-8,2.750052713646174e-8,1.1316083265460574e-7,0
43526,4.095758817779436e-8,1.462672179417325e-9,2.9475236565397834e-8,5.034575320708883e-8,6.850406915827995e-8,4.941756732625733e-8,2.750025697745155e-8,1.1307975093571695e-7,0
43527,4.095931952576912e-8,1.4487047322469984e-9,2.9235861728805647e-8,5.039086275285723e-8,6.77273618239393e-8,4.930690628868572e-8,2.749998681844136e-8,1.1299866921682815e-7,0
43528,4.096105087374388e-8,1.434737285076672e-9,2.899648689221346e-8,5.043597229862563e-8,6.695065448959865e-8,4.919624525111411e-8,2.749971665943117e-8,1.1291758749793936e-7,0
43529,4.096278222171864e-8,1.4207698379063454e-9,2.8757112055621272e-8,5.0481081844394026e-8,6.617394715525802e-8,4.908558421354249e-8,2.7499446500420984e-8,1.1283650577905057e-7,0
43530,4.09645135696934e-8,1.406802390736019e-9,2.8517737219029085e-8,5.0526191390162424e-8,6.539723982091737e-8,4.897492317597088e-8,2.7499176341410794e-8,1.1275542406016178e-7,0
43531,4.096624491766816e-8,1.3928349435656926e-9,2.8278362382436897e-8,5.057130093593082e-8,6.462053248657672e-8,4.886426213839927e-8,2.7498906182400604e-8,1.1267434234127298e-7,0
43532,4.096797626564292e-8,1.3788674963953661e-9,2.803898754584471e-8,5.0616410481699226e-8,6.384382515223607e-8,4.875360110082766e-8,2.7498636023390415e-8,1.1259326062238419e-7,0
43533,4.096970761361768e-8,1.3649000492250396e-9,2.7799612709252523e-8,5.0661520027467624e-8,6.306711781789542e-8,4.8642940063256045e-8,2.7498365864380225e-8,1.125121789034954e-7,0
43534,4.097143896159244e-8,1.3509326020547131e-9,2.7560237872660335e-8,5.070662957323602e-8,6.229041048355477e-8,4.8532279025684435e-8,2.7498095705370035e-8,1.1243109718460661e-7,0
43535,4.0973170309567196e-8,1.3369651548843866e-9,2.7320863036068148e-8,5.075173911900442e-8,6.151370314921413e-8,4.8421617988112825e-8,2.7497825546359845e-8,1.1235001546571781e-7,0
43536,4.0974901657541955e-8,1.3229977077140601e-9,2.708148819947596e-8,5.079684866477282e-8,6.073699581487348e-8,4.8310956950541215e-8,2.7497555387349655e-8,1.1226893374682902e-7,0
43537,4.0738740731920364e-8,1.3160585744477468e-9,2.693932578796053e-8,5.0838294454660945e-8,6.07946018513526e-8,4.793450034953432e-8,2.7472825556005166e-8,1.111656706575819e-7,0
43538,4.0706591925451675e-8,1.3091194411814334e-9,2.6924144567168973e-8,5.0892531380524824e-8,6.095515077814345e-8,4.7351556710745674e-8,2.7468752401261166e-8,1.1118119400433851e-7,0
43539,4.067957352950971e-8,1.300276835972523e-9,2.690800956559807e-8,5.093095803062383e-8,6.096986394365934e-8,4.6860659334517325e-8,2.7545851335633245e-8,1.111771894599777e-7,0
43540,4.064569337506625e-8,1.2933377027062096e-9,2.6903940976306e-8,5.108102947673137e-8,6.098996382803124e-8,4.625837109143055e-8,2.754396022256192e-8,1.1117539104487111e-7,0
43541,4.0611813220622804e-8,1.2863985694398962e-9,2.6899872387013924e-8,5.123110092283891e-8,6.101006371240313e-8,4.5656082848343765e-8,2.7542069109490594e-8,1.1117359262976454e-7,0
43542,4.057793306617935e-8,1.2794594361735829e-9,2.689580379772185e-8,5.138117236894645e-8,6.103016359677502e-8,4.505379460525698e-8,2.754017799641927e-8,1.1117179421465795e-7,0
43543,4.05440529117359e-8,1.2725203029072695e-9,2.6891735208429776e-8,5.153124381505399e-8,6.105026348114691e-8,4.4451506362170206e-8,2.7538286883347943e-8,1.1116999579955138e-7,0
43544,4.0510172757292446e-8,1.2655811696409562e-9,2.6887666619137705e-8,5.168131526116153e-8,6.10703633655188e-8,4.3849218119083423e-8,2.7536395770276614e-8,1.111681973844448e-7,0
43545,4.0476292602849e-8,1.2586420363746428e-9,2.688359802984563e-8,5.183138670726907e-8,6.10904632498907e-8,4.324692987599664e-8,2.753450465720529e-8,1.1116639896933822e-7,0
43546,4.044241244840554e-8,1.2517029031083295e-9,2.6879529440553557e-8,5.198145815337661e-8,6.11105631342626e-8,4.2644641632909864e-8,2.7532613544133963e-8,1.1116460055423164e-7,0
43547,4.0408532293962094e-8,1.2447637698420161e-9,2.6875460851261483e-8,5.213152959948415e-8,6.113066301863449e-8,4.204235338982308e-8,2.7530722431062638e-8,1.1116280213912507e-7,0
43548,4.037465213951864e-8,1.2378246365757028e-9,2.6871392261969412e-8,5.2281601045591694e-8,6.115076290300638e-8,4.14400651467363e-8,2.752883131799131e-8,1.1116100372401848e-7,0
43549,4.034077198507519e-8,1.2308855033093895e-9,2.6867323672677338e-8,5.2431672491699235e-8,6.117086278737827e-8,4.083777690364952e-8,2.7526940204919984e-8,1.1115920530891191e-7,0
43550,4.0118963245617044e-8,1.2321095009708491e-9,2.6843217507786846e-8,5.254331728770777e-8,6.117624950623426e-8,3.928757100176764e-8,2.752278392036964e-8,1.1046390657981797e-7,0
43551,4.000015218189375e-8,1.230203669139721e-9,2.6599222716774586e-8,5.268907442032618e-8,6.112373108077762e-8,3.9222693248494696e-8,2.7202522110349284e-8,1.0950443350498868e-7,0
43552,3.9880165675054766e-8,1.2263943653659956e-9,2.634343275276964e-8,5.2875753949135523e-8,6.163724796928452e-8,3.922842490331927e-8,2.6880306852763272e-8,1.0855185193483074e-7,0
43553,3.976308595930624e-8,1.2232645358734076e-9,2.6091449025326347e-8,5.308156650248219e-8,6.177729772113613e-8,3.918755421890915e-8,2.658300848144645e-8,1.0759594665136825e-7,0
43554,3.9646006243557705e-8,1.2201347063808196e-9,2.5839465297883055e-8,5.328737905582885e-8,6.191734747298775e-8,3.914668353449904e-8,2.6285710110129627e-8,1.0664004136790578e-7,0
43555,3.952892652780917e-8,1.2170048768882318e-9,2.5587481570439765e-8,5.3493191609175514e-8,6.205739722483936e-8,3.910581285008892e-8,2.5988411738812808e-8,1.056841360844433e-7,0
43556,3.941184681206064e-8,1.2138750473956438e-9,2.5335497842996472e-8,5.3699004162522175e-8,6.219744697669097e-8,3.906494216567881e-8,2.5691113367495985e-8,1.0472823080098082e-7,0
43557,3.9385447954375294e-8,1.2146002919398965e-9,2.5283137652245462e-8,5.378025163946697e-8,6.21639800149375e-8,3.900053609432221e-8,2.560584735404475e-8,1.0460349504097904e-7,0
43558,3.9359049096689944e-08,1.2153255364841494e-9,2.523077746149445e-8,5.3861499116411753e-8,6.213051305318403e-8,3.893613002296561e-8,2.5520581340593513e-8,1.0447875928097726e-7,0
43559,3.93326502390046e-8,1.2160507810284021e-9,2.5178417270743437e-8,5.3942746593356546e-8,6.209704609143055e-8,3.887172395160902e-8,2.5435315327142276e-8,1.0435402352097548e-7,0
43560,3.930625138131925e-8,1.2167760255726548e-9,2.5126057079992426e-8,5.402399407030133e-8,6.206357912967708e-8,3.880731788025242e-8,2.535004931369104e-8,1.042292877609737e-7,0
43561,3.927996682711763e-8,1.2168217958357702e-9,2.5070573194172965e-8,5.395800487383245e-8,6.298811816371233e-8,3.8735296673663915e-8,2.5264367651208087e-8,1.0410787571427646e-7,0
43562,3.925192234907031e-8,1.2176385809062537e-9,2.501517675926364e-8,5.384191661991719e-8,6.277869153431861e-8,3.865256581065589e-8,2.5160294483603657e-8,1.0397806138413306e-7,0
43563,3.9223877871022996e-8,1.2184553659767372e-9,2.495978032435432e-8,5.372582836600192e-8,6.25692649049249e-8,3.8569834947647876e-8,2.505622131599923e-8,1.0384824705398967e-7,0
43564,3.919583339297569e-8,1.2192721510472207e-9,2.4904383889444994e-8,5.3609740112086664e-8,6.235983827553118e-8,3.848710408463985e-8,2.4952148148394804e-8,1.0371843272384628e-7,0
43565,3.916778891492837e-8,1.2200889361177042e-9,2.4848987454535673e-8,5.3493651858171404e-8,6.215041164613746e-8,3.8404373221631836e-8,2.4848074980790374e-8,1.0358861839370289e-7,0
43566,3.9139744436881055e-8,1.220905721188188e-9,2.4793591019626348e-8,5.3377563604256145e-8,6.194098501674375e-8,3.832164235862381e-8,2.4744001813185948e-8,1.034588040635595e-7,0
43567,3.9111699958833746e-8,1.2217225062586714e-9,2.4738194584717026e-8,5.326147535034088e-8,6.173155838735003e-8,3.823891149561579e-8,2.463992864558152e-8,1.0332898973341611e-7,0
43568,3.908365548078643e-8,1.222539291329155e-9,2.46827981498077e-8,5.314538709642562e-8,6.152213175795631e-8,3.815618063260777e-8,2.453585547797709e-8,1.0319917540327273e-7,0
43569,3.9055611002739114e-8,1.2233560763996384e-9,2.462740171489838e-8,5.302929884251036e-8,6.13127051285626e-8,3.807344976959975e-8,2.4431782310372665e-8,1.0306936107312934e-7,0
43570,3.9027566524691804e-8,1.2241728614701219e-9,2.4572005279989058e-08,5.29132105885951e-8,6.110327849916888e-8,3.799071890659173e-8,2.4327709142768238e-8,1.0293954674298595e-7,0
43571,3.899952204664449e-8,1.2249896465406054e-9,2.4516608845079733e-8,5.279712233467984e-8,6.089385186977516e-8,3.790798804358371e-8,2.4223635975163808e-8,1.0280973241284255e-7,0
43572,3.897147756859717e-8,1.2258064316110889e-9,2.4461212410170412e-8,5.2681034080764576e-8,6.068442524038145e-8,3.782525718057569e-8,2.4119562807559382e-8,1.0267991808269916e-7,0
43573,3.9005214843685976e-8,1.2258522018742043e-9,2.4413621123316123e-8,5.2590581340972577e-8,6.11788394421006e-8,3.780745344845377e-8,2.402527767309525e-8,1.025788057971452e-7,0
43574,3.893769227267037e-8,1.2251727275930667e-9,2.4416123775457877e-8,5.211444063708792e-8,6.192058561300463e-8,3.7199986446061345e-8,2.403255117105835e-8,1.0135503988059728e-7,0
43575,3.8297226987530886e-8,1.2288447205774461e-09,2.4179329448038326e-8,5.2120275850508646e-8,6.194572291414865e-8,3.718632411897462e-8,2.4028706610421366e-8,9.811021134804027e-8,0
43576,3.765676170239141e-8,1.2325167135618255e-9,2.3942535120618774e-8,5.212611106392938e-8,6.197086021529268e-8,3.71726617918879e-8,2.4024862049784385e-8,9.486538281548327e-8,0
43577,3.701629641725193e-8,1.2361887065462048e-9,2.3705740793199223e-8,5.213194627735011e-8,6.19959975164367e-8,3.7158999464801176e-8,2.40210174891474e-8,9.162055428292626e-8,0
43578,3.637583113211245e-8,1.239860699530584e-9,2.346894646577967e-8,5.213778149077084e-8,6.202113481758073e-8,3.714533713771445e-8,2.401717292851042e-8,8.837572575036925e-8,0
43579,3.573536584697297e-8,1.2435326925149634e-9,2.323215213836012e-8,5.214361670419157e-8,6.204627211872475e-8,3.713167481062773e-8,2.401332836787344e-8,8.513089721781224e-8,0
43580,3.509490056183349e-8,1.2472046854993428e-9,2.299535781094057e-8,5.21494519176123e-8,6.207140941986878e-8,3.7118012483541006e-8,2.4009483807236456e-8,8.188606868525522e-8,0
43581,3.445443527669401e-8,1.2508766784837221e-9,2.2758563483521017e-8,5.2155287131033034e-8,6.20965467210128e-8,3.710435015645428e-8,2.4005639246599475e-8,7.864124015269821e-8,0
43582,3.381396999155453e-8,1.2545486714681015e-9,2.252176915610147e-8,5.216112234445376e-8,6.212168402215683e-8,3.709068782936756e-8,2.400179468596249e-8,7.53964116201412e-8,0
43583,3.317350470641505e-8,1.2582206644524809e-9,2.2284974828681918e-8,5.21669575578745e-8,6.214682132330085e-8,3.7077025502280836e-8,2.399795012532551e-8,7.215158308758419e-8,0
43584,3.253303942127557e-8,1.2618926574368602e-9,2.2048180501262367e-8,5.2172792771295225e-8,6.217195862444488e-8,3.706336317519411e-8,2.3994105564688527e-8,6.890675455502718e-8,0
43585,3.189257413613609e-8,1.2655646504212394e-9,2.1811386173842815e-8,5.217862798471596e-8,6.21970959255889e-8,3.704970084810739e-8,2.3990261004051546e-8,6.566192602247017e-8,0
43586,3.1252108850996614e-8,1.2692366434056188e-9,2.1574591846423264e-8,5.218446319813669e-8,6.222223322673293e-8,3.703603852102067e-8,2.3986416443414562e-8,6.241709748991317e-8,0
43587,3.061164356585713e-8,1.2729086363899981e-9,2.1337797519003712e-8,5.219029841155742e-8,6.224737052787695e-8,3.7022376193933943e-08,2.398257188277758e-8,5.917226895735616e-8,0
43588,2.997117828071765e-8,1.2765806293743775e-9,2.110100319158416e-8,5.219613362497815e-8,6.227250782902098e-8,3.700871386684722e-8,2.39787273221406e-8,5.592744042479915e-8,0
43589,2.9330712995578175e-8,1.2802526223587569e-9,2.086420886416461e-8,5.2201968838398885e-8,6.2297645130165e-8,3.69950515397605e-8,2.3974882761503617e-8,5.2682611892242134e-8,0
43590,2.8690247710438694e-8,1.2839246153431363e-9,2.0627414536745058e-8,5.2207804051819613e-8,6.232278243130903e-8,3.6981389212673774e-8,2.3971038200866636e-8,4.9437783359685126e-8,0
43591,2.8049782425299213e-8,1.2875966083275154e-9,2.0390620209325507e-8,5.221363926524034e-8,6.234791973245305e-8,3.696772688558705e-8,2.3967193640229652e-8,4.619295482712812e-8,0
43592,2.7409317140159735e-8,1.2912686013118948e-9,2.0153825881905956e-8,5.2219474478661076e-8,6.237305703359708e-8,3.695406455850033e-8,2.396334907959267e-8,4.294812629457111e-8,0
43593,2.6768851855020255e-8,1.2949405942962742e-9,1.9917031554486404e-8,5.2225309692081804e-8,6.23981943347411e-8,3.6940402231413604e-8,2.3959504518955687e-8,3.97032977620141e-8,0
43594,2.674200491430387e-8,1.2978873427364008e-9,1.991921035533123e-8,5.093884301621565e-8,6.111904306897277e-8,3.6889013118717545e-8,2.3959504518955687e-8,3.9585846701408176e-8,0
43595,2.6667769945797128e-8,1.2981138341634466e-9,1.99221591485794e-8,5.093884301621565e-8,6.141031530095534e-8,3.668182180531933e-8,2.396837817566791e-8,3.8998973996110414e-8,0
43596,2.659353497729039e-8,1.2983403255904924e-9,1.9925107941827577e-8,5.093884301621565e-8,6.170158753293791e-8,3.6474630491921116e-8,2.3977251832380135e-8,3.8412101290812645e-8,0
43597,2.6519300008783646e-8,1.3006533700125969e-9,1.9944550426842927e-8,5.107842194779959e-8,6.20431333383743e-8,3.626067016942788e-8,2.4002168718649328e-8,3.782243266417389e-8,0
43598,2.6445065040276907e-8,1.3029664144347012e-9,1.9963992911858278e-8,5.121800087938352e-8,6.238467914381068e-8,3.604670984693465e-8,2.402708560491852e-8,3.723276403753514e-8,0
43599,2.6370830071770164e-8,1.3052794588568057e-9,1.998343539687363e-8,5.135757981096746e-8,6.272622494924707e-8,3.583274952444141e-8,2.405200249118771e-8,3.664309541089638e-8,0
43600,2.6296595103263425e-8,1.3075925032789102e-9,2.000287788188898e-8,5.14971587425514e-8,6.306777075468347e-8,3.561878920194818e-8,2.40769193774569e-8,3.6053426784257624e-8,0
43601,2.6222360134756682e-8,1.3099055477010146e-9,2.002232036690433e-8,5.163673767413534e-8,6.340931656011985e-8,3.540482887945494e-8,2.410183626372609e-8,3.546375815761887e-8,0
43602,2.6148125166249943e-8,1.312218592123119e-9,2.004176285191968e-8,5.177631660571928e-8,6.375086236555623e-8,3.51908685569617e-8,2.4126753149995283e-8,3.487408953098011e-8,0
43603,2.60738901977432e-8,1.3145316365452236e-9,2.006120533693503e-8,5.191589553730321e-8,6.409240817099262e-8,3.497690823446847e-8,2.4151670036264476e-8,3.4284420904341356e-8,0
43604,2.5999655229236458e-8,1.316844680967328e-9,2.0080647821950382e-8,5.205547446888715e-8,6.4433953976429e-8,3.476294791197523e-8,2.4176586922533665e-8,3.3694752277702596e-8,0
43605,2.592542026072972e-8,1.3191577253894324e-9,2.0100090306965733e-8,5.219505340047109e-8,6.477549978186539e-8,3.4548987589482e-8,2.4201503808802857e-8,3.310508365106384e-8,0
43606,2.5851185292222976e-8,1.321470769811537e-9,2.0119532791981084e-8,5.233463233205503e-8,6.511704558730177e-8,3.4335027266988763e-8,2.4226420695072046e-8,3.251541502442509e-8,0
43607,2.5776950323716236e-8,1.3237838142336414e-9,2.0138975276996434e-8,5.247421126363897e-8,6.545859139273816e-8,3.412106694449552e-8,2.425133758134124e-8,3.192574639778633e-8,0
43608,2.5697378431930565e-8,1.3248270907311707e-9,2.0142098972064884e-8,5.277645961367821e-8,6.569719461651307e-8,3.3898044605031926e-8,2.425341572361641e-8,3.132977605856296e-8,0
43609,2.5617806540144893e-8,1.3258703672287e-9,2.0145222667133334e-8,5.307870796371745e-8,6.593579784028799e-8,3.367502226556833e-8,2.4255493865891583e-8,3.07338057193396e-8,0
43610,2.553823464835922e-8,1.3269136437262293e-9,2.0148346362201787e-8,5.338095631375669e-8,6.617440106406292e-8,3.345199992610473e-8,2.4257572008166755e-8,3.013783538011623e-8,0
43611,2.545866275657355e-8,1.3279569202237587e-9,2.0151470057270237e-8,5.368320466379594e-8,6.641300428783784e-8,3.322897758664113e-8,2.4259650150441927e-8,2.9541865040892865e-8,0
43612,2.5379090864787877e-8,1.329000196721288e-9,2.0154593752338687e-8,5.3985453013835184e-8,6.665160751161275e-8,3.300595524717753e-8,2.42617282927171e-8,2.8945894701669496e-8,0
43613,2.5299518973002205e-8,1.3300434732188173e-9,2.0157717447407137e-8,5.4287701363874426e-8,6.689021073538767e-8,3.278293290771393e-8,2.426380643499227e-8,2.834992436244613e-8,0
43614,2.5219947081216533e-8,1.3310867497163465e-9,2.0160841142475587e-8,5.458994971391367e-8,6.712881395916259e-8,3.255991056825033e-8,2.4265884577267442e-8,2.7753954023222765e-8,0
43615,2.5179903952485323e-8,1.3309494389270006e-9,2.0070628326827635e-8,5.4475509523841686e-8,6.717843984288297e-8,3.19159884579467e-8,2.42679419242306e-8,2.765964612580114e-8,0
43616,2.513986082375411e-8,1.3308121281376544e-9,1.9980415511179683e-8,5.4361069333769705e-8,6.722806572660336e-8,3.1272066347643065e-8,2.4269999271193756e-8,2.7565338228379512e-8,0
43617,2.513986082375411e-8,1.3319445852728835e-9,1.9976565549162957e-8,5.4071572741075795e-8,6.733115786218159e-8,3.098205971037619e-8,2.352290871796258e-8,2.679274728554167e-8,0
43618,2.513986082375411e-8,1.3330770424081126e-9,1.9972715587146234e-8,5.378207614838188e-8,6.743424999775982e-8,3.069205307310932e-8,2.2775818164731404e-8,2.602015634270383e-8,0
43619,2.513986082375411e-8,1.3342094995433416e-9,1.9968865625129507e-8,5.349257955568797e-8,6.753734213333805e-8,3.040204643584245e-8,2.202872761150023e-8,2.524756539986599e-8,0
43620,2.513986082375411e-8,1.3353419566785707e-9,1.996501566311278e-8,5.320308296299405e-8,6.764043426891629e-8,3.0112039798575576e-8,2.1281637058269052e-8,2.447497445702815e-8,0
43621,2.513986082375411e-8,1.3364744138137998e-9,1.9961165701096055e-8,5.291358637030014e-8,6.774352640449452e-8,2.982203316130871e-8,2.0534546505037878e-8,2.3702383514190307e-8,0
43622,2.513986082375411e-8,1.3376068709490289e-9,1.995731573907933e-8,5.262408977760622e-8,6.784661854007275e-8,2.953202652404184e-8,1.97874559518067e-8,2.2929792571352467e-8,0
43623,2.513986082375411e-8,1.338739328084258e-9,1.9953465777062602e-8,5.233459318491231e-8,6.794971067565099e-8,2.9242019886774966e-8,1.9040365398575523e-8,2.2157201628514626e-8,0
43624,2.513986082375411e-8,1.339871785219487e-9,1.9949615815045876e-8,5.2045096592218396e-8,6.805280281122921e-8,2.8952013249508094e-8,1.829327484534435e-8,2.1384610685676785e-8,0
43625,2.513986082375411e-8,1.3410042423547161e-9,1.994576585302915e-8,5.1755599999524486e-8,6.815589494680745e-8,2.8662006612241225e-8,1.754618429211317e-8,2.0612019742838944e-8,0
43626,2.513986082375411e-8,1.3421366994899452e-9,1.9941915891012423e-8,5.146610340683057e-8,6.825898708238569e-8,2.8371999974974353e-8,1.6799093738881997e-8,1.9839428800001103e-8,0
43627,2.5137573570920283e-8,1.3434064674145202e-9,1.993783841516463e-8,5.136779976158085e-8,6.931011004852508e-8,2.8082296097902554e-8,1.604691175508125e-8,1.906242559865477e-8,0
43628,2.5135521406709593e-8,1.3464447563808775e-9,1.9940104666919595e-8,5.106266537718188e-8,6.928976104480313e-8,2.779391479367254e-8,1.5299821201850073e-8,1.8299718679191527e-8,0
43629,2.5135521406709593e-8,1.351521468190647e-9,1.994809360335063e-8,5.0797156234767945e-8,6.948622029891632e-8,2.7573845124876145e-8,1.4571745627287949e-8,1.7520629426406827e-8,0
43630,2.5088730822960622e-8,1.3535598910340595e-9,1.990372234903065e-8,5.0629950737603736e-8,6.911569641266475e-8,2.7613621065356027e-8,1.4594709065991484e-8,1.7499954912392755e-8,0
43631,2.504194023921165e-8,1.3555983138774719e-9,1.985935109471067e-8,5.046274524043952e-8,6.874517252641318e-8,2.765339700583591e-8,1.4617672504695018e-8,1.7479280398378684e-8,0
43632,2.4944762627313388e-8,1.3493386548922958e-9,1.9491263114979733e-8,5.0053412813680625e-8,6.888816552866851e-8,2.7703299388757467e-8,1.4498678308477554e-8,1.7324739529160363e-8,0
43633,2.4847585015415125e-8,1.34307899590712e-9,1.91231751352488e-8,4.964408038692173e-8,6.903115853092385e-8,2.7753201771679022e-8,1.4379684112260088e-8,1.717019865994204e-8,0
43634,2.4750407403516865e-8,1.336819336921944e-9,1.8755087155517862e-8,4.923474796016283e-8,6.917415153317918e-8,2.780310415460058e-8,1.4260689916042624e-8,1.701565779072372e-8,0
43635,2.4653229791618602e-8,1.3305596779367682e-9,1.8386999175786925e-8,4.882541553340393e-8,6.93171445354345e-8,2.785300653752214e-8,1.4141695719825158e-8,1.6861116921505396e-8,0
43636,2.455605217972034e-8,1.3243000189515922e-9,1.801891119605599e-8,4.841608310664503e-8,6.946013753768984e-8,2.7902908920443697e-8,1.4022701523607692e-8,1.6706576052287075e-8,0
43637,2.4458874567822076e-8,1.3180403599664163e-9,1.765082321632505e-8,4.8006750679886137e-8,6.960313053994518e-8,2.7952811303365252e-8,1.3903707327390227e-8,1.6552035183068754e-8,0
43638,2.4361696955923816e-8,1.3117807009812405e-9,1.7282735236594115e-8,4.7597418253127234e-8,6.974612354220051e-8,2.800271368628681e-8,1.3784713131172762e-8,1.6397494313850433e-8,0
43639,2.4264519344025553e-8,1.3055210419960645e-9,1.6914647256863178e-8,4.718808582636834e-8,6.988911654445585e-8,2.805261606920837e-8,1.3665718934955297e-8,1.6242953444632112e-8,0
43640,2.416734173212729e-8,1.2992613830108887e-9,1.654655927713224e-8,4.677875339960944e-8,7.003210954671118e-8,2.8102518452129924e-8,1.3546724738737831e-8,1.608841257541379e-8,0
43641,2.4070164120229027e-8,1.2930017240257127e-9,1.6178471297401304e-8,4.6369420972850544e-8,7.01751025489665e-8,2.8152420835051482e-8,1.3427730542520367e-8,1.593387170619547e-8,0
43642,2.3972986508330767e-8,1.2867420650405369e-9,1.5810383317670367e-8,4.596008854609164e-8,7.031809555122184e-8,2.820232321797304e-8,1.3308736346302901e-8,1.577933083697715e-8,0
43643,2.3875808896432504e-8,1.2804824060553608e-9,1.544229533793943e-8,4.5550756119332745e-8,7.046108855347718e-8,2.82522256008946e-8,1.3189742150085437e-8,1.5624789967758828e-8,0
43644,2.377863128453424e-8,1.274222747070185e-9,1.5074207358208493e-8,4.514142369257385e-8,7.060408155573251e-8,2.8302127983816154e-8,1.3070747953867971e-8,1.5470249098540507e-8,0
43645,2.3681453672635978e-8,1.267963088085009e-9,1.4706119378477557e-8,4.4732091265814945e-8,7.074707455798785e-8,2.8352030366737712e-8,1.2951753757650505e-8,1.5315708229322185e-8,0
43646,2.3584276060737718e-8,1.2617034290998332e-9,1.433803139874662e-8,4.432275883905605e-8,7.089006756024318e-8,2.840193274965927e-8,1.283275956143304e-8,1.5161167360103864e-8,0
43647,2.3487098448839455e-8,1.2554437701146572e-9,1.3969943419015683e-8,4.391342641229715e-8,7.10330605624985e-8,2.845183513258083e-8,1.2713765365215575e-8,1.500662649088554e-8,0
43648,2.3389920836941192e-8,1.2491841111294813e-9,1.3601855439284746e-8,4.3504093985538256e-8,7.117605356475384e-8,2.8501737515502384e-8,1.259477116899811e-8,1.485208562166722e-8,0
43649,2.329274322504293e-8,1.2429244521443053e-9,1.323376745955381e-8,4.309476155877935e-8,7.1319046567009175e-08,2.8551639898423942e-8,1.2475776972780645e-8,1.46975447524489e-8,0
43650,2.3205397796134154e-8,1.2366647931591295e-9,1.2853840581375115e-8,4.298769618112196e-8,7.270677820743006e-8,2.853444645148073e-8,1.235164975536958e-8,1.4543895831072283e-8,0
43651,2.320554067548881e-8,1.2366647931591295e-9,1.2386220605478128e-8,4.3222461055846596e-8,7.264612904646368e-8,2.8539260296142966e-8,1.2323428626483785e-8,1.4169034006725409e-8,0
43652,2.3210820447025877e-8,1.2346240104271862e-9,1.2345917940450223e-8,4.312857028640591e-8,7.296567972625948e-8,2.8540774097118324e-8,1.219416846504169e-8,1.4084504574285674e-8,0
43653,2.321610021856295e-8,1.232583227695243e-9,1.2305615275422318e-8,4.303467951696522e-8,7.328523040605526e-8,2.8542287898093685e-8,1.2064908303599594e-8,1.3999975141845939e-8,0
43654,2.3221379990100017e-8,1.2305424449632997e-9,1.2265312610394412e-8,4.294078874752453e-8,7.360478108585105e-8,2.8543801699069047e-8,1.1935648142157497e-8,1.3915445709406204e-8,0
43655,2.3226659761637085e-8,1.2285016622313563e-9,1.2225009945366507e-8,4.284689797808384e-8,7.392433176564685e-8,2.8545315500044408e-8,1.18063879807154e-8,1.3830916276966469e-8,0
43656,2.3231939533174156e-8,1.2264608794994132e-9,1.2184707280338602e-8,4.2753007208643145e-8,7.424388244544263e-8,2.854682930101977e-8,1.1677127819273304e-8,1.3746386844526734e-8,0
43657,2.3237219304711224e-8,1.2244200967674698e-9,1.2144404615310697e-8,4.2659116439202454e-8,7.456343312523843e-8,2.8548343101995127e-8,1.1547867657831207e-8,1.3661857412086999e-8,0
43658,2.3242499076248292e-8,1.2223793140355265e-9,1.2104101950282792e-8,4.256522566976176e-8,7.488298380503422e-8,2.8549856902970488e-8,1.141860749638911e-8,1.3577327979647264e-8,0
43659,2.3247778847785363e-8,1.2203385313035833e-9,1.2063799285254887e-8,4.247133490032107e-8,7.520253448483002e-8,2.855137070394585e-8,1.1289347334947015e-8,1.3492798547207529e-8,0
43660,2.325305861932243e-8,1.21829774857164e-9,1.2023496620226982e-8,4.237744413088038e-8,7.55220851646258e-8,2.855288450492121e-8,1.1160087173504919e-8,1.3408269114767794e-8,0
43661,2.3258338390859503e-8,1.2162569658396966e-9,1.1983193955199075e-8,4.228355336143969e-8,7.58416358444216e-8,2.8554398305896572e-8,1.1030827012062822e-8,1.3323739682328058e-8,0
43662,2.326361816239657e-8,1.2142161831077535e-9,1.194289129017117e-8,4.2189662591999e-8,7.616118652421739e-8,2.855591210687193e-8,1.0901566850620725e-8,1.3239210249888323e-8,0
43663,2.326889793393364e-8,1.21217540037581e-9,1.1902588625143265e-8,4.2095771822558306e-8,7.648073720401317e-8,2.855742590784729e-8,1.0772306689178629e-8,1.3154680817448588e-8,0
43664,2.3266140503853538e-8,1.210271928433213e-9,1.1750713504014109e-8,4.2270236851260856e-8,7.679674672638846e-8,2.8574597048378204e-8,1.0725319971042815e-8,1.3079431096873536e-8,0
43665,2.3263383073773434e-8,1.2083684564906157e-9,1.1598838382884955e-8,4.24447018799634e-8,7.711275624876374e-8,2.8591768188909117e-8,1.0678333252907001e-8,1.3004181376298485e-8,0
43666,2.326062564369333e-8,1.2064649845480183e-9,1.1446963261755799e-8,4.261916690866595e-8,7.742876577113901e-8,2.8608939329440027e-8,1.0631346534771186e-8,1.2928931655723433e-8,0
43667,2.3257868213613226e-8,1.2045615126054212e-9,1.1295088140626643e-8,4.279363193736849e-8,7.77447752935143e-8,2.862611046997094e-8,1.0584359816635373e-8,1.2853681935148382e-8,0
43668,2.325511078353312e-8,1.202658040662824e-9,1.1143213019497487e-8,4.296809696607104e-8,7.806078481588958e-8,2.8643281610501853e-8,1.0537373098499559e-8,1.2778432214573332e-8,0
43669,2.3252353353453017e-8,1.2007545687202268e-9,1.099133789836833e-8,4.3142561994773586e-8,7.837679433826485e-8,2.8660452751032763e-8,1.0490386380363745e-8,1.270318249399828e-8,0
43670,2.3243525158353637e-8,1.1988053265145142e-9,1.0827230349695791e-8,4.3010938472484984e-8,7.838083424880257e-8,2.8653946654096774e-8,1.0441487779565447e-8,1.2630095344407967e-8,0
43671,2.323469696325426e-8,1.1968560843088016e-9,1.0663122801023251e-8,4.287931495019638e-8,7.83848741593403e-8,2.8647440557160782e-8,1.0392589178767148e-8,1.2557008194817656e-8,0
43672,2.3241708082766088e-8,1.1957236271735726e-9,1.0496066459102538e-8,4.288751478478556e-8,7.84868194405342e-8,2.8640934460224794e-8,1.035549439316913e-8,1.2479461306018818e-8,0
43673,2.32555809607794e-8,1.1926853382072153e-9,1.0352854636665438e-8,4.302851011246348e-8,7.859230587914861e-8,2.818510919434509e-8,1.0366612426048358e-8,1.2483465850379643e-8,0
43674,2.3222577527430945e-8,1.173735079641881e-9,9.893651257870921e-9,4.315865805496862e-8,7.855774225726114e-8,2.8132152138271953e-8,1.0374613245514827e-8,1.2483465850379643e-8,0
43675,2.318957409408249e-8,1.1547848210765466e-9,9.434447879076403e-9,4.328880599747376e-8,7.852317863537367e-8,2.8079195082198816e-8,1.0382614064981296e-8,1.2483465850379643e-8,0
43676,2.3156570660734038e-8,1.1358345625112122e-9,8.975244500281884e-9,4.34189539399789e-8,7.84886150134862e-8,2.8026238026125678e-8,1.0390614884447767e-8,1.2483465850379643e-8,0
43677,2.3123567227385588e-8,1.1168843039458779e-9,8.516041121487368e-9,4.3549101882484046e-8,7.845405139159872e-8,2.797328097005254e-8,1.0398615703914236e-8,1.2483465850379643e-8,0
43678,2.3090563794037134e-8,1.0979340453805433e-9,8.05683774269285e-9,4.3679249824989186e-8,7.841948776971126e-8,2.7920323913979402e-8,1.0406616523380705e-8,1.2483465850379643e-8,0
43679,2.305756036068868e-8,1.078983786815209e-9,7.597634363898333e-9,4.3809397767494326e-8,7.838492414782378e-8,2.7867366857906264e-8,1.0414617342847176e-8,1.2483465850379643e-8,0
43680,2.3024556927340227e-8,1.0600335282498745e-9,7.1384309851038156e-9,4.393954570999947e-8,7.835036052593632e-8,2.7814409801833127e-8,1.0422618162313645e-8,1.2483465850379643e-8,0
43681,2.2991553493991774e-8,1.0410832696845402e-9,6.679227606309298e-9,4.406969365250461e-8,7.831579690404884e-8,2.776145274575999e-8,1.0430618981780115e-8,1.2483465850379643e-8,0
43682,2.2958550060643323e-8,1.0221330111192058e-9,6.220024227514781e-9,4.419984159500975e-8,7.828123328216137e-8,2.770849568968685e-8,1.0438619801246586e-8,1.2483465850379643e-8,0
43683,2.292554662729487e-8,1.0031827525538714e-9,5.7608208487202625e-9,4.432998953751489e-8,7.82466696602739e-8,2.7655538633613713e-8,1.0446620620713055e-8,1.2483465850379643e-8,0
43684,2.2880515967391587e-8,9.87087701902433e-10,5.3067887894738145e-9,4.4463733255678104e-8,7.810103354428261e-8,2.7637382763683566e-8,1.0446454361100367e-8,1.2488558939944421e-8,0
43685,2.2835485307488304e-8,9.709926512509944e-10,4.8527567302273665e-9,4.459747697384131e-8,7.795539742829133e-8,2.7619226893753422e-8,1.044628810148768e-8,1.2493652029509201e-8,0
43686,2.2786671135399575e-8,9.5204239268566e-10,4.398724670980918e-9,4.477919559256447e-8,7.784282846906905e-8,2.7565401405131105e-8,1.0462227405926289e-8,1.2489450887786127e-8,0
43687,2.2784647547059817e-8,9.439708022841177e-10,4.3236582372251754e-9,4.492478024112306e-8,7.787634459623861e-8,2.7565401405131105e-8,1.0481200793971312e-8,1.2409602908332975e-8,0
43688,2.2721299419518837e-8,9.45014078781647e-10,4.329783337552589e-9,4.5055552120151186e-8,7.766567082684332e-8,2.752538962369305e-8,1.0437705373376803e-8,1.2290065796288683e-8,0
