time,channel1,channel2,channel3,channel4,channel5,channel6,channel7,channel8,class
37271,1.8321419805816056e-10,5.551458061218143e-10,1.535002500769787e-9,4.775144217669259e-9,6.4369051641368785e-9,6.323246819776207e-10,1.6685271973608018e-10,1.3386364660837282e-10,0
37272,1.8321419805816056e-10,5.536135268565503e-10,1.546103457310477e-9,4.775144217669259e-9,6.44380587590701e-9,6.330382876404289e-10,1.6656388498200379e-10,1.3434640656337215e-10,0
37273,1.8321419805816056e-10,5.520812475912864e-10,1.5572044138511672e-9,4.775144217669259e-9,6.450706587677142e-9,6.337518933032372e-10,1.6627505022792736e-10,1.348291665183715e-10,0
37274,1.8321419805816056e-10,5.505489683260224e-10,1.5683053703918572e-9,4.775144217669259e-9,6.457607299447274e-9,6.344654989660453e-10,1.6598621547385094e-10,1.3531192647337084e-10,0
37275,1.8321419805816056e-10,5.515824944740793e-10,1.5794063269325473e-9,4.775144217669259e-9,6.450857555343594e-9,6.347877777844472e-10,1.6577629711072037e-10,1.341535002539571e-10,0
37276,1.8321419805816056e-10,5.515824944740793e-10,1.593161534011943e-9,4.784895868015916e-9,6.363862171380053e-9,6.32079159652811e-10,1.6469987448536056e-10,1.3481317335616385e-10,0
37277,1.8321419805816056e-10,5.515824944740793e-10,1.6069167410913385e-9,4.794647518362574e-9,6.276866787416512e-9,6.293705415211749e-10,1.6362345186000077e-10,1.354728464583706e-10,0
37278,1.8383313076434517e-10,5.504409085850932e-10,1.6070130320629408e-9,4.8014513324054864e-9,6.1873980958346276e-9,6.260557439995312e-10,1.6254702923464096e-10,1.354728464583706e-10,0
37279,1.8409152470359686e-10,5.488726094061863e-10,1.6079784413068206e-9,4.801041944087272e-9,6.09302370495144e-9,6.253037600899269e-10,1.6175944136335754e-10,1.361325195605774e-10,0
37280,1.843499186428486e-10,5.473043102272793e-10,1.6089438505507005e-9,4.8006325557690585e-9,5.998649314068252e-9,6.245517761803227e-10,1.6097185349207415e-10,1.3679219266278415e-10,0
37281,1.846083125821003e-10,5.457360110483723e-10,1.6099092597945803e-9,4.800223167450844e-9,5.904274923185065e-9,6.237997922707185e-10,1.6018426562079076e-10,1.374518657649909e-10,0
37282,1.8486670652135199e-10,5.441677118694652e-10,1.6108746690384602e-9,4.79981377913263e-9,5.809900532301877e-9,6.230478083611142e-10,1.5939667774950735e-10,1.3811153886719767e-10,0
37283,1.8512510046060369e-10,5.425994126905582e-10,1.61184007828234e-9,4.799404390814415e-9,5.715526141418689e-9,6.222958244515099e-10,1.5860908987822396e-10,1.3877121196940443e-10,0
37284,1.853834943998554e-10,5.410311135116513e-10,1.61280548752622e-9,4.798995002496201e-9,5.621151750535501e-9,6.215438405419057e-10,1.5782150200694057e-10,1.394308850716112e-10,0
37285,1.856418883391071e-10,5.394628143327443e-10,1.6137708967700998e-9,4.798585614177987e-9,5.526777359652313e-9,6.207918566323014e-10,1.5703391413565715e-10,1.4009055817381795e-10,0
37286,1.859002822783588e-10,5.378945151538372e-10,1.6147363060139796e-9,4.798176225859773e-9,5.432402968769126e-9,6.200398727226971e-10,1.5624632626437376e-10,1.4075023127602473e-10,0
37287,1.861586762176105e-10,5.363262159749302e-10,1.6157017152578595e-9,4.7977668375415585e-9,5.338028577885938e-9,6.19287888813093e-10,1.5545873839309037e-10,1.414099043782315e-10,0
37288,1.864170701568622e-10,5.347579167960232e-10,1.6166671245017394e-9,4.797357449223344e-9,5.24365418700275e-9,6.185359049034887e-10,1.5467115052180696e-10,1.4206957748043825e-10,0
37289,1.8667546409611393e-10,5.331896176171162e-10,1.6176325337456192e-9,4.79694806090513e-9,5.149279796119563e-9,6.177839209938844e-10,1.5388356265052357e-10,1.42729250582645e-10,0
37290,1.8693385803536563e-10,5.316213184382092e-10,1.618597942989499e-9,4.796538672586916e-9,5.054905405236374e-9,6.170319370842802e-10,1.5309597477924018e-10,1.4338892368485177e-10,0
37291,1.8719225197461733e-10,5.300530192593022e-10,1.619563352233379e-9,4.796129284268702e-9,4.960531014353187e-9,6.162799531746759e-10,1.5230838690795676e-10,1.4404859678705853e-10,0
37292,1.8745064591386902e-10,5.284847200803952e-10,1.6205287614772586e-9,4.795719895950487e-9,4.866156623469999e-9,6.155279692650717e-10,1.5152079903667338e-10,1.4470826988926529e-10,0
37293,1.8745064591386902e-10,5.300169993456592e-10,1.620625052448861e-9,4.795853943148976e-9,4.7793862771510654e-9,6.128193511334356e-10,1.5044437641131356e-10,1.4536794299147207e-10,0
37294,1.8733046632489138e-10,5.300169993456592e-10,1.6253064124469286e-9,4.797030178981376e-9,4.6923908931875246e-9,6.128193511334356e-10,1.5044437641131356e-10,1.4536794299147207e-10,0
37295,1.8721028673591376e-10,5.312971392154219e-10,1.6253064124469286e-9,4.803833993024288e-9,4.598494797453852e-9,6.11215665509014e-10,1.4965678854003017e-10,1.4554485613867947e-10,0
37296,1.870901071469361e-10,5.312971392154219e-10,1.6243410032030488e-9,4.806283076210827e-9,4.594067393302064e-9,6.130342036790367e-10,1.4965678854003017e-10,1.439036699642664e-10,0
37297,1.8635099485177386e-10,5.341455782640917e-10,1.6247755623391875e-9,4.813496278571953e-9,4.566889229360589e-9,6.148527418490596e-10,1.4886920066874676e-10,1.4342091000926706e-10,0
37298,1.856118825566116e-10,5.369940173127614e-10,1.6252101214753262e-9,4.82070948093308e-9,4.539711065419113e-9,6.166712800190823e-10,1.4808161279746337e-10,1.429381500542677e-10,0
37299,1.8487277026144932e-10,5.398424563614313e-10,1.6256446806114649e-9,4.827922683294206e-9,4.512532901477638e-9,6.184898181891051e-10,1.4729402492617998e-10,1.4245539009926837e-10,0
37300,1.8413365796628706e-10,5.42690895410101e-10,1.6260792397476038e-9,4.835135885655333e-9,4.485354737536162e-9,6.203083563591279e-10,1.4650643705489656e-10,1.4197263014426904e-10,0
37301,1.833945456711248e-10,5.455393344587708e-10,1.6265137988837425e-9,4.842349088016459e-9,4.458176573594687e-9,6.221268945291506e-10,1.4571884918361317e-10,1.414898701892697e-10,0
37302,1.8265543337596254e-10,5.483877735074406e-10,1.6269483580198812e-9,4.849562290377586e-9,4.430998409653212e-9,6.239454326991734e-10,1.4493126131232978e-10,1.4100711023427036e-10,0
37303,1.819163210808003e-10,5.512362125561103e-10,1.6273829171560199e-9,4.856775492738712e-9,4.403820245711737e-9,6.257639708691961e-10,1.441436734410464e-10,1.4052435027927103e-10,0
37304,1.8117720878563803e-10,5.540846516047802e-10,1.6278174762921588e-9,4.8639886950998386e-9,4.376642081770261e-9,6.275825090392189e-10,1.4335608556976298e-10,1.4004159032427167e-10,0
37305,1.8043809649047575e-10,5.569330906534499e-10,1.6282520354282975e-9,4.871201897460965e-9,4.349463917828786e-9,6.294010472092417e-10,1.425684976984796e-10,1.3955883036927234e-10,0
37306,1.796989841953135e-10,5.597815297021196e-10,1.6286865945644362e-9,4.8784150998220915e-9,4.32228575388731e-9,6.312195853792645e-10,1.417809098271962e-10,1.39076070414273e-10,0
37307,1.7908005148912888e-10,5.603163027329697e-10,1.6286544975739022e-9,4.8784150998220915e-9,4.29516896384891e-9,6.316109122236708e-10,1.417809098271962e-10,1.3825547732706645e-10,0
37308,1.7846111878294424e-10,5.608510757638197e-10,1.628622400583368e-9,4.8784150998220915e-9,4.268052173810509e-9,6.320022390680773e-10,1.417809098271962e-10,1.374348842398599e-10,0
37309,1.7784218607675963e-10,5.613858487946697e-10,1.628590303592834e-9,4.8784150998220915e-9,4.240935383772108e-9,6.323935659124836e-10,1.417809098271962e-10,1.3661429115265337e-10,0
37310,1.77223253370575e-10,5.619206218255197e-10,1.6285582066022997e-9,4.8784150998220915e-9,4.213818593733707e-9,6.327848927568899e-10,1.417809098271962e-10,1.3579369806544682e-10,0
37311,1.7734343295955264e-10,5.596069558077e-10,1.6212373947968657e-9,4.875288533920361e-9,4.196566814308379e-9,6.331762196012964e-10,1.419387426090879e-10,1.3381467875882654e-10,0
37312,1.7708503902030094e-10,5.596069558077e-10,1.6181164881314872e-9,4.873926321767229e-9,4.194175338560801e-9,6.26623381051601e-10,1.4280524687131714e-10,1.3381467875882654e-10,0
37313,1.7682664508104924e-10,5.60640481955757e-10,1.6164276468366616e-9,4.877730370384152e-9,4.209383427689309e-9,6.203928213203076e-10,1.4280524687131714e-10,1.3381467875882654e-10,0
37314,1.7656825114179755e-10,5.614939085355988e-10,1.6148992904945066e-9,4.879181947336277e-9,4.209383427689309e-9,6.135560821990064e-10,1.4259532850818657e-10,1.339755987438263e-10,0
37315,1.7630985720254582e-10,5.623473351154406e-10,1.6133709341523515e-9,4.8806335242884016e-9,4.209383427689309e-9,6.067193430777053e-10,1.42385410145056e-10,1.341365187288261e-10,0
37316,1.7605146326329412e-10,5.632007616952825e-10,1.6118425778101965e-9,4.882085101240526e-9,4.209383427689309e-9,5.998826039564043e-10,1.4217549178192544e-10,1.3429743871382587e-10,0
37317,1.7579306932404242e-10,5.640541882751243e-10,1.6103142214680412e-9,4.883536678192651e-9,4.209383427689309e-9,5.930458648351031e-10,1.4196557341879485e-10,1.3445835869882567e-10,0
37318,1.7553467538479072e-10,5.649076148549662e-10,1.6087858651258862e-9,4.8849882551447755e-9,4.209383427689309e-9,5.862091257138021e-10,1.4175565505566428e-10,1.3461927868382544e-10,0
37319,1.7527628144553903e-10,5.65761041434808e-10,1.6072575087837312e-9,4.8864398320969e-9,4.209383427689309e-9,5.7937238659250095e-10,1.4154573669253372e-10,1.3478019866882523e-10,0
37320,1.750178875062873e-10,5.666144680146499e-10,1.6057291524415761e-9,4.887891409049025e-9,4.209383427689309e-9,5.725356474711998e-10,1.4133581832940315e-10,1.34941118653825e-10,0
37321,1.747594935670356e-10,5.674678945944917e-10,1.604200796099421e-9,4.889342986001149e-9,4.209383427689309e-9,5.656989083498988e-10,1.4112589996627258e-10,1.3510203863882477e-10,0
37322,1.745010996277839e-10,5.683213211743336e-10,1.602672439757266e-9,4.890794562953273e-9,4.209383427689309e-9,5.588621692285976e-10,1.4091598160314202e-10,1.3526295862382456e-10,0
37323,1.742427056885322e-10,5.691747477541755e-10,1.601144083415111e-9,4.892246139905398e-9,4.209383427689309e-9,5.520254301072965e-10,1.4070606324001145e-10,1.3542387860882433e-10,0
37324,1.739843117492805e-10,5.700281743340172e-10,1.599615727072956e-9,4.893697716857523e-9,4.209383427689309e-9,5.451886909859955e-10,1.4049614487688088e-10,1.3558479859382412e-10,0
37325,1.7372591781002878e-10,5.708816009138591e-10,1.598087370730801e-9,4.895149293809647e-9,4.209383427689309e-9,5.383519518646943e-10,1.4028622651375032e-10,1.357457185788239e-10,0
37326,1.7346752387077708e-10,5.71735027493701e-10,1.5965590143886457e-9,4.896600870761772e-9,4.209383427689309e-9,5.315152127433933e-10,1.4007630815061975e-10,1.3590663856382369e-10,0
37327,1.7320912993152539e-10,5.725884540735428e-10,1.5950306580464906e-9,4.8980524477138966e-9,4.209383427689309e-9,5.246784736220922e-10,1.3986638978748918e-10,1.3606755854882345e-10,0
37328,1.7295073599227369e-10,5.720176611290498e-10,1.5924726984793875e-9,4.897233671077468e-9,4.291370822513088e-9,5.177343082279904e-10,1.420192350382088e-10,1.3606755854882345e-10,0
37329,1.7257216246404434e-10,5.720176611290498e-10,1.5922480195456487e-9,4.89582677652484e-9,4.2935294987234486e-9,5.107901428338888e-10,1.4209815142915464e-10,1.3622847853382325e-10,0
37330,1.72193588935815e-10,5.720176611290498e-10,1.59202334061191e-9,4.894419881972211e-9,4.2956881749338085e-9,5.03845977439787e-10,1.421770678201005e-10,1.3638939851882302e-10,0
37331,1.7181501540758565e-10,5.720176611290498e-10,1.591798661678171e-9,4.893012987419583e-9,4.2978468511441685e-9,4.969018120456854e-10,1.4225598421104636e-10,1.3655031850382279e-10,0
37332,1.714364418793563e-10,5.720176611290498e-10,1.5915739827444323e-9,4.8916060928669555e-9,4.300005527354528e-9,4.899576466515836e-10,1.423349006019922e-10,1.3671123848882258e-10,0
37333,1.7105786835112696e-10,5.720176611290498e-10,1.5913493038106936e-9,4.890199198314327e-9,4.302164203564888e-9,4.83013481257482e-10,1.4241381699293805e-10,1.3687215847382235e-10,0
37334,1.7067929482289762e-10,5.720176611290498e-10,1.5911246248769546e-9,4.888792303761699e-9,4.304322879775249e-9,4.760693158633802e-10,1.4249273338388388e-10,1.3703307845882214e-10,0
37335,1.7030072129466827e-10,5.720176611290498e-10,1.5908999459432159e-9,4.88738540920907e-9,4.306481555985609e-9,4.691251504692785e-10,1.4257164977482974e-10,1.371939984438219e-10,0
37336,1.6992214776643893e-10,5.720176611290498e-10,1.590675267009477e-9,4.885978514656442e-9,4.308640232195969e-9,4.6218098507517686e-10,1.426505661657756e-10,1.373549184288217e-10,0
37337,1.6954357423820958e-10,5.720176611290498e-10,1.5904505880757382e-9,4.8845716201038145e-9,4.310798908406329e-9,4.5523681968107516e-10,1.4272948255672143e-10,1.3751583841382147e-10,0
37338,1.6916500070998024e-10,5.720176611290498e-10,1.5902259091419994e-9,4.883164725551186e-9,4.312957584616689e-9,4.4829265428697346e-10,1.428083989476673e-10,1.3767675839882127e-10,0
37339,1.6730820259142638e-10,5.725884540735428e-10,1.5930900398831048e-9,4.881757830998558e-9,4.249869196236311e-9,4.448704304925291e-10,1.4202081107638387e-10,1.3783767838382104e-10,0
37340,1.6545140447287252e-10,5.700226486602218e-10,1.592865360949366e-9,4.881303760280847e-9,4.250053317945535e-9,4.414482066980848e-10,1.4123322320510049e-10,1.3799859836882083e-10,0
37341,1.6419550429920684e-10,5.657499900872172e-10,1.5909024454710721e-9,4.881259077881351e-9,4.250053317945535e-9,4.387779668132447e-10,1.415220579591769e-10,1.3799859836882083e-10,0
37342,1.629396041255412e-10,5.614773315142125e-10,1.5889395299927784e-9,4.881214395481854e-9,4.250053317945535e-9,4.361077269284046e-10,1.418108927132533e-10,1.3799859836882083e-10,0
37343,1.616837039518755e-10,5.572046729412079e-10,1.5869766145144846e-9,4.881169713082358e-9,4.250053317945535e-9,4.3343748704356456e-10,1.4209972746732973e-10,1.3799859836882083e-10,0
37344,1.6042780377820985e-10,5.529320143682031e-10,1.5850136990361907e-9,4.881125030682861e-9,4.250053317945535e-9,4.307672471587245e-10,1.4238856222140616e-10,1.3799859836882083e-10,0
37345,1.5917190360454417e-10,5.486593557951985e-10,1.583050783557897e-9,4.881080348283365e-9,4.250053317945535e-9,4.280970072738844e-10,1.4267739697548256e-10,1.3799859836882083e-10,0
37346,1.579160034308785e-10,5.443866972221938e-10,1.5810878680796032e-9,4.8810356658838685e-9,4.250053317945535e-9,4.2542676738904434e-10,1.4296623172955898e-10,1.3799859836882083e-10,0
37347,1.5666010325721284e-10,5.401140386491892e-10,1.5791249526013093e-9,4.8809909834843725e-9,4.250053317945535e-9,4.227565275042043e-10,1.432550664836354e-10,1.3799859836882083e-10,0
37348,1.5540420308354716e-10,5.358413800761845e-10,1.5771620371230155e-9,4.880946301084876e-9,4.250053317945535e-9,4.200862876193642e-10,1.435439012377118e-10,1.3799859836882083e-10,0
37349,1.541483029098815e-10,5.315687215031798e-10,1.5751991216447216e-9,4.88090161868538e-9,4.250053317945535e-9,4.174160477345241e-10,1.4383273599178823e-10,1.3799859836882083e-10,0
37350,1.5289240273621582e-10,5.272960629301752e-10,1.5732362061664278e-9,4.880856936285883e-9,4.250053317945535e-9,4.1474580784968407e-10,1.4412157074586465e-10,1.3799859836882083e-10,0
37351,1.5163650256255014e-10,5.230234043571705e-10,1.571273290688134e-9,4.880812253886387e-9,4.250053317945535e-9,4.1207556796484396e-10,1.4441040549994105e-10,1.3799859836882083e-10,0
37352,1.503806023888845e-10,5.187507457841659e-10,1.5693103752098402e-9,4.88076757148689e-9,4.250053317945535e-9,4.094053280800039e-10,1.4469924025401748e-10,1.3799859836882083e-10,0
37353,1.491247022152188e-10,5.144780872111612e-10,1.5673474597315464e-9,4.880722889087394e-9,4.250053317945535e-9,4.067350881951638e-10,1.4498807500809387e-10,1.3799859836882083e-10,0
37354,1.490045226262412e-10,5.134445610631042e-10,1.5688116220926332e-9,4.87591408751331e-9,4.2551226809883704e-9,4.067350881951638e-10,1.4420048713681048e-10,1.3733892526661404e-10,0
37355,1.4888434303726354e-10,5.124110349150473e-10,1.5640339711229634e-9,4.868656202752687e-9,4.259672832946308e-9,4.0634376135075747e-10,1.4427940352775634e-10,1.3749984525161384e-10,0
37356,1.487641634482859e-10,5.113775087669902e-10,1.5592563201532935e-9,4.861398317992064e-9,4.264222984904246e-9,4.059524345063511e-10,1.4435831991870217e-10,1.376607652366136e-10,0
37357,1.4864398385930825e-10,5.103439826189332e-10,1.5544786691836235e-9,4.854140433231441e-9,4.268773136862183e-9,4.055611076619447e-10,1.4443723630964803e-10,1.378216852216134e-10,0
37358,1.4852380427033063e-10,5.103439826189332e-10,1.5483973408055375e-9,4.849741019975571e-9,4.269688811225831e-9,4.149990386420813e-10,1.4443723630964803e-10,1.3980070452823368e-10,0
37359,1.4840362468135298e-10,5.10163883050718e-10,1.5436196898358675e-9,4.842527817614445e-9,4.270706775427936e-9,4.149990386420813e-10,1.4443723630964803e-10,1.3996162451323347e-10,0
37360,1.4828344509237534e-10,5.099837834825029e-10,1.5388420388661976e-9,4.835314615253318e-9,4.271724739630042e-9,4.149990386420813e-10,1.4443723630964803e-10,1.4012254449823324e-10,0
37361,1.481632655033977e-10,5.098036839142878e-10,1.5340643878965278e-9,4.828101412892192e-9,4.272742703832147e-9,4.149990386420813e-10,1.4443723630964803e-10,1.4028346448323304e-10,0
37362,1.4804308591442007e-10,5.096235843460727e-10,1.529286736926858e-9,4.820888210531065e-9,4.273760668034253e-9,4.149990386420813e-10,1.4443723630964803e-10,1.404443844682328e-10,0
37363,1.4792290632544243e-10,5.094434847778575e-10,1.524509085957188e-9,4.813675008169939e-9,4.274778632236358e-9,4.149990386420813e-10,1.4443723630964803e-10,1.4060530445323257e-10,0
37364,1.4780272673646478e-10,5.092633852096424e-10,1.519731434987518e-9,4.806461805808812e-9,4.275796596438464e-9,4.149990386420813e-10,1.4443723630964803e-10,1.4076622443823237e-10,0
37365,1.4768254714748713e-10,5.090832856414272e-10,1.5149537840178482e-9,4.799248603447686e-9,4.276814560640569e-9,4.149990386420813e-10,1.4443723630964803e-10,1.4092714442323213e-10,0
37366,1.4756236755850951e-10,5.08903186073212e-10,1.5101761330481783e-9,4.792035401086559e-9,4.277832524842675e-9,4.149990386420813e-10,1.4443723630964803e-10,1.4108806440823193e-10,0
37367,1.4744218796953187e-10,5.087230865049969e-10,1.5053984820785085e-9,4.784822198725433e-9,4.27885048904478e-9,4.149990386420813e-10,1.4443723630964803e-10,1.412489843932317e-10,0
37368,1.4732200838055422e-10,5.085429869367817e-10,1.5006208311088386e-9,4.777608996364306e-9,4.279868453246886e-9,4.149990386420813e-10,1.4443723630964803e-10,1.414099043782315e-10,0
37369,1.4658289608539197e-10,5.099311865474736e-10,1.5020849934699254e-9,4.769904287608719e-9,4.280947791352066e-9,4.149990386420813e-10,1.446471546727786e-10,1.4157082436323126e-10,0
37370,1.4658289608539197e-10,5.108926728682445e-10,1.5020849934699254e-9,4.769904287608719e-9,4.2602456560416704e-9,4.1467675982367947e-10,1.4456823828183274e-10,1.4157082436323126e-10,0
37371,1.4658289608539197e-10,5.120342587572306e-10,1.5023096724036642e-9,4.780646197467044e-9,4.243075708487108e-9,4.15244560966891e-10,1.4427940352775634e-10,1.4157082436323126e-10,0
37372,1.4658289608539197e-10,5.131758446462167e-10,1.502534351337403e-9,4.791388107325369e-9,4.225905760932545e-9,4.1581236211010254e-10,1.4399056877367992e-10,1.4157082436323126e-10,0
37373,1.469614696136213e-10,5.131758446462167e-10,1.5001047797324362e-9,4.791388107325369e-9,4.203666450335146e-9,4.1638016325331407e-10,1.437017340196035e-10,1.417477375104387e-10,0
37374,1.4734004314185065e-10,5.131758446462167e-10,1.4976752081274696e-9,4.791388107325369e-9,4.181427139737747e-9,4.1694796439652565e-10,1.434128992655271e-10,1.4192465065764612e-10,0
37375,1.4771861667008e-10,5.131758446462167e-10,1.495245636522503e-9,4.791388107325369e-9,4.159187829140348e-9,4.175157655397372e-10,1.4312406451145067e-10,1.4210156380485352e-10,0
37376,1.4809719019830934e-10,5.131758446462167e-10,1.4928160649175363e-9,4.791388107325369e-9,4.1369485185429485e-9,4.180835666829487e-10,1.4283522975737427e-10,1.4227847695206095e-10,0
37377,1.484757637265387e-10,5.131758446462167e-10,1.4903864933125696e-9,4.791388107325369e-9,4.1147092079455494e-9,4.1865136782616025e-10,1.4254639500329785e-10,1.4245539009926837e-10,0
37378,1.4885433725476803e-10,5.131758446462167e-10,1.487956921707603e-9,4.791388107325369e-9,4.09246989734815e-9,4.192191689693718e-10,1.4225756024922142e-10,1.426323032464758e-10,0
37379,1.4923291078299738e-10,5.131758446462167e-10,1.4855273501026363e-9,4.791388107325369e-9,4.070230586750752e-9,4.197869701125833e-10,1.4196872549514502e-10,1.4280921639368323e-10,0
37380,1.4961148431122672e-10,5.131758446462167e-10,1.4830977784976696e-9,4.791388107325369e-9,4.047991276153353e-9,4.2035477125579485e-10,1.416798907410686e-10,1.4298612954089063e-10,0
37381,1.4999005783945607e-10,5.131758446462167e-10,1.480668206892703e-9,4.791388107325369e-9,4.025751965555954e-9,4.209225723990064e-10,1.4139105598699218e-10,1.4316304268809806e-10,0
37382,1.5036863136768539e-10,5.131758446462167e-10,1.478238635287736e-9,4.791388107325369e-9,4.003512654958555e-9,4.214903735422179e-10,1.4110222123291578e-10,1.433399558353055e-10,0
37383,1.5074720489591473e-10,5.131758446462167e-10,1.4758090636827694e-9,4.791388107325369e-9,3.981273344361156e-9,4.2205817468542944e-10,1.4081338647883935e-10,1.4351686898251292e-10,0
37384,1.5112577842414408e-10,5.131758446462167e-10,1.4733794920778028e-9,4.791388107325369e-9,3.959034033763757e-9,4.22625975828641e-10,1.4052455172476293e-10,1.4369378212972035e-10,0
37385,1.5186489071930636e-10,5.131758446462167e-10,1.4709499204728361e-9,4.791343424925873e-9,3.937313934251256e-9,4.2201979643863337e-10,1.404456353338171e-10,1.4353286214472055e-10,0
37386,1.5260400301446862e-10,5.132839043871457e-10,1.475727571442506e-9,4.836104404998759e-9,3.916611798940861e-9,4.216975176202316e-10,1.404456353338171e-10,1.441925352469273e-10,0
37387,1.5334311530963087e-10,5.133919641280749e-10,1.480505222412176e-9,4.880865385071645e-9,3.8959096636304665e-9,4.2137523880182975e-10,1.404456353338171e-10,1.4485220834913407e-10,0
37388,1.5408222760479313e-10,5.13500023869004e-10,1.4852828733818459e-9,4.925626365144531e-9,3.875207528320072e-9,4.210529599834279e-10,1.404456353338171e-10,1.4551188145134083e-10,0
37389,1.5470116031097774e-10,5.13608083609933e-10,1.492924655092621e-9,4.970387345217417e-9,3.876744703607075e-9,4.2073068116502613e-10,1.4052455172476293e-10,1.4617155455354761e-10,0
37390,1.5532009301716238e-10,5.13608083609933e-10,1.5001318776672578e-9,5.0146048897736e-9,3.860163102933096e-9,4.211220080094325e-10,1.3973696385347954e-10,1.4683122765575437e-10,0
37391,1.55939025723347e-10,5.13608083609933e-10,1.5073391002418943e-9,5.0588224343297834e-9,3.8435815022591164e-9,4.215133348538389e-10,1.3894937598219615e-10,1.4749090075796113e-10,0
37392,1.5655795842953163e-10,5.13608083609933e-10,1.5145463228165308e-9,5.1030399788859665e-9,3.826999901585137e-9,4.219046616982452e-10,1.3816178811091273e-10,1.481505738601679e-10,0
37393,1.5717689113571624e-10,5.13608083609933e-10,1.5217535453911673e-9,5.147257523442149e-9,3.810418300911157e-9,4.222959885426516e-10,1.3737420023962935e-10,1.4881024696237465e-10,0
37394,1.5779582384190087e-10,5.13608083609933e-10,1.528960767965804e-9,5.191475067998332e-9,3.7938367002371775e-9,4.2268731538705797e-10,1.3658661236834596e-10,1.494699200645814e-10,0
37395,1.5841475654808548e-10,5.13608083609933e-10,1.5361679905404405e-9,5.235692612554515e-9,3.777255099563198e-9,4.2307864223146435e-10,1.3579902449706257e-10,1.501295931667882e-10,0
37396,1.590336892542701e-10,5.13608083609933e-10,1.543375213115077e-9,5.279910157110698e-9,3.760673498889219e-9,4.234699690758707e-10,1.3501143662577915e-10,1.5078926626899495e-10,0
37397,1.5965262196045473e-10,5.13608083609933e-10,1.5505824356897138e-9,5.32412770166688e-9,3.7440918982152385e-9,4.238612959202771e-10,1.3422384875449576e-10,1.5144893937120171e-10,0
37398,1.6027155466663934e-10,5.13608083609933e-10,1.5577896582643503e-9,5.368345246223063e-9,3.727510297541259e-9,4.242526227646835e-10,1.3343626088321237e-10,1.5210861247340847e-10,0
37399,1.6089048737282398e-10,5.13608083609933e-10,1.5649968808389868e-9,5.412562790779246e-9,3.7109286968672798e-9,4.2464394960908986e-10,1.3264867301192896e-10,1.5276828557561523e-10,0
37400,1.615094200790086e-10,5.13608083609933e-10,1.5722041034136235e-9,5.456780335335429e-9,3.6943470961933e-9,4.2503527645349624e-10,1.3186108514064557e-10,1.53427958677822e-10,0
37401,1.6212835278519323e-10,5.13608083609933e-10,1.57941132598826e-9,5.500997879891612e-9,3.6777654955193206e-9,4.254266032979026e-10,1.3107349726936218e-10,1.5408763178002875e-10,0
37402,1.6274728549137784e-10,5.13608083609933e-10,1.5866185485628965e-9,5.545215424447795e-9,3.661183894845341e-9,4.25817930142309e-10,1.3028590939807876e-10,1.5474730488223553e-10,0
37403,1.6336621819756245e-10,5.13608083609933e-10,1.593825771137533e-9,5.589432969003978e-9,3.6446022941713615e-9,4.262092569867154e-10,1.2949832152679537e-10,1.554069779844423e-10,0
37404,1.6398515090374709e-10,5.13608083609933e-10,1.6010329937121697e-9,5.633650513560161e-9,3.628020693497382e-9,4.2660058383112175e-10,1.2871073365551199e-10,1.5606665108664905e-10,0
37405,1.6386497131476944e-10,5.13073310579083e-10,1.6019984029560496e-9,5.633062395643961e-9,3.6129558101427148e-9,4.292708237159618e-10,1.2792314578422857e-10,1.5606665108664905e-10,0
37406,1.637447917257918e-10,5.139267371589249e-10,1.6088525586348109e-9,5.643260869985582e-9,3.5962719196302775e-9,4.292708237159618e-10,1.2705664152199932e-10,1.567263241888558e-10,0
37407,1.6362461213681417e-10,5.133919641280749e-10,1.608417999498672e-9,5.642717434468879e-9,3.583038385002906e-9,4.293782499887624e-10,1.2619013725977008e-10,1.567263241888558e-10,0
37408,1.6350443254783653e-10,5.128571910972248e-10,1.6079834403625333e-9,5.642173998952176e-9,3.569804850375535e-9,4.2948567626156303e-10,1.2532363299754085e-10,1.567263241888558e-10,0
37409,1.6338425295885888e-10,5.123224180663748e-10,1.6075488812263946e-9,5.641630563435473e-9,3.5565713157481638e-9,4.2959310253436365e-10,1.244571287353116e-10,1.567263241888558e-10,0
37410,1.6326407336988124e-10,5.117876450355248e-10,1.6071143220902559e-9,5.641087127918769e-9,3.5433377811207924e-9,4.2970052880716426e-10,1.2359062447308236e-10,1.567263241888558e-10,0
37411,1.6314389378090362e-10,5.112528720046748e-10,1.606679762954117e-9,5.640543692402066e-9,3.530104246493421e-9,4.2980795507996487e-10,1.227241202108531e-10,1.567263241888558e-10,0
37412,1.6302371419192597e-10,5.09864672393983e-10,1.605119309621428e-9,5.635779573227477e-9,3.5344702767421348e-9,4.2920177568995727e-10,1.2293403857398368e-10,1.567263241888558e-10,0
37413,1.6290353460294832e-10,5.084764727832911e-10,1.6035588562887387e-9,5.63101545405289e-9,3.5388363069908485e-9,4.2859559629994966e-10,1.2314395693711424e-10,1.567263241888558e-10,0
37414,1.6278335501397068e-10,5.070882731725992e-10,1.6019984029560496e-9,5.626251334878301e-9,3.5432023372395622e-9,4.2798941690994206e-10,1.233538753002448e-10,1.567263241888558e-10,0
37415,1.6266317542499306e-10,5.057000735619074e-10,1.6004379496233603e-9,5.621487215703714e-9,3.547568367488276e-9,4.273832375199345e-10,1.2356379366337538e-10,1.567263241888558e-10,0
37416,1.625429958360154e-10,5.043118739512155e-10,1.598877496290671e-9,5.6167230965291255e-9,3.5519343977369893e-9,4.267770581299269e-10,1.2377371202650594e-10,1.567263241888558e-10,0
37417,1.6242281624703776e-10,5.029236743405236e-10,1.597317042957982e-9,5.611958977354538e-9,3.556300427985703e-9,4.261708787399193e-10,1.239836303896365e-10,1.567263241888558e-10,0
37418,1.6230263665806014e-10,5.015354747298318e-10,1.5957565896252928e-9,5.60719485817995e-9,3.5606664582344167e-9,4.255646993499117e-10,1.2419354875276708e-10,1.567263241888558e-10,0
37419,1.621824570690825e-10,5.0014727511914e-10,1.5941961362926037e-9,5.602430739005362e-9,3.5650324884831304e-9,4.2495851995990415e-10,1.2440346711589764e-10,1.567263241888558e-10,0
37420,1.6206227748010485e-10,4.987590755084481e-10,1.5926356829599144e-9,5.597666619830774e-9,3.569398518731844e-9,4.2435234056989655e-10,1.246133854790282e-10,1.567263241888558e-10,0
37421,1.619420978911272e-10,4.973708758977563e-10,1.5910752296272254e-9,5.592902500656186e-9,3.573764548980558e-9,4.2374616117988894e-10,1.2482330384215877e-10,1.567263241888558e-10,0
37422,1.6182191830214959e-10,4.959826762870644e-10,1.5895147762945361e-9,5.588138381481598e-9,3.5781305792292716e-9,4.2313998178988134e-10,1.2503322220528934e-10,1.567263241888558e-10,0
37423,1.6170173871317194e-10,4.945944766763725e-10,1.5879543229618468e-9,5.5833742623070095e-9,3.5824966094779853e-9,4.225338023998738e-10,1.252431405684199e-10,1.567263241888558e-10,0
37424,1.615815591241943e-10,4.932062770656807e-10,1.5863938696291578e-9,5.578610143132422e-9,3.586862639726699e-9,4.219276230098662e-10,1.2545305893155047e-10,1.567263241888558e-10,0
37425,1.6120298559596495e-10,4.901056986215097e-10,1.585959310493019e-9,5.573443882362367e-9,3.5811513177928156e-9,4.2075364247664705e-10,1.2537414254060464e-10,1.5688724417385558e-10,0
37426,1.608244120677356e-10,4.870051201773387e-10,1.5855247513568802e-9,5.568277621592311e-9,3.575439995858932e-9,4.195796619434279e-10,1.2529522614965878e-10,1.5704816415885537e-10,0
37427,1.605660181284839e-10,4.844393147640178e-10,1.5850580952302075e-9,5.568277621592311e-9,3.575174042278942e-9,4.217204789318525e-10,1.2500639139558238e-10,1.578687572460619e-10,0
37428,1.603076241892322e-10,4.829070354987538e-10,1.5845914391035345e-9,5.566237926723987e-9,3.571936027963402e-9,4.204390721258328e-10,1.2500639139558238e-10,1.578687572460619e-10,0
37429,1.600492302499805e-10,4.813747562334897e-10,1.5841247829768616e-9,5.564198231855663e-9,3.568698013647862e-9,4.1915766531981307e-10,1.2500639139558238e-10,1.578687572460619e-10,0
37430,1.5979083631072878e-10,4.798424769682257e-10,1.5836581268501887e-9,5.5621585369873386e-9,3.565459999332322e-9,4.178762585137933e-10,1.2500639139558238e-10,1.578687572460619e-10,0
37431,1.5953244237147709e-10,4.783101977029618e-10,1.583191470723516e-9,5.560118842119014e-9,3.5622219850167816e-9,4.1659485170777357e-10,1.2500639139558238e-10,1.578687572460619e-10,0
37432,1.5927404843222539e-10,4.767779184376978e-10,1.582724814596843e-9,5.5580791472506895e-9,3.5589839707012413e-9,4.153134449017539e-10,1.2500639139558238e-10,1.578687572460619e-10,0
37433,1.590156544929737e-10,4.752456391724338e-10,1.5822581584701701e-9,5.556039452382366e-9,3.5557459563857014e-9,4.1403203809573413e-10,1.2500639139558238e-10,1.578687572460619e-10,0
37434,1.58757260553722e-10,4.737133599071698e-10,1.5817915023434972e-9,5.553999757514041e-9,3.552507942070161e-9,4.127506312897144e-10,1.2500639139558238e-10,1.578687572460619e-10,0
37435,1.5849886661447027e-10,4.721810806419059e-10,1.5813248462168245e-9,5.551960062645717e-9,3.549269927754621e-9,4.114692244836947e-10,1.2500639139558238e-10,1.578687572460619e-10,0
37436,1.5824047267521857e-10,4.706488013766419e-10,1.5808581900901516e-9,5.549920367777393e-9,3.5460319134390808e-9,4.1018781767767494e-10,1.2500639139558238e-10,1.578687572460619e-10,0
37437,1.5798207873596687e-10,4.691165221113779e-10,1.5803915339634787e-9,5.5478806729090684e-9,3.5427938991235404e-9,4.089064108716552e-10,1.2500639139558238e-10,1.578687572460619e-10,0
37438,1.5772368479671517e-10,4.67584242846114e-10,1.5799248778368057e-9,5.545840978040744e-9,3.5395558848080005e-9,4.0762500406563544e-10,1.2500639139558238e-10,1.578687572460619e-10,0
37439,1.5746529085746347e-10,4.6605196358085e-10,1.579458221710133e-9,5.543801283172419e-9,3.53631787049246e-9,4.0634359725961575e-10,1.2500639139558238e-10,1.578687572460619e-10,0
37440,1.5720689691821175e-10,4.64519684315586e-10,1.57899156558346e-9,5.541761588304096e-9,3.5330798561769203e-9,4.05062190453596e-10,1.2500639139558238e-10,1.578687572460619e-10,0
37441,1.5720689691821175e-10,4.61419105871415e-10,1.5785249094567872e-9,5.541359446708628e-9,3.5451113048929623e-9,4.1361004147211923e-10,1.2500639139558238e-10,1.5868935033326845e-10,0
37442,1.5868512150853629e-10,4.5988682660615104e-10,1.5780582533301145e-9,5.536193185938573e-9,3.5344942836577748e-9,4.127199615105059e-10,1.2492747500463653e-10,1.5885027031826825e-10,0
37443,1.601633460988608e-10,4.5835454734088707e-10,1.5775915972034415e-9,5.531026925168517e-9,3.5238772624225877e-9,4.1182988154889254e-10,1.2484855861369067e-10,1.5901119030326802e-10,0
37444,1.6164157068918531e-10,4.5682226807562305e-10,1.5771249410767686e-9,5.525860664398462e-9,3.5132602411874006e-9,4.1093980158727917e-10,1.2476964222274484e-10,1.5917211028826779e-10,0
37445,1.6311979527950985e-10,4.5528998881035907e-10,1.5766582849500957e-9,5.520694403628407e-9,3.502643219952213e-9,4.100497216256658e-10,1.2469072583179898e-10,1.5933303027326758e-10,0
37446,1.6150335633891126e-10,4.491968916629462e-10,1.5624364217440274e-9,5.51348120126728e-9,3.4888213384442583e-9,4.091596416640525e-10,1.2253788058107935e-10,1.5867335717106082e-10,0
37447,1.6262104216230286e-10,4.4937699123116134e-10,1.5608438714208041e-9,5.486541286215356e-9,3.4782043172090708e-9,4.061287447140145e-10,1.2253788058107935e-10,1.5867335717106082e-10,0
37448,1.6373872798569446e-10,4.495570907993765e-10,1.5592513210975806e-9,5.4596013711634326e-9,3.4675872959738836e-9,4.0309784776397656e-10,1.2253788058107935e-10,1.5867335717106082e-10,0
37449,1.6485641380908607e-10,4.4973719036759165e-10,1.5576587707743574e-9,5.432661456111508e-9,3.4569702747386965e-9,4.000669508139386e-10,1.2253788058107935e-10,1.5867335717106082e-10,0
37450,1.6597409963247767e-10,4.499172899358068e-10,1.556066220451134e-9,5.405721541059584e-9,3.446353253503509e-9,3.970360538639007e-10,1.2253788058107935e-10,1.5867335717106082e-10,0
37451,1.6709178545586927e-10,4.5009738950402197e-10,1.5544736701279108e-9,5.378781626007661e-9,3.435736232268322e-9,3.940051569138627e-10,1.2253788058107935e-10,1.5867335717106082e-10,0
37452,1.682094712792609e-10,4.5027748907223713e-10,1.5528811198046875e-9,5.3518417109557364e-9,3.4251192110331344e-9,3.9097425996382475e-10,1.2253788058107935e-10,1.5867335717106082e-10,0
37453,1.693271571026525e-10,4.5045758864045223e-10,1.5512885694814642e-9,5.324901795903812e-9,3.4145021897979473e-9,3.879433630137868e-10,1.2253788058107935e-10,1.5867335717106082e-10,0
37454,1.704448429260441e-10,4.506376882086674e-10,1.549696019158241e-9,5.297961880851889e-9,3.4038851685627597e-9,3.849124660637489e-10,1.2253788058107935e-10,1.5867335717106082e-10,0
37455,1.715625287494357e-10,4.5081778777688255e-10,1.5481034688350177e-9,5.2710219657999645e-9,3.3932681473275726e-9,3.818815691137109e-10,1.2253788058107935e-10,1.5867335717106082e-10,0
37456,1.726802145728273e-10,4.509978873450977e-10,1.5465109185117944e-9,5.24408205074804e-9,3.3826511260923855e-9,3.7885067216367295e-10,1.2253788058107935e-10,1.5867335717106082e-10,0
37457,1.737979003962189e-10,4.5117798691331286e-10,1.544918368188571e-9,5.217142135696117e-9,3.372034104857198e-9,3.7581977521363504e-10,1.2253788058107935e-10,1.5867335717106082e-10,0
37458,1.749155862196105e-10,4.51358086481528e-10,1.5433258178653478e-9,5.190202220644193e-9,3.361417083622011e-9,3.727888782635971e-10,1.2253788058107935e-10,1.5867335717106082e-10,0
37459,1.760332720430021e-10,4.515381860497431e-10,1.5417332675421245e-9,5.163262305592268e-9,3.3508000623868234e-9,3.697579813135591e-10,1.2253788058107935e-10,1.5867335717106082e-10,0
37460,1.771509578663937e-10,4.517182856179583e-10,1.5401407172189012e-9,5.136322390540345e-9,3.3401830411516362e-9,3.6672708436352115e-10,1.2253788058107935e-10,1.5867335717106082e-10,0
37461,1.7826864368978534e-10,4.502940660936234e-10,1.538548166895678e-9,5.109337793088924e-9,3.3346558409269765e-9,3.6330486056907686e-10,1.2232796221794878e-10,1.5851243718606103e-10,0
37462,1.776497109836007e-10,4.4944063951378154e-10,1.5375185636707299e-9,5.082941313553704e-9,3.325494163108027e-9,3.644404628554999e-10,1.2211804385481822e-10,1.5851243718606103e-10,0
37463,1.7691059868843844e-10,4.485872129339397e-10,1.5364889604457818e-9,5.057363610654911e-9,3.3290058928961673e-9,3.628367772310784e-10,1.2219696024576408e-10,1.5835151720106126e-10,0
37464,1.761714863932762e-10,4.477337863540979e-10,1.5354593572208336e-9,5.03178590775612e-9,3.332517622684308e-9,3.612330916066568e-10,1.222758766367099e-10,1.5819059721606146e-10,0
37465,1.7543237409811393e-10,4.46880359774256e-10,1.5344297539958855e-9,5.0062082048573275e-9,3.336029352472448e-9,3.5962940598223527e-10,1.2235479302765577e-10,1.580296772310617e-10,0
37466,1.7469326180295165e-10,4.460269331944142e-10,1.5334001507709374e-9,4.980630501958535e-9,3.3395410822605887e-9,3.580257203578137e-10,1.2243370941860162e-10,1.578687572460619e-10,0
37467,1.739541495077894e-10,4.451735066145723e-10,1.5323705475459893e-9,4.955052799059743e-9,3.343052812048729e-9,3.5642203473339215e-10,1.2251262580954746e-10,1.5770783726106213e-10,0
37468,1.7321503721262713e-10,4.443200800347305e-10,1.5313409443210412e-9,4.929475096160951e-9,3.3465645418368696e-9,3.5481834910897057e-10,1.2259154220049331e-10,1.5754691727606236e-10,0
37469,1.730948576236495e-10,4.444281397756596e-10,1.5319038914193164e-9,4.923624105952956e-9,3.3556034718496696e-9,3.5535548047297363e-10,1.2267045859143915e-10,1.5720908414385514e-10,0
37470,1.7297467803467187e-10,4.449629128065096e-10,1.5319038914193164e-9,4.9198200573360325e-9,3.36464240186247e-9,3.5589261183697664e-10,1.2295929334551557e-10,1.5638849105664861e-10,0
37471,1.7285449844569422e-10,4.4549768583735963e-10,1.5319038914193164e-9,4.916016008719109e-9,3.37368133187527e-9,3.564297432009797e-10,1.23248128099592e-10,1.5556789796944206e-10,0
37472,1.7273431885671658e-10,4.460324588682096e-10,1.5319038914193164e-9,4.912211960102186e-9,3.3827202618880704e-9,3.569668745649827e-10,1.235369628536684e-10,1.5474730488223553e-10,0
37473,1.7261413926773893e-10,4.465672318990596e-10,1.5319038914193164e-9,4.908407911485262e-9,3.3917591919008708e-9,3.5750400592898577e-10,1.2382579760774482e-10,1.5392671179502898e-10,0
37474,1.724939596787613e-10,4.4710200492990965e-10,1.5319038914193164e-9,4.904603862868339e-9,3.4007981219136707e-9,3.5804113729298884e-10,1.2411463236182124e-10,1.5310611870782243e-10,0
37475,1.7237378008978366e-10,4.4763677796075964e-10,1.5319038914193164e-9,4.9007998142514156e-9,3.409837051926471e-9,3.5857826865699185e-10,1.2440346711589764e-10,1.522855256206159e-10,0
37476,1.7225360050080602e-10,4.481715509916097e-10,1.5319038914193164e-9,4.896995765634492e-9,3.4188759819392716e-9,3.591154000209949e-10,1.2469230186997407e-10,1.5146493253340935e-10,0
37477,1.7213342091182837e-10,4.487063240224597e-10,1.5319038914193164e-9,4.893191717017569e-9,3.4279149119520715e-9,3.596525313849979e-10,1.2498113662405046e-10,1.5064433944620282e-10,0
37478,1.7201324132285075e-10,4.4924109705330967e-10,1.5319038914193164e-9,4.889387668400645e-9,3.436953841964872e-9,3.60189662749001e-10,1.252699713781269e-10,1.4982374635899627e-10,0
37479,1.718930617338731e-10,4.497758700841597e-10,1.5319038914193164e-9,4.885583619783721e-9,3.4459927719776724e-9,3.60726794113004e-10,1.2555880613220331e-10,1.4900315327178971e-10,0
37480,1.7063716156020742e-10,4.497758700841597e-10,1.5273188223928513e-9,4.8693928613128694e-9,3.4378617544359096e-9,3.6243790601022613e-10,1.258476408862797e-10,1.4866532013958252e-10,0
37481,1.6938126138654177e-10,4.497758700841597e-10,1.5227337533663862e-9,4.853202102842017e-9,3.4297307368941464e-9,3.6414901790744833e-10,1.2613647564035614e-10,1.4832748700737532e-10,0
37482,1.681253612128761e-10,4.497758700841597e-10,1.518148684339921e-9,4.837011344371165e-9,3.4215997193523836e-9,3.658601298046705e-10,1.2642531039443256e-10,1.4798965387516812e-10,0
37483,1.6686946103921044e-10,4.496678103432306e-10,1.5144327335857333e-9,4.8194136913476845e-9,3.4024143013613012e-9,3.6614403037627624e-10,1.2642531039443256e-10,1.4798965387516812e-10,0
37484,1.657337404545224e-10,4.4909701739873756e-10,1.509847664559268e-9,4.802404156240404e-9,3.3817121660509064e-9,3.7059443018434304e-10,1.2642531039443256e-10,1.478127407279607e-10,0
37485,1.6459801986983437e-10,4.485262244542445e-10,1.5052625955328029e-9,4.785394621133123e-9,3.361010030740511e-9,3.7504482999240983e-10,1.2642531039443256e-10,1.4763582758075327e-10,0
37486,1.6346229928514633e-10,4.479554315097515e-10,1.5006775265063377e-9,4.768385086025843e-9,3.3403078954301164e-9,3.794952298004766e-10,1.2642531039443256e-10,1.4745891443354584e-10,0
37487,1.623265787004583e-10,4.4738463856525843e-10,1.4960924574798724e-9,4.751375550918561e-9,3.319605760119721e-9,3.839456296085434e-10,1.2642531039443256e-10,1.4728200128633844e-10,0
37488,1.617076459942737e-10,4.4738463856525843e-10,1.4950628542549243e-9,4.751918986435265e-9,3.171026009020034e-9,3.877898500266026e-10,1.2642531039443256e-10,1.474429212713382e-10,0
37489,1.6108871328808905e-10,4.4738463856525843e-10,1.4955937043626655e-9,4.747698302777381e-9,3.1652046353550824e-9,3.889254523130257e-10,1.26215392031302e-10,1.4678324816913145e-10,0
37490,1.6046978058190444e-10,4.4738463856525843e-10,1.4961245544704066e-9,4.743477619119496e-9,3.1593832616901305e-9,3.9006105459944874e-10,1.2600547366817143e-10,1.4612357506692469e-10,0
37491,1.5985084787571983e-10,4.4738463856525843e-10,1.4966554045781478e-9,4.739256935461611e-9,3.153561888025179e-9,3.9119665688587185e-10,1.2579555530504086e-10,1.4546390196471793e-10,0
37492,1.592319151695352e-10,4.4738463856525843e-10,1.4971862546858888e-9,4.735036251803727e-9,3.1477405143602275e-9,3.923322591722949e-10,1.255856369419103e-10,1.4480422886251114e-10,0
37493,1.5861298246335058e-10,4.4738463856525843e-10,1.49771710479363e-9,4.730815568145842e-9,3.141919140695276e-9,3.93467861458718e-10,1.253757185787797e-10,1.4414455576030438e-10,0
37494,1.5787387016818832e-10,4.474206584789015e-10,1.5005812355347353e-9,4.730815568145842e-9,3.1345605917433203e-9,3.9043696450868e-10,1.253757185787797e-10,1.4348488265809762e-10,0
37495,1.5713475787302604e-10,4.474566783925445e-10,1.5034453662758408e-9,4.730815568145842e-9,3.1272020427913645e-9,3.8740606755864206e-10,1.253757185787797e-10,1.4282520955589087e-10,0
37496,1.5651582516684143e-10,4.551540946325074e-10,1.5085612854100471e-9,4.726460837289468e-9,3.142471505822947e-9,3.8437517060860414e-10,1.272918146566618e-10,1.420046164686843e-10,0
37497,1.5589689246065682e-10,4.628515108724703e-10,1.5136772045442534e-9,4.722106106433094e-9,3.1577409688545293e-9,3.813442736585662e-10,1.292079107345439e-10,1.4118402338147778e-10,0
37498,1.5527795975447218e-10,4.705489271124332e-10,1.5187931236784597e-9,4.7177513755767204e-9,3.1730104318861116e-9,3.783133767085282e-10,1.3112400681242597e-10,1.4036343029427123e-10,0
37499,1.5465902704828757e-10,4.782463433523961e-10,1.523909042812666e-9,4.713396644720347e-9,3.188279894917694e-9,3.752824797584903e-10,1.3304010289030805e-10,1.395428372070647e-10,0
37500,1.5404009434210294e-10,4.859437595923591e-10,1.5290249619468723e-9,4.709041913863973e-9,3.2035493579492764e-9,3.7225158280845234e-10,1.3495619896819012e-10,1.3872224411985815e-10,0
37501,1.5342116163591832e-10,4.93641175832322e-10,1.5341408810810786e-9,4.704687183007599e-9,3.2188188209808587e-9,3.692206858584144e-10,1.368722950460722e-10,1.379016510326516e-10,0
37502,1.528022289297337e-10,4.999143725479501e-10,1.538822241079146e-9,4.6999303105557585e-9,3.223328057003413e-9,3.6889840704001254e-10,1.3870947473300845e-10,1.375638179004444e-10,0
37503,1.52543834990482e-10,5.075757688742699e-10,1.5439702572038865e-9,4.700339698873973e-9,3.2454368579020524e-9,3.680083270783992e-10,1.4054665441994467e-10,1.3740289791544463e-10,0
37504,1.522854410512303e-10,5.152371652005898e-10,1.5491182733286268e-9,4.700749087192187e-9,3.267545658800692e-9,3.6711824711678585e-10,1.4238383410688092e-10,1.3724197793044484e-10,0
37505,1.520270471119786e-10,5.228985615269097e-10,1.5542662894533673e-9,4.701158475510401e-9,3.289654459699331e-9,3.662281671551725e-10,1.4422101379381717e-10,1.3708105794544507e-10,0
37506,1.517686531727269e-10,5.305599578532296e-10,1.5594143055781076e-9,4.701567863828615e-9,3.3117632605979707e-9,3.653380871935591e-10,1.4605819348075339e-10,1.3692013796044528e-10,0
37507,1.5151025923347517e-10,5.382213541795495e-10,1.564562321702848e-9,4.70197725214683e-9,3.33387206149661e-9,3.644480072319458e-10,1.4789537316768963e-10,1.367592179754455e-10,0
37508,1.5125186529422347e-10,5.458827505058694e-10,1.5697103378275884e-9,4.702386640465044e-9,3.3559808623952495e-9,3.6355792727033243e-10,1.4973255285462585e-10,1.3659829799044571e-10,0
37509,1.5099347135497177e-10,5.535441468321892e-10,1.574858353952329e-9,4.7027960287832585e-9,3.378089663293889e-9,3.6266784730871906e-10,1.515697325415621e-10,1.3643737800544595e-10,0
37510,1.5073507741572007e-10,5.612055431585092e-10,1.5800063700770692e-9,4.703205417101472e-9,3.400198464192528e-9,3.617777673471057e-10,1.5340691222849832e-10,1.3627645802044618e-10,0
37511,1.5047668347646837e-10,5.688669394848291e-10,1.5851543862018097e-9,4.7036148054196865e-9,3.4223072650911678e-9,3.608876873854923e-10,1.5524409191543457e-10,1.3611553803544638e-10,0
37512,1.5021828953721665e-10,5.765283358111489e-10,1.59030240232655e-9,4.704024193737901e-9,3.444416065989807e-9,3.59997607423879e-10,1.570812716023708e-10,1.3595461805044661e-10,0
37513,1.4995989559796495e-10,5.841897321374688e-10,1.5954504184512905e-9,4.704433582056115e-9,3.4665248668884465e-9,3.5910752746226563e-10,1.5891845128930704e-10,1.3579369806544682e-10,0
37514,1.4970150165871325e-10,5.918511284637888e-10,1.6005984345760308e-9,4.70484297037433e-9,3.488633667787086e-9,3.5821744750065227e-10,1.6075563097624328e-10,1.3563277808044705e-10,0
37515,1.4944310771946155e-10,5.995125247901086e-10,1.6057464507007714e-9,4.705252358692543e-9,3.5107424686857253e-9,3.573273675390389e-10,1.625928106631795e-10,1.3547185809544726e-10,0
37516,1.4980364648639447e-10,5.999392380800296e-10,1.6057785476913054e-9,4.706614570845675e-9,3.5152926206436626e-9,3.6060378681388656e-10,1.6230397590910308e-10,1.3728995741706777e-10,0
37517,1.5016418525332738e-10,6.003659513699505e-10,1.6058106446818396e-9,4.707976782998807e-9,3.5198427726016003e-9,3.6388020608873427e-10,1.6201514115502668e-10,1.3910805673868828e-10,0
37518,1.505247240202603e-10,6.007926646598713e-10,1.6058427416723736e-9,4.709338995151939e-9,3.5243929245595377e-9,3.671566253635819e-10,1.6172630640095026e-10,1.4092615606030878e-10,0
37519,1.5088526278719323e-10,6.012193779497923e-10,1.6058748386629078e-9,4.710701207305071e-9,3.528943076517475e-9,3.704330446384296e-10,1.6143747164687386e-10,1.427442553819293e-10,0
37520,1.5124580155412614e-10,6.016460912397132e-10,1.6059069356534419e-9,4.712063419458203e-9,3.5334932284754123e-9,3.7370946391327724e-10,1.6114863689279743e-10,1.445623547035498e-10,0
37521,1.5160634032105905e-10,6.020728045296341e-10,1.605939032643976e-9,4.713425631611335e-9,3.5380433804333497e-9,3.769858831881249e-10,1.60859802138721e-10,1.463804540251703e-10,0
37522,1.5196687908799197e-10,6.024995178195551e-10,1.60597112963451e-9,4.714787843764467e-9,3.5425935323912874e-9,3.8026230246297256e-10,1.605709673846446e-10,1.4819855334679082e-10,0
37523,1.5270599138315425e-10,6.02926231109476e-10,1.60597112963451e-9,4.715740667599384e-9,3.5476833534018147e-9,3.844288016994336e-10,1.6028213263056819e-10,1.5001665266841133e-10,0
37524,1.5270599138315425e-10,6.033889643130399e-10,1.6055365704983714e-9,4.715517255601902e-9,3.552233505359752e-9,3.882730221174928e-10,1.5999329787649176e-10,1.5183475199003184e-10,0
37525,1.5270599138315425e-10,6.038516975166039e-10,1.6051020113622327e-9,4.71529384360442e-9,3.5567836573176894e-9,3.9211724253555197e-10,1.5970446312241536e-10,1.5365285131165235e-10,0
37526,1.5270599138315425e-10,6.043144307201679e-10,1.604667452226094e-9,4.715070431606939e-9,3.5613338092756267e-9,3.959614629536112e-10,1.5941562836833894e-10,1.5547095063327286e-10,0
37527,1.5270599138315425e-10,6.047771639237318e-10,1.604232893089955e-9,4.714847019609457e-9,3.5658839612335645e-9,3.998056833716704e-10,1.5912679361426251e-10,1.5728904995489336e-10,0
37528,1.5270599138315425e-10,6.052398971272958e-10,1.6037983339538164e-9,4.714623607611975e-9,3.570434113191502e-9,4.036499037897296e-10,1.5883795886018612e-10,1.5910714927651387e-10,0
37529,1.5270599138315425e-10,6.057026303308598e-10,1.6033637748176777e-9,4.714400195614493e-9,3.574984265149439e-9,4.074941242077888e-10,1.585491241061097e-10,1.6092524859813438e-10,0
37530,1.5270599138315425e-10,6.061653635344236e-10,1.6029292156815388e-9,4.7141767836170115e-9,3.5795344171073765e-9,4.11338344625848e-10,1.5826028935203327e-10,1.627433479197549e-10,0
37531,1.5270599138315425e-10,6.066280967379876e-10,1.6024946565454001e-9,4.713953371619529e-9,3.584084569065314e-9,4.1518256504390717e-10,1.5797145459795687e-10,1.645614472413754e-10,0
37532,1.5270599138315425e-10,6.070908299415515e-10,1.6020600974092614e-9,4.713729959622048e-9,3.5886347210232516e-9,4.190267854619664e-10,1.5768261984388044e-10,1.663795465629959e-10,0
37533,1.5270599138315425e-10,6.075535631451155e-10,1.6016255382731227e-9,4.7135065476245655e-9,3.593184872981189e-9,4.228710058800256e-10,1.5739378508980405e-10,1.6819764588461642e-10,0
37534,1.5270599138315425e-10,6.080162963486795e-10,1.6011909791369838e-9,4.713283135627084e-9,3.5977350249391262e-9,4.267152262980848e-10,1.5710495033572762e-10,1.700157452062369e-10,0
37535,1.5270599138315425e-10,6.084790295522434e-10,1.6007564200008451e-9,4.713059723629602e-9,3.6022851768970636e-9,4.30559446716144e-10,1.568161155816512e-10,1.718338445278574e-10,0
37536,1.5270599138315425e-10,6.089417627558074e-10,1.6003218608647064e-9,4.71283631163212e-9,3.606835328855001e-9,4.344036671342032e-10,1.565272808275748e-10,1.7365194384947792e-10,0
37537,1.534451036783165e-10,6.062678976015573e-10,1.5987614075320171e-9,4.714243206184748e-9,3.610367516610833e-9,4.3885406694226997e-10,1.5623844607349837e-10,1.7529313002389102e-10,0
37538,1.534451036783165e-10,6.061598378606283e-10,1.595672597857173e-9,4.705444379673008e-9,3.615436879653669e-9,4.43020566178731e-10,1.5594961131942195e-10,1.772721493305113e-10,0
37539,1.534451036783165e-10,6.060517781196991e-10,1.5925837881823287e-9,4.696645553161268e-9,3.6205062426965047e-9,4.4718706541519203e-10,1.5566077656534555e-10,1.7925116863713158e-10,0
37540,1.534451036783165e-10,6.059437183787701e-10,1.5894949785074844e-9,4.687846726649528e-9,3.6255756057393406e-9,4.5135356465165305e-10,1.5537194181126913e-10,1.8123018794375188e-10,0
37541,1.534451036783165e-10,6.05835658637841e-10,1.5864061688326403e-9,4.679047900137787e-9,3.6306449687821765e-9,4.555200638881141e-10,1.550831070571927e-10,1.8320920725037216e-10,0
37542,1.534451036783165e-10,6.057275988969118e-10,1.583317359157796e-9,4.670249073626047e-9,3.6357143318250124e-9,4.596865631245751e-10,1.547942723031163e-10,1.8518822655699246e-10,0
37543,1.545627895017081e-10,6.057275988969118e-10,1.5878703311937271e-9,4.662901824066431e-9,3.6361721690068363e-9,4.648198988162416e-10,1.5471535591217044e-10,1.8534914654199223e-10,0
37544,1.550795773802115e-10,6.065810254767537e-10,1.5852160806550215e-9,4.653284220918263e-9,3.6465027786943423e-9,4.651421776346434e-10,1.5442652115809405e-10,1.8616973962919878e-10,0
37545,1.5633547755387718e-10,6.080052450010886e-10,1.5852160806550215e-9,4.6522420322843525e-9,3.6539227015493727e-9,4.658557832974516e-10,1.5442652115809405e-10,1.8616973962919878e-10,0
37546,1.5747119813856522e-10,6.088586715809304e-10,1.5851197896834193e-9,4.652785467801056e-9,3.661199418630562e-9,4.661780621158534e-10,1.5413768640401762e-10,1.8682941273140554e-10,0
37547,1.5860691872325323e-10,6.097120981607723e-10,1.5850234987118168e-9,4.6533289033177596e-9,3.6684761357117517e-9,4.665003409342553e-10,1.538488516499412e-10,1.874890858336123e-10,0
37548,1.5974263930794126e-10,6.105655247406142e-10,1.5849272077402145e-9,4.653872338834463e-9,3.6757528527929413e-9,4.668226197526571e-10,1.535600168958648e-10,1.8814875893581906e-10,0
37549,1.608783598926293e-10,6.114189513204559e-10,1.5848309167686123e-9,4.654415774351166e-9,3.6830295698741306e-9,4.671448985710588e-10,1.5327118214178837e-10,1.8880843203802582e-10,0
37550,1.6634660942060968e-10,6.185455746159258e-10,1.5919418483716463e-9,4.661628976712292e-9,3.6799756772678143e-9,4.701757955210968e-10,1.5327118214178837e-10,1.8864751205302605e-10,0
37551,1.6634660942060968e-10,6.179747816714328e-10,1.592810966643924e-9,4.664755542614024e-9,3.677379621843322e-9,4.701757955210968e-10,1.5327118214178837e-10,1.8966101144964764e-10,0
37552,1.6634660942060968e-10,6.174039887269397e-10,1.5936800849162013e-9,4.6678821085157546e-9,3.674783566418829e-9,4.701757955210968e-10,1.5327118214178837e-10,1.9067451084626926e-10,0
37553,1.6634660942060968e-10,6.168331957824467e-10,1.594549203188479e-9,4.671008674417485e-9,3.6721875109943366e-9,4.701757955210968e-10,1.5327118214178837e-10,1.9168801024289087e-10,0
37554,1.6634660942060968e-10,6.162624028379536e-10,1.5954183214607563e-9,4.674135240319217e-9,3.6695914555698442e-9,4.701757955210968e-10,1.5327118214178837e-10,1.927015096395125e-10,0
37555,1.6634660942060968e-10,6.156916098934607e-10,1.596287439733034e-9,4.677261806220948e-9,3.6669954001453514e-9,4.701757955210968e-10,1.5327118214178837e-10,1.9371500903613408e-10,0
37556,1.6634660942060968e-10,6.151208169489677e-10,1.5971565580053113e-9,4.680388372122678e-9,3.664399344720859e-9,4.701757955210968e-10,1.5327118214178837e-10,1.947285084327557e-10,0
37557,1.6634660942060968e-10,6.145500240044746e-10,1.598025676277589e-9,4.683514938024409e-9,3.6618032892963666e-9,4.701757955210968e-10,1.5327118214178837e-10,1.957420078293773e-10,0
37558,1.6634660942060968e-10,6.139792310599816e-10,1.5988947945498663e-9,4.686641503926141e-9,3.659207233871874e-9,4.701757955210968e-10,1.5327118214178837e-10,1.967555072259989e-10,0
37559,1.6634660942060968e-10,6.134084381154885e-10,1.599763912822144e-9,4.6897680698278715e-9,3.6566111784473813e-9,4.701757955210968e-10,1.5327118214178837e-10,1.9776900662262051e-10,0
37560,1.6634660942060968e-10,6.119842185911536e-10,1.5909147446745547e-9,4.687728374959547e-9,3.656549804544307e-9,4.6504245982943037e-10,1.535600168958648e-10,1.9878250601924213e-10,0
37561,1.6572767671442505e-10,6.042868023511907e-10,1.564562321702848e-9,4.554271458100064e-9,3.646677032038625e-9,4.6532636040103614e-10,1.5363893328681063e-10,1.9979600541586372e-10,0
37562,1.6510874400824044e-10,5.965893861112278e-10,1.5382098987311415e-9,4.420814541240581e-9,3.636804259532943e-9,4.656102609726419e-10,1.537178496777565e-10,2.0080950481248534e-10,0
37563,1.6448981130205582e-10,5.888919698712649e-10,1.511857475759435e-9,4.287357624381098e-9,3.6269314870272608e-9,4.658941615442476e-10,1.5379676606870232e-10,2.0182300420910695e-10,0
37564,1.638708785958712e-10,5.811945536313019e-10,1.4855050527877282e-9,4.153900707521614e-9,3.6170587145215787e-9,4.661780621158534e-10,1.5387568245964818e-10,2.0283650360572854e-10,0
37565,1.6325194588968658e-10,5.73497137391339e-10,1.4591526298160216e-9,4.020443790662131e-9,3.6071859420158966e-9,4.664619626874591e-10,1.5395459885059404e-10,2.0385000300235016e-10,0
37566,1.6263301318350194e-10,5.657997211513761e-10,1.432800206844315e-9,3.886986873802648e-9,3.5973131695102145e-9,4.66745863259065e-10,1.5403351524153987e-10,2.0486350239897177e-10,0
37567,1.6201408047731733e-10,5.581023049114132e-10,1.4064477838726084e-9,3.753529956943164e-9,3.587440397004533e-9,4.670297638306707e-10,1.5411243163248573e-10,2.058770017955934e-10,0
37568,1.613951477711327e-10,5.504048886714503e-10,1.3800953609009019e-9,3.6200730400836807e-9,3.5775676244988507e-9,4.673136644022765e-10,1.5419134802343156e-10,2.0689050119221498e-10,0
37569,1.6077621506494808e-10,5.427074724314874e-10,1.3537429379291953e-9,3.4866161232241976e-9,3.5676948519931686e-9,4.675975649738822e-10,1.5427026441437742e-10,2.079040005888366e-10,0
37570,1.6015728235876347e-10,5.350100561915244e-10,1.3273905149574885e-9,3.353159206364714e-9,3.5578220794874865e-9,4.67881465545488e-10,1.5434918080532328e-10,2.089174999854582e-10,0
37571,1.5953834965257883e-10,5.273126399515615e-10,1.301038091985782e-9,3.219702289505231e-9,3.5479493069818044e-9,4.681653661170938e-10,1.544280971962691e-10,2.099309993820798e-10,0
37572,1.5879923735741658e-10,5.210394432359334e-10,1.2737202597701955e-9,3.0844810188971483e-9,3.5425039386279107e-9,4.681653661170938e-10,1.5450701358721497e-10,2.0977007939708003e-10,0
37573,1.5818030465123197e-10,5.133780469096136e-10,1.2507949146378695e-9,2.949483160286548e-9,3.5326311661222286e-9,4.687715455071014e-10,1.5521568506755252e-10,2.104297524992868e-10,0
37574,1.5756137194504733e-10,5.057166505832937e-10,1.2278695695055437e-9,2.8144853016759473e-9,3.5227583936165466e-9,4.69377724897109e-10,1.5592435654789006e-10,2.1108942560149355e-10,0
37575,1.5694243923886272e-10,4.980552542569737e-10,1.2049442243732176e-9,2.6794874430653465e-9,3.5128856211108645e-9,4.699839042871166e-10,1.566330280282276e-10,2.117490987037003e-10,0
37576,1.5632350653267808e-10,4.903938579306539e-10,1.1820188792408916e-9,2.544489584454746e-9,3.5030128486051824e-9,4.705900836771242e-10,1.5734169950856517e-10,2.1240877180590707e-10,0
37577,1.5570457382649347e-10,4.82732461604334e-10,1.1590935341085658e-9,2.4094917258441455e-9,3.4931400760995007e-9,4.711962630671317e-10,1.580503709889027e-10,2.1306844490811385e-10,0
37578,1.5508564112030883e-10,4.750710652780141e-10,1.1361681889762397e-9,2.2744938672335446e-9,3.4832673035938186e-9,4.718024424571394e-10,1.5875904246924026e-10,2.137281180103206e-10,0
37579,1.5446670841412422e-10,4.674096689516942e-10,1.113242843843914e-9,2.139496008622944e-9,3.4733945310881365e-9,4.724086218471469e-10,1.5946771394957781e-10,2.1438779111252737e-10,0
37580,1.538477757079396e-10,4.597482726253743e-10,1.0903174987115879e-9,2.0044981500123437e-9,3.4635217585824544e-9,4.730148012371545e-10,1.6017638542991537e-10,2.1504746421473413e-10,0
37581,1.538477757079396e-10,4.5978429253901737e-10,1.0937445765509684e-9,2.0061284565624534e-9,3.387322583380854e-9,4.733370800555563e-10,1.5896896083237082e-10,2.1586805730194068e-10,0
37582,1.5322884300175497e-10,4.598203124526604e-10,1.098603719760902e-9,2.007170645196364e-9,3.387322583380854e-9,4.722321475483418e-10,1.5967763231270838e-10,2.1586805730194068e-10,0
37583,1.5260991029557036e-10,4.598563323663034e-10,1.1034628629708353e-9,2.0082128338302743e-9,3.387322583380854e-9,4.711272150411272e-10,1.6038630379304594e-10,2.1586805730194068e-10,0
37584,1.5199097758938573e-10,4.5989235227994647e-10,1.1083220061807686e-9,2.0092550224641846e-9,3.387322583380854e-9,4.700222825339126e-10,1.6109497527338347e-10,2.1586805730194068e-10,0
37585,1.5137204488320112e-10,4.5992837219358947e-10,1.1131811493907019e-9,2.010297211098095e-9,3.387322583380854e-9,4.68917350026698e-10,1.6180364675372103e-10,2.1586805730194068e-10,0
37586,1.5075311217701648e-10,4.599643921072325e-10,1.1180402926006352e-9,2.011339399732005e-9,3.387322583380854e-9,4.678124175194834e-10,1.6251231823405858e-10,2.1586805730194068e-10,0
37587,1.5013417947083187e-10,4.600004120208755e-10,1.1228994358105687e-9,2.0123815883659157e-9,3.387322583380854e-9,4.66707485012269e-10,1.6322098971439614e-10,2.1586805730194068e-10,0
37588,1.4951524676464726e-10,4.600364319345186e-10,1.127758579020502e-9,2.013423776999826e-9,3.387322583380854e-9,4.6560255250505435e-10,1.6392966119473367e-10,2.1586805730194068e-10,0
37589,1.4889631405846262e-10,4.6007245184816163e-10,1.1326177222304354e-9,2.0144659656337362e-9,3.387322583380854e-9,4.6449761999783976e-10,1.6463833267507123e-10,2.1586805730194068e-10,0
37590,1.48277381352278e-10,4.6010847176180463e-10,1.1374768654403687e-9,2.0155081542676465e-9,3.387322583380854e-9,4.6339268749062517e-10,1.6534700415540879e-10,2.1586805730194068e-10,0
37591,1.4765844864609337e-10,4.601444916754477e-10,1.142336008650302e-9,2.0165503429015567e-9,3.387322583380854e-9,4.622877549834106e-10,1.6605567563574634e-10,2.1586805730194068e-10,0
37592,1.5039257341008357e-10,4.617488107679977e-10,1.1474840247750425e-9,2.02322010974598e-9,3.3944483327955923e-9,4.6046921681338787e-10,1.6613459202669218e-10,2.1504746421473413e-10,0
37593,1.5039257341008357e-10,4.6221154397156165e-10,1.1489160901455953e-9,2.0258032401310078e-9,3.3944483327955923e-9,4.599320854493848e-10,1.6621350841763803e-10,2.1504746421473413e-10,0
37594,1.5039257341008357e-10,4.626742771751256e-10,1.1503481555161479e-9,2.0283863705160354e-9,3.3944483327955923e-9,4.593949540853818e-10,1.6629242480858387e-10,2.1504746421473413e-10,0
37595,1.5039257341008357e-10,4.631370103786896e-10,1.1517802208867007e-9,2.030969500901063e-9,3.3944483327955923e-9,4.5885782272137873e-10,1.6637134119952972e-10,2.1504746421473413e-10,0
37596,1.5039257341008357e-10,4.635997435822535e-10,1.1532122862572535e-9,2.0335526312860907e-9,3.3944483327955923e-9,4.5832069135737567e-10,1.6645025759047556e-10,2.1504746421473413e-10,0
37597,1.5039257341008357e-10,4.6406247678581745e-10,1.154644351627806e-9,2.0361357616711183e-9,3.3944483327955923e-9,4.5778355999337266e-10,1.6652917398142141e-10,2.1504746421473413e-10,0
37598,1.5039257341008357e-10,4.6452520998938144e-10,1.1560764169983588e-9,2.038718892056146e-9,3.3944483327955923e-9,4.572464286293696e-10,1.6660809037236727e-10,2.1504746421473413e-10,0
37599,1.5039257341008357e-10,4.649879431929454e-10,1.1575084823689116e-9,2.0413020224411736e-9,3.3944483327955923e-9,4.567092972653666e-10,1.666870067633131e-10,2.1504746421473413e-10,0
37600,1.5039257341008357e-10,4.654506763965093e-10,1.1589405477394642e-9,2.0438851528262013e-9,3.3944483327955923e-9,4.5617216590136353e-10,1.6676592315425896e-10,2.1504746421473413e-10,0
37601,1.5039257341008357e-10,4.659134096000733e-10,1.160372613110017e-9,2.046468283211229e-9,3.3944483327955923e-9,4.556350345373605e-10,1.668448395452048e-10,2.1504746421473413e-10,0
37602,1.5039257341008357e-10,4.663761428036372e-10,1.1618046784805697e-9,2.0490514135962566e-9,3.3944483327955923e-9,4.5509790317335746e-10,1.6692375593615065e-10,2.1504746421473413e-10,0
37603,1.5039257341008357e-10,4.668388760072011e-10,1.1632367438511223e-9,2.0516345439812842e-9,3.3944483327955923e-9,4.5456077180935445e-10,1.670026723270965e-10,2.1504746421473413e-10,0
37604,1.5113168570524582e-10,4.668388760072011e-10,1.1632367438511223e-9,2.036448538467593e-9,3.3934712845288703e-9,4.554508517709678e-10,1.6708158871804234e-10,2.1586805730194068e-10,0
37605,1.5175061841143046e-10,4.667308162662721e-10,1.1595207930969346e-9,2.0367613152640676e-9,3.3758103457497105e-9,4.554508517709678e-10,1.6645183362865064e-10,2.166886503891472e-10,0
37606,1.5175061841143046e-10,4.667308162662721e-10,1.1650712713672798e-9,2.035309738311943e-9,3.365275156385289e-9,4.554508517709678e-10,1.6553324378518252e-10,2.16849570374147e-10,0
37607,1.5175061841143046e-10,4.667308162662721e-10,1.1706217496376248e-9,2.0338581613598183e-9,3.354739967020868e-9,4.554508517709678e-10,1.6461465394171442e-10,2.1701049035914677e-10,0
37608,1.5175061841143046e-10,4.667308162662721e-10,1.1761722279079697e-9,2.0324065844076936e-9,3.3442047776564467e-9,4.554508517709678e-10,1.636960640982463e-10,2.1717141034414657e-10,0
37609,1.5175061841143046e-10,4.667308162662721e-10,1.181722706178315e-9,2.0309550074555694e-9,3.3336695882920256e-9,4.554508517709678e-10,1.6277747425477818e-10,2.1733233032914633e-10,0
37610,1.5175061841143046e-10,4.667308162662721e-10,1.18727318444866e-9,2.0295034305034447e-9,3.3231343989276046e-9,4.554508517709678e-10,1.6185888441131005e-10,2.174932503141461e-10,0
37611,1.5175061841143046e-10,4.667308162662721e-10,1.192823662719005e-9,2.02805185355132e-9,3.312599209563183e-9,4.554508517709678e-10,1.6094029456784193e-10,2.176541702991459e-10,0
37612,1.5175061841143046e-10,4.667308162662721e-10,1.1983741409893499e-9,2.0266002765991954e-9,3.302064020198762e-9,4.554508517709678e-10,1.6002170472437383e-10,2.1781509028414567e-10,0
37613,1.5163043882245281e-10,4.692966216795931e-10,1.1937890719628848e-9,2.0266002765991954e-9,3.297746667778042e-9,4.542768712377487e-10,1.593919496349821e-10,2.1797601026914546e-10,0
37614,1.5151025923347517e-10,4.71862427092914e-10,1.1892040029364196e-9,2.0266002765991954e-9,3.2934293153573216e-9,4.5310289070452955e-10,1.587621945455904e-10,2.1813693025414523e-10,0
37615,1.5139007964449755e-10,4.74428232506235e-10,1.1846189339099543e-9,2.0266002765991954e-9,3.2891119629366013e-9,4.519289101713104e-10,1.581324394561987e-10,2.1829785023914502e-10,0
37616,1.512699000555199e-10,4.76994037919556e-10,1.1800338648834892e-9,2.0266002765991954e-9,3.284794610515881e-9,4.507549296380913e-10,1.57502684366807e-10,2.184587702241448e-10,0
37617,1.5089132652729056e-10,4.796679030738061e-10,1.175737668771831e-9,2.0294587481039483e-9,3.291237485104189e-9,4.508623559108919e-10,1.5671509649552362e-10,2.1779909712193803e-10,0
37618,1.5051275299906121e-10,4.823417682280561e-10,1.171441472660173e-9,2.032317219608701e-9,3.2976803596924965e-9,4.509697821836925e-10,1.559275086242402e-10,2.1713942401973127e-10,0
37619,1.5013417947083187e-10,4.850156333823062e-10,1.1671452765485148e-9,2.0351756911134538e-9,3.304123234280804e-9,4.510772084564931e-10,1.5513992075295682e-10,2.164797509175245e-10,0
37620,1.4975560594260252e-10,4.876894985365562e-10,1.1628490804368566e-9,2.0380341626182067e-9,3.310566108869112e-9,4.511846347292937e-10,1.5435233288167343e-10,2.1582007781531775e-10,0
37621,1.4937703241437318e-10,4.903633636908063e-10,1.1585528843251985e-9,2.0408926341229592e-9,3.3170089834574197e-9,4.5129206100209434e-10,1.5356474501039e-10,2.1516040471311097e-10,0
37622,1.4899845888614383e-10,4.930372288450564e-10,1.1542566882135403e-9,2.043751105627712e-9,3.3234518580457276e-9,4.5139948727489495e-10,1.5277715713910662e-10,2.145007316109042e-10,0
37623,1.486198853579145e-10,4.957110939993064e-10,1.1499604921018822e-9,2.046609577132465e-9,3.3298947326340352e-9,4.5150691354769556e-10,1.5198956926782323e-10,2.1384105850869745e-10,0
37624,1.4824131182968514e-10,4.983849591535565e-10,1.145664295990224e-9,2.0494680486372176e-9,3.3363376072223428e-9,4.516143398204962e-10,1.5120198139653984e-10,2.131813854064907e-10,0
37625,1.478627383014558e-10,5.010588243078065e-10,1.141368099878566e-9,2.0523265201419706e-9,3.3427804818106508e-9,4.5172176609329674e-10,1.5041439352525643e-10,2.1252171230428393e-10,0
37626,1.4748416477322646e-10,5.037326894620566e-10,1.1370719037669078e-9,2.0551849916467235e-9,3.3492233563989583e-9,4.5182919236609735e-10,1.4962680565397304e-10,2.1186203920207717e-10,0
37627,1.471055912449971e-10,5.064065546163067e-10,1.1327757076552496e-9,2.058043463151476e-9,3.355666230987266e-9,4.5193661863889796e-10,1.4883921778268965e-10,2.1120236609987041e-10,0
37628,1.4672701771676777e-10,5.090804197705567e-10,1.1284795115435915e-9,2.060901934656229e-9,3.362109105575574e-9,4.5204404491169857e-10,1.4805162991140624e-10,2.1054269299766363e-10,0
37629,1.4634844418853845e-10,5.091884795114859e-10,1.1267412749990365e-9,2.060901934656229e-9,3.357804449229935e-9,4.56601870992566e-10,1.47185125649177e-10,2.0988301989545687e-10,0
37630,1.459698706603091e-10,5.092965392524149e-10,1.1250030384544815e-9,2.060901934656229e-9,3.3534997928842954e-9,4.611596970734334e-10,1.4631862138694774e-10,2.092233467932501e-10,0
37631,1.4559129713207976e-10,5.09404598993344e-10,1.1232648019099265e-9,2.060901934656229e-9,3.3491951365386564e-9,4.657175231543008e-10,1.454521171247185e-10,2.0856367369104335e-10,0
37632,1.4521272360385041e-10,5.095126587342731e-10,1.1215265653653715e-9,2.060901934656229e-9,3.3448904801930173e-9,4.702753492351681e-10,1.4458561286248927e-10,2.079040005888366e-10,0
37633,1.4483415007562107e-10,5.096207184752022e-10,1.1197883288208165e-9,2.060901934656229e-9,3.3405858238473783e-9,4.748331753160356e-10,1.4371910860026002e-10,2.0724432748662983e-10,0
37634,1.4445557654739172e-10,5.097287782161312e-10,1.1180500922762615e-9,2.060901934656229e-9,3.336281167501739e-9,4.79391001396903e-10,1.4285260433803078e-10,2.0658465438442308e-10,0
37635,1.4407700301916238e-10,5.098368379570604e-10,1.1163118557317065e-9,2.060901934656229e-9,3.3319765111560997e-9,4.839488274777703e-10,1.4198610007580153e-10,2.059249812822163e-10,0
37636,1.4369842949093303e-10,5.099448976979895e-10,1.1145736191871515e-9,2.060901934656229e-9,3.3276718548104607e-9,4.885066535586378e-10,1.4111959581357228e-10,2.0526530818000953e-10,0
37637,1.433198559627037e-10,5.100529574389185e-10,1.116262460481977e-9,2.060901934656229e-9,3.3126069714557938e-9,4.917830728334854e-10,1.4025309155134303e-10,2.0425180878338794e-10,0
37638,1.4258074366754143e-10,5.090194312908616e-10,1.114524223937422e-9,2.032979006815385e-9,3.2205090704066443e-9,4.963408989143528e-10,1.404630099144736e-10,2.0359213568118116e-10,0
37639,1.4184163137237918e-10,5.079859051428045e-10,1.112785987392867e-9,2.0050560789745405e-9,3.1284111693574953e-9,5.008987249952202e-10,1.4067292827760417e-10,2.029324625789744e-10,0
37640,1.411025190772169e-10,5.069523789947476e-10,1.111047750848312e-9,1.9771331511336965e-9,3.0363132683083463e-9,5.054565510760876e-10,1.4088284664073473e-10,2.0227278947676764e-10,0
37641,1.4036340678205464e-10,5.059188528466906e-10,1.109309514303757e-9,1.9492102232928525e-9,2.944215367259197e-9,5.100143771569551e-10,1.410927650038653e-10,2.0161311637456088e-10,0
37642,1.3962429448689238e-10,5.048853266986335e-10,1.107571277759202e-9,1.9212872954520084e-9,2.852117466210048e-9,5.145722032378224e-10,1.4130268336699587e-10,2.0095344327235412e-10,0
37643,1.3888518219173012e-10,5.038518005505766e-10,1.105833041214647e-9,1.8933643676111644e-9,2.760019565160899e-9,5.191300293186898e-10,1.4151260173012643e-10,2.0029377017014736e-10,0
37644,1.3814606989656786e-10,5.028182744025196e-10,1.1040948046700921e-9,1.86544143977032e-9,2.6679216641117494e-9,5.236878553995572e-10,1.41722520093257e-10,1.996340970679406e-10,0
37645,1.374069576014056e-10,5.017847482544625e-10,1.1023565681255371e-9,1.837518511929476e-9,2.5758237630626003e-9,5.282456814804246e-10,1.4193243845638756e-10,1.9897442396573382e-10,0
37646,1.3666784530624333e-10,5.007512221064056e-10,1.1006183315809821e-9,1.809595584088632e-9,2.4837258620134513e-9,5.32803507561292e-10,1.4214235681951813e-10,1.9831475086352706e-10,0
37647,1.3592873301108107e-10,4.997176959583486e-10,1.0988800950364271e-9,1.7816726562477877e-9,2.3916279609643023e-9,5.373613336421594e-10,1.423522751826487e-10,1.976550777613203e-10,0
37648,1.351896207159188e-10,4.986841698102917e-10,1.0971418584918721e-9,1.7537497284069437e-9,2.299530059915153e-9,5.419191597230269e-10,1.425621935457793e-10,1.9699540465911354e-10,0
37649,1.351896207159188e-10,4.970798507177416e-10,1.0922827152819388e-9,1.7258714829655959e-9,2.211736815211643e-9,5.500450141179352e-10,1.425621935457793e-10,1.9617481157190699e-10,0
37650,1.348290819489859e-10,4.955115515388346e-10,1.0874235720720053e-9,1.6979485551247519e-9,2.1165645635884857e-9,5.501524403907357e-10,1.428510282998557e-10,1.9535421848470046e-10,0
37651,1.3520765547721524e-10,4.955115515388346e-10,1.0859915067014527e-9,1.6877428340603833e-9,2.1165645635884857e-9,5.484413284935136e-10,1.420634404285723e-10,1.9519329849970067e-10,0
37652,1.355862290054446e-10,4.955115515388346e-10,1.0845594413309e-9,1.677537112996015e-9,2.1165645635884857e-9,5.467302165962914e-10,1.412758525572889e-10,1.950323785147009e-10,0
37653,1.3596480253367393e-10,4.955115515388346e-10,1.0831273759603471e-9,1.6673313919316467e-9,2.1165645635884857e-9,5.450191046990693e-10,1.404882646860055e-10,1.948714585297011e-10,0
37654,1.3634337606190328e-10,4.955115515388346e-10,1.0816953105897946e-9,1.6571256708672782e-9,2.1165645635884857e-9,5.433079928018472e-10,1.397006768147221e-10,1.9471053854470133e-10,0
37655,1.3672194959013262e-10,4.955115515388346e-10,1.0802632452192418e-9,1.6469199498029099e-9,2.1165645635884857e-9,5.41596880904625e-10,1.3891308894343872e-10,1.9454961855970157e-10,0
37656,1.3710052311836197e-10,4.955115515388346e-10,1.078831179848689e-9,1.6367142287385413e-9,2.1165645635884857e-9,5.398857690074028e-10,1.381255010721553e-10,1.9438869857470177e-10,0
37657,1.374790966465913e-10,4.955115515388346e-10,1.0773991144781364e-9,1.626508507674173e-9,2.1165645635884857e-9,5.381746571101806e-10,1.373379132008719e-10,1.94227778589702e-10,0
37658,1.3785767017482063e-10,4.955115515388346e-10,1.0759670491075836e-9,1.6163027866098045e-9,2.1165645635884857e-9,5.364635452129585e-10,1.3655032532958852e-10,1.940668586047022e-10,0
37659,1.3823624370304998e-10,4.949767785079846e-10,1.0728461424422053e-9,1.6026504761244836e-9,2.1160248945358957e-9,5.365709714857591e-10,1.3655032532958852e-10,1.9390593861970244e-10,0
37660,1.384946376423017e-10,4.934084793290775e-10,1.0586242792361368e-9,1.5924447550601153e-9,2.1086458876162485e-9,5.359647920957515e-10,1.3683916008366492e-10,1.930853455324959e-10,0
37661,1.387530315815534e-10,4.918401801501705e-10,1.0444024160300683e-9,1.5822390339957467e-9,2.1012668806966013e-9,5.353586127057439e-10,1.3712799483774134e-10,1.9226475244528936e-10,0
37662,1.387530315815534e-10,4.902358610576205e-10,1.030180552824e-9,1.5734402074840065e-9,2.09544550703165e-9,5.392028331238031e-10,1.3804658468120947e-10,1.9226475244528936e-10,0
37663,1.387530315815534e-10,4.890942751686344e-10,1.0165216367162067e-9,1.5680432879937225e-9,2.0886061691645926e-9,5.392028331238031e-10,1.3833541943528587e-10,1.914441593580828e-10,0
37664,1.387530315815534e-10,4.879526892796484e-10,1.0028627206084136e-9,1.5626463685034385e-9,2.081766831297536e-9,5.392028331238031e-10,1.386242541893623e-10,1.9062356627087625e-10,0
37665,1.387530315815534e-10,4.868111033906623e-10,9.892038045006203e-10,1.5572494490131543e-9,2.0749274934304787e-9,5.392028331238031e-10,1.3891308894343872e-10,1.8980297318366973e-10,0
37666,1.387530315815534e-10,4.856695175016762e-10,9.75544888392827e-10,1.5518525295228703e-9,2.0680881555634215e-9,5.392028331238031e-10,1.3920192369751511e-10,1.8898238009646317e-10,0
37667,1.387530315815534e-10,4.845279316126901e-10,9.618859722850338e-10,1.5464556100325863e-9,2.0612488176963642e-9,5.392028331238031e-10,1.3949075845159154e-10,1.8816178700925665e-10,0
37668,1.387530315815534e-10,4.83386345723704e-10,9.482270561772405e-10,1.541058690542302e-9,2.0544094798293075e-9,5.392028331238031e-10,1.3977959320566794e-10,1.873411939220501e-10,0
37669,1.387530315815534e-10,4.822447598347179e-10,9.345681400694474e-10,1.535661771052018e-9,2.0475701419622503e-9,5.392028331238031e-10,1.4006842795974436e-10,1.8652060083484354e-10,0
37670,1.387530315815534e-10,4.811031739457318e-10,9.209092239616541e-10,1.530264851561734e-9,2.040730804095193e-9,5.392028331238031e-10,1.4035726271382079e-10,1.85700007747637e-10,0
37671,1.387530315815534e-10,4.799615880567458e-10,9.072503078538609e-10,1.5248679320714499e-9,2.033891466228136e-9,5.392028331238031e-10,1.4064609746789718e-10,1.8487941466043046e-10,0
37672,1.387530315815534e-10,4.788200021677597e-10,8.935913917460676e-10,1.5194710125811659e-09,2.027052128361079e-9,5.392028331238031e-10,1.409349322219736e-10,1.8405882157322393e-10,0
37673,1.387530315815534e-10,4.776784162787736e-10,8.799324756382744e-10,1.514074093090882e-9,2.020212790494022e-9,5.392028331238031e-10,1.4122376697605003e-10,1.8323822848601738e-10,0
37674,1.387530315815534e-10,4.765368303897875e-10,8.662735595304812e-10,1.5086771736005977e-9,2.0133734526269646e-9,5.392028331238031e-10,1.4151260173012643e-10,1.8241763539881082e-10,0
37675,1.387530315815534e-10,4.753952445008014e-10,8.526146434226879e-10,1.5032802541103137e-9,2.006534114759908e-9,5.392028331238031e-10,1.4180143648420286e-10,1.815970423116043e-10,0
37676,1.387530315815534e-10,4.742536586118153e-10,8.389557273148947e-10,1.4978833346200297e-9,1.9996947768928507e-9,5.392028331238031e-10,1.4209027123827928e-10,1.8077644922439774e-10,0
37677,1.387530315815534e-10,4.731120727228292e-10,8.252968112071015e-10,1.4924864151297455e-9,1.9928554390257934e-9,5.392028331238031e-10,1.4237910599235568e-10,1.7995585613719122e-10,0
37678,1.387530315815534e-10,4.719704868338431e-10,8.116378950993082e-10,1.4870894956394615e-9,1.9860161011587362e-9,5.392028331238031e-10,1.426679407464321e-10,1.7913526304998466e-10,0
37679,1.3813409887536876e-10,4.719704868338431e-10,8.116378950993082e-10,1.484640412452923e-9,1.9816500709100225e-9,5.398090125138107e-10,1.4295677550050853e-10,1.789743430649849e-10,0
37680,1.3787570493611706e-10,4.723972001237641e-10,8.107687768270307e-10,1.489404531627511e-9,1.9821897399626125e-9,5.378523782917788e-10,1.4295677550050853e-10,1.7815374997777834e-10,0
37681,1.3761731099686536e-10,4.72823913413685e-10,8.098996585547532e-10,1.4941686508020988e-9,1.982729409015203e-9,5.358957440697469e-10,1.4295677550050853e-10,1.773331568905718e-10,0
37682,1.3797784976379828e-10,4.74392212592592e-10,8.115884998495789e-10,1.4947120863188022e-9,1.99334643025039e-9,5.339391098477151e-10,1.4358653058990023e-10,1.773331568905718e-10,0
37683,1.383383885307312e-10,4.75960511771499e-10,8.132773411444045e-10,1.4952555218355057e-9,2.003963451485577e-9,5.319824756256832e-10,1.4421628567929193e-10,1.773331568905718e-10,0
37684,1.3869892729766413e-10,4.77528810950406e-10,8.149661824392302e-10,1.495798957352209e-9,2.0145804727207647e-9,5.300258414036513e-10,1.4484604076868363e-10,1.773331568905718e-10,0
37685,1.3905946606459704e-10,4.79097110129313e-10,8.166550237340558e-10,1.4963423928689123e-9,2.0251974939559518e-9,5.280692071816195e-10,1.4547579585807532e-10,1.773331568905718e-10,0
37686,1.3942000483152995e-10,4.8066540930822e-10,8.183438650288815e-10,1.4968858283856156e-9,2.0358145151911393e-9,5.261125729595875e-10,1.4610555094746702e-10,1.773331568905718e-10,0
37687,1.3978054359846286e-10,4.822337084871271e-10,8.200327063237071e-10,1.497429263902319e-9,2.0464315364263264e-9,5.241559387375557e-10,1.4673530603685872e-10,1.773331568905718e-10,0
37688,1.401410823653958e-10,4.838020076660341e-10,8.217215476185328e-10,1.4979726994190224e-9,2.057048557661514e-9,5.221993045155239e-10,1.4736506112625042e-10,1.773331568905718e-10,0
37689,1.4161930695572032e-10,4.85370306844941e-10,8.480739705902393e-10,1.5007864885242788e-9,2.075187791590189e-9,5.250537271667566e-10,1.4707622637217402e-10,1.7667348378836503e-10,0
37690,1.4309753154604483e-10,4.86938606023848e-10,8.74426393561946e-10,1.5036002776295351e-9,2.093327025518864e-9,5.279081498179894e-10,1.467873916180976e-10,1.7601381068615827e-10,0
37691,1.4457575613636937e-10,4.885069052027551e-10,9.007788165336526e-10,1.5064140667347917e-9,2.111466259447539e-9,5.307625724692221e-10,1.464985568640212e-10,1.753541375839515e-10,0
37692,1.4605398072669388e-10,4.900752043816621e-10,9.271312395053592e-10,1.509227855840048e-9,2.129605493376214e-9,5.33616995120455e-10,1.4620972210994478e-10,1.7469446448174475e-10,0
37693,1.475322053170184e-10,4.916435035605691e-10,9.534836624770658e-10,1.5120416449453044e-9,2.1477447273048893e-9,5.364714177716877e-10,1.4592088735586835e-10,1.74034791379538e-10,0
37694,1.4926882384659464e-10,4.901112242953051e-10,9.8070520372105e-10,1.5143119985338574e-9,2.1582799166693103e-9,5.412824746449524e-10,1.4592088735586835e-10,1.733751182773312e-10,0
37695,1.511256219651485e-10,4.901112242953051e-10,1.0033416759385688e-9,1.5155401634885002e-9,2.169040143678338e-9,5.433849133865809e-10,1.4484446473050854e-10,1.733751182773312e-10,0
37696,1.5298242008370235e-10,4.888310844255423e-10,1.0306595081541553e-9,1.5111407502326301e-9,2.186701082457498e-9,5.47091037752631e-10,1.4455562997643214e-10,1.731982051301238e-10,0
37697,1.5483921820225624e-10,4.875509445557796e-10,1.0579773403697417e-9,1.50674133697676e-9,2.2043620212366577e-9,5.507971621186811e-10,1.4426679522235571e-10,1.7302129198291638e-10,0
37698,1.566960163208101e-10,4.862708046860168e-10,1.0852951725853281e-9,1.5023419237208899e-9,2.222022960015817e-9,5.545032864847312e-10,1.439779604682793e-10,1.7284437883570895e-10,0
37699,1.5855281443936396e-10,4.84990664816254e-10,1.1126130048009146e-9,1.4979425104650198e-9,2.239683898794977e-9,5.582094108507814e-10,1.436891257142029e-10,1.7266746568850152e-10,0
37700,1.6040961255791781e-10,4.837105249464913e-10,1.139930837016501e-9,1.4935430972091496e-9,2.2573448375741366e-9,5.619155352168315e-10,1.4340029096012647e-10,1.7249055254129412e-10,0
37701,1.622664106764717e-10,4.824303850767285e-10,1.1672486692320877e-9,1.4891436839532795e-9,2.275005776353296e-9,5.656216595828815e-10,1.4311145620605004e-10,1.723136393940867e-10,0
37702,1.6412320879502556e-10,4.811502452069658e-10,1.194566501447674e-9,1.4847442706974096e-9,2.2926667151324557e-9,5.693277839489316e-10,1.4282262145197364e-10,1.7213672624687926e-10,0
37703,1.6598000691357942e-10,4.798701053372029e-10,1.2218843336632605e-9,1.4803448574415395e-9,2.3103276539116154e-9,5.730339083149817e-10,1.4253378669789722e-10,1.7195981309967183e-10,0
37704,1.678368050321333e-10,4.785899654674402e-10,1.249202165878847e-9,1.4759454441856694e-9,2.3279885926907748e-9,5.767400326810318e-10,1.4224495194382082e-10,1.717828999524644e-10,0
37705,1.6795698462111092e-10,4.771297260294623e-10,1.259016743270316e-9,1.4764369505801295e-9,2.3279885926907748e-9,5.767400326810318e-10,1.419561171897444e-10,1.71605986805257e-10,0
37706,1.6807716421008857e-10,4.742452670671495e-10,1.2616709938090215e-9,1.5139847282918892e-9,2.3326001185517868e-9,5.756351001738172e-10,1.419561171897444e-10,1.7208874676025633e-10,0
37707,1.6819734379906621e-10,4.713608081048367e-10,1.264325244347727e-9,1.5515325060036489e-9,2.3372116444127988e-9,5.745301676666026e-10,1.419561171897444e-10,1.7257150671525567e-10,0
37708,1.6819734379906621e-10,4.707900151603436e-10,1.2674461510131054e-9,1.596293486076535e-9,2.341761796370736e-9,5.748524464850044e-10,1.41168529318461e-10,1.7339209980246222e-10,0
37709,1.6819734379906621e-10,4.702192222158506e-10,1.2705670576784837e-9,1.6410544661494212e-9,2.3463119483286734e-9,5.751747253034063e-10,1.403809414471776e-10,1.7421269288966877e-10,0
37710,1.6819734379906621e-10,4.696484292713575e-10,1.273687964343862e-9,1.6858154462223074e-9,2.350862100286611e-9,5.754970041218081e-10,1.395933535758942e-10,1.750332859768753e-10,0
37711,1.6819734379906621e-10,4.690776363268645e-10,1.2768088710092404e-9,1.7305764262951937e-9,2.3554122522445485e-9,5.7581928294021e-10,1.3880576570461081e-10,1.7585387906408185e-10,0
37712,1.6819734379906621e-10,4.685068433823715e-10,1.279929777674619e-9,1.77533740636808e-9,2.359962404202486e-9,5.761415617586118e-10,1.380181778333274e-10,1.7667447215128838e-10,0
37713,1.6819734379906621e-10,4.679360504378784e-10,1.2830506843399972e-9,1.820098386440966e-9,2.364512556160423e-9,5.764638405770135e-10,1.37230589962044e-10,1.7749506523849493e-10,0
37714,1.6819734379906621e-10,4.663317313453283e-10,1.2847395256348228e-9,1.859693105743797e-9,2.351463143242276e-9,5.764638405770135e-10,1.3730950635298987e-10,1.7831565832570149e-10,0
37715,1.6819734379906621e-10,4.649075118209935e-10,1.2862678819769778e-9,1.901640296711427e-9,2.353621819452636e-9,5.770700199670212e-10,1.3759834110706627e-10,1.7897533142790825e-10,0
37716,1.6819734379906621e-10,4.634832922966586e-10,1.2877962383191328e-9,1.9435874876790566e-9,2.3557804956629957e-9,5.776761993570287e-10,1.378871758611427e-10,1.79635004530115e-10,0
37717,1.6819734379906621e-10,4.620590727723237e-10,1.289324594661288e-9,1.9855346786466862e-9,2.357939171873356e-9,5.782823787470364e-10,1.3817601061521911e-10,1.8029467763232176e-10,0
37718,1.6819734379906621e-10,4.606348532479888e-10,1.2908529510034431e-9,2.0274818696143163e-9,2.360097848083716e-9,5.788885581370439e-10,1.384648453692955e-10,1.8095435073452852e-10,0
37719,1.6807716421008857e-10,4.5921063372365395e-10,1.2897270568068926e-9,2.031881282870186e-9,2.3576449984330644e-9,5.794947375270515e-10,1.3875368012337194e-10,1.8161402383673528e-10,0
37720,1.6833555814934027e-10,4.5778641419931903e-10,1.2881666034742035e-9,2.062476705895051e-9,2.516297167532878e-9,5.794947375270515e-10,1.3875368012337194e-10,1.8161402383673528e-10,0
37721,1.6859395208859196e-10,4.5636219467498416e-10,1.2866061501415142e-9,2.0930721289199154e-9,2.674949336632692e-9,5.794947375270515e-10,1.3875368012337194e-10,1.8161402383673528e-10,0
37722,1.688523460278437e-10,4.5493797515064924e-10,1.2850456968088252e-9,2.12366755194478e-9,2.833601505732506e-9,5.794947375270515e-10,1.3875368012337194e-10,1.8161402383673528e-10,0
37723,1.691107399670954e-10,4.535137556263144e-10,1.283485243476136e-9,2.1542629749696442e-9,2.99225367483232e-9,5.794947375270515e-10,1.3875368012337194e-10,1.8161402383673528e-10,0
37724,1.6936913390634709e-10,4.520895361019795e-10,1.2819247901434467e-9,2.184858397994509e-9,3.1509058439321336e-9,5.794947375270515e-10,1.3875368012337194e-10,1.8161402383673528e-10,0
37725,1.6962752784559878e-10,4.506653165776446e-10,1.2803643368107576e-9,2.2154538210193734e-9,3.3095580130319477e-9,5.794947375270515e-10,1.3875368012337194e-10,1.8161402383673528e-10,0
37726,1.6988592178485048e-10,4.492410970533097e-10,1.2788038834780683e-9,2.246049244044238e-9,3.4682101821317614e-9,5.794947375270515e-10,1.3875368012337194e-10,1.8161402383673528e-10,0
37727,1.701443157241022e-10,4.478168775289748e-10,1.2772434301453793e-9,2.2766446670691023e-09,3.6268623512315755e-9,5.794947375270515e-10,1.3875368012337194e-10,1.8161402383673528e-10,0
37728,1.704027096633539e-10,4.4639265800463993e-10,1.27568297681269e-9,2.3072400900939667e-9,3.78551452033139e-9,5.794947375270515e-10,1.3875368012337194e-10,1.8161402383673528e-10,0
37729,1.706611036026056e-10,4.4639265800463993e-10,1.2751521267049488e-9,2.3401058667073845e-9,3.862179294607424e-9,5.796021637998521e-10,1.3639091650952174e-10,1.8177494382173508e-10,0
37730,1.7103967713083495e-10,4.458218650601469e-10,1.2722879959638435e-9,2.373559761237002e-9,4.018672787496878e-9,5.797095900726527e-10,1.3610208175544532e-10,1.8177494382173508e-10,0
37731,1.714182506590643e-10,4.4525107211565385e-10,1.2694238652227381e-9,2.4070136557666188e-9,4.175166280386332e-9,5.798170163454533e-10,1.3581324700136892e-10,1.8177494382173508e-10,0
37732,1.7179682418729364e-10,4.446802791711608e-10,1.2665597344816326e-9,2.440467550296236e-9,4.331659773275786e-9,5.799244426182539e-10,1.355244122472925e-10,1.8177494382173508e-10,0
37733,1.7217539771552298e-10,4.4410948622666776e-10,1.2636956037405272e-9,2.4739214448258535e-9,4.4881532661652394e-9,5.800318688910545e-10,1.3523557749321607e-10,1.8177494382173508e-10,0
37734,1.7255397124375233e-10,4.435386932821747e-10,1.2608314729994218e-9,2.507375339355471e-9,4.644646759054693e-9,5.801392951638552e-10,1.3494674273913967e-10,1.8177494382173508e-10,0
37735,1.7293254477198167e-10,4.4296790033768167e-10,1.2579673422583163e-9,2.540829233885088e-9,4.801140251944147e-9,5.802467214366558e-10,1.3465790798506325e-10,1.8177494382173508e-10,0
37736,1.7331111830021102e-10,4.4239710739318863e-10,1.255103211517211e-9,2.5742831284147055e-9,4.957633744833601e-9,5.803541477094564e-10,1.3436907323098682e-10,1.8177494382173508e-10,0
37737,1.7368969182844036e-10,4.418263144486956e-10,1.2522390807761056e-9,2.607737022944323e-9,5.114127237723054e-9,5.80461573982257e-10,1.3408023847691043e-10,1.8177494382173508e-10,0
37738,1.740682653566697e-10,4.4125552150420254e-10,1.249374950035e-9,2.64119091747394e-9,5.270620730612508e-9,5.805690002550576e-10,1.33791403722834e-10,1.8177494382173508e-10,0
37739,1.7444683888489903e-10,4.406847285597095e-10,1.2465108192938946e-9,2.674644812003557e-9,5.427114223501962e-9,5.806764265278582e-10,1.3350256896875758e-10,1.8177494382173508e-10,0
37740,1.7444683888489903e-10,4.4011393561521646e-10,1.2436466885527893e-9,2.71945047447594e-9,5.422564071544025e-9,1.0792761948387981e-9,1.34290156840041e-10,1.8161402383673528e-10,0
37741,1.751859511800613e-10,4.4114746176327344e-10,1.2412171169478224e-9,2.730237066733761e-9,5.450166918624552e-9,1.098198143513455e-9,1.3507774471132438e-10,1.8145310385173551e-10,0
37742,1.7592506347522357e-10,4.4218098791133047e-10,1.2387875453428558e-9,2.7410236589915823e-9,5.477769765705078e-9,1.1171200921881119e-9,1.3586533258260777e-10,1.8129218386673572e-10,0
37743,1.7666417577038582e-10,4.4321451405938745e-10,1.236357973737889e-9,2.7518102512494037e-9,5.505372612785605e-9,1.1360420408627687e-9,1.3665292045389119e-10,1.8113126388173595e-10,0
37744,1.7740328806554808e-10,4.4424804020744444e-10,1.2339284021329224e-9,2.7625968435072246e-9,5.532975459866131e-9,1.1549639895374256e-9,1.3744050832517457e-10,1.8097034389673616e-10,0
37745,1.7814240036071034e-10,4.452815663555014e-10,1.2314988305279558e-9,2.773383435765046e-9,5.5605783069466575e-9,1.1738859382120825e-9,1.3822809619645796e-10,1.808094239117364e-10,0
37746,1.788815126558726e-10,4.4631509250355845e-10,1.2290692589229891e-9,2.784170028022867e-9,5.588181154027184e-9,1.1928078868867393e-9,1.3901568406774138e-10,1.8064850392673662e-10,0
37747,1.7962062495103488e-10,4.4734861865161543e-10,1.2266396873180225e-9,2.7949566202806883e-9,5.615784001107711e-9,1.2117298355613962e-9,1.3980327193902477e-10,1.8048758394173683e-10,0
37748,1.8035973724619713e-10,4.483821447996724e-10,1.2242101157130558e-9,2.8057432125385097e-9,5.643386848188238e-9,1.2306517842360529e-9,1.4059085981030816e-10,1.8032666395673706e-10,0
37749,1.810988495413594e-10,4.494156709477294e-10,1.2217805441080891e-9,2.8165298047963306e-9,5.670989695268764e-9,1.2495737329107097e-9,1.4137844768159157e-10,1.8016574397173726e-10,0
37750,1.8183796183652165e-10,4.5044919709578643e-10,1.2193509725031225e-9,2.827316397054152e-9,5.698592542349291e-9,1.2684956815853666e-9,1.4216603555287496e-10,1.800048239867375e-10,0
37751,1.825770741316839e-10,4.514827232438434e-10,1.2169214008981558e-9,2.8381029893119733e-9,5.726195389429818e-9,1.2874176302600235e-9,1.4295362342415835e-10,1.798439040017377e-10,0
37752,1.833161864268462e-10,4.525162493919004e-10,1.214491829293189e-9,2.8488895815697943e-9,5.753798236510344e-9,1.3063395789346803e-9,1.4374121129544177e-10,1.7968298401673793e-10,0
37753,1.8405529872200844e-10,4.535497755399574e-10,1.2120622576882223e-9,2.8596761738276156e-9,5.781401083590871e-9,1.3252615276093372e-9,1.4452879916672516e-10,1.7952206403173814e-10,0
37754,1.847944110171707e-10,4.545833016880144e-10,1.2096326860832556e-9,2.870462766085437e-9,5.809003930671398e-9,1.344183476283994e-9,1.4531638703800855e-10,1.7936114404673837e-10,0
37755,1.8553352331233296e-10,4.556168278360714e-10,1.207203114478289e-9,2.881249358343258e-9,5.836606777751924e-9,1.363105424958651e-9,1.4610397490929196e-10,1.7920022406173858e-10,0
37756,1.8627263560749522e-10,4.5665035398412837e-10,1.2047735428733223e-9,2.8920359506010793e-9,5.864209624832451e-9,1.3820273736333076e-9,1.4689156278057535e-10,1.790393040767388e-10,0
37757,1.8701174790265747e-10,4.5768388013218536e-10,1.2023439712683556e-9,2.9028225428589007e-9,5.891812471912978e-9,1.4009493223079645e-9,1.4767915065185874e-10,1.7887838409173904e-10,0
37758,1.8775086019781976e-10,4.587174062802424e-10,1.199914399663389e-9,2.9136091351167216e-9,5.9194153189935045e-9,1.4198712709826213e-9,1.4846673852314215e-10,1.7871746410673924e-10,0
37759,1.88489972492982e-10,4.587174062802424e-10,1.1987885054668386e-9,2.92153725586979e-9,5.95065264366832e-9,1.4289639618327351e-9,1.4933324278537138e-10,1.7673844480011897e-10,0
37760,1.8922908478814427e-10,4.5889750584845755e-10,1.1963589338618718e-9,2.932279165728115e-9,5.981787678504679e-9,1.4474945836629858e-9,1.5019974704760062e-10,1.7657752481511917e-10,0
37761,1.8996819708330653e-10,4.5907760541667265e-10,1.193929362256905e-9,2.94302107558644e-9,6.012922713341038e-9,1.4660252054932362e-9,1.5106625130982987e-10,1.764166048301194e-10,0
37762,1.9070730937846878e-10,4.592577049848878e-10,1.1914997906519384e-9,2.9537629854447646e-9,6.0440577481773965e-9,1.4845558273234867e-9,1.5193275557205912e-10,1.762556848451196e-10,0
37763,1.9108588290669813e-10,4.5786950537419594e-10,1.195924374725733e-9,3.0493750433045223e-9,6.102043619472166e-9,1.485983038649103e-9,1.5201167196300498e-10,1.769153579473264e-10,0
37764,1.9108588290669813e-10,4.570160787943541e-10,1.1930602439846277e-9,3.0545413040745776e-9,6.168664195608376e-9,1.486305317467505e-9,1.5201167196300498e-10,1.769153579473264e-10,0
37765,1.9108588290669813e-10,4.561626522145123e-10,1.1901961132435223e-9,3.059707564844633e-9,6.235284771744586e-9,1.4866275962859067e-9,1.5201167196300498e-10,1.769153579473264e-10,0
37766,1.9108588290669813e-10,4.553092256346704e-10,1.1873319825024168e-9,3.0648738256146882e-9,6.301905347880796e-9,1.4869498751043084e-9,1.5201167196300498e-10,1.769153579473264e-10,0
37767,1.9108588290669813e-10,4.544557990548286e-10,1.1844678517613114e-9,3.0700400863847435e-9,6.368525924017006e-9,1.4872721539227103e-9,1.5201167196300498e-10,1.769153579473264e-10,0
37768,1.9108588290669813e-10,4.536023724749867e-10,1.1816037210202059e-9,3.075206347154799e-9,6.435146500153216e-9,1.487594432741112e-9,1.5201167196300498e-10,1.769153579473264e-10,0
37769,1.9108588290669813e-10,4.527489458951449e-10,1.1787395902791005e-9,3.0803726079248545e-9,6.5017670762894256e-9,1.487916711559514e-9,1.5201167196300498e-10,1.769153579473264e-10,0
37770,1.9108588290669813e-10,4.5189551931530307e-10,1.1758754595379951e-9,3.08553886869491e-9,6.568387652425636e-9,1.4882389903779157e-9,1.5201167196300498e-10,1.769153579473264e-10,0
37771,1.9108588290669813e-10,4.510420927354612e-10,1.1730113287968896e-9,3.090705129464965e-9,6.6350082285618456e-09,1.4885612691963177e-9,1.5201167196300498e-10,1.769153579473264e-10,0
37772,1.9108588290669813e-10,4.500085665874042e-10,1.1699225191220455e-9,3.0851294803766954e-9,6.698096616942224e-9,1.487993468053106e-9,1.5222159032613554e-10,1.769153579473264e-10,0
37773,1.9108588290669813e-10,4.4897504043934723e-10,1.1668337094472012e-9,3.0795538312884257e-9,6.761185005322602e-9,1.4874256669098946e-9,1.524315086892661e-10,1.769153579473264e-10,0
37774,1.9070730937846878e-10,4.490831001802763e-10,1.1663991503110625e-9,3.084720092058481e-9,6.829342756745816e-9,1.486857865766683e-9,1.5264142705239668e-10,1.7673844480011897e-10,0
37775,1.910678481454017e-10,4.5175696533452634e-10,1.2187830263491344e-9,3.397325989517011e-9,6.924494550401282e-9,1.536441568448188e-9,1.5264142705239668e-10,1.7640061166791177e-10,0
37776,1.9080945420615e-10,4.5175696533452634e-10,1.221212597954101e-9,3.456461445189907e-9,6.9295639134441175e-9,2.48496273519421e-9,1.535600168958648e-10,1.7606277853570455e-10,0
37777,1.905510602668983e-10,4.5175696533452634e-10,1.2236421695590677e-9,3.5155969008628027e-9,6.934633276486954e-9,3.4334839019402316e-9,1.5447860673933292e-10,1.7572494540349735e-10,0
37778,1.902926663276466e-10,4.5175696533452634e-10,1.2260717411640346e-9,3.574732356535699e-9,6.939702639529789e-9,4.382005068686254e-9,1.5539719658280102e-10,1.7538711227129016e-10,0
37779,1.900342723883949e-10,4.5175696533452634e-10,1.2285013127690013e-9,3.633867812208595e-9,6.944772002572626e-9,5.330526235432275e-9,1.5631578642626914e-10,1.7504927913908296e-10,0
37780,1.8977587844914318e-10,4.5175696533452634e-10,1.230930884373968e-9,3.6930032678814906e-9,6.949841365615461e-9,6.279047402178297e-9,1.5723437626973727e-10,1.7471144600687574e-10,0
37781,1.8951748450989148e-10,4.5175696533452634e-10,1.2333604559789346e-9,3.752138723554386e-9,6.954910728658297e-9,7.227568568924319e-9,1.581529661132054e-10,1.7437361287466854e-10,0
37782,1.8925909057063978e-10,4.5175696533452634e-10,1.2357900275839012e-9,3.811274179227283e-9,6.959980091701133e-9,8.176089735670341e-9,1.590715559566735e-10,1.7403577974246134e-10,0
37783,1.8900069663138808e-10,4.5175696533452634e-10,1.238219599188868e-9,3.8704096349001785e-9,6.965049454743969e-9,9.124610902416364e-9,1.599901458001416e-10,1.7369794661025415e-10,0
37784,1.8874230269213638e-10,4.5175696533452634e-10,1.2406491707938346e-9,3.929545090573074e-9,6.970118817786805e-9,1.0073132069162385e-8,1.6090873564360973e-10,1.7336011347804692e-10,0
37785,1.8848390875288466e-10,4.5175696533452634e-10,1.2430787423988012e-9,3.988680546245971e-9,6.975188180829641e-9,1.1021653235908406e-8,1.6182732548707786e-10,1.7302228034583973e-10,0
37786,1.8786497604670005e-10,4.5175696533452634e-10,1.2455083140037679e-9,4.047860684318363e-9,6.979738332787578e-9,1.1971348383187649e-8,1.625359969674154e-10,1.7302228034583973e-10,0
37787,1.8724604334051544e-10,4.516489055935973e-10,1.240730663034098e-9,4.062235159918373e-9,6.98327052054341e-9,1.2920759629895283e-8,1.6316575205680711e-10,1.722016872586332e-10,0
37788,1.866271106343308e-10,4.515408458526682e-10,1.2359530120644282e-9,4.076609635518382e-9,6.986802708299242e-9,1.3870170876602918e-8,1.6379550714619881e-10,1.7138109417142665e-10,0
37789,1.860081779281462e-10,4.514327861117391e-10,1.2311753610947583e-9,4.090984111118392e-9,6.990334896055074e-9,1.4819582123310554e-8,1.644252622355905e-10,1.705605010842201e-10,0
37790,1.8538924522196155e-10,4.5132472637081e-10,1.2263977101250883e-9,4.105358586718402e-9,6.993867083810906e-9,1.576899337001819e-8,1.650550173249822e-10,1.6973990799701357e-10,0
37791,1.8477031251577694e-10,4.512166666298809e-10,1.2216200591554184e-9,4.119733062318412e-9,6.997399271566738e-9,1.6718404616725825e-8,1.656847724143739e-10,1.6891931490980701e-10,0
37792,1.841513798095923e-10,4.511086068889518e-10,1.2168424081857486e-9,4.134107537918421e-9,7.00093145932257e-9,1.766781586343346e-8,1.663145275037656e-10,1.6809872182260049e-10,0
37793,1.835324471034077e-10,4.510005471480227e-10,1.2120647572160787e-9,4.1484820135184315e-9,7.004463647078401e-9,1.8617227110141094e-8,1.669442825931573e-10,1.6727812873539393e-10,0
37794,1.8291351439722308e-10,4.5089248740709366e-10,1.2072871062464089e-9,4.162856489118441e-9,7.007995834834233e-9,1.956663835684873e-8,1.6757403768254903e-10,1.6645753564818738e-10,0
37795,1.8229458169103844e-10,4.5078442766616455e-10,1.2025094552767388e-9,4.1772309647184506e-09,7.011528022590065e-9,2.0516049603556366e-8,1.6820379277194073e-10,1.6563694256098085e-10,0
37796,1.8167564898485383e-10,4.5067636792523545e-10,1.197731804307069e-9,4.19160544031846e-9,7.0150602103458974e-9,2.1465460850264e-8,1.6883354786133243e-10,1.648163494737743e-10,0
37797,1.813151102179209e-10,4.505683081843064e-10,1.1916504759289828e-9,4.146844460245574e-9,7.150687904183424e-9,2.1519049994818337e-8,1.709074767211062e-10,1.6433358951877497e-10,0
37798,1.8243279604131252e-10,4.516018343323634e-10,1.189124613352414e-9,4.115691108258513e-9,7.171390039493819e-9,2.1552865488983198e-8,1.7935944890391793e-10,1.6549201573818872e-10,0
37799,1.8169368374615024e-10,4.510670613015134e-10,1.1819173907777772e-9,4.074056694087357e-9,7.192480876190353e-9,2.175195999208641e-8,1.814333777636917e-10,1.6830762129422318e-10,0
37800,1.8095457145098798e-10,4.5053228827066334e-10,1.1747101682031407e-9,4.032422279916202e-9,7.213571712886887e-9,2.1951054495189622e-8,1.835073066234655e-10,1.7112322685025765e-10,0
37801,1.8021545915582573e-10,4.4999751523981335e-10,1.1675029456285042e-9,3.990787865745047e-9,7.234662549583421e-9,2.2150148998292833e-8,1.8558123548323927e-10,1.7393883240629214e-10,0
37802,1.7947634686066347e-10,4.494627422089633e-10,1.1602957230538677e-9,3.949153451573892e-9,7.255753386279955e-9,2.2349243501396043e-8,1.8765516434301303e-10,1.767544379623266e-10,0
37803,1.787372345655012e-10,4.489279691781133e-10,1.153088500479231e-9,3.9075190374027365e-9,7.276844222976489e-9,2.2548338004499257e-8,1.8972909320278683e-10,1.7957004351836107e-10,0
37804,1.7799812227033896e-10,4.4839319614726327e-10,1.1458812779045944e-9,3.865884623231581e-9,7.297935059673023e-9,2.2747432507602467e-8,1.918030220625606e-10,1.8238564907439556e-10,0
37805,1.7725900997517667e-10,4.478584231164133e-10,1.138674055329958e-9,3.8242502090604264e-9,7.3190258963695564e-9,2.2946527010705678e-8,1.9387695092233437e-10,1.8520125463043002e-10,0
37806,1.7725900997517667e-10,4.478584231164133e-10,1.137708646086078e-9,3.827421457361653e-9,7.338600015746778e-9,2.3143342600768458e-8,1.9595087978210814e-10,1.8867653328867124e-10,0
37807,1.7725900997517667e-10,4.464702235057214e-10,1.1308544904073168e-9,3.81980611340506e-9,7.359793142281769e-9,2.3342828430716076e-8,1.9810372503282777e-10,1.9149213884470574e-10,0
37808,1.7725900997517667e-10,4.464702235057214e-10,1.1312890495434555e-9,3.8229326793067905e-9,7.377535912931695e-9,2.354220683439089e-8,2.002565702835474e-10,1.9496741750294696e-10,0
37809,1.7725900997517667e-10,4.464702235057214e-10,1.1317236086795942e-9,3.826059245208521e-9,7.395278683581621e-9,2.374158523806571e-8,2.0240941553426702e-10,1.984426961611882e-10,0
37810,1.7725900997517667e-10,4.464702235057214e-10,1.1321581678157329e-9,3.829185811110253e-9,7.413021454231547e-9,2.3940963641740527e-8,2.0456226078498665e-10,2.0191797481942943e-10,0
37811,1.7725900997517667e-10,4.464702235057214e-10,1.1325927269518718e-9,3.8323123770119836e-9,7.430764224881473e-9,2.4140342045415345e-8,2.0671510603570628e-10,2.0539325347767068e-10,0
37812,1.7725900997517667e-10,4.464702235057214e-10,1.1330272860880105e-9,3.835438942913714e-9,7.4485069955313985e-9,2.433972044909016e-8,2.088679512864259e-10,2.088685321359119e-10,0
37813,1.7725900997517667e-10,4.464702235057214e-10,1.1334618452241492e-9,3.838565508815446e-9,7.466249766181324e-9,2.453909885276498e-8,2.1102079653714553e-10,2.1234381079415315e-10,0
37814,1.7725900997517667e-10,4.464702235057214e-10,1.133896404360288e-9,3.841692074717177e-9,7.48399253683125e-9,2.4738477256439797e-8,2.1317364178786516e-10,2.1581908945239438e-10,0
37815,1.7725900997517667e-10,4.464702235057214e-10,1.1343309634964268e-9,3.844818640618907e-9,7.501735307481175e-9,2.4937855660114615e-8,2.1532648703858479e-10,2.1929436811063563e-10,0
37816,1.7725900997517667e-10,4.464702235057214e-10,1.1347655226325655e-9,3.847945206520639e-9,7.519478078131101e-9,2.513723406378943e-8,2.1747933228930441e-10,2.2276964676887685e-10,0
37817,1.7725900997517667e-10,4.464702235057214e-10,1.1352000817687042e-9,3.85107177242237e-9,7.537220848781027e-9,2.5336612467464248e-8,2.1963217754002401e-10,2.262449254271181e-10,0
37818,1.7725900997517667e-10,4.464702235057214e-10,1.135634640904843e-9,3.8541983383241005e-9,7.554963619430953e-9,2.5535990871139066e-8,2.2178502279074364e-10,2.2972020408535932e-10,0
37819,1.7725900997517667e-10,4.464702235057214e-10,1.1360692000409818e-9,3.857324904225832e-9,7.572706390080879e-9,2.573536927481388e-8,2.2393786804146327e-10,2.3319548274360057e-10,0
37820,1.7725900997517667e-10,4.464702235057214e-10,1.1365037591771205e-9,3.860451470127563e-9,7.590449160730805e-9,2.59347476784887e-8,2.260907132921829e-10,2.366707614018418e-10,0
37821,1.7799812227033896e-10,4.478584231164133e-10,1.1437924739920205e-9,3.860451470127563e-9,7.638219408251605e-9,2.60475962705619e-8,2.9727983104242164e-10,2.384888607234623e-10,0
37822,1.787372345655012e-10,4.4924662272710515e-10,1.1510811888069206e-9,3.860451470127563e-9,7.685989655772408e-9,2.61604448626351e-8,3.6846894879266036e-10,2.403069600450828e-10,0
37823,1.7947634686066347e-10,4.50634822337797e-10,1.1583699036218206e-9,3.860451470127563e-9,7.73375990329321e-9,2.62732934547083e-8,4.396580665428991e-10,2.421250593667033e-10,0
37824,1.8021545915582573e-10,4.520230219484889e-10,1.1656586184367206e-9,3.860451470127563e-9,7.781530150814013e-9,2.63861420467815e-8,5.108471842931378e-10,2.4394315868832383e-10,0
37825,1.8095457145098798e-10,4.534112215591807e-10,1.1729473332516206e-9,3.860451470127563e-9,7.829300398334816e-9,2.6498990638854697e-8,5.820363020433765e-10,2.4576125800994434e-10,0
37826,1.8169368374615024e-10,4.5479942116987257e-10,1.1802360480665208e-9,3.860451470127563e-9,7.877070645855617e-9,2.6611839230927898e-8,6.532254197936152e-10,2.4757935733156485e-10,0
37827,1.8243279604131252e-10,4.5618762078056444e-10,1.1875247628814208e-9,3.860451470127563e-9,7.92484089337642e-9,2.6724687823001096e-8,7.244145375438539e-10,2.4939745665318536e-10,0
37828,1.8305172874749713e-10,4.5704104736040626e-10,1.194845574686855e-9,3.8552852093575075e-9,7.967165772543329e-9,2.6834221617552652e-8,7.958135736572232e-10,2.505558828725991e-10,0
37829,1.8367066145368175e-10,4.5686094779219115e-10,1.2021663864922892e-9,3.852158643455777e-9,8.012462712445787e-9,2.6947177635898653e-8,8.669237750165161e-10,2.525349021792194e-10,0
37830,1.8428959415986638e-10,4.56680848223976e-10,1.2094871982977232e-9,3.849032077554045e-9,8.057759652348245e-9,2.7060133654244653e-8,9.38033976375809e-10,2.545139214858397e-10,0
37831,1.84908526866051e-10,4.5650074865576084e-10,1.2168080101031574e-9,3.8459055116523144e-9,8.103056592250705e-9,2.7173089672590654e-8,1.0091441777351018e-9,2.5649294079245994e-10,0
37832,1.8826158433622582e-10,4.580330279210248e-10,1.2184005604263807e-9,4.0760396172367216e-9,8.106028652986256e-9,2.7174371079396674e-8,1.0452390657656033e-9,2.5649294079245994e-10,0
37833,1.8814140474724818e-10,4.568914420320387e-10,1.2188672165530536e-9,4.073322439653204e-9,8.143770226152454e-9,2.7425190266260956e-8,1.0449502310115269e-09,2.5683077392466714e-10,0
37834,1.8802122515827053e-10,4.5574985614305264e-10,1.2193338726797265e-9,4.070605262069688e-9,8.181511799318653e-9,2.767600945312524e-8,1.0446613962574503e-9,2.571686070568744e-10,0
37835,1.8790104556929289e-10,4.5460827025406655e-10,1.2198005288063992e-9,4.067888084486171e-9,8.219253372484851e-9,2.792682863998952e-8,1.0443725615033739e-9,2.575064401890816e-10,0
37836,1.8778086598031527e-10,4.5346668436508046e-10,1.2202671849330721e-9,4.0651709069026545e-9,8.25699494565105e-9,2.8177647826853806e-8,1.0440837267492975e-9,2.578442733212888e-10,0
37837,1.8766068639133762e-10,4.523250984760944e-10,1.220733841059745e-9,4.062453729319137e-9,8.294736518817248e-9,2.8428467013718087e-8,1.043794891995221e-9,2.58182106453496e-10,0
37838,1.8754050680235997e-10,4.511835125871083e-10,1.221200497186418e-9,4.059736551735621e-9,8.332478091983447e-9,2.8679286200582372e-8,1.0435060572411447e-9,2.5851993958570317e-10,0
37839,1.8742032721338233e-10,4.500419266981222e-10,1.2216671533130907e-9,4.057019374152104e-9,8.370219665149645e-9,2.8930105387446653e-8,1.0432172224870683e-9,2.5885777271791037e-10,0
37840,1.873001476244047e-10,4.489003408091361e-10,1.2221338094397636e-9,4.0543021965685875e-9,8.407961238315844e-9,2.9180924574310937e-8,1.042928387732992e-9,2.5919560585011757e-10,0
37841,1.8717996803542706e-10,4.4775875492015003e-10,1.2226004655664365e-9,4.05158501898507e-9,8.445702811482042e-9,2.943174376117522e-8,1.0426395529789155e-9,2.5953343898232476e-10,0
37842,1.8680139450719772e-10,4.4818546821007097e-10,1.2230671216931095e-9,4.047230288128696e-9,8.468174921616658e-9,2.967273369021496e-8,1.042350718224839e-9,2.5905067902732543e-10,0
37843,1.8494459638864386e-10,4.470438823210849e-10,1.2235337778197822e-9,4.047639676446911e-9,8.513295501702503e-9,2.992316155023484e-8,1.0421407998617086e-9,2.592275921745329e-10,0
37844,1.8308779827008997e-10,4.459022964320988e-10,1.224000433946455e-9,4.048049064765125e-9,8.558416081788348e-9,3.017358941025471e-8,1.041930881498578e-9,2.594045053217403e-10,0
37845,1.8123100015153611e-10,4.447607105431127e-10,1.224467090073128e-9,4.0484584530833395e-9,8.603536661874195e-9,3.0424017270274585e-8,1.0417209631354473e-9,2.595814184689477e-10,0
37846,1.7937420203298226e-10,4.436191246541266e-10,1.2249337461998007e-9,4.048867841401554e-9,8.64865724196004e-9,3.0674445130294466e-8,1.0415110447723167e-9,2.5975833161615514e-10,0
37847,1.775174039144284e-10,4.4247753876514054e-10,1.2254004023264736e-9,4.049277229719768e-9,8.693777822045886e-9,3.092487299031434e-8,1.0413011264091862e-9,2.5993524476336255e-10,0
37848,1.756606057958745e-10,4.4133595287615445e-10,1.2258670584531466e-9,4.049686618037982e-9,8.738898402131731e-9,3.1175300850334214e-8,1.0410912080460557e-9,2.6011215791057e-10,0
37849,1.7380380767732065e-10,4.4019436698716836e-10,1.2263337145798195e-9,4.050096006356196e-9,8.784018982217578e-9,3.1425728710354095e-8,1.0408812896829251e-9,2.602890710577774e-10,0
37850,1.719470095587668e-10,4.390527810981823e-10,1.2268003707064922e-9,4.050505394674411e-9,8.829139562303423e-9,3.167615657037397e-8,1.0406713713197946e-9,2.604659842049848e-10,0
37851,1.7009021144021294e-10,4.379111952091962e-10,1.2272670268331651e-9,4.050914782992625e-9,8.874260142389268e-9,3.1926584430393844e-8,1.040461452956664e-9,2.6064289735219226e-10,0
37852,1.6823341332165905e-10,4.3676960932021015e-10,1.227733682959838e-9,4.0513241713108395e-9,8.919380722475114e-9,3.2177012290413724e-8,1.0402515345935335e-9,2.6081981049939966e-10,0
37853,1.663766152031052e-10,4.3562802343122407e-10,1.228200339086511e-9,4.051733559629053e-9,8.964501302560959e-9,3.24274401504336e-8,1.0400416162304027e-9,2.609967236466071e-10,0
37854,1.6451981708455133e-10,4.34486437542238e-10,1.2286669952131837e-9,4.0521429479472675e-9,9.009621882646806e-9,3.267786801045347e-8,1.0398316978672722e-9,2.611736367938145e-10,0
37855,1.6340213126115973e-10,4.333448516532519e-10,1.231787901878562e-9,4.119213771095979e-9,9.031881651211896e-9,3.2960929675637406e-8,1.0760055022887195e-9,2.618333098960213e-10,0
37856,1.6605214595876512e-10,4.419982285401903e-10,1.2539429192380694e-9,5.2923269872293136e-9,9.083964316970948e-9,3.301140345828052e-8,1.091440018112429e-9,2.628468092926429e-10,0
37857,1.6870216065637053e-10,4.506516054271287e-10,1.2760979365975765e-9,6.465440203362647e-9,9.136046982729999e-9,3.3061877240923645e-8,1.1068745339361386e-9,2.638603086892645e-10,0
37858,1.7135217535397592e-10,4.5930498231406714e-10,1.2982529539570836e-9,7.638553419495982e-9,9.18812964848905e-9,3.311235102356676e-8,1.1223090497598479e-9,2.648738080858861e-10,0
37859,1.7400219005158133e-10,4.679583592010055e-10,1.3204079713165908e-9,8.811666635629315e-9,9.240212314248104e-9,3.316282480620988e-8,1.1377435655835574e-9,2.658873074825077e-10,0
37860,1.7665220474918675e-10,4.76611736087944e-10,1.3425629886760979e-9,9.98477985176265e-9,9.292294980007155e-9,3.3213298588853e-8,1.153178081407267e-9,2.669008068791293e-10,0
37861,1.7930221944679213e-10,4.852651129748823e-10,1.364718006035605e-9,1.1157893067895984e-8,9.344377645766206e-9,3.3263772371496117e-8,1.1686125972309765e-9,2.6791430627575095e-10,0
37862,1.8195223414439755e-10,4.955228089543708e-10,1.3868730233951124e-9,1.2331050966428815e-8,9.391370490514732e-9,3.331463748098364e-8,1.1842570314178165e-9,2.6908872565737233e-10,0
37863,1.8633886737157917e-10,5.052097119893663e-10,1.4084650936563443e-9,1.3503620747045445e-8,9.441997812857545e-9,3.33609447643903e-8,1.1999014656046566e-9,2.701022250539939e-10,0
37864,1.9084568018773844e-10,5.148966150243617e-10,1.430057163917576e-9,1.4675371751025647e-8,9.479951727593269e-9,3.34099913357078e-8,1.2152570650374203e-9,2.712766444356153e-10,0
37865,1.9535249300389771e-10,5.245835180593571e-10,1.451649234178808e-9,1.584712275500585e-8,9.517905642328993e-9,3.3459037907025304e-8,1.230612664470184e-9,2.724510638172367e-10,0
37866,1.9985930582005699e-10,5.342704210943525e-10,1.47324130444004e-9,1.7018873758986054e-8,9.555859557064717e-9,3.3508084478342804e-8,1.2459682639029474e-9,2.7362548319885807e-10,0
37867,2.0436611863621626e-10,5.439573241293479e-10,1.494833374701272e-9,1.8190624762966254e-8,9.593813471800442e-9,3.3557131049660304e-8,1.261323863335711e-9,2.7479990258047945e-10,0
37868,2.0887293145237553e-10,5.536442271643433e-10,1.5164254449625039e-9,1.9362375766946457e-8,9.631767386536167e-9,3.360617762097781e-8,1.2766794627684747e-9,2.7597432196210084e-10,0
37869,2.133797442685348e-10,5.633311301993387e-10,1.5380175152237358e-9,2.053412677092666e-8,9.66972130127189e-9,3.365522419229531e-8,1.2920350622012384e-9,2.771487413437222e-10,0
37870,2.1788655708469407e-10,5.730180332343341e-10,1.5596095854849678e-9,2.170587777490686e-8,9.707675216007615e-9,3.370427076361281e-8,1.307390661634002e-9,2.783231607253436e-10,0
37871,2.2239336990085332e-10,5.827049362693296e-10,1.5812016557461997e-9,2.2877628778887064e-8,9.745629130743338e-9,3.375331733493031e-8,1.3227462610667657e-9,2.7949758010696504e-10,0
37872,2.269001827170126e-10,5.92391839304325e-10,1.6027937260074317e-9,2.4049379782867268e-8,9.783583045479063e-9,3.3802363906247817e-8,1.3381018604995294e-9,2.806719994885864e-10,0
37873,2.3140699553317186e-10,6.020787423393204e-10,1.6243857962686637e-9,2.5221130786847468e-8,9.821536960214786e-9,3.3851410477565317e-8,1.353457459932293e-9,2.818464188702078e-10,0
37874,2.3591380834933113e-10,6.117656453743158e-10,1.6459778665298956e-9,2.639288179082767e-8,9.859490874950511e-9,3.3900457048882817e-8,1.3688130593650565e-9,2.830208382518292e-10,0
37875,2.404206211654904e-10,6.214525484093112e-10,1.6675699367911276e-9,2.7564632794807874e-8,9.897444789686234e-9,3.394950362020032e-8,1.3841686587978202e-9,2.841952576334506e-10,0
37876,2.4079919469371975e-10,6.260493862051031e-10,1.6701278963582307e-9,2.7596679794784864e-8,9.893933059898095e-9,3.397404224074868e-8,1.3880276817632914e-9,2.8453309076565777e-10,0
37877,2.4427243175287223e-10,6.260493862051031e-10,1.683786812466024e-9,2.772047442609668e-8,1.017586684271141e-8,3.4144492963625486e-8,1.4522105771392755e-9,2.8487092389786497e-10,0
37878,2.4774566881202465e-10,6.260493862051031e-10,1.6974457285738171e-9,2.78442690574085e-8,1.0457800625524725e-8,3.43149436865023e-8,1.5163934725152595e-9,2.8520875703007217e-10,0
37879,2.5121890587117713e-10,6.260493862051031e-10,1.7111046446816105e-9,2.796806368872032e-8,1.073973440833804e-8,3.448539440937911e-8,1.5805763678912437e-9,2.8554659016227936e-10,0
37880,2.5469214293032955e-10,6.260493862051031e-10,1.7247635607894038e-9,2.8091858320032134e-08,1.1021668191151356e-8,3.4655845132255926e-8,1.6447592632672278e-9,2.8588442329448656e-10,0
37881,2.5816537998948203e-10,6.260493862051031e-10,1.7384224768971969e-9,2.8215652951343954e-8,1.1303601973964671e-8,3.4826295855132735e-8,1.708942158643212e-9,2.862222564266938e-10,0
37882,2.6163861704863446e-10,6.260493862051031e-10,1.7520813930049902e-9,2.8339447582655773e-8,1.1585535756777986e-8,3.499674657800955e-8,1.773125054019196e-9,2.86560089558901e-10,0
37883,2.6511185410778693e-10,6.260493862051031e-10,1.7657403091127833e-9,2.846324221396759e-8,1.18674695395913e-8,3.5167197300886365e-8,1.8373079493951801e-9,2.868979226911082e-10,0
37884,2.6858509116693936e-10,6.261574459460322e-10,1.778530106948299e-9,2.8588443739832037e-8,1.2160457722853935e-8,3.533907523508879e-8,1.9017796795252408e-9,2.868979226911082e-10,0
37885,2.719381486371142e-10,6.267282388905253e-10,1.7921890230560924e-9,2.8713057147780282e-8,1.2454962623435882e-8,3.5506786670054756e-8,1.9662514096553012e-09,2.870748358383156e-10,0
37886,2.75291206107289e-10,6.272990318350183e-10,1.8058479391638857e-9,2.883767055572853e-8,1.274946752401783e-8,3.567449810502073e-8,2.0307231397853616e-9,2.8725174898552306e-10,0
37887,2.786442635774638e-10,6.278698247795114e-10,1.8195068552716788e-9,2.8962283963676778e-8,1.3043972424599778e-8,3.5842209539986695e-8,2.0951948699154225e-9,2.8742866213273046e-10,0
37888,2.8199732104763863e-10,6.284406177240044e-10,1.8331657713794721e-9,2.9086897371625023e-8,1.3338477325181725e-8,3.600992097495266e-8,2.159666600045483e-9,2.8760557527993786e-10,0
37889,2.8535037851781346e-10,6.290114106684974e-10,1.8468246874872652e-9,2.921151077957327e-8,1.3632982225763671e-8,3.617763240991863e-8,2.2241383301755434e-9,2.877824884271453e-10,0
37890,2.8870343598798824e-10,6.295822036129905e-10,1.8604836035950585e-9,2.9336124187521516e-8,1.3927487126345619e-8,3.63453438448846e-8,2.288610060305604e-9,2.879594015743527e-10,0
37891,2.893223686941729e-10,6.327188019708044e-10,1.8877051448390427e-9,2.976313052514118e-8,1.4356215161649179e-08,3.6433508011889844e-8,2.370118312811648e-9,2.879594015743527e-10,0
37892,2.926754261643477e-10,6.343231210633545e-10,1.8877051448390427e-9,2.987681604691037e-8,1.4784943196952741e-8,3.6521672178895095e-8,2.3724810764254977e-9,2.9143468023259394e-10,0
37893,2.960284836345225e-10,6.359274401559045e-10,1.8877051448390427e-9,2.9990501568679554e-8,1.52136712322563e-8,3.660983634590034e-8,2.374843840039348e-9,2.949099588908352e-10,0
37894,2.993815411046973e-10,6.375317592484546e-10,1.8877051448390427e-9,3.0104187090448745e-8,1.564239926755986e-8,3.669800051290559e-8,2.377206603653198e-9,2.9838523754907644e-10,0
37895,3.0285477816384974e-10,6.391000584273616e-10,1.8853718642056783e-9,3.0213651928560053e-8,1.6072664478150426e-8,3.67903311791473e-8,2.379359448903918e-9,3.0186051620731767e-10,0
37896,3.063280152230022e-10,6.406683576062686e-10,1.883038583572314e-9,3.0323116766671355e-8,1.650292968874099e-8,3.6882661845389e-8,2.3815122941546375e-9,3.053357948655589e-10,0
37897,3.0968107269317705e-10,6.345752604588557e-10,1.878453514545849e-9,3.043693633563903e-8,1.6910566887348015e-8,3.697499251163071e-8,2.381749043327475e-9,3.089719935087999e-10,0
37898,3.1303413016335183e-10,6.284821633114428e-10,1.8738684455193837e-9,3.0550755904606714e-8,1.7318204085955043e-8,3.706732317787242e-8,2.3819857925003127e-9,3.126081921520409e-10,0
37899,3.1638718763352666e-10,6.2238906616403e-10,1.8692833764929185e-9,3.066457547357439e-8,1.772584128456207e-8,3.715965384411413e-8,2.38222254167315e-9,3.1624439079528194e-10,0
37900,3.197402451037015e-10,6.16295969016617e-10,1.864698307466453e-9,3.077839504254207e-8,1.8133478483169098e-8,3.725198451035584e-8,2.382459290845988e-9,3.1988058943852296e-10,0
37901,3.2309330257387627e-10,6.102028718692042e-10,1.860113238439988e-9,3.089221461150975e-8,1.8541115681776122e-8,3.734431517659755e-8,2.382696040018825e-9,3.23516788081764e-10,0
37902,3.264463600440511e-10,6.041097747217913e-10,1.8555281694135228e-9,3.1006034180477427e-8,1.894875288038315e-8,3.7436645842839256e-8,2.382932789191663e-9,3.27152986725005e-10,0
37903,3.2979941751422593e-10,5.980166775743784e-10,1.8509431003870576e-9,3.11198537494451e-8,1.9356390078990177e-8,3.7528976509080966e-8,2.3831695383645003e-9,3.30789185368246e-10,0
37904,3.331524749844007e-10,5.919235804269655e-10,1.8463580313605925e-9,3.1233673318412786e-8,1.9764027277597204e-8,3.7621307175322676e-8,2.3834062875373377e-9,3.3442538401148703e-10,0
37905,3.3650553245457554e-10,5.858304832795527e-10,1.8417729623341272e-9,3.134749288738046e-8,2.0171664476204228e-8,3.7713637841564386e-8,2.3836430367101755e-9,3.3806158265472805e-10,0
37906,3.398585899247504e-10,5.797373861321398e-10,1.837187893307662e-9,3.146131245634814e-8,2.0579301674811256e-8,3.7805968507806096e-8,2.383879785883013e-9,3.4169778129796907e-10,0
37907,3.4321164739492515e-10,5.736442889847269e-10,1.832602824281197e-9,3.157513202531582e-8,2.0986938873418283e-8,3.78982991740478e-8,2.3841165350558506e-9,3.453339799412101e-10,0
37908,3.465647048651e-10,5.67551191837314e-10,1.8280177552547316e-9,3.16889515942835e-8,2.139457607202531e-8,3.799062984028951e-8,2.384353284228688e-9,3.489701785844511e-10,0
37909,3.4991776233527476e-10,5.614580946899011e-10,1.8234326862282665e-9,3.1802771163251175e-8,2.1802213270632335e-8,3.808296050653122e-8,2.3845900334015258e-9,3.526063772276921e-10,0
37910,3.532708198054496e-10,5.5536499754248825e-10,1.8188476172018014e-9,3.191659073221886e-8,2.2209850469239362e-8,3.817529117277293e-8,2.384826782574363e-9,3.5624257587093314e-10,0
37911,3.5662387727562443e-10,5.492719003950754e-10,1.814262548175336e-9,3.2030410301186534e-8,2.261748766784639e-8,3.826762183901464e-8,2.3850635317472005e-9,3.5987877451417416e-10,0
37912,3.599769347457992e-10,5.431788032476625e-10,1.809677479148871e-9,3.214422987015421e-8,2.3025124866453417e-8,3.835995250525635e-8,2.3853002809200383e-9,3.6351497315741517e-10,0
37913,3.6248873509313057e-10,5.45739082987188e-10,1.8045294630241304e-9,3.229232935701069e-8,2.3009855403421834e-8,3.883610838329297e-8,2.418610992572253e-9,3.787674203192089e-10,0
37914,3.7729507949776957e-10,5.608457561579696e-10,1.9152995507659536e-9,3.241707681215742e-8,2.3124392260562824e-8,3.8846942855819516e-8,2.416694896494371e-9,4.197621232663507e-10,0
37915,3.921014239024085e-10,5.759524293287512e-10,2.0260696385077768e-9,3.2541824267304154e-8,2.323892911770382e-8,3.885777732834606e-8,2.414778800416489e-9,4.6075682621349246e-10,0
37916,4.0690776830704753e-10,5.910591024995328e-10,2.1368397262496e-9,3.2666571722450894e-8,2.3353465974844813e-8,3.8868611800872604e-8,2.412862704338607e-9,5.017515291606342e-10,0
37917,4.210951800055019e-10,6.134004587067133e-10,2.252725733125629e-9,3.279036635376271e-8,2.3485561480926506e-8,3.887527977416269e-8,2.4130726227017376e-9,5.407672128011557e-10,0
37918,4.3528259170395626e-10,6.35741814913894e-10,2.3686117400016585e-9,3.2914160985074526e-8,2.3617656987008202e-8,3.888194774745277e-8,2.413282541064868e-9,5.797828964416772e-10,0
37919,4.4947000340241063e-10,6.580831711210745e-10,2.484497746877688e-9,3.303795561638635e-8,2.3749752493089895e-8,3.8888615720742854e-8,2.4134924594279987e-9,6.187985800821986e-10,0
37920,4.63657415100865e-10,6.80424527328255e-10,2.6003837537537175e-9,3.3161750247698165e-8,2.388184799917159e-8,3.889528369403294e-8,2.413702377791129e-9,6.578142637227201e-10,0
