time,channel1,channel2,channel3,channel4,channel5,channel6,channel7,channel8,class
40434,1.3784633862635499e-8,8.386964838256267e-10,5.032025864154186e-9,3.971667432422133e-8,3.144055979822642e-8,2.0454833710075273e-8,3.909331721592197e-8,3.6389779102094307e-9,0
40435,1.378096954196035e-8,8.349983793719737e-10,5.039974349988432e-9,3.972798450861117e-8,3.128206408927589e-8,2.0412790069724637e-8,3.926454555140183e-8,3.6211287451198977e-9,0
40436,1.377505558617408e-8,8.333520126210143e-10,5.055015853607307e-9,3.973095741859159e-8,3.1116682145151686e-8,2.0342470038298157e-8,3.926263506715986e-8,3.593410464816144e-9,0
40437,1.376914163038781e-8,8.31705645870055e-10,5.070057357226183e-9,3.9733930328572016e-8,3.095130020102748e-8,2.0272150006871677e-8,3.926072458291788e-8,3.5656921845123903e-9,0
40438,1.376322767460154e-8,8.300592791190956e-10,5.085098860845058e-9,3.9736903238552436e-8,3.078591825690327e-8,2.0201829975445196e-8,3.9258814098675905e-8,3.537973904208636e-9,0
40439,1.3757313718815271e-8,8.284129123681362e-10,5.100140364463933e-9,3.973987614853286e-8,3.062053631277906e-8,2.0131509944018716e-8,3.925690361443393e-8,3.5102556239048824e-9,0
40440,1.3751399763029002e-8,8.267665456171769e-10,5.115181868082809e-9,3.974284905851329e-8,3.045515436865486e-8,2.0061189912592236e-8,3.925499313019196e-8,3.4825373436011287e-9,0
40441,1.3745485807242733e-8,8.251201788662175e-10,5.130223371701684e-9,3.974582196849371e-8,3.028977242453065e-8,1.9990869881165756e-8,3.925308264594998e-8,3.4548190632973746e-9,0
40442,1.3739571851456464e-8,8.234738121152581e-10,5.14526487532056e-9,3.9748794878474137e-8,3.0124390480406446e-8,1.9920549849739276e-8,3.925117216170801e-8,3.427100782993621e-9,0
40443,1.3733657895670195e-8,8.218274453642988e-10,5.160306378939435e-9,3.975176778845456e-8,2.995900853628224e-8,1.9850229818312796e-8,3.9249261677466034e-8,3.3993825026898667e-9,0
40444,1.3742248567176722e-8,8.231452346996484e-10,5.176072339203321e-9,3.975176778845456e-8,2.995607265527392e-8,1.984628925287689e-8,3.9176439098421884e-8,3.3992235819949892e-9,0
40445,1.375083923868325e-8,8.244630240349981e-10,5.191838299467208e-9,3.975176778845456e-8,2.9953136774265605e-8,1.9842348687440986e-8,3.910361651937774e-8,3.3990646613001113e-9,0
40446,1.3759429910189779e-8,8.257808133703476e-10,5.207604259731094e-9,3.975176778845456e-8,2.9950200893257287e-8,1.983840812200508e-8,3.903079394033359e-8,3.3989057406052334e-9,0
40447,1.3768020581696306e-8,8.270986027056973e-10,5.22337021999498e-9,3.975176778845456e-8,2.994726501224897e-8,1.9834467556569174e-8,3.895797136128945e-8,3.3987468199103555e-9,0
40448,1.3776611253202834e-8,8.284163920410469e-10,5.239136180258866e-9,3.975176778845456e-8,2.994432913124065e-8,1.9830526991133268e-8,3.88851487822453e-8,3.3985878992154776e-9,0
40449,1.381890330093094e-8,8.284731172749127e-10,5.2398922009449435e-9,3.975400237312058e-8,2.9982455425859525e-8,1.983077428864202e-8,3.943293951352842e-8,3.4387530164168324e-9,0
40450,1.3861195348659047e-8,8.285298425087785e-10,5.24064822163102e-9,3.9756236957786606e-8,3.00205817204784e-8,1.983102158615077e-8,3.998073024481154e-8,3.4789181336181876e-9,0
40451,1.3903487396387153e-8,8.293205161099883e-10,5.237703048989378e-9,3.972662977784265e-8,3.004452760703137e-8,1.9828253714255257e-8,4.0453988505165793e-8,3.5125884647795653e-9,0
40452,1.394577944411526e-8,8.30111189711198e-10,5.234757876347736e-9,3.9697022597898695e-8,3.006847349358434e-8,1.9825485842359744e-8,4.092724676552005e-8,3.5462587959409426e-9,0
40453,1.3988071491843368e-8,8.309018633124079e-10,5.231812703706093e-9,3.9667415417954746e-8,3.009241938013731e-8,1.982271797046423e-8,4.14005050258743e-8,3.5799291271023203e-9,0
40454,1.4030363539571474e-8,8.316925369136176e-10,5.228867531064451e-9,3.963780823801079e-8,3.011636526669028e-8,1.9819950098568717e-8,4.1873763286228555e-8,3.613599458263698e-9,0
40455,1.407265558729958e-8,8.324832105148274e-10,5.225922358422809e-9,3.9608201058066836e-8,3.0140311153243256e-8,1.9817182226673203e-8,4.234702154658281e-8,3.6472697894250756e-9,0
40456,1.4114947635027687e-8,8.332738841160372e-10,5.2229771857811665e-9,3.957859387812289e-8,3.0164257039796226e-8,1.981441435477769e-8,4.282027980693706e-8,3.680940120586453e-9,0
40457,1.4157239682755793e-8,8.34064557717247e-10,5.220032013139524e-9,3.954898669817893e-8,3.0188202926349195e-8,1.9811646482882176e-8,4.329353806729132e-8,3.7146104517478306e-9,0
40458,1.41995317304839e-8,8.348552313184567e-10,5.217086840497882e-9,3.9519379518234976e-8,3.0212148812902165e-8,1.9808878610986662e-8,4.376679632764557e-8,3.748280782909208e-9,0
40459,1.4241823778212006e-8,8.356459049196666e-10,5.2141416678562396e-9,3.948977233829103e-8,3.0236094699455135e-8,1.980611073909115e-8,4.4240054587999825e-8,3.781951114070586e-9,0
40460,1.4284115825940112e-8,8.364365785208764e-10,5.211196495214597e-9,3.946016515834707e-8,3.026004058600811e-8,1.9803342867195635e-8,4.4713312848354085e-8,3.815621445231963e-9,0
40461,1.4326407873668219e-8,8.372272521220861e-10,5.208251322572955e-9,3.943055797840312e-8,3.028398647256108e-8,1.9800574995300122e-8,4.518657110870834e-8,3.8492917763933405e-9,0
40462,1.4368699921396327e-8,8.38017925723296e-10,5.205306149931313e-9,3.940095079845917e-8,3.030793235911405e-8,1.9797807123404608e-8,4.565982936906259e-8,3.8829621075547185e-9,0
40463,1.4410991969124433e-8,8.388085993245057e-10,5.20236097728967e-9,3.937134361851521e-8,3.033187824566702e-8,1.9795039251509095e-8,4.613308762941685e-8,3.916632438716096e-9,0
40464,1.4410991969124433e-8,8.388369619414386e-10,5.199384240606961e-9,3.9365833457979736e-8,3.030919633075894e-8,1.9788083516668924e-8,4.598855141776144e-8,3.907813803301248e-9,0
40465,1.4410991969124433e-8,8.388653245583715e-10,5.196407503924253e-9,3.936032329744426e-8,3.0286514415850854e-8,1.9781127781828756e-8,4.584401520610604e-8,3.8989951678864e-9,0
40466,1.4332412713633748e-8,8.388653245583715e-10,5.177118707798851e-9,3.9247200115928984e-8,3.0264665587160965e-8,1.9779209037662405e-8,4.582775232166354e-8,3.886961123992187e-9,0
40467,1.433210740281814e-8,8.329653750026863e-10,5.174141971116143e-9,3.927650462998391e-8,3.025221372615342e-8,1.9781105131127732e-8,4.582775232166354e-8,3.884637274617317e-9,0
40468,1.4331802092002532e-8,8.270654254470012e-10,5.171165234433434e-9,3.930580914403883e-8,3.023976186514588e-8,1.978300122459306e-8,4.582775232166354e-8,3.882313425242446e-9,0
40469,1.4331496781186924e-8,8.211654758913159e-10,5.1681884977507256e-9,3.933511365809376e-8,3.022731000413833e-8,1.9784897318058385e-8,4.582775232166354e-8,3.879989575867575e-9,0
40470,1.4331191470371314e-8,8.152655263356308e-10,5.1652117610680165e-9,3.936441817214868e-8,3.0214858143130784e-8,1.9786793411523715e-8,4.582775232166354e-8,3.877665726492705e-9,0
40471,1.437998770207001e-8,8.181646628734e-10,5.162266588426374e-9,3.936746951702037e-8,3.022006099508696e-8,1.983505089418827e-8,4.585332245887926e-8,3.887375921012049e-9,0
40472,1.4383132876181056e-8,8.142880884034757e-10,5.230512100140726e-9,4.001462002600461e-8,3.031850797611117e-8,2.0294810665449015e-8,4.585050362056166e-8,3.887375921012049e-9,0
40473,1.4386278050292101e-8,8.104115139335513e-10,5.298757611855078e-9,4.066177053498884e-8,3.041695495713539e-8,2.075457043670976e-8,4.5847684782244045e-8,3.887375921012049e-9,0
40474,1.4389423224403148e-8,8.065349394636269e-10,5.367003123569429e-9,4.130892104397307e-8,3.051540193815961e-8,2.1214330207970507e-8,4.584486594392644e-8,3.887375921012049e-9,0
40475,1.4392568398514193e-8,8.026583649937026e-10,5.435248635283781e-9,4.19560715529573e-8,3.061384891918382e-8,2.1674089979231253e-8,4.5842047105608835e-8,3.887375921012049e-9,0
40476,1.439571357262524e-8,7.987817905237782e-10,5.503494146998133e-9,4.260322206194153e-8,3.0712295900208037e-8,2.2133849750492003e-8,4.583922826729122e-8,3.887375921012049e-9,0
40477,1.4398858746736285e-8,7.949052160538539e-10,5.571739658712484e-9,4.325037257092576e-8,3.081074288123225e-8,2.259360952175275e-8,4.583640942897362e-8,3.887375921012049e-9,0
40478,1.4402003920847332e-8,7.910286415839295e-10,5.639985170426836e-9,4.389752307990999e-8,3.0909189862256465e-8,2.3053369293013495e-8,4.5833590590656006e-8,3.887375921012049e-9,0
40479,1.4405149094958377e-8,7.871520671140051e-10,5.708230682141188e-9,4.454467358889422e-8,3.100763684328068e-8,2.351312906427424e-8,4.58307717523384e-8,3.887375921012049e-9,0
40480,1.4408294269069424e-8,7.832754926440808e-10,5.77647619385554e-9,4.519182409787845e-8,3.1106083824304893e-8,2.3972888835534988e-8,4.5827952914020796e-8,3.887375921012049e-9,0
40481,1.441143944318047e-8,7.793989181741564e-10,5.844721705569891e-9,4.583897460686269e-8,3.120453080532911e-8,2.4432648606795737e-8,4.5825134075703184e-8,3.887375921012049e-9,0
40482,1.4414584617291516e-8,7.755223437042321e-10,5.9129672172842425e-9,4.6486125115846916e-8,3.130297778635333e-8,2.4892408378056483e-8,4.582231523738558e-8,3.887375921012049e-9,0
40483,1.4417729791402561e-8,7.716457692343077e-10,5.981212728998595e-9,4.7133275624831146e-8,3.140142476737754e-8,2.535216814931723e-8,4.581949639906797e-8,3.887375921012049e-9,0
40484,1.4420874965513608e-8,7.6776919476438335e-10,6.049458240712946e-9,4.7780426133815375e-8,3.149987174840176e-8,2.5811927920577976e-8,4.581667756075036e-8,3.887375921012049e-9,0
40485,1.4424020139624653e-8,7.638926202944591e-10,6.117703752427298e-9,4.842757664279961e-8,3.159831872942597e-8,2.6271687691838722e-8,4.5813858722432756e-08,3.887375921012049e-9,0
40486,1.44271653137357e-8,7.600160458245347e-10,6.18594926414165e-9,4.907472715178384e-8,3.1696765710450185e-8,2.6731447463099468e-8,4.5811039884115145e-8,3.887375921012049e-9,0
40487,1.4430310487846745e-8,7.561394713546104e-10,6.254194775856001e-9,4.972187766076807e-8,3.17952126914744e-8,2.7191207234360217e-8,4.580822104579754e-8,3.887375921012049e-9,0
40488,1.443345566195779e-8,7.52262896884686e-10,6.322440287570353e-9,5.03690281697523e-8,3.1893659672498614e-8,2.7650967005620964e-8,4.580540220747993e-8,3.887375921012049e-9,0
40489,1.4436600836068837e-8,7.483863224147616e-10,6.3906857992847045e-9,5.101617867873653e-8,3.199210665352283e-8,2.811072677688171e-8,4.580258336916232e-8,3.887375921012049e-9,0
40490,1.4439746010179883e-8,7.445097479448373e-10,6.458931310999057e-9,5.1663329187720765e-8,3.209055363454704e-8,2.8570486548142456e-8,4.579976453084472e-8,3.887375921012049e-9,0
40491,1.444289118429093e-8,7.406331734749129e-10,6.527176822713408e-9,5.2310479696704994e-8,3.218900061557126e-8,2.9030246319403202e-8,4.5796945692527105e-8,3.887375921012049e-9,0
40492,1.4446036358401975e-8,7.367565990049886e-10,6.5954223344277595e-9,5.2957630205689224e-8,3.228744759659548e-8,2.949000609066395e-8,4.57941268542095e-8,3.887375921012049e-9,0
40493,1.4446036358401975e-8,7.316189604335803e-10,6.593731935589401e-9,5.319660711619926e-8,3.2315751775032354e-8,2.9588988012778366e-8,4.5797444445644315e-8,3.8850520716371785e-9,0
40494,1.4446036358401975e-8,7.26481321862172e-10,6.5920415367510436e-9,5.3435584026709294e-8,3.234405595346923e-8,2.968796993489278e-8,4.580076203707913e-8,3.882728222262308e-9,0
40495,1.4446036358401975e-8,7.213436832907638e-10,6.590351137912685e-9,5.3674560937219326e-8,3.237236013190611e-8,2.9786951857007195e-8,4.5804079628513945e-8,3.880404372887437e-9,0
40496,1.4446036358401975e-8,7.162060447193555e-10,6.588660739074327e-9,5.3913537847729364e-8,3.2400664310342984e-8,2.988593377912161e-8,4.580739721994876e-8,3.878080523512567e-9,0
40497,1.4446036358401975e-8,7.110684061479472e-10,6.5869703402359685e-9,5.4152514758239396e-8,3.242896848877986e-8,2.998491570123603e-8,4.5810714811383574e-8,3.8757566741376965e-9,0
40498,1.4446036358401975e-8,7.120942749992941e-10,6.585216813315477e-9,5.4336506905996373e-08,3.246122302138209e-8,3.008389762335044e-8,4.581760820286569e-8,3.873591745457704e-9,0
40499,1.4446036358401975e-8,7.120942749992941e-10,6.586471587118761e-9,5.438122501419232e-8,3.2506586851198266e-8,3.0180983451999533e-8,4.5618436652646395e-8,3.8733158821166215e-9,0
40500,1.4446036358401975e-8,7.120942749992941e-10,6.587726360922045e-9,5.442594312238826e-8,3.255195068101443e-8,3.027806928064862e-8,4.541926510242711e-8,3.873040018775538e-9,0
40501,1.4446036358401975e-8,7.120942749992941e-10,6.588981134725329e-9,5.4470661230584205e-8,3.2597314510830607e-8,3.037515510929771e-8,4.5220093552207814e-8,3.872764155434455e-9,0
40502,1.4446036358401975e-8,7.120942749992941e-10,6.590235908528614e-9,5.4515379338780145e-8,3.2642678340646773e-8,3.0472240937946794e-8,4.502092200198852e-8,3.872488292093372e-9,0
40503,1.4446036358401975e-8,7.120942749992941e-10,6.591490682331898e-9,5.456009744697609e-8,3.268804217046295e-8,3.0569326766595885e-8,4.482175045176923e-8,3.872212428752288e-9,0
40504,1.4447186520044193e-8,7.040574998901167e-10,6.472886887800174e-9,5.479376881922559e-8,3.245549273167353e-8,3.0116547678773534e-8,4.483449977635158e-8,3.868116456684714e-9,0
40505,1.44474918308598e-8,7.048198108743935e-10,6.472934233861773e-9,5.490157792743357e-8,3.229779043816891e-8,2.9961233463215456e-8,4.4846100202353586e-8,3.865792607309844e-9,0
40506,1.444779714167541e-8,7.055821218586705e-10,6.472981579923373e-9,5.5009387035641546e-8,3.214008814466428e-8,2.980591924765738e-8,4.485770062835559e-8,3.863468757934973e-9,0
40507,1.4448102452491018e-8,7.063444328429473e-10,6.473028925984973e-9,5.511719614384953e-8,3.1982385851159654e-8,2.9650605032099305e-8,4.4869301054357595e-8,3.861144908560103e-9,0
40508,1.4448407763306626e-8,7.071067438272243e-10,6.4730762720465725e-9,5.522500525205751e-8,3.182468355765503e-8,2.9495290816541227e-8,4.48809014803596e-8,3.858821059185233e-9,0
40509,1.4448713074122234e-8,7.078690548115012e-10,6.473123618108172e-9,5.533281436026548e-8,3.16669812641504e-8,2.933997660098315e-8,4.4892501906361603e-8,3.8564972098103625e-9,0
40510,1.4449018384937842e-8,7.086313657957781e-10,6.473170964169771e-9,5.5440623468473464e-8,3.1509278970645776e-8,2.9184662385425072e-8,4.490410233236361e-8,3.854173360435492e-9,0
40511,1.444932369575345e-8,7.09393676780055e-10,6.473218310231371e-9,5.5548432576681445e-8,3.1351576677141146e-8,2.9029348169866995e-8,4.491570275836561e-8,3.851849511060622e-9,0
40512,1.4449629006569058e-8,7.101559877643319e-10,6.473265656292971e-9,5.565624168488942e-8,3.119387438363652e-8,2.8874033954308917e-8,4.4927303184367616e-8,3.849525661685752e-9,0
40513,1.4449934317384666e-8,7.109182987486088e-10,6.4733130023545704e-9,5.57640507930974e-8,3.10361720901319e-8,2.8718719738750843e-8,4.493890361036962e-8,3.847201812310881e-9,0
40514,1.4450239628200275e-8,7.116806097328858e-10,6.47336034841617e-9,5.587185990130538e-8,3.087846979662727e-8,2.8563405523192766e-8,4.4950504036371625e-8,3.84487796293601e-9,0
40515,1.4449394777373665e-8,7.177223723732353e-10,6.513386853956994e-9,5.654937979179417e-8,3.075184887947866e-8,2.8398390351600027e-8,4.497869704347963e-8,3.844719042241133e-9,0
40516,1.445056533246278e-8,7.236223219289205e-10,6.527063109628853e-9,5.641944906792372e-8,3.0576072461437694e-8,2.8163797041107063e-8,4.5008555366392965e-8,3.848497172918952e-9,0
40517,1.4451735887551896e-8,7.295222714846056e-10,6.540739365300712e-9,5.628951834405327e-8,3.040029604339673e-8,2.79292037306141e-8,4.50384136893063e-8,3.85227530359677e-9,0
40518,1.445290644264101e-8,7.354222210402908e-10,6.554415620972571e-9,5.6159587620182825e-8,3.0224519625355766e-8,2.7694610420121134e-8,4.506827201221963e-8,3.856053434274589e-9,0
40519,1.4454076997730127e-8,7.41322170595976e-10,6.5680918766444305e-9,5.602965689631238e-8,3.004874320731481e-8,2.7460017109628167e-8,4.5098130335132966e-8,3.8598315649524075e-9,0
40520,1.4455247552819241e-8,7.4722212015166115e-10,6.581768132316289e-9,5.5899726172441935e-8,2.9872966789273845e-8,2.7225423799135203e-8,4.51279886580463e-8,3.863609695630226e-9,0
40521,1.4456418107908358e-8,7.531220697073463e-10,6.595444387988148e-9,5.576979544857148e-8,2.969719037123288e-8,2.6990830488642238e-8,4.515784698095963e-8,3.8673878263080455e-9,0
40522,1.4457588662997472e-8,7.590220192630314e-10,6.6091206436600074e-9,5.563986472470104e-8,2.9521413953191917e-8,2.6756237178149274e-8,4.5187705303872967e-8,3.871165956985864e-9,0
40523,1.4458759218086589e-8,7.649219688187166e-10,6.622796899331866e-9,5.550993400083059e-8,2.9345637535150953e-8,2.652164386765631e-8,4.52175636267863e-8,3.874944087663683e-9,0
40524,1.4459929773175703e-8,7.708219183744018e-10,6.636473155003726e-9,5.538000327696015e-8,2.9169861117109992e-8,2.6287050557163346e-8,4.5247421949699634e-8,3.878722218341501e-9,0
40525,1.446110032826482e-8,7.76721867930087e-10,6.650149410675584e-9,5.5250072553089696e-8,2.899408469906903e-8,2.605245724667038e-8,4.527728027261297e-8,3.88250034901932e-9,0
40526,1.4462270883353934e-8,7.826218174857721e-10,6.663825666347443e-9,5.512014182921925e-8,2.8818308281028064e-8,2.5817863936177417e-8,4.53071385955263e-8,3.886278479697138e-9,0
40527,1.4363009111750222e-8,7.877594560571804e-10,6.6775019220193026e-9,5.512137890765086e-8,2.8397468188568185e-8,2.5817418800661665e-8,4.501222873484296e-8,3.781849174973615e-9,0
40528,1.4367243267162794e-8,7.966519243161075e-10,6.719543977289827e-9,5.515333832459774e-8,2.8425097963876046e-8,2.582150774460282e-8,4.506581357484913e-8,3.800949718606072e-9,0
40529,1.4358723677276481e-8,7.976777931674542e-10,6.7197854628381634e-9,5.512916287029799e-8,2.848242063850959e-8,2.5990729271741534e-8,4.50351045141154e-8,3.8068817824475965e-9,0
40530,1.4350204087390168e-8,7.987036620188011e-10,6.7200269483865e-9,5.5104987415998244e-8,2.8539743313143134e-8,2.6159950798880247e-8,4.5004395453381665e-8,3.812813846289121e-9,0
40531,1.4341684497503854e-8,7.99729530870148e-10,6.720268433934838e-9,5.5080811961698495e-8,2.859706598777668e-8,2.632917232601896e-8,4.497368639264793e-8,3.818745910130646e-9,0
40532,1.433316490761754e-8,8.007553997214948e-10,6.720509919483174e-9,5.5056636507398746e-8,2.8654388662410222e-8,2.6498393853157673e-8,4.494297733191419e-8,3.82467797397217e-9,0
40533,1.4324645317731227e-8,8.017812685728416e-10,6.720751405031511e-9,5.5032461053099e-8,2.8711711337043767e-8,2.6667615380296387e-8,4.4912268271180455e-8,3.830610037813694e-9,0
40534,1.4316125727844914e-8,8.028071374241884e-10,6.720992890579848e-9,5.500828559879925e-8,2.876903401167731e-8,2.68368369074351e-8,4.488155921044672e-8,3.836542101655219e-9,0
40535,1.43076061379586e-8,8.038330062755353e-10,6.721234376128185e-9,5.49841101444995e-8,2.8826356686310855e-8,2.7006058434573813e-8,4.485085014971298e-8,3.8424741654967436e-9,0
40536,1.4299086548072287e-8,8.048588751268822e-10,6.721475861676522e-9,5.495993469019975e-8,2.88836793609444e-8,2.7175279961712526e-8,4.4820141088979245e-8,3.848406229338268e-9,0
40537,1.4290566958185973e-8,8.05884743978229e-10,6.7217173472248585e-9,5.493575923590001e-8,2.894100203557794e-8,2.734450148885124e-8,4.4789432028245515e-8,3.854338293179793e-9,0
40538,1.428204736829966e-8,8.069106128295758e-10,6.721958832773196e-9,5.491158378160026e-8,2.8998324710211484e-8,2.7513723015989952e-8,4.475872296751178e-8,3.860270357021317e-9,0
40539,1.4273527778413346e-8,8.079364816809227e-10,6.722200318321533e-9,5.488740832730051e-8,2.9055647384845028e-8,2.7682944543128665e-8,4.472801390677804e-8,3.866202420862841e-9,0
40540,1.4265008188527033e-8,8.089623505322695e-10,6.722441803869869e-9,5.486323287300076e-8,2.9112970059478572e-8,2.785216607026738e-8,4.4697304846044305e-8,3.8721344847043664e-9,0
40541,1.425648859864072e-8,8.099882193836164e-10,6.722683289418206e-9,5.483905741870101e-8,2.9170292734112116e-8,2.8021387597406092e-8,4.466659578531057e-8,3.878066548545891e-9,0
40542,1.4247969008754406e-8,8.110140882349632e-10,6.7229247749665435e-9,5.4814881964401264e-8,2.922761540874566e-8,2.8190609124544805e-8,4.463588672457683e-8,3.883998612387415e-9,0
40543,1.4239449418868093e-8,8.1203995708631e-10,6.72316626051488e-9,5.4790706510101515e-8,2.9284938083379204e-8,2.8359830651683518e-8,4.4605177663843095e-8,3.889930676228939e-9,0
40544,1.4230929828981778e-8,8.130658259376569e-10,6.723407746063217e-9,5.4766531055801766e-8,2.9342260758012748e-8,2.852905217882223e-8,4.4574468603109365e-8,3.895862740070464e-9,0
40545,1.4222410239095464e-8,8.140916947890037e-10,6.7236492316115535e-9,5.4742355601502017e-08,2.9399583432646292e-8,2.8698273705960944e-8,4.454375954237563e-8,3.9017948039119885e-9,0
40546,1.421389064920915e-8,8.151175636403506e-10,6.723890717159891e-9,5.471818014720227e-8,2.9456906107279836e-8,2.8867495233099657e-8,4.451305048164189e-8,3.907726867753513e-9,0
40547,1.4205371059322837e-8,8.161434324916974e-10,6.724132202708228e-9,5.469400469290252e-8,2.951422878191338e-8,2.903671676023837e-8,4.4482341420908155e-8,3.913658931595038e-9,0
40548,1.4196851469436524e-8,8.171693013430442e-10,6.724373688256564e-9,5.466982923860277e-8,2.9571551456546925e-8,2.9205938287377084e-8,4.445163236017442e-8,3.919590995436562e-9,0
40549,1.418833187955021e-8,8.181951701943911e-10,6.724615173804901e-9,5.464565378430302e-8,2.962887413118047e-8,2.9375159814515797e-8,4.442092329944068e-8,3.925523059278086e-9,0
40550,1.4179812289663897e-8,8.192210390457379e-10,6.7248566593532385e-9,5.462147833000327e-8,2.9686196805814013e-8,2.954438134165451e-8,4.4390214238706945e-8,3.931455123119611e-9,0
40551,1.4355149059004884e-8,8.315397595765741e-10,6.72707737534987e-9,5.4628720054564184e-8,2.967307054167745e-8,2.9579994809082912e-8,4.44775759385131e-8,3.96158120889558e-9,0
40552,1.4349102841257707e-8,8.31803317443644e-10,6.7292980913465014e-9,5.4588741370296355e-8,2.9668445784383073e-8,2.9581041774819076e-8,4.444843000125007e-8,3.959363306650629e-9,0
40553,1.4343056623510532e-8,8.320668753107139e-10,6.731518807343133e-9,5.4548762686028525e-8,2.9663821027088695e-8,2.958208874055524e-8,4.441928406398704e-8,3.957145404405677e-9,0
40554,1.4337010405763356e-8,8.323304331777839e-10,6.733739523339765e-9,5.4508784001760696e-8,2.9659196269794318e-8,2.9583135706291403e-8,4.439013812672401e-8,3.954927502160725e-9,0
40555,1.433096418801618e-8,8.325939910448538e-10,6.735960239336397e-9,5.446880531749287e-8,2.965457151249994e-8,2.9584182672027566e-08,4.4360992189460975e-8,3.952709599915773e-9,0
40556,1.4324917970269004e-8,8.328575489119237e-10,6.738180955333028e-9,5.442882663322503e-8,2.9649946755205563e-8,2.9585229637763733e-8,4.4331846252197946e-8,3.950491697670822e-9,0
40557,1.4318871752521828e-8,8.331211067789936e-10,6.7404016713296595e-9,5.43888479489572e-8,2.9645321997911185e-8,2.9586276603499897e-8,4.4302700314934917e-8,3.9482737954258695e-9,0
40558,1.4312825534774653e-8,8.333846646460635e-10,6.742622387326291e-9,5.434886926468937e-8,2.9640697240616808e-8,2.958732356923606e-8,4.427355437767189e-8,3.946055893180918e-9,0
40559,1.4306779317027476e-8,8.336482225131335e-10,6.744843103322923e-9,5.430889058042154e-8,2.963607248332243e-8,2.9588370534972224e-8,4.424440844040886e-8,3.943837990935966e-9,0
40560,1.43007330992803e-8,8.339117803802035e-10,6.747063819319555e-9,5.4268911896153714e-8,2.9631447726028053e-8,2.9589417500708388e-8,4.421526250314583e-8,3.9416200886910145e-9,0
40561,1.4294686881533124e-8,8.341753382472734e-10,6.749284535316186e-9,5.4228933211885885e-8,2.9626822968733676e-8,2.9590464466444555e-8,4.41861165658828e-8,3.939402186446063e-9,0
40562,1.4288640663785948e-8,8.344388961143433e-10,6.751505251312818e-9,5.4188954527618055e-8,2.9622198211439298e-8,2.9591511432180718e-8,4.415697062861977e-8,3.937184284201111e-9,0
40563,1.4282594446038773e-8,8.347024539814132e-10,6.753725967309449e-9,5.4148975843350226e-8,2.961757345414492e-8,2.9592558397916882e-8,4.412782469135674e-8,3.9349663819561594e-9,0
40564,1.4254053649843965e-8,8.347024539814132e-10,6.75367862124785e-9,5.394857086632373e-8,2.9161146240351534e-8,2.9577447425895423e-8,4.4129993384211207e-8,3.9226784657534354e-9,0
40565,1.416795231070138e-8,8.347308165983461e-10,6.7549176130306e-9,5.3932571549127466e-8,2.9170004784144374e-8,2.952927036963305e-8,4.4132162077065665e-8,3.870850119612582e-9,0
40566,1.416099016050738e-8,8.34759179215279e-10,6.7449741147275275e-9,5.391657223193121e-8,2.9155824376078473e-8,2.9505132382000114e-8,4.412266347979904e-8,3.872410348045449e-9,0
40567,1.415402801031338e-8,8.347875418322119e-10,6.735030616424454e-9,5.390057291473495e-8,2.914164396801257e-8,2.9480994394367177e-8,4.4113164882532414e-8,3.873970576478316e-9,0
40568,1.414706586011938e-8,8.348159044491447e-10,6.725087118121381e-9,5.388457359753869e-8,2.9127463559946673e-8,2.945685640673424e-8,4.410366628526578e-8,3.875530804911183e-9,0
40569,1.3823599414967919e-8,8.327925293633839e-10,6.718377624069887e-9,5.3793663269147293e-8,2.9133431630430528e-8,2.93026612671151e-8,4.402736168226504e-8,3.848948964520622e-9,0
40570,1.3500132969816459e-8,8.307691542776231e-10,6.711668130018392e-9,5.37027529407559e-8,2.9139399700914382e-8,2.9148466127495962e-8,4.39510570792643e-8,3.82236712413006e-9,0
40571,1.3176666524664998e-8,8.287457791918623e-10,6.704958635966898e-9,5.361184261236451e-8,2.9145367771398234e-8,2.8994270987876823e-8,4.387475247626356e-8,3.795785283739499e-9,0
40572,1.2853200079513539e-8,8.267224041061015e-10,6.698249141915403e-9,5.352093228397311e-8,2.915133584188209e-8,2.884007584825768e-8,4.379844787326282e-8,3.769203443348938e-9,0
40573,1.2536695784556079e-8,8.266373162553029e-10,6.788911735103341e-9,5.351119679382617e-8,2.916192866966032e-8,2.8685781789635043e-8,4.3716287337161837e-8,3.763940048835785e-9,0
40574,1.2210929016120182e-8,8.332428515613992e-10,6.804840270812899e-9,5.346750687426351e-8,2.9813532772297855e-8,2.8641034071392254e-8,4.3813878515612624e-8,3.733474130637487e-9,0
40575,1.1885162247684286e-8,8.398483868674955e-10,6.820768806522456e-9,5.342381695470085e-8,3.046513687493539e-8,2.8596286353149468e-8,4.391146969406342e-8,3.7030082124391882e-9,0
40576,1.1559395479248389e-8,8.464539221735918e-10,6.836697342232013e-9,5.33801270351382e-8,3.111674097757292e-8,2.855153863490668e-8,4.4009060872514206e-8,3.6725422942408895e-9,0
40577,1.1233628710812492e-8,8.530594574796881e-10,6.85262587794157e-9,5.333643711557554e-8,3.176834508021045e-8,2.8506790916663894e-8,4.4106652050964994e-8,3.642076376042591e-9,0
40578,1.0907861942376597e-8,8.596649927857845e-10,6.868554413651127e-9,5.329274719601289e-8,3.2419949182847985e-8,2.8462043198421105e-8,4.420424322941578e-8,3.6116104578442925e-9,0
40579,1.05820951739407e-8,8.662705280918808e-10,6.8844829493606836e-9,5.324905727645023e-8,3.307155328548552e-8,2.841729548017832e-8,4.430183440786657e-8,3.581144539645994e-9,0
40580,1.0256328405504804e-8,8.728760633979771e-10,6.9004114850702405e-9,5.320536735688758e-8,3.3723157388123054e-8,2.8372547761935534e-8,4.4399425586317363e-8,3.5506786214476956e-9,0
40581,9.930561637068907e-9,8.794815987040734e-10,6.916340020779798e-9,5.316167743732492e-8,3.437476149076058e-8,2.8327800043692745e-8,4.449701676476815e-8,3.520212703249397e-9,0
40582,9.60479486863301e-9,8.860871340101698e-10,6.932268556489355e-9,5.311798751776226e-8,3.5026365593398116e-8,2.828305232544996e-8,4.459460794321894e-8,3.489746785051098e-9,0
40583,9.279028100197114e-9,8.926926693162661e-10,6.948197092198912e-9,5.307429759819961e-8,3.567796969603565e-8,2.823830460720717e-8,4.4692199121669726e-8,3.4592808668528e-9,0
40584,9.276727776912678e-9,9.015851375751932e-10,6.970835121959963e-9,5.309452651253072e-8,3.621198133840218e-8,2.7948807310519098e-8,4.478336412585206e-8,3.423052801024141e-9,0
40585,9.280178261839333e-9,9.053966924965777e-10,6.973874986724805e-9,5.30945069038079e-8,3.621282016154742e-8,2.7907536529595146e-8,4.4672854566365204e-8,3.434863955142231e-9,0
40586,9.38061058853216e-9,9.174802177772768e-10,7.021881542140941e-9,5.345397490777779e-8,3.6825198174078927e-8,2.783280398841628e-8,4.486195727814965e-8,3.4598435890512528e-9,0
40587,9.481042915224987e-9,9.295637430579759e-10,7.0698880975570764e-9,5.381344291174768e-8,3.743757618661044e-8,2.7758071447237415e-8,4.5051059989934096e-8,3.4848232229602745e-9,0
40588,9.581475241917813e-9,9.41647268338675e-10,7.117894652973213e-9,5.4172910915717574e-8,3.804995419914195e-8,2.768333890605855e-8,4.524016270171854e-8,3.5098028568692963e-9,0
40589,9.68190756861064e-9,9.53730793619374e-10,7.165901208389349e-9,5.4532378919687466e-8,3.8662332211673466e-8,2.7608606364879688e-8,4.542926541350299e-8,3.534782490778318e-9,0
40590,9.782339895303469e-9,9.658143189000731e-10,7.2139077638054844e-9,5.489184692365736e-8,3.9274710224204975e-8,2.7533873823700822e-8,4.561836812528743e-8,3.5597621246873398e-9,0
40591,9.882772221996296e-9,9.778978441807722e-10,7.26191431922162e-9,5.525131492762725e-8,3.988708823673649e-8,2.7459141282521957e-8,4.580747083707188e-8,3.5847417585963615e-9,0
40592,9.983204548689123e-9,9.899813694614713e-10,7.309920874637756e-9,5.561078293159714e-8,4.0499466249268e-8,2.738440874134309e-8,4.5996573548856324e-8,3.6097213925053833e-9,0
40593,1.008363687538195e-8,1.0020648947421704e-9,7.3579274300538924e-9,5.5970250935567026e-8,4.1111844261799515e-8,2.7309676200164226e-8,4.618567626064077e-8,3.634701026414405e-9,0
40594,1.0184069202074777e-8,1.0141484200228695e-9,7.405933985470028e-9,5.632971893953692e-8,4.1724222274331024e-8,2.723494365898536e-8,4.6374778972425215e-8,3.6596806603234268e-9,0
40595,1.0284501528767605e-8,1.0262319453035686e-9,7.453940540886164e-9,5.668918694350681e-8,4.233660028686254e-8,2.7160211117806495e-8,4.6563881684209654e-8,3.684660294232448e-9,0
40596,1.0384933855460432e-8,1.0383154705842677e-9,7.5019470963023e-9,5.70486549474767e-8,4.294897829939405e-8,2.7085478576627632e-8,4.67529843959941e-8,3.70963992814147e-9,0
40597,1.048536618215326e-8,1.0503989958649668e-9,7.549953651718435e-9,5.740812295144659e-8,4.3561356311925564e-8,2.7010746035448767e-8,4.6942087107778546e-8,3.7346195620504916e-09,0
40598,1.0585798508846086e-8,1.062482521145666e-9,7.597960207134572e-9,5.7767590955416484e-8,4.417373432445707e-8,2.69360134942699e-8,4.713118981956299e-8,3.759599195959514e-9,0
40599,1.0686230835538915e-8,1.074566046426365e-9,7.645966762550707e-9,5.8127058959386375e-8,4.478611233698859e-8,2.6861280953091036e-8,4.732029253134744e-8,3.784578829868535e-9,0
40600,1.0786663162231742e-8,1.0866495717070641e-9,7.693973317966843e-9,5.848652696335627e-8,4.53984903495201e-8,2.678654841191217e-8,4.750939524313188e-8,3.809558463777557e-9,0
40601,1.0887095488924569e-8,1.0987330969877632e-9,7.74197987338298e-9,5.884599496732616e-8,4.601086836205161e-8,2.6711815870733305e-8,4.769849795491633e-8,3.8345380976865786e-9,0
40602,1.0987527815617396e-8,1.1108166222684621e-9,7.789986428799115e-9,5.920546297129605e-8,4.662324637458312e-8,2.663708332955444e-8,4.7887600666700774e-8,3.8595177315956e-9,0
40603,1.1087960142310222e-8,1.1229001475491612e-9,7.837992984215251e-9,5.9564930975265935e-8,4.7235624387114637e-8,2.6562350788375577e-8,4.807670337848522e-8,3.884497365504622e-9,0
40604,1.1188392469003051e-8,1.1349836728298603e-9,7.885999539631386e-9,5.992439897923583e-8,4.7848002399646146e-8,2.648761824719671e-8,4.8265806090269666e-8,3.909476999413643e-9,0
40605,1.1288824795695878e-8,1.1470671981105594e-9,7.934006095047523e-9,6.028386698320573e-8,4.846038041217766e-8,2.6412885706017846e-8,4.845490880205411e-8,3.9344566333226656e-9,0
40606,1.1389257122388705e-8,1.1591507233912585e-9,7.98201265046366e-9,6.064333498717561e-8,4.907275842470917e-8,2.633815316483898e-8,4.864401151383856e-8,3.959436267231687e-9,0
40607,1.1489689449081532e-8,1.1712342486719576e-9,8.030019205879794e-9,6.100280299114551e-8,4.9685136437240685e-8,2.6263420623660115e-8,4.8833114225623e-8,3.984415901140709e-9,0
40608,1.1590121775774359e-8,1.1833177739526567e-9,8.078025761295931e-9,6.13622709951154e-8,5.0297514449772194e-8,2.618868808248125e-8,4.902221693740745e-8,4.00939553504973e-9,0
40609,1.158944997380245e-8,1.1892460861252748e-9,8.081002497978639e-9,6.136604105657868e-8,5.034287827958837e-8,2.611058583918646e-8,4.8976540659225574e-8,4.015274625326296e-9,0
40610,1.1588778171830542e-8,1.1951743982978927e-9,8.083979234661347e-9,6.136981111804196e-8,5.0388242109404534e-8,2.6032483595891668e-8,4.89308643810437e-8,4.021153715602861e-9,0
40611,1.1588106369858634e-8,1.2011027104705109e-9,8.086955971344057e-9,6.137358117950523e-8,5.04336059392207e-8,2.5954381352596878e-8,4.888518810286183e-8,4.027032805879426e-9,0
40612,1.1587434567886725e-8,1.2070310226431288e-9,8.089932708026765e-9,6.137735124096851e-8,5.0478969769036875e-8,2.5876279109302087e-8,4.883951182467996e-8,4.032911896155991e-9,0
40613,1.1586762765914817e-8,1.212959334815747e-9,8.092909444709474e-9,6.138112130243179e-8,5.052433359885304e-8,2.5798176866007296e-8,4.8793835546498084e-8,4.0387909864325565e-9,0
40614,1.1586090963942909e-8,1.218887646988365e-9,8.095886181392182e-9,6.138489136389507e-8,5.0569697428669215e-8,2.5720074622712506e-8,4.874815926831622e-8,4.044670076709122e-9,0
40615,1.1585938308535105e-8,1.2159885104505957e-9,8.098831354033824e-9,6.137663252437693e-8,5.05762208899652e-8,2.5652114312868424e-8,4.869915235852368e-8,4.044405208884326e-9,0
40616,1.1506687251072511e-8,1.2182187181695608e-9,8.100569098933783e-9,6.135562606728577e-8,5.0537590105302084e-8,2.5663558825763456e-8,4.8690348482799595e-8,4.044140341059529e-9,0
40617,1.1427436193609918e-8,1.2204489258885257e-9,8.10230684383374e-9,6.133461961019463e-8,5.0498959320638967e-8,2.567500333865849e-8,4.86815446070755e-8,4.043875473234733e-9,0
40618,1.1348185136147326e-8,1.2226791336074908e-9,8.104044588733698e-9,6.131361315310348e-8,5.0460328535975855e-8,2.5686447851553525e-8,4.867274073135141e-8,4.043610605409936e-9,0
40619,1.1268934078684732e-8,1.2249093413264557e-9,8.105782333633657e-9,6.129260669601234e-8,5.042169775131274e-8,2.5697892364448556e-8,4.866393685562732e-8,4.0433457375851394e-09,0
40620,1.1186935223881666e-8,1.230809290882141e-9,8.103545835616491e-9,6.124762087184963e-8,5.0467639675790705e-8,2.5667818798910888e-8,4.8702291645640936e-8,4.049171854296746e-9,0
40621,1.11049363690786e-8,1.236709240437826e-9,8.101309337599326e-9,6.12026350476869e-8,5.051358160026867e-8,2.5637745233373216e-8,4.874064643565456e-8,4.054997971008352e-9,0
40622,1.1022937514275533e-8,1.2426091899935112e-9,8.099072839582163e-9,6.115764922352418e-8,5.055952352474664e-8,2.5607671667835548e-8,4.877900122566818e-8,4.060824087719957e-9,0
40623,1.0940938659472467e-8,1.2485091395491964e-9,8.096836341564997e-9,6.111266339936147e-8,5.0605465449224607e-8,2.557759810229788e-8,4.8817356015681797e-8,4.066650204431563e-9,0
40624,1.08589398046694e-8,1.2544090891048815e-9,8.094599843547832e-9,6.106767757519875e-8,5.0651407373702574e-8,2.5547524536760208e-8,4.885571080569542e-8,4.0724763211431695e-9,0
40625,1.0776940949866334e-8,1.2603090386605667e-9,8.092363345530667e-9,6.102269175103604e-8,5.069734929818054e-8,2.551745097122254e-8,4.889406559570904e-8,4.078302437854776e-9,0
40626,1.0694942095063268e-8,1.2662089882162518e-9,8.090126847513503e-9,6.097770592687331e-8,5.074329122265851e-8,2.5487377405684868e-8,4.893242038572266e-8,4.084128554566381e-9,0
40627,1.0612943240260201e-8,1.272108937771937e-9,8.087890349496338e-9,6.09327201027106e-8,5.0789233147136476e-8,2.54573038401472e-8,4.897077517573628e-8,4.089954671277987e-9,0
40628,1.0530944385457135e-8,1.2780088873276223e-9,8.085653851479173e-9,6.088773427854788e-8,5.083517507161444e-8,2.542723027460953e-8,4.90091299657499e-8,4.0957807879895935e-9,0
40629,1.0448945530654068e-8,1.2777453294605522e-9,8.088389102613544e-9,6.083871921200187e-8,5.08881392105056e-8,2.5390874914654875e-8,4.901528868354202e-8,4.096449457317964e-9,0
40630,1.0375293216882615e-8,1.2777453294605522e-9,8.084462205758022e-9,6.078970414545586e-8,5.089129041229803e-8,2.5364566727247133e-8,4.909931975173751e-8,4.096396483753005e-9,0
40631,1.030164090311116e-8,1.2777453294605522e-9,8.080535308902499e-9,6.074068907890985e-8,5.089444161409045e-8,2.533825853983939e-8,4.9183350819933005e-8,4.096343510188046e-9,0
40632,1.0227988589339707e-8,1.2777453294605522e-9,8.076608412046975e-9,6.069167401236384e-8,5.0897592815882866e-8,2.5311950352431648e-8,4.92673818881285e-8,4.0962905366230865e-9,0
40633,1.0154336275568252e-8,1.2777453294605522e-9,8.072681515191453e-9,6.064265894581783e-8,5.090074401767529e-8,2.5285642165023906e-8,4.935141295632399e-8,4.0962375630581275e-9,0
40634,1.0080683961796797e-8,1.2777453294605522e-9,8.06875461833593e-9,6.059364387927182e-8,5.090389521946771e-8,2.5259333977616164e-8,4.943544402451948e-8,4.0961845894931684e-9,0
40635,1.0007031648025344e-8,1.2777453294605522e-9,8.064827721480406e-9,6.054462881272581e-8,5.090704642126014e-8,2.523302579020842e-8,4.951947509271497e-8,4.0961316159282086e-9,0
40636,9.933379334253889e-9,1.2777453294605522e-9,8.060900824624884e-9,6.049561374617982e-8,5.091019762305256e-8,2.520671760280068e-8,4.9603506160910465e-8,4.0960786423632496e-9,0
40637,9.939782141877843e-9,1.2777453294605522e-9,8.054947351259466e-9,6.045888676153524e-8,5.091019762305256e-8,2.5200458459084718e-8,4.9739050944660366e-8,4.10493925582677e-9,0
40638,9.946184949501796e-9,1.2777453294605522e-9,8.048993877894048e-9,6.042215977689066e-8,5.091019762305256e-8,2.5194199315368754e-8,4.987459572841026e-8,4.113799869290291e-9,0
40639,9.95258775712575e-9,1.2777453294605522e-9,8.043040404528631e-9,6.038543279224609e-8,5.091019762305256e-8,2.5187940171652793e-8,5.001014051216015e-8,4.122660482753811e-9,0
40640,9.958990564749705e-9,1.2777453294605522e-9,8.037086931163213e-9,6.034870580760151e-8,5.091019762305256e-8,2.5181681027936832e-8,5.0145685295910054e-8,4.131521096217331e-9,0
40641,9.965393372373658e-9,1.2777453294605522e-9,8.0311334577977965e-09,6.031197882295694e-8,5.091019762305256e-8,2.5175421884220867e-8,5.028123007965995e-8,4.1403817096808515e-9,0
40642,9.971796179997613e-9,1.2777453294605522e-9,8.025179984432378e-9,6.027525183831236e-8,5.091019762305256e-8,2.5169162740504906e-8,5.041677486340984e-8,4.149242323144372e-9,0
40643,1.0058355485363609e-8,1.2769830184762753e-9,8.024408181725768e-9,6.026742865821959e-8,5.089996183222498e-8,2.5084127413070968e-8,5.040756980297124e-8,4.156213871268983e-9,0
40644,1.0122266965986317e-8,1.2769830184762753e-9,8.049266927483452e-9,6.049834708396305e-8,5.0945864085930653e-8,2.4723349563924637e-8,5.034047405272109e-8,4.23968655357e-9,0
40645,1.0113157147915686e-8,1.2762490701089312e-9,8.049266927483452e-9,6.049834708396305e-8,5.100008645953967e-8,2.462833917414656e-8,5.044517225518709e-8,4.239527632875122e-9,0
40646,1.0104047329845053e-8,1.2755151217415873e-09,8.049266927483452e-9,6.049834708396305e-8,5.1054308833148675e-8,2.453332878436848e-8,5.05498704576531e-8,4.2393687121802445e-9,0
40647,1.009493751177442e-8,1.2747811733742433e-9,8.049266927483452e-9,6.049834708396305e-8,5.110853120675768e-8,2.4438318394590403e-8,5.06545686601191e-8,4.2392097914853666e-9,0
40648,1.0085827693703787e-8,1.2740472250068992e-9,8.049266927483452e-9,6.049834708396305e-8,5.1162753580366697e-8,2.4343308004812326e-8,5.0759266862585104e-8,4.2390508707904895e-9,0
40649,1.0076717875633156e-8,1.2733132766395551e-9,8.049266927483452e-9,6.049834708396305e-8,5.1216975953975704e-8,2.4248297615034248e-8,5.086396506505111e-8,4.2388919500956116e-9,0
40650,1.006047285851382e-8,1.2735484718896923e-9,8.051534989541683e-9,6.056133150531423e-8,5.128232957925245e-8,2.4288395702417807e-8,5.068664487589821e-8,4.234954898722914e-9,0
40651,1.0044227841394487e-8,1.2737836671398292e-9,8.053803051599914e-9,6.062431592666542e-8,5.1347683204529194e-8,2.4328493789801366e-8,5.050932468674532e-8,4.231017847350218e-9,0
40652,1.0027982824275154e-8,1.2740188623899663e-9,8.056071113658146e-9,6.06873003480166e-8,5.1413036829805935e-8,2.4368591877184925e-8,5.033200449759243e-8,4.227080795977521e-9,0
40653,1.0011737807155818e-8,1.2742540576401035e-9,8.058339175716377e-9,6.075028476936778e-8,5.147839045508268e-8,2.4408689964568484e-8,5.015468430843953e-8,4.223143744604825e-9,0
40654,9.995492790036485e-9,1.2744892528902404e-9,8.060607237774608e-9,6.081326919071897e-8,5.1543744080359425e-8,2.4448788051952046e-8,4.997736411928664e-8,4.219206693232128e-9,0
40655,9.979247772917151e-9,1.2747244481403775e-9,8.062875299832839e-9,6.087625361207015e-8,5.160909770563617e-8,2.4488886139335605e-8,4.980004393013375e-8,4.215269641859432e-9,0
40656,9.963002755797816e-9,1.2749596433905144e-9,8.06514336189107e-9,6.093923803342134e-8,5.1674451330912914e-8,2.4528984226719164e-8,4.962272374098085e-8,4.211332590486735e-9,0
40657,9.946757738678483e-9,1.2751948386406516e-9,8.067411423949302e-9,6.100222245477252e-8,5.1739804956189655e-8,2.4569082314102723e-8,4.944540355182796e-8,4.207395539114039e-9,0
40658,9.930512721559147e-9,1.2754300338907887e-9,8.069679486007533e-9,6.106520687612372e-8,5.1805158581466404e-8,2.460918040148628e-8,4.926808336267506e-8,4.203458487741342e-9,0
40659,9.914267704439814e-9,1.2756652291409256e-9,8.071947548065764e-9,6.11281912974749e-8,5.1870512206743145e-8,2.464927848886984e-8,4.909076317352217e-8,4.199521436368646e-9,0
40660,9.89802268732048e-9,1.2759004243910628e-9,8.074215610123995e-9,6.119117571882607e-8,5.193586583201989e-8,2.4689376576253403e-8,4.891344298436928e-8,4.1955843849959486e-9,0
40661,9.881777670201145e-9,1.2761356196411997e-9,8.076483672182226e-9,6.125416014017727e-8,5.2001219457296635e-8,2.4729474663636962e-8,4.873612279521638e-8,4.191647333623252e-9,0
40662,9.865532653081811e-9,1.2763708148913368e-9,8.078751734240458e-9,6.131714456152845e-8,5.206657308257338e-8,2.476957275102052e-8,4.855880260606349e-8,4.187710282250556e-9,0
40663,9.849287635962476e-9,1.276606010141474e-9,8.081019796298689e-9,6.138012898287964e-8,5.2131926707850124e-8,2.480967083840408e-8,4.83814824169106e-8,4.183773230877859e-9,0
40664,9.833042618843143e-9,1.2768412053916109e-9,8.08328785835692e-9,6.144311340423082e-8,5.2197280333126865e-8,2.484976892578764e-8,4.82041622277577e-8,4.179836179505163e-9,0
40665,9.816797601723809e-9,1.277076400641748e-9,8.085555920415151e-9,6.150609782558201e-8,5.2262633958403614e-8,2.48898670131712e-8,4.802684203860481e-8,4.175899128132466e-9,0
40666,9.800552584604474e-9,1.2773115958918851e-9,8.087823982473382e-9,6.156908224693319e-8,5.2327987583680355e-8,2.492996510055476e-8,4.784952184945192e-8,4.17196207675977e-9,0
40667,9.78430756748514e-9,1.277546791142022e-9,8.090092044531614e-9,6.163206666828439e-8,5.23933412089571e-8,2.497006318793832e-8,4.767220166029902e-8,4.168025025387073e-9,0
40668,9.767909894958003e-9,1.277810349009092e-9,8.09033353007995e-9,6.162542174045476e-8,5.23933412089571e-8,2.5009468842297374e-8,4.744374119671468e-8,4.170741680749232e-9,0
40669,9.75502388769821e-9,1.2818570991806136e-9,8.126338446642053e-9,6.164678542208001e-8,5.239022967793697e-8,2.5004234013616553e-8,4.724662227521944e-8,4.165584233365997e-9,0
40670,9.742137880438417e-9,1.2859038493521353e-9,8.162343363204155e-9,6.166814910370527e-8,5.238711814691685e-8,2.499899918493573e-8,4.7049503353724206e-8,4.160426785982763e-9,0
40671,9.729251873178625e-9,1.289950599523657e-9,8.198348279766256e-9,6.168951278533051e-8,5.238400661589672e-8,2.499376435625491e-8,4.6852384432228973e-8,4.1552693385995284e-9,0
40672,9.716365865918834e-9,1.2939973496951784e-9,8.234353196328358e-9,6.171087646695575e-8,5.238089508487659e-8,2.498852952757409e-8,4.665526551073374e-8,4.150111891216294e-9,0
40673,9.703479858659042e-9,1.2980440998667001e-9,8.27035811289046e-9,6.173224014858101e-8,5.237778355385646e-8,2.498329469889327e-8,4.645814658923851e-8,4.14495444383306e-9,0
40674,9.69059385139925e-9,1.3020908500382218e-9,8.306363029452561e-9,6.175360383020625e-8,5.237467202283634e-8,2.497805987021245e-8,4.6261027667743275e-8,4.139796996449825e-9,0
40675,9.677707844139458e-9,1.3061376002097433e-9,8.342367946014664e-9,6.17749675118315e-8,5.237156049181621e-8,2.497282504153163e-8,4.606390874624804e-8,4.134639549066591e-9,0
40676,9.664821836879666e-9,1.310184350381265e-9,8.378372862576766e-9,6.179633119345674e-8,5.236844896079608e-8,2.4967590212850807e-8,4.58667898247528e-8,4.129482101683356e-9,0
40677,9.651935829619874e-9,1.3142311005527865e-9,8.414377779138867e-9,6.1817694875082e-8,5.236533742977596e-8,2.4962355384169986e-8,4.566967090325757e-8,4.124324654300122e-9,0
40678,9.639049822360082e-9,1.3182778507243081e-9,8.45038269570097e-9,6.183905855670724e-8,5.236222589875583e-8,2.4957120555489165e-8,4.547255198176234e-8,4.1191672069168875e-9,0
40679,9.62616381510029e-9,1.3223246008958298e-9,8.486387612263072e-9,6.186042223833249e-8,5.2359114367735704e-8,2.4951885726808344e-8,4.5275433060267105e-8,4.114009759533653e-9,0
40680,9.613277807840498e-9,1.3263713510673513e-9,8.522392528825173e-9,6.188178591995774e-8,5.235600283671557e-8,2.4946650898127522e-8,4.507831413877187e-8,4.108852312150419e-9,0
40681,9.600391800580706e-9,1.330418101238873e-9,8.558397445387275e-9,6.190314960158299e-8,5.235289130569545e-8,2.49414160694467e-8,4.488119521727664e-8,4.103694864767184e-9,0
40682,9.587505793320914e-9,1.3344648514103947e-9,8.594402361949377e-9,6.192451328320823e-8,5.234977977467532e-8,2.493618124076588e-8,4.46840762957814e-8,4.098537417383951e-9,0
40683,9.574619786061123e-9,1.3385116015819162e-9,8.63040727851148e-9,6.194587696483349e-8,5.2346668243655194e-8,2.493094641208506e-8,4.448695737428617e-8,4.093379970000716e-9,0
40684,9.56173377880133e-9,1.3425583517534379e-9,8.66641219507358e-9,6.196724064645873e-8,5.234355671263506e-8,2.4925711583404237e-8,4.4289838452790934e-8,4.088222522617482e-9,0
40685,9.548847771541539e-9,1.3466051019249594e-9,8.702417111635683e-9,6.198860432808398e-8,5.234044518161494e-8,2.492047675472342e-8,4.40927195312957e-8,4.083065075234247e-9,0
40686,9.552359436808884e-9,1.350388294229411e-9,8.737408739942838e-9,6.200659865774907e-8,5.23390679345802e-8,2.4813873473545057e-8,4.4177619001419364e-8,4.077642760026216e-9,0
40687,9.580900233003692e-9,1.350388294229411e-9,8.720383250635328e-9,6.203539334501073e-8,5.244087020818535e-8,2.487424940952783e-8,4.382999732658995e-8,4.007552455792442e-9,0
40688,1.0125712276736272e-8,1.3590455672382012e-9,8.682362784343527e-9,6.203539334501073e-8,5.346145530908883e-8,2.4858163581972977e-8,4.4390333829406125e-8,3.9526166523186155e-9,0
40689,1.0664478102721675e-8,1.3679380354971283e-9,8.674109684878812e-9,6.21124170210116e-8,5.449317166166005e-8,2.48135230989331e-8,4.491161619673422e-8,3.967771153078563e-9,0
40690,1.1203243928707078e-8,1.3768305037560552e-9,8.665856585414096e-9,6.218944069701248e-8,5.552488801423126e-8,2.4768882615893224e-8,4.543289856406231e-8,3.98292565383851e-9,0
40691,1.174200975469248e-8,1.3857229720149822e-9,8.657603485949381e-9,6.226646437301334e-8,5.655660436680248e-8,2.4724242132853344e-8,4.59541809313904e-8,3.998080154598458e-9,0
40692,1.222423352829927e-8,1.3935895714225626e-9,8.661383589379767e-9,6.233852012656497e-8,5.7099451849112184e-8,2.4678909216788964e-8,4.687731995901722e-8,4.017500543637144e-9,0
40693,1.2706457301906062e-8,1.4014561708301427e-9,8.665163692810152e-9,6.241057588011658e-8,5.764229933142189e-8,2.4633576300724583e-8,4.780045898664404e-8,4.036920932675831e-9,0
40694,1.3188681075512852e-8,1.409322770237723e-9,8.668943796240537e-9,6.24826316336682e-8,5.8185146813731604e-8,2.4588243384660203e-8,4.872359801427086e-8,4.056341321714517e-9,0
40695,1.3670904849119642e-8,1.4171893696453031e-9,8.672723899670923e-9,6.255468738721982e-8,5.872799429604131e-8,2.4542910468595823e-8,4.9646737041897684e-8,4.075761710753204e-9,0
40696,1.4153128622726432e-8,1.4250559690528834e-9,8.676504003101308e-9,6.262674314077144e-8,5.927084177835102e-8,2.4497577552531443e-8,5.05698760695245e-8,4.09518209979189e-9,0
40697,1.4635352396333224e-8,1.4329225684604636e-9,8.680284106531693e-9,6.269879889432305e-8,5.981368926066072e-8,2.4452244636467063e-8,5.149301509715132e-8,4.114602488830577e-9,0
40698,1.5117576169940012e-8,1.4407891678680439e-9,8.68406420996208e-9,6.277085464787467e-8,6.035653674297044e-8,2.4406911720402683e-8,5.2416154124778144e-8,4.134022877869263e-9,0
40699,1.562986729381965e-8,1.4407891678680439e-9,8.679155588892674e-9,6.284779988898427e-8,6.136353649739244e-8,2.4404692061126126e-8,5.333517402316107e-8,4.157581217024196e-9,0
40700,1.6140326552805643e-8,1.4373629155961347e-9,8.539346895869389e-9,6.203160702318913e-8,6.196731144540447e-8,2.4396190607432585e-8,5.4150101288461736e-8,4.1774253945825575e-9,0
40701,1.610551580183564e-8,1.4252793903154356e-9,8.39551661386738e-9,6.113467924609829e-8,6.154645462988044e-8,2.4408983001173986e-8,5.416407941591937e-8,4.177849183102231e-9,0
40702,1.611182654350463e-8,1.4131958650347365e-9,8.257881290779124e-9,6.031848638030314e-8,6.11382026215261e-8,2.4402701206757e-8,5.4059986782837125e-8,4.1621009776114454e-9,0
40703,1.611813728517362e-8,1.4011123397540374e-9,8.12024596769087e-9,5.9502293514508005e-8,6.072995061317176e-8,2.4396419412340016e-8,5.395589414975488e-8,4.146352772120659e-9,0
40704,1.612444802684261e-8,1.3890288144733383e-9,7.982610644602614e-9,5.868610064871286e-8,6.032169860481742e-8,2.439013761792303e-8,5.385180151667263e-8,4.130604566629873e-9,0
40705,1.6130758768511596e-8,1.3769452891926392e-9,7.84497532151436e-9,5.7869907782917716e-8,5.991344659646307e-8,2.4383855823506047e-8,5.3747708883590385e-8,4.114856361139086e-9,0
40706,1.6137069510180586e-8,1.3648617639119402e-9,7.707339998426104e-9,5.705371491712257e-8,5.950519458810874e-8,2.4377574029089062e-8,5.364361625050814e-8,4.0991081556483e-9,0
40707,1.6143380251849576e-8,1.352778238631241e-9,7.56970467533785e-9,5.623752205132743e-8,5.909694257975439e-8,2.4371292234672077e-8,5.353952361742589e-8,4.083359950157514e-9,0
40708,1.6149690993518567e-8,1.340694713350542e-9,7.4320693522495935e-9,5.542132918553229e-8,5.868869057140005e-8,2.4365010440255092e-8,5.343543098434364e-8,4.067611744666727e-9,0
40709,1.6156001735187553e-8,1.328611188069843e-9,7.2944340291613385e-9,5.4605136319737145e-8,5.8280438563045713e-8,2.4358728645838107e-8,5.333133835126139e-8,4.051863539175941e-9,0
40710,1.6162312476856543e-8,1.316527662789144e-9,7.1567987060730835e-9,5.3788943453942e-8,5.787218655469137e-8,2.4352446851421122e-8,5.3227245718179145e-8,4.0361153336851546e-9,0
40711,1.6168623218525533e-8,1.3044441375084449e-9,7.0191633829848285e-9,5.2972750588146856e-8,5.746393454633703e-8,2.4346165057004134e-8,5.31231530850969e-8,4.020367128194369e-9,0
40712,1.6174933960194523e-8,1.2923606122277458e-9,6.8815280598965734e-9,5.215655772235171e-8,5.705568253798269e-8,2.433988326258715e-8,5.301906045201465e-8,4.004618922703582e-9,0
40713,1.6181244701863514e-8,1.2802770869470467e-9,6.743892736808318e-9,5.134036485655657e-8,5.664743052962834e-8,2.4333601468170165e-8,5.2914967818932405e-8,3.988870717212796e-9,0
40714,1.61875554435325e-8,1.2681935616663476e-9,6.606257413720063e-9,5.052417199076142e-8,5.6239178521274004e-8,2.432731967375318e-8,5.281087518585016e-8,3.97312251172201e-9,0
40715,1.619386618520149e-8,1.2561100363856485e-9,6.468622090631808e-9,4.970797912496628e-8,5.5830926512919665e-8,2.4321037879336195e-8,5.2706782552767905e-8,3.957374306231223e-9,0
40716,1.620017692687048e-8,1.2440265111049494e-9,6.330986767543553e-9,4.889178625917114e-8,5.542267450456532e-8,2.431475608491921e-8,5.260268991968566e-8,3.941626100740437e-9,0
40717,1.620648766853947e-8,1.2319429858242503e-9,6.193351444455298e-9,4.8075593393375996e-8,5.501442249621098e-8,2.4308474290502225e-8,5.249859728660341e-8,3.9258778952496505e-9,0
40718,1.6212798410208457e-8,1.2198594605435512e-9,6.055716121367043e-9,4.725940052758085e-8,5.460617048785664e-8,2.430219249608524e-8,5.2394504653521164e-8,3.9101296897588645e-9,0
40719,1.6219109151877447e-8,1.207775935262852e-9,5.918080798278788e-9,4.644320766178571e-8,5.4197918479502295e-08,2.4295910701668256e-8,5.229041202043892e-8,3.894381484268079e-9,0
40720,1.6225419893546437e-8,1.195692409982153e-9,5.780445475190533e-9,4.562701479599056e-8,5.3789666471147955e-8,2.4289628907251267e-8,5.218631938735667e-8,3.878633278777292e-9,0
40721,1.622358802865279e-8,1.1843995583026637e-9,5.636872460757394e-9,4.474588598134442e-8,5.337285631825651e-8,2.4283347112834283e-8,5.207878005853336e-8,3.874919117180719e-9,0
40722,1.6246815589413022e-8,1.1844846461534624e-9,5.639093176754025e-9,4.466293182658214e-8,5.320976978585686e-8,2.428713929976494e-8,5.2390250964419155e-8,3.915349102206871e-9,0
40723,1.6270043150173254e-8,1.184569734004261e-9,5.641313892750658e-9,4.4579977671819856e-8,5.304668325345721e-8,2.4290931486695593e-8,5.2701721870304944e-8,3.955779087233022e-9,0
40724,1.629557103421792e-8,1.1865931090900218e-9,5.631370394447584e-9,4.422932354802448e-8,5.2870589469237885e-8,2.4153994868171697e-8,5.300181523058568e-8,3.998925727621333e-9,0
40725,1.6321098918262587e-8,1.1886164841757825e-9,5.621426896144511e-9,4.3878669424229095e-8,5.2694495685018564e-8,2.4017058249647802e-8,5.330190859086642e-8,4.0420723680096424e-9,0
40726,1.6346626802307256e-8,1.1906398592615433e-9,5.6114833978414374e-9,4.352801530043371e-8,5.251840190079924e-8,2.3880121631123903e-8,5.3602001951147156e-8,4.085219008397953e-9,0
40727,1.6372154686351924e-8,1.1926632343473042e-9,5.601539899538364e-9,4.317736117663833e-8,5.2342308116579916e-8,2.3743185012600008e-8,5.390209531142789e-8,4.128365648786263e-9,0
40728,1.6397682570396593e-8,1.194686609433065e-9,5.591596401235291e-9,4.282670705284295e-8,5.2166214332360595e-8,2.3606248394076112e-8,5.420218867170863e-8,4.171512289174573e-9,0
40729,1.642321045444126e-8,1.1967099845188259e-9,5.581652902932217e-9,4.247605292904757e-8,5.199012054814127e-8,2.3469311775552214e-8,5.450228203198937e-8,4.214658929562884e-9,0
40730,1.644873833848593e-8,1.1987333596045865e-9,5.5717094046291445e-9,4.212539880525218e-8,5.181402676392195e-8,2.333237515702832e-8,5.4802375392270104e-8,4.2578055699511936e-9,0
40731,1.6474266222530595e-8,1.2007567346903473e-9,5.561765906326071e-9,4.17747446814568e-8,5.163793297970262e-8,2.3195438538504423e-8,5.5102468752550845e-8,4.300952210339504e-9,0
40732,1.6499794106575263e-8,1.2027801097761082e-9,5.551822408022998e-9,4.142409055766142e-8,5.14618391954833e-8,2.3058501919980524e-8,5.540256211283158e-8,4.344098850727814e-9,0
40733,1.652532199061993e-8,1.204803484861869e-9,5.541878909719924e-9,4.107343643386604e-8,5.128574541126397e-8,2.292156530145663e-8,5.5702655473112316e-8,4.387245491116124e-9,0
40734,1.6549007517603577e-8,1.1947716972838637e-9,5.537825756700136e-9,4.110206571629839e-8,5.1252391327033065e-8,2.2927401960357862e-8,5.5996322659124595e-8,4.406610902573377e-9,0
40735,1.657269304458722e-8,1.1847399097058583e-9,5.533772603680347e-9,4.113069499873075e-8,5.121903724280216e-8,2.2933238619259095e-8,5.6289989845136874e-8,4.42597631403063e-9,0
40736,1.6596378571570865e-8,1.1747081221278527e-9,5.529719450660559e-9,4.1159324281163106e-8,5.118568315857125e-8,2.2939075278160328e-8,5.658365703114915e-8,4.445341725487883e-9,0
40737,1.662006409855451e-8,1.1646763345498473e-9,5.52566629764077e-9,4.1187953563595467e-8,5.1152329074340346e-8,2.294491193706156e-8,5.687732421716143e-8,4.464707136945136e-9,0
40738,1.6643749625538152e-8,1.154644546971842e-9,5.5216131446209815e-9,4.121658284602782e-8,5.111897499010944e-8,2.2950748595962794e-8,5.7170991403173704e-8,4.484072548402389e-9,0
40739,1.6667435152521798e-8,1.1446127593938366e-9,5.517559991601192e-9,4.124521212846018e-8,5.108562090587853e-8,2.2956585254864026e-8,5.746465858918598e-8,4.503437959859642e-9,0
40740,1.669112067950544e-8,1.1345809718158312e-9,5.513506838581404e-9,4.1273841410892535e-8,5.1052266821647626e-8,2.296242191376526e-8,5.775832577519826e-8,4.522803371316895e-9,0
40741,1.6615544434885375e-8,1.1346660596666299e-9,5.509532595664282e-9,4.1273566888773087e-8,5.039298306839051e-8,2.291205200702706e-8,5.8140405991194345e-8,4.515544964334914e-9,0
40742,1.6532873187222547e-8,1.1330196929156704e-9,5.507731722682191e-9,4.129746782095339e-8,5.037093588583915e-8,2.2917214725505108e-8,5.8411095205599566e-8,4.5609095069681765e-9,0
40743,1.645020193955972e-8,1.1414051137427164e-9,5.5059781957617e-9,4.182304022167602e-8,5.04874569913997e-8,2.29366887477772e-8,5.8314885053989936e-8,4.5579699618298935e-9,0
40744,1.634551447311957e-8,1.1384409576564075e-9,5.5178535784514684e-9,4.1870437109010123e-8,5.051131206255401e-8,2.2944866635659516e-8,5.820349405239907e-8,4.556250812702148e-9,0
40745,1.624082700667942e-8,1.1354768015700985e-9,5.529728961141236e-9,4.1917833996344224e-8,5.053516713370832e-8,2.2953044523541828e-8,5.809210305080821e-8,4.554531663574404e-9,0
40746,1.613613954023927e-8,1.1325126454837893e-9,5.541604343831005e-9,4.196523088367832e-8,5.0559022204862624e-8,2.296122241142414e-8,5.798071204921735e-8,4.552812514446659e-9,0
40747,1.603145207379912e-8,1.1295484893974804e-9,5.553479726520774e-9,4.201262777101242e-8,5.0582877276016936e-8,2.2969400299306454e-8,5.786932104762648e-8,4.551093365318914e-9,0
40748,1.592676460735897e-8,1.1265843333111714e-9,5.5653551092105415e-9,4.206002465834652e-8,5.060673234717124e-8,2.2977578187188766e-8,5.7757930046035616e-8,4.54937421619117e-9,0
40749,1.5822077140918822e-8,1.1236201772248623e-9,5.57723049190031e-9,4.210742154568062e-8,5.0630587418325554e-8,2.2985756075071077e-8,5.7646539044444754e-8,4.547655067063425e-9,0
40750,1.5717389674478673e-8,1.1206560211385533e-9,5.589105874590079e-9,4.215481843301472e-8,5.065444248947986e-8,2.2993933962953392e-8,5.753514804285389e-8,4.5459359179356795e-9,0
40751,1.5612702208038525e-8,1.1176918650522443e-9,5.600981257279847e-9,4.220221532034882e-8,5.067829756063417e-8,2.3002111850835704e-8,5.742375704126302e-8,4.544216768807935e-9,0
40752,1.5508014741598376e-8,1.1147277089659354e-9,5.6128566399696155e-9,4.224961220768292e-8,5.070215263178848e-8,2.3010289738718015e-8,5.731236603967216e-8,4.54249761968019e-9,0
40753,1.5403327275158227e-8,1.1117635528796262e-9,5.624732022659384e-9,4.2297009095017024e-8,5.072600770294279e-8,2.301846762660033e-8,5.72009750380813e-8,4.540778470552446e-9,0
40754,1.5298639808718078e-8,1.1087993967933173e-9,5.636607405349152e-9,4.2344405982351124e-8,5.0749862774097094e-8,2.302664551448264e-8,5.7089584036490434e-8,4.539059321424701e-9,0
40755,1.519395234227793e-8,1.1058352407070083e-9,5.648482788038921e-9,4.239180286968522e-8,5.0773717845251406e-8,2.3034823402364953e-8,5.697819303489957e-8,4.537340172296956e-9,0
40756,1.5089264875837777e-8,1.1028710846206991e-9,5.660358170728689e-9,4.243919975701932e-8,5.079757291640571e-8,2.3043001290247268e-8,5.68668020333087e-8,4.5356210231692115e-9,0
40757,1.5035857505402835e-8,1.1078302531758363e-9,5.67646506390445e-9,4.253527409508815e-8,5.079832666107932e-8,2.3044223443289408e-8,5.675892459157798e-8,4.587449369310065e-9,0
40758,1.492833017566725e-8,1.1041321487221832e-9,5.6734251991396085e-9,4.252272256474332e-8,5.078352275065229e-8,2.30455939748368e-8,5.664735990960149e-8,4.584615771301701e-9,0
40759,1.4820802845931663e-8,1.10043404426853e-9,5.6703853343747676e-9,4.251017103439849e-8,5.076871884022526e-8,2.3046964506384195e-8,5.653579522762499e-8,4.581782173293337e-9,0
40760,1.4713275516196075e-8,1.096735939814877e-9,5.667345469609926e-9,4.2497619504053665e-8,5.0753914929798235e-8,2.3048335037931588e-8,5.642423054564849e-8,4.5789485752849726e-9,0
40761,1.4605748186460489e-8,1.093037835361224e-9,5.664305604845084e-9,4.248506797370884e-8,5.073911101937121e-8,2.304970556947898e-8,5.6312665863671995e-8,4.5761149772766084e-9,0
40762,1.4498220856724901e-8,1.089339730907571e-9,5.661265740080243e-9,4.2472516443364014e-8,5.0724307108944173e-8,2.3051076101026374e-8,5.620110118169549e-8,4.573281379268244e-9,0
40763,1.4400841638188155e-8,1.0834114187349528e-9,5.658225875315401e-9,4.248382662775385e-8,5.072640416680726e-8,2.2962899876383945e-8,5.6171759276007136e-8,4.572008009692747e-9,0
40764,1.4395833713569188e-8,1.08364661398509e-9,5.652933730512862e-9,4.249509759469805e-8,5.072345131887631e-8,2.2945241521174994e-8,5.6089598739906155e-8,4.542592571293822e-9,0
40765,1.439082578895022e-8,1.083881809235227e-9,5.647641585710322e-9,4.250636856164225e-8,5.072049847094536e-8,2.2927583165966045e-08,5.6007438203805174e-8,4.5131771328948966e-9,0
40766,1.4385817864331253e-8,1.084117004485364e-9,5.642349440907783e-9,4.2517639528586455e-8,5.071754562301442e-8,2.2909924810757094e-8,5.592527766770419e-8,4.483761694495972e-9,0
40767,1.4380809939712287e-8,1.084352199735501e-9,5.637057296105244e-9,4.252891049553066e-8,5.071459277508347e-8,2.2892266455548142e-8,5.584311713160321e-8,4.454346256097047e-9,0
40768,1.4375802015093319e-8,1.0845873949856382e-9,5.6317651513027036e-9,4.254018146247486e-8,5.071163992715253e-8,2.2874608100339194e-8,5.576095659550223e-8,4.424930817698121e-9,0
40769,1.4370794090474352e-8,1.0848225902357752e-9,5.626473006500164e-9,4.255145242941906e-8,5.070868707922158e-8,2.2856949745130243e-8,5.567879605940125e-8,4.395515379299196e-9,0
40770,1.4365786165855385e-8,1.0850577854859123e-9,5.621180861697624e-9,4.256272339636326e-8,5.070573423129063e-8,2.2839291389921294e-8,5.559663552330027e-8,4.366099940900271e-9,0
40771,1.4360778241236417e-8,1.0852929807360492e-9,5.615888716895085e-9,4.2573994363307465e-8,5.070278138335969e-8,2.2821633034712343e-8,5.5514474987199287e-8,4.336684502501345e-9,0
40772,1.435577031661745e-8,1.0855281759861863e-9,5.610596572092546e-9,4.258526533025166e-8,5.069982853542874e-8,2.2803974679503395e-8,5.5432314451098305e-8,4.30726906410242e-9,0
40773,1.4350762391998483e-8,1.0857633712363235e-9,5.605304427290006e-9,4.259653629719587e-8,5.069687568749779e-8,2.2786316324294443e-8,5.5350153914997324e-8,4.277853625703494e-9,0
40774,1.4345754467379515e-8,1.0859985664864604e-9,5.600012282487467e-9,4.2607807264140066e-8,5.069392283956685e-8,2.2768657969085495e-8,5.526799337889634e-8,4.248438187304569e-9,0
40775,1.4340746542760549e-8,1.0862337617365975e-9,5.5947201376849275e-9,4.261907823108427e-8,5.06909699916359e-8,2.2750999613876543e-8,5.518583284279536e-8,4.2190227489056444e-9,0
40776,1.433573861814158e-8,1.0864689569867345e-9,5.5894279928823875e-9,4.263034919802847e-8,5.068801714370495e-8,2.2733341258667595e-8,5.510367230669438e-8,4.189607310506719e-9,0
40777,1.4330730693522615e-8,1.0864689569867345e-9,5.5894279928823875e-9,4.26496198235708e-8,5.0781726092044936e-8,2.2769103104601247e-8,5.508414103082838e-8,4.161465241683291e-9,0
40778,1.4302189897327807e-8,1.0864689569867345e-9,5.5851807003758615e-9,4.2649879004490816e-8,5.077262952361833e-8,2.2560830455815138e-8,5.489074930172639e-8,4.157528190310594e-9,0
40779,1.4283776818884943e-8,1.0887558899395653e-9,5.581075446054135e-9,4.256916370191794e-8,5.061671241486698e-8,2.2558911711648788e-8,5.488645649209686e-8,4.159417255649504e-9,0
40780,1.426536374044208e-8,1.091042822892396e-9,5.576970191732407e-9,4.248844839934506e-8,5.046079530611564e-8,2.2556992967482437e-8,5.488216368246732e-8,4.161306320988413e-9,0
40781,1.4246950661999216e-8,1.0933297558452268e-9,5.5728649374106805e-9,4.240773309677218e-8,5.030487819736429e-8,2.2555074223316087e-8,5.487787087283779e-8,4.1631953863273224e-9,0
40782,1.4228537583556352e-8,1.0956166887980575e-9,5.568759683088953e-9,4.23270177941993e-8,5.0148961088612946e-8,2.2553155479149737e-8,5.4873578063208255e-8,4.165084451666231e-9,0
40783,1.421012450511349e-8,1.0979036217508883e-9,5.564654428767226e-9,4.224630249162642e-8,4.99930439798616e-8,2.2551236734983386e-8,5.486928525357872e-8,4.166973517005141e-9,0
40784,1.4191711426670625e-8,1.100190554703719e-9,5.560549174445499e-9,4.216558718905354e-8,4.9837126871110254e-8,2.2549317990817036e-8,5.486499244394919e-8,4.16886258234405e-9,0
40785,1.4173298348227761e-8,1.1024774876565496e-9,5.556443920123771e-9,4.208487188648066e-8,4.9681209762358905e-8,2.2547399246650685e-8,5.486069963431966e-8,4.1707516476829596e-9,0
40786,1.4154885269784899e-8,1.1047644206093805e-9,5.552338665802044e-9,4.200415658390778e-8,4.9525292653607556e-8,2.2545480502484335e-8,5.485640682469012e-8,4.172640713021869e-9,0
40787,1.4136472191342034e-8,1.1070513535622112e-9,5.548233411480317e-9,4.19234412813349e-8,4.9369375544856214e-8,2.2543561758317984e-8,5.485211401506059e-8,4.174529778360778e-9,0
40788,1.411805911289917e-8,1.109338286515042e-9,5.54412815715859e-9,4.1842725978762023e-08,4.9213458436104865e-8,2.2541643014151634e-8,5.4847821205431055e-8,4.176418843699688e-9,0
40789,1.4099646034456308e-8,1.1116252194678727e-9,5.540022902836862e-9,4.1762010676189145e-8,4.905754132735352e-8,2.2539724269985283e-8,5.484352839580152e-8,4.178307909038597e-9,0
40790,1.4081232956013444e-8,1.1139121524207033e-9,5.535917648515136e-9,4.1681295373616266e-8,4.890162421860217e-8,2.2537805525818936e-8,5.483923558617199e-8,4.1801969743775064e-9,0
40791,1.406281987757058e-8,1.1161990853735342e-9,5.531812394193408e-9,4.160058007104339e-8,4.874570710985083e-8,2.2535886781652586e-8,5.483494277654245e-8,4.182086039716416e-9,0
40792,1.4008038608465402e-8,1.117460149475018e-9,5.545614906029533e-9,4.154487659169875e-8,4.845274641311589e-8,2.2356929173479074e-8,5.4810762082411796e-8,4.180154996328834e-9,0
40793,1.3953257339360223e-8,1.118721213576502e-9,5.559417417865657e-9,4.148917311235411e-8,4.815978571638095e-8,2.2177971565305563e-8,5.478658138828114e-8,4.178223952941252e-9,0
40794,1.3898476070255044e-8,1.1199822776779859e-9,5.573219929701782e-9,4.143346963300947e-8,4.786682501964601e-8,2.199901395713205e-8,5.476240069415049e-8,4.17629290955367e-9,0
40795,1.3843694801149865e-8,1.1212433417794697e-9,5.587022441537906e-9,4.1377766153664826e-8,4.757386432291108e-8,2.182005634895854e-8,5.4738220000019833e-8,4.174361866166088e-9,0
40796,1.3788913532044688e-8,1.1225044058809536e-9,5.600824953374031e-9,4.132206267432019e-8,4.728090362617614e-8,2.164109874078503e-8,5.471403930588918e-8,4.172430822778506e-9,0
40797,1.373413226293951e-8,1.1237654699824375e-9,5.614627465210156e-9,4.126635919497555e-8,4.69879429294412e-8,2.146214113261152e-8,5.4689858611758525e-8,4.170499779390924e-9,0
40798,1.367935099383433e-8,1.1250265340839214e-9,5.62842997704628e-9,4.121065571563091e-8,4.669498223270626e-8,2.128318352443801e-8,5.466567791762787e-8,4.168568736003342e-9,0
40799,1.3662311814061703e-8,1.126344323419271e-9,5.6355229948309104e-9,4.1028854667570935e-8,4.66997090353949e-8,2.127899566149335e-8,5.449906746450912e-8,4.170510774907211e-9,0
40800,1.3645272634289077e-8,1.1276621127546207e-9,5.6426160126155405e-9,4.0847053619510966e-8,4.670443583808353e-8,2.1274807798548694e-8,5.433245701139036e-8,4.1724528138110795e-9,0
40801,1.362823345451645e-8,1.1289799020899704e-9,5.6497090304001705e-9,4.066525257145099e-8,4.670916264077216e-8,2.127061993560404e-8,5.416584655827161e-8,4.174394852714948e-9,0
40802,1.3611194274743823e-8,1.13029769142532e-9,5.656802048184801e-9,4.0483451523391016e-8,4.6713889443460796e-8,2.126643207265938e-8,5.3999236105152856e-8,4.176336891618817e-9,0
40803,1.3594155094971196e-8,1.1316154807606697e-9,5.663895065969431e-9,4.030165047533105e-8,4.671861624614943e-8,2.1262244209714724e-8,5.38326256520341e-8,4.178278930522686e-9,0
40804,1.3577115915198569e-8,1.1329332700960194e-9,5.670988083754061e-9,4.011984942727107e-8,4.672334304883806e-8,2.1258056346770066e-8,5.3666015198915345e-8,4.180220969426554e-9,0
40805,1.3560076735425942e-8,1.134251059431369e-9,5.6780811015386914e-9,3.99380483792111e-8,4.6728069851526694e-8,2.1253868483825412e-8,5.3499404745796586e-8,4.182163008330422e-9,0
40806,1.3577390340399905e-8,1.133517111064025e-9,5.704966423806269e-9,4.015538281845306e-8,4.6788095875603344e-8,2.1256339598710423e-8,5.3395423552912815e-8,4.182215981895382e-9,0
40807,1.3594703945373868e-8,1.1327831626966809e-9,5.731851746073846e-9,4.037271725769501e-8,4.684812189967999e-8,2.1258810713595434e-8,5.3291442360029044e-8,4.182268955460341e-9,0
40808,1.3612017550347829e-8,1.1320492143293368e-9,5.758737068341424e-9,4.059005169693697e-8,4.690814792375664e-8,2.126128182848045e-8,5.318746116714527e-8,4.1823219290253e-9,0
40809,1.3629331155321792e-8,1.1313152659619927e-9,5.785622390609001e-9,4.080738613617893e-8,4.696817394783329e-8,2.126375294336546e-8,5.30834799742615e-8,4.18237490259026e-9,0
40810,1.3635519536309397e-8,1.1366514428519312e-9,5.776949448129745e-9,4.063761398910037e-8,4.696933013715688e-8,2.1277816949650755e-8,5.3062327127049626e-8,4.202589895103335e-9,0
40811,1.365283314128336e-8,1.1379692321872808e-9,5.772040827060341e-9,4.058724845930923e-8,4.697048632648048e-8,2.1275547830872448e-8,5.323991394105892e-8,4.218538999337672e-9,0
40812,1.3670146746257323e-8,1.1392870215226305e-9,5.767132205990938e-9,4.053688292951809e-8,4.697164251580407e-8,2.127327871209414e-8,5.341750075506821e-8,4.234488103572009e-9,0
40813,1.3687460351231286e-8,1.1406048108579802e-9,5.762223584921534e-9,4.048651739972694e-8,4.6972798705127666e-8,2.1271009593315837e-8,5.3595087569077506e-8,4.250437207806345e-9,0
40814,1.3717670455632414e-8,1.1428917438108108e-9,5.762223584921534e-9,4.0569471554489226e-8,4.665877136515315e-8,2.1194745667785212e-8,5.3665215790178366e-8,4.254204342967878e-9,0
40815,1.3742811455073886e-8,1.1449434815135045e-9,5.75731496385213e-9,4.0688878171776636e-8,4.6642748890780566e-8,2.1168388020875722e-8,5.382966134275464e-8,4.258342293084125e-9,0
40816,1.3767952454515356e-8,1.1469952192161983e-9,5.752406342782726e-9,4.0808284789064046e-8,4.662672641640798e-8,2.114203037396623e-8,5.399410689533092e-8,4.2624802432003715e-9,0
40817,1.3793093453956826e-8,1.1490469569188918e-9,5.747497721713322e-9,4.0927691406351455e-8,4.6610703942035396e-8,2.1115672727056736e-8,5.41585524479072e-8,4.266618193316619e-9,0
40818,1.3818234453398296e-8,1.1510986946215855e-9,5.742589100643918e-9,4.1047098023638865e-8,4.6594681467662814e-8,2.1089315080147242e-8,5.432299800048348e-8,4.270756143432866e-9,0
40819,1.3843375452839766e-8,1.1531504323242792e-9,5.737680479574515e-9,4.1166504640926274e-8,4.6578658993290225e-8,2.106295743323775e-8,5.4487443553059756e-8,4.274894093549113e-9,0
40820,1.3868516452281237e-8,1.155202170026973e-9,5.732771858505111e-9,4.1285911258213684e-8,4.6562636518917643e-8,2.103659978632826e-8,5.465188910563604e-8,4.27903204366536e-9,0
40821,1.3893657451722707e-8,1.1572539077296667e-9,5.727863237435707e-9,4.1405317875501094e-8,4.654661404454506e-8,2.1010242139418766e-8,5.4816334658212316e-8,4.283169993781607e-9,0
40822,1.3918798451164177e-8,1.1593056454323602e-9,5.722954616366303e-9,4.1524724492788497e-8,4.653059157017247e-8,2.0983884492509273e-8,5.498078021078859e-8,4.287307943897854e-9,0
40823,1.3943939450605647e-8,1.161357383135054e-9,5.718045995296899e-9,4.1644131110075906e-8,4.651456909579989e-8,2.095752684559978e-8,5.5145225763364876e-8,4.291445894014101e-9,0
40824,1.3969080450047117e-8,1.1634091208377477e-9,5.713137374227495e-9,4.1763537727363316e-8,4.64985466214273e-8,2.093116919869029e-8,5.530967131594115e-8,4.2955838441303485e-9,0
40825,1.3994221449488589e-8,1.1654608585404414e-9,5.708228753158092e-9,4.1882944344650725e-8,4.648252414705472e-8,2.0904811551780797e-8,5.547411686851743e-8,4.299721794246595e-9,0
40826,1.4019362448930059e-8,1.1675125962431351e-9,5.703320132088688e-9,4.2002350961938135e-8,4.646650167268214e-8,2.0878453904871304e-8,5.5638562421093713e-8,4.303859744362842e-9,0
40827,1.4044503448371529e-8,1.1695643339458286e-9,5.698411511019284e-9,4.2121757579225545e-8,4.645047919830955e-8,2.085209625796181e-8,5.580300797366999e-8,4.307997694479089e-9,0
40828,1.4069644447812999e-8,1.1716160716485224e-9,5.69350288994988e-9,4.2241164196512954e-8,4.643445672393697e-8,2.082573861105232e-8,5.596745352624627e-8,4.312135644595336e-9,0
40829,1.4094785447254469e-8,1.173667809351216e-9,5.688594268880476e-9,4.2360570813800364e-8,4.6418434249564386e-8,2.0799380964142828e-8,5.613189907882255e-8,4.316273594711583e-9,0
40830,1.4119926446695938e-8,1.1757195470539098e-9,5.683685647811072e-9,4.2479977431087773e-8,4.64024117751918e-8,2.0773023317233335e-8,5.629634463139883e-8,4.32041154482783e-9,0
40831,1.414506744613741e-8,1.1777712847566033e-9,5.678777026741668e-9,4.259938404837518e-8,4.6386389300819216e-8,2.074666567032384e-8,5.6460790183975104e-8,4.324549494944077e-9,0
40832,1.417020844557888e-8,1.179823022459297e-9,5.673868405672265e-9,4.2718790665662586e-8,4.6370366826446634e-8,2.0720308023414348e-8,5.662523573655139e-8,4.328687445060325e-9,0
40833,1.419534944502035e-8,1.1818747601619908e-9,5.668959784602861e-9,4.2838197282949996e-8,4.6354344352074045e-8,2.069395037650486e-8,5.6789681289127664e-8,4.332825395176571e-9,0
40834,1.4204550738158094e-8,1.1839264978646845e-9,5.660271060103072e-9,4.282614877324576e-8,4.633674627680525e-8,2.0683480719143216e-8,5.661422238420543e-8,4.377298378705338e-9,0
40835,1.4213752031295839e-8,1.1859782355673782e-9,5.651582335603282e-9,4.281410026354152e-8,4.6319148201536455e-8,2.0673011061781573e-8,5.643876347928319e-8,4.421771362234104e-9,0
40836,1.4222953324433583e-8,1.1880299732700718e-9,5.642893611103493e-9,4.280205175383728e-8,4.630155012626766e-8,2.066254140441993e-8,5.6263304574360955e-8,4.466244345762871e-9,0
40837,1.4234404252682447e-8,1.1880299732700718e-9,5.627111868819074e-9,4.279834051854246e-8,4.6290838286172545e-8,2.0680348138134132e-8,5.626098448916055e-8,4.520586444505859e-9,0
40838,1.4245855180931309e-8,1.1880299732700718e-9,5.6113301265346545e-9,4.279462928324763e-8,4.628012644607743e-8,2.0698154871848333e-8,5.625866440396015e-8,4.574928543248846e-9,0
40839,1.4257306109180173e-8,1.1880299732700718e-9,5.5955483842502356e-9,4.279091804795281e-8,4.626941460598231e-8,2.0715961605562534e-8,5.6256344318759755e-8,4.629270641991834e-9,0
40840,1.4268757037429037e-8,1.1880299732700718e-9,5.579766641965816e-9,4.278720681265798e-8,4.625870276588719e-8,2.0733768339276735e-8,5.625402423355935e-8,4.683612740734822e-9,0
40841,1.4280207965677899e-8,1.1880299732700718e-9,5.563984899681397e-9,4.2783495577363156e-8,4.624799092579208e-8,2.0751575072990936e-8,5.625170414835895e-8,4.73795483947781e-9,0
40842,1.4291658893926763e-8,1.1880299732700718e-9,5.548203157396977e-9,4.277978434206833e-8,4.6237279085696956e-8,2.0769381806705134e-8,5.624938406315855e-8,4.792296938220798e-9,0
40843,1.4303109822175625e-8,1.1880299732700718e-9,5.532421415112558e-9,4.2776073106773505e-8,4.622656724560184e-8,2.0787188540419335e-8,5.6247063977958146e-8,4.846639036963785e-9,0
40844,1.4314560750424488e-8,1.1880299732700718e-9,5.5166396728281384e-9,4.2772361871478676e-08,4.6215855405506725e-8,2.0804995274133536e-8,5.624474389275775e-8,4.900981135706773e-9,0
40845,1.4326011678673352e-8,1.1880299732700718e-9,5.5008579305437195e-9,4.276865063618385e-8,4.6205143565411603e-8,2.0822802007847737e-8,5.624242380755735e-8,4.9553232344497605e-9,0
40846,1.4337462606922214e-8,1.1880299732700718e-9,5.4850761882593e-9,4.2764939400889024e-8,4.619443172531649e-8,2.084060874156194e-8,5.6240103722356946e-8,5.009665333192749e-9,0
40847,1.4348913535171078e-8,1.1880299732700718e-9,5.469294445974881e-9,4.27612281655942e-8,4.618371988522137e-8,2.085841547527614e-8,5.6237783637156544e-8,5.064007431935736e-9,0
40848,1.4360364463419942e-8,1.1880299732700718e-9,5.453512703690461e-9,4.275751693029937e-8,4.617300804512625e-8,2.087622220899034e-8,5.623546355195615e-8,5.118349530678724e-9,0
40849,1.4371815391668804e-8,1.1880299732700718e-9,5.437730961406042e-9,4.275380569500455e-8,4.6162296205031136e-8,2.0894028942704542e-8,5.6233143466755746e-8,5.172691629421711e-9,0
40850,1.4349564943696089e-8,1.1892910373715557e-9,5.4369591586994316e-9,4.27478598750437e-8,4.611052218930883e-8,2.0907647813474085e-8,5.561021007122808e-8,5.186709690268466e-9,0
40851,1.4327314495723375e-08,1.1905521014730396e-09,5.436187355992821e-9,4.274191405508285e-8,4.6058748173586526e-8,2.092126668424363e-8,5.498727667570041e-8,5.200727751115221e-9,0
40852,1.4305064047750659e-8,1.1918131655745234e-9,5.435415553286211e-9,4.2735968235122e-8,4.600697415786422e-8,2.0934885555013172e-8,5.436434328017275e-8,5.214745811961976e-9,0
40853,1.4282813599777943e-8,1.1930742296760073e-9,5.434643750579601e-9,4.2730022415161155e-8,4.595520014214191e-8,2.0948504425782715e-8,5.3741409884645074e-8,5.228763872808731e-9,0
40854,1.4260563151805227e-8,1.1943352937774912e-9,5.433871947872991e-9,4.272407659520031e-8,4.59034261264196e-8,2.096212329655226e-8,5.311847648911741e-8,5.242781933655485e-9,0
40855,1.4238312703832512e-8,1.1955963578789751e-9,5.43310014516638e-9,4.271813077523946e-8,4.58516521106973e-8,2.0975742167321802e-8,5.249554309358974e-8,5.25679999450224e-9,0
40856,1.4230170097269874e-8,1.1955396326451096e-9,5.4383607259278535e-9,4.2715896190573437e-8,4.5801453695871206e-8,2.099456905797144e-8,5.190331875879581e-8,5.226345071820229e-9,0
40857,1.418720624756986e-8,1.1967156088957948e-9,5.441305898569496e-9,4.270995037061259e-8,4.57496400093766e-8,2.1003973256995602e-8,5.1319221242291206e-8,5.186021033923996e-9,0
40858,1.4144242397869845e-8,1.19789158514648e-9,5.444251071211138e-9,4.270400455065174e-8,4.5697826322882e-8,2.101337745601976e-8,5.07351237257866e-8,5.1456969960277625e-9,0
40859,1.410127854816983e-8,1.1990675613971653e-9,5.44719624385278e-9,4.269805873069089e-8,4.5646012636387395e-8,2.102278165504392e-8,5.015102620928199e-8,5.10537295813153e-9,0
40860,1.4058314698469814e-8,1.2002435376478505e-9,5.450141416494423e-9,4.269211291073004e-8,4.55941989498928e-8,2.103218585406808e-8,4.956692869277738e-8,5.065048920235297e-9,0
40861,1.4015350848769799e-8,1.2014195138985358e-9,5.453086589136065e-9,4.2686167090769195e-8,4.5542385263398195e-8,2.104159005309224e-8,4.8982831176272776e-8,5.024724882339064e-9,0
40862,1.3972386999069784e-8,1.202595490149221e-9,5.456031761777707e-9,4.268022127080835e-8,4.549057157690359e-8,2.1050994252116398e-8,4.839873365976817e-8,4.984400844442832e-9,0
40863,1.392942314936977e-8,1.2037714663999063e-9,5.45897693441935e-9,4.26742754508475e-8,4.5438757890408994e-8,2.106039845114056e-8,4.781463614326356e-8,4.9440768065465985e-9,0
40864,1.3886459299669755e-8,1.2049474426505915e-9,5.461922107060992e-9,4.266832963088665e-8,4.538694420391439e-8,2.1069802650164718e-8,4.723053862675895e-8,4.903752768650365e-9,0
40865,1.3885787497697847e-8,1.2068857298855537e-9,5.4648988437437e-9,4.263828679151732e-8,4.5381758318880844e-8,2.1083394712133535e-8,4.7264235582264005e-8,4.905917697330358e-9,0
40866,1.3885115695725938e-8,1.208824017120516e-9,5.467875580426409e-9,4.2608243952148e-8,4.53765724338473e-8,2.109698677410235e-8,4.729793253776905e-8,4.90808262601035e-9,0
40867,1.3884443893754028e-8,1.2107623043554781e-9,5.4708523171091175e-9,4.257820111277867e-8,4.5371386548813757e-8,2.1110578836071167e-8,4.7331629493274104e-8,4.910247554690343e-9,0
40868,1.3883924747189924e-8,1.2195613904489325e-9,5.569779036541965e-9,4.2563800366071505e-8,4.539868199102062e-8,2.1124566574053984e-8,4.732588500037234e-8,4.946475620519001e-9,0
40869,1.388340560062582e-8,1.2283604765423869e-9,5.668705755974813e-9,4.254939961936434e-8,4.542597743322749e-8,2.1138554312036805e-8,4.7320140507470575e-8,4.98270368634766e-9,0
40870,1.3882886454061715e-8,1.2371595626358412e-9,5.767632475407661e-9,4.253499887265717e-8,4.545327287543436e-8,2.1152542050019622e-8,4.731439601456881e-8,5.018931752176319e-9,0
40871,1.3882367307497611e-8,1.2459586487292956e-9,5.866559194840509e-9,4.252059812595e-8,4.548056831764123e-8,2.116652978800244e-8,4.7308651521667047e-8,5.055159818004977e-9,0
40872,1.3832746618419204e-8,1.2459586487292956e-9,5.96545435023229e-9,4.2532450548426064e-8,4.549020904688438e-8,2.1134156136786033e-8,4.727733689154955e-8,5.079353839939421e-9,0
40873,1.3828776986928446e-8,1.2527343597369893e-9,5.993158821268077e-9,4.1900203806789585e-8,4.540660564705949e-8,2.069028019697343e-8,4.72744112369654e-8,5.11325805639321e-9,0
40874,1.3824807355437687e-8,1.2595100707446828e-9,6.0208632923038645e-9,4.126795706515311e-8,4.53230022472346e-8,2.0246404257160832e-8,4.727148558238124e-8,5.1471622728469975e-9,0
40875,1.382083772394693e-8,1.2662857817523763e-9,6.048567763339652e-9,4.063571032351664e-8,4.5239398847409705e-8,1.980252831734823e-8,4.726855992779709e-8,5.181066489300786e-9,0
40876,1.3822395163639243e-8,1.2649679924170267e-9,5.976605276277048e-9,3.999661829929899e-8,4.51238922150062e-8,1.9398975111726917e-8,4.727047041203906e-8,5.179018503266999e-9,0
40877,1.381827287674068e-8,1.264882904566228e-9,5.908422892644829e-9,3.948018459199201e-8,4.50670628004213e-8,1.9149384082717606e-8,4.7284738284012733e-8,5.192442859382915e-9,0
40878,1.3814150589842117e-8,1.2647978167154294e-9,5.8402405090126095e-9,3.896375088468502e-8,4.5010233385836414e-8,1.8899793053708295e-8,4.7299006155986405e-8,5.2058672154988305e-9,0
40879,1.3810028302943555e-8,1.264712728864631e-9,5.772058125380391e-9,3.8447317177378035e-8,4.495340397125152e-8,1.8650202024698984e-8,4.731327402796008e-8,5.219291571614747e-9,0
40880,1.3805906016044992e-8,1.2646276410138323e-9,5.703875741748172e-9,3.793088347007105e-8,4.489657455666662e-8,1.8400610995689673e-8,4.7327541899933756e-8,5.232715927730663e-9,0
40881,1.3801783729146429e-8,1.2645425531630337e-9,5.6356933581159536e-09,3.741444976276407e-8,4.483974514208173e-8,1.8151019966680362e-8,4.734180977190743e-8,5.246140283846578e-9,0
40882,1.3797661442247866e-8,1.264457465312235e-9,5.567510974483734e-9,3.689801605545708e-8,4.478291572749683e-8,1.790142893767105e-8,4.73560776438811e-8,5.259564639962495e-9,0
40883,1.3793539155349305e-8,1.2643723774614364e-9,5.4993285908515154e-9,3.6381582348150096e-8,4.472608631291194e-8,1.765183790866174e-8,4.737034551585477e-8,5.2729889960784104e-9,0
40884,1.3789416868450742e-8,1.2642872896106377e-9,5.431146207219297e-9,3.586514864084311e-8,4.466925689832704e-8,1.740224687965243e-8,4.7384613387828444e-8,5.286413352194326e-9,0
40885,1.3785294581552179e-8,1.264202201759839e-9,5.362963823587077e-9,3.534871493353613e-8,4.4612427483742154e-8,1.7152655850643118e-8,4.739888125980212e-8,5.2998377083102426e-9,0
40886,1.3781172294653617e-8,1.2641171139090404e-9,5.294781439954859e-9,3.4832281226229144e-8,4.455559806915726e-8,1.6903064821633807e-8,4.7413149131775794e-8,5.313262064426158e-9,0
40887,1.3777050007755054e-8,1.2640320260582418e-9,5.22659905632264e-9,3.431584751892216e-8,4.4498768654572363e-8,1.6653473792624496e-8,4.7427417003749466e-8,5.326686420542074e-9,0
40888,1.3772927720856491e-8,1.2639469382074431e-9,5.1584166726904206e-9,3.379941381161517e-8,4.444193923998747e-8,1.6403882763615185e-8,4.744168487572314e-8,5.34011077665799e-9,0
40889,1.376880543395793e-8,1.2638618503566445e-9,5.090234289058202e-9,3.3282980104308185e-8,4.438510982540257e-8,1.6154291734605874e-8,4.745595274769681e-8,5.353535132773906e-9,0
40890,1.3764683147059367e-8,1.2637767625058458e-9,5.022051905425983e-9,3.2766546397001205e-8,4.432828041081768e-8,1.5904700705596563e-8,4.747022061967049e-8,5.366959488889822e-9,0
40891,1.3760560860160803e-8,1.2636916746550474e-9,4.953869521793764e-9,3.225011268969422e-8,4.427145099623278e-8,1.5655109676587252e-8,4.748448849164416e-8,5.380383845005738e-9,0
40892,1.3758738896546677e-8,1.2623738853196978e-9,4.887860508096578e-9,3.1665981551983424e-8,4.415823977555384e-8,1.52039049766215e-8,4.7715179888270126e-8,5.390464854479796e-9,0
40893,1.3755593722435632e-8,1.2600869523668669e-9,4.840515281243319e-9,3.130646579552114e-8,4.404502855487489e-8,1.4773773635382673e-8,4.782013167541669e-8,5.38908553777438e-9,0
40894,1.4212258726383481e-8,1.2613480164683508e-9,4.847272121356413e-9,3.108679872799907e-8,4.40068059517888e-8,1.4699207965310378e-8,4.7961350295637277e-08,5.390136017573753e-9,0
40895,1.4668923730331331e-8,1.2626090805698347e-9,4.854028961469508e-9,3.0867131660477004e-8,4.39685833487027e-8,1.462464229523808e-8,4.810256891585787e-8,5.391186497373127e-9,0
40896,1.512558873427918e-8,1.2638701446713186e-9,4.860785801582602e-9,3.064746459295493e-8,4.393036074561661e-8,1.4550076625165785e-8,4.824378753607846e-8,5.3922369771725e-9,0
40897,1.558225373822703e-8,1.2651312087728025e-9,4.8675426416956955e-9,3.0427797525432865e-8,4.389213814253052e-8,1.447551095509349e-8,4.838500615629905e-8,5.393287456971873e-9,0
40898,1.603891874217488e-8,1.2663922728742864e-9,4.874299481808789e-9,3.02081304579108e-8,4.385391553944443e-8,1.4400945285021192e-8,4.852622477651964e-8,5.394337936771247e-9,0
40899,1.6495583746122733e-8,1.2676533369757702e-9,4.881056321921883e-9,2.998846339038873e-8,4.3815692936358336e-8,1.4326379614948896e-8,4.866744339674022e-8,5.39538841657062e-9,0
40900,1.6952248750070583e-8,1.2689144010772541e-9,4.887813162034978e-9,2.9768796322866663e-8,4.3777470333272246e-8,1.42518139448766e-8,4.880866201696081e-8,5.396438896369993e-9,0
40901,1.7408913754018432e-8,1.270175465178738e-9,4.894570002148072e-9,2.9549129255344594e-8,4.3739247730186156e-8,1.4177248274804303e-8,4.89498806371814e-8,5.3974893761693666e-9,0
40902,1.7865578757966282e-8,1.271436529280222e-9,4.901326842261166e-9,2.9329462187822527e-8,4.3701025127100067e-08,1.4102682604732008e-8,4.909109925740199e-8,5.39853985596874e-9,0
40903,1.832224376191413e-8,1.2726975933817058e-9,4.9080836823742595e-9,2.9109795120300458e-8,4.366280252401397e-8,1.402811693465971e-8,4.923231787762258e-8,5.399590335768113e-9,0
40904,1.877890876586198e-8,1.2739586574831897e-9,4.914840522487354e-9,2.8890128052778392e-8,4.362457992092788e-8,1.3953551264587415e-8,4.9373536497843165e-8,5.4006408155674865e-9,0
40905,1.923557376980983e-8,1.2752197215846736e-9,4.921597362600448e-9,2.8670460985256322e-8,4.358635731784179e-8,1.387898559451512e-8,4.9514755118063755e-8,5.401691295366859e-9,0
40906,1.969223877375768e-8,1.2764807856861575e-9,4.928354202713542e-9,2.8450793917734256e-8,4.35481347147557e-8,1.3804419924442822e-8,4.9655973738284345e-8,5.402741775166232e-9,0
40907,2.014890377770553e-8,1.2777418497876414e-9,4.935111042826636e-9,2.8231126850212186e-8,4.3509912111669603e-08,1.3729854254370526e-8,4.9797192358504935e-8,5.403792254965606e-9,0
40908,2.060556878165338e-8,1.2790029138891253e-9,4.9418678829397305e-9,2.801145978269012e-8,4.3471689508583513e-08,1.3655288584298231e-8,4.9938410978725526e-8,5.404842734764979e-9,0
40909,2.106223378560123e-8,1.2802639779906092e-9,4.948624723052824e-9,2.779179271516805e-8,4.3433466905497423e-8,1.3580722914225934e-8,5.007962959894611e-8,5.405893214564352e-9,0
40910,2.151889878954908e-8,1.281525042092093e-9,4.955381563165918e-9,2.7572125647645984e-8,4.3395244302411333e-8,1.3506157244153638e-8,5.02208482191667e-8,5.406943694363726e-9,0
40911,2.1975563793496932e-8,1.282786106193577e-9,4.962138403279012e-9,2.7352458580123915e-8,4.335702169932524e-8,1.343159157408134e-8,5.036206683938729e-8,5.407994174163099e-9,0
40912,2.243222879744478e-8,1.2840471702950608e-9,4.968895243392107e-9,2.713279151260185e-8,4.331879909623915e-8,1.3357025904009045e-8,5.050328545960788e-8,5.409044653962472e-9,0
40913,2.2486043445929817e-8,1.2919137697026412e-9,4.968847897330507e-9,2.6896787512072237e-8,4.3534929352933026e-8,1.3266895810200127e-8,5.051141690182913e-8,5.41292873177021e-9,0
40914,2.2539858094414855e-8,1.2997803691102213e-9,4.968800551268907e-9,2.6660783511542626e-8,4.37510596096269e-8,1.317676571639121e-8,5.051954834405038e-8,5.416812809577946e-9,0
40915,2.2593672742899893e-8,1.3076469685178016e-9,4.9687532052073075e-9,2.6424779511013017e-8,4.396718986632078e-8,1.3086635622582292e-8,5.052767978627163e-8,5.420696887385684e-9,0
40916,2.2648637553027146e-8,1.3102341162693092e-9,4.928726699666484e-9,2.56190647282026e-8,4.415223874665864e-8,1.3006206484808034e-8,5.051921864738688e-8,5.422416036513429e-9,0
40917,2.2701586957238678e-8,1.312963077105481e-9,4.915050443994624e-9,2.5620800559751414e-8,4.438644312788885e-8,1.2995355485934005e-8,5.05090921926968e-8,5.420198134268477e-9,0
40918,2.2754536361450206e-8,1.315692037941653e-9,4.9013741883227654e-9,2.5622536391300232e-8,4.462064750911906e-8,1.2984504487059975e-8,5.0498965738006724e-8,5.417980232023525e-9,0
40919,2.2807485765661734e-8,1.3184209987778251e-9,4.887697932650907e-9,2.5624272222849047e-8,4.4854851890349275e-8,1.2973653488185943e-8,5.048883928331664e-8,5.415762329778574e-9,0
40920,2.280547035974601e-8,1.313226634972551e-9,4.872782685196296e-9,2.56942937464862e-8,4.482756218506944e-8,1.300220814367097e-8,5.045800574220859e-8,5.425408555216671e-9,0
40921,2.28534013471712e-8,1.307063127549796e-9,4.8578674377416866e-9,2.570796043540235e-8,4.480130965679632e-8,1.2988589272901425e-8,5.055717770823785e-8,5.4203570549633546e-9,0
40922,2.2901332334596385e-8,1.3008996201270408e-9,4.842952190287077e-9,2.5721627124318497e-8,4.47750571285232e-8,1.2974970402131882e-8,5.065634967426712e-8,5.415305554710039e-9,0
40923,2.294926332202157e-8,1.2947361127042857e-9,4.8280369428324664e-09,2.5735293813234644e-8,4.474880460025007e-8,1.2961351531362338e-8,5.075552164029638e-8,5.4102540544567235e-9,0
40924,2.299719430944676e-8,1.2885726052815307e-9,4.813121695377857e-9,2.5748960502150792e-8,4.472255207197695e-8,1.2947732660592793e-8,5.0854693606325645e-8,5.405202554203407e-9,0
40925,2.3045125296871948e-8,1.2824090978587756e-9,4.798206447923247e-9,2.576262719106694e-8,4.469629954370382e-8,1.293411378982325e-8,5.095386557235491e-8,5.4001510539500916e-9,0
40926,2.3093056284297134e-8,1.2762455904360206e-9,4.7832912004686374e-9,2.5776293879983088e-8,4.46700470154307e-8,1.2920494919053707e-8,5.105303753838417e-8,5.395099553696776e-9,0
40927,2.309188572920802e-8,1.2722839281152975e-9,4.7673942288001464e-9,2.5782997633981155e-8,4.4656461668949224e-8,1.2991012788487187e-8,5.1201782031442254e-8,5.3911625023240795e-9,0
40928,2.3090715174118905e-8,1.2683222657945745e-9,4.7514972571316555e-9,2.578970138797922e-8,4.464287632246775e-8,1.3061530657920668e-8,5.135052652450034e-8,5.387225450951383e-9,0
40929,2.307880627964663e-8,1.2616316426376796e-9,4.709455201861131e-9,2.5717645634427603e-8,4.4611216851449944e-8,1.3147936516901999e-8,5.144169152868267e-8,5.36418785594623e-9,0
40930,2.307965113047324e-8,1.2628076188883648e-9,4.709213716312795e-9,2.5701724752122616e-8,4.454986448110645e-8,1.3069209792685773e-8,5.161715043360491e-8,5.354318740732009e-9,0
40931,2.308049598129985e-8,1.26398359513905e-9,4.708972230764458e-9,2.5685803869817627e-8,4.448851211076295e-8,1.2990483068469549e-8,5.1792609338527144e-8,5.344449625517787e-9,0
40932,2.3081340832126457e-8,1.2651595713897353e-9,4.708730745216121e-9,2.566988298751264e-8,4.442715974041946e-8,1.2911756344253323e-8,5.196806824344938e-8,5.334580510303567e-9,0
40933,2.3082185682953067e-8,1.2663355476404206e-9,4.708489259667784e-9,2.5653962105207653e-8,4.4365807370075964e-8,1.2833029620037096e-8,5.2143527148371616e-8,5.324711395089345e-9,0
40934,2.3083030533779678e-8,1.2675115238911058e-9,4.708247774119447e-9,2.5638041222902663e-8,4.430445499973247e-8,1.275430289582087e-8,5.231898605329385e-8,5.314842279875124e-9,0
40935,2.3107204912601005e-8,1.2667208502898962e-9,4.709019576826058e-9,2.5613460791576417e-8,4.423023709373585e-8,1.2588972474616314e-8,5.2334211479354475e-8,5.3089102160336e-9,0
40936,2.311150024835427e-8,1.26798191439138e-9,4.71273655217431e-9,2.5588860751527352e-8,4.41562175416007e-8,1.2500103816949379e-8,5.238716383800527e-8,5.2992000215142564e-9,0
40937,2.3115795584107535e-8,1.269242978492864e-9,4.716453527522563e-9,2.5564260711478284e-8,4.408219798946556e-8,1.2411235159282445e-8,5.244011619665606e-8,5.289489826994914e-9,0
40938,2.3120090919860797e-8,1.2705040425943479e-9,4.7201705028708155e-9,2.553966067142922e-8,4.400817843733041e-8,1.232236650161551e-8,5.2493068555306853e-8,5.27977963247557e-9,0
40939,2.3124386255614062e-8,1.2717651066958318e-9,4.7238874782190676e-9,2.5515060631380155e-8,4.393415888519527e-8,1.2233497843948577e-8,5.254602091395765e-8,5.270069437956227e-9,0
40940,2.3128681591367327e-8,1.2730261707973157e-9,4.7276044535673205e-9,2.5490460591331087e-8,4.386013933306012e-8,1.2144629186281643e-8,5.259897327260844e-8,5.2603592434368835e-9,0
40941,2.3132976927120592e-8,1.2742872348987996e-9,4.7313214289155725e-9,2.5465860551282023e-8,4.378611978092498e-8,1.2055760528614709e-8,5.265192563125924e-8,5.250649048917541e-9,0
40942,2.3137272262873854e-8,1.2755482990002835e-9,4.7350384042638254e-9,2.544126051123296e-8,4.371210022878983e-8,1.1966891870947775e-8,5.2704877989910026e-8,5.240938854398197e-9,0
40943,2.314156759862712e-8,1.2768093631017673e-9,4.738755379612078e-9,2.541666047118389e-8,4.363808067665469e-8,1.1878023213280841e-8,5.275783034856082e-8,5.231228659878854e-9,0
40944,2.3145862934380384e-8,1.2780704272032512e-9,4.74247235496033e-9,2.5392060431134826e-8,4.356406112451954e-8,1.1789154555613907e-8,5.2810782707211616e-8,5.2215184653595105e-9,0
40945,2.3150158270133646e-8,1.2793314913047351e-9,4.746189330308583e-9,2.5367460391085762e-8,4.34900415723844e-8,1.1700285897946973e-8,5.286373506586241e-8,5.211808270840168e-9,0
40946,2.315445360588691e-8,1.280592555406219e-9,4.749906305656835e-9,2.5342860351036694e-8,4.341602202024925e-8,1.161141724028004e-8,5.2916687424513206e-8,5.202098076320824e-9,0
40947,2.3158748941640176e-8,1.281853619507703e-9,4.753623281005088e-9,2.531826031098763e-8,4.334200246811411e-8,1.1522548582613105e-8,5.2969639783163994e-8,5.192387881801481e-9,0
40948,2.3163044277393438e-8,1.2831146836091868e-9,4.757340256353341e-9,2.5293660270938565e-8,4.326798291597896e-8,1.1433679924946171e-8,5.302259214181479e-8,5.182677687282138e-9,0
40949,2.3167339613146703e-8,1.2843757477106707e-9,4.761057231701593e-9,2.5269060230889497e-8,4.319396336384382e-8,1.1344811267279237e-8,5.3075544500465584e-8,5.172967492762795e-9,0
40950,2.3169355019062428e-8,1.2856368118121546e-9,4.763036462149888e-9,2.525650870054467e-8,4.315080986728058e-8,1.1266084543063011e-8,5.317963713354783e-8,5.161156338644705e-9,0
40951,2.318592574044427e-8,1.2848745008278776e-9,4.826761631768311e-9,2.5231908660495607e-8,4.307521471424922e-8,1.1105692193528772e-8,5.320635154541198e-8,5.149398158091575e-9,0
40952,2.3002395085479475e-8,1.2764890800008316e-9,4.828499376668269e-9,2.5177925671500346e-8,4.3070068499987974e-8,1.1071125691836535e-8,5.308398797524257e-8,5.1153350209429085e-9,0
40953,2.300024741760284e-8,1.2801588218375517e-9,4.830237121568226e-9,2.5171163091333826e-8,4.3056420778884534e-8,1.1071125691836535e-8,5.307813204214233e-8,5.1136158718151635e-9,0
40954,2.299809974972621e-8,1.2838285636742719e-9,4.831974866468184e-9,2.5164400511167302e-8,4.30427730577811e-8,1.1071125691836535e-8,5.307227610904209e-8,5.111896722687419e-9,0
40955,2.299595208184958e-8,1.2874983055109922e-9,4.833712611368142e-9,2.5157637931000782e-8,4.302912533667767e-8,1.1071125691836535e-8,5.306642017594185e-8,5.110177573559674e-9,0
40956,2.2993804413972944e-8,1.2911680473477124e-9,4.8354503562681e-9,2.5150875350834262e-8,4.3015477615574234e-8,1.1071125691836535e-8,5.306056424284161e-8,5.108458424431929e-9,0
40957,2.2991656746096314e-8,1.2948377891844325e-9,4.837188101168058e-9,2.514411277066774e-8,4.30018298944708e-8,1.1071125691836535e-8,5.305470830974137e-8,5.106739275304185e-9,0
40958,2.2989509078219683e-8,1.2985075310211527e-9,4.838925846068016e-9,2.5137350190501218e-8,4.298818217336736e-8,1.1071125691836535e-8,5.304885237664113e-8,5.10502012617644e-9,0
40959,2.298736141034305e-8,1.3021772728578728e-9,4.840663590967973e-9,2.5130587610334698e-8,4.297453445226393e-8,1.1071125691836535e-8,5.304299644354089e-8,5.103300977048695e-9,0
40960,2.2985213742466418e-8,1.305847014694593e-9,4.842401335867931e-9,2.5123825030168178e-8,4.2960886731160495e-8,1.1071125691836535e-8,5.303714051044065e-8,5.10158182792095e-9,0
40961,2.2983066074589787e-8,1.3095167565313131e-9,4.844139080767889e-9,2.5117062450001658e-8,4.294723901005706e-8,1.1071125691836535e-8,5.303128457734041e-8,5.099862678793205e-9,0
40962,2.2980918406713153e-8,1.3131864983680335e-9,4.845876825667847e-9,2.5110299869835134e-8,4.293359128895363e-8,1.1071125691836535e-8,5.302542864424017e-8,5.098143529665461e-9,0
40963,2.2978770738836522e-8,1.3168562402047536e-9,4.847614570567805e-9,2.5103537289668614e-8,4.291994356785019e-8,1.1071125691836535e-8,5.301957271113993e-8,5.096424380537716e-9,0
40964,2.297662307095989e-8,1.3205259820414738e-9,4.849352315467763e-9,2.5096774709502094e-8,4.2906295846746755e-8,1.1071125691836535e-8,5.301371677803969e-8,5.094705231409971e-9,0
40965,2.2974475403083257e-8,1.324195723878194e-9,4.85109006036772e-9,2.5090012129335574e-8,4.289264812564332e-8,1.1071125691836535e-8,5.300786084493945e-8,5.092986082282227e-9,0
40966,2.2972327735206626e-8,1.327865465714914e-9,4.852827805267678e-9,2.508324954916905e-8,4.287900040453989e-8,1.1071125691836535e-8,5.300200491183921e-8,5.0912669331544815e-9,0
40967,2.2970180067329995e-8,1.3315352075516342e-9,4.854565550167636e-9,2.507648696900253e-8,4.2865352683436455e-8,1.1071125691836535e-8,5.299614897873897e-8,5.0895477840267364e-9,0
40968,2.296803239945336e-8,1.3352049493883544e-9,4.856303295067594e-9,2.506972438883601e-8,4.2851704962333015e-8,1.1071125691836535e-8,5.299029304563873e-8,5.087828634898992e-9,0
40969,2.296588473157673e-8,1.3388746912250747e-9,4.858041039967552e-9,2.506296180866949e-8,4.283805724122958e-8,1.1071125691836535e-8,5.298443711253849e-8,5.086109485771247e-9,0
40970,2.29637370637001e-8,1.3425444330617949e-9,4.85977878486751e-9,2.5056199228502967e-8,4.282440952012615e-8,1.1071125691836535e-8,5.297858117943825e-8,5.084390336643502e-9,0
40971,2.2961589395823465e-8,1.346214174898515e-9,4.861516529767467e-9,2.5049436648336446e-8,4.2810761799022715e-8,1.1071125691836535e-8,5.297272524633801e-8,5.082671187515758e-9,0
40972,2.2960266185326544e-8,1.345950617031445e-9,4.879424295925319e-9,2.505628193091762e-8,4.2801903255229874e-8,1.1082125069215816e-8,5.297961863782012e-8,5.07878710970802e-9,0
40973,2.2992787105179487e-8,1.345950617031445e-9,4.88122516890741e-9,2.5051274791022733e-8,4.279593518474602e-8,1.1130302125478188e-8,5.2975780005228404e-8,5.075847564569737e-9,0
40974,2.2985824954985485e-8,1.343748771929413e-9,4.782645653926292e-9,2.49620414680117e-8,4.2853257859379563e-8,1.113152427852033e-8,5.297779730573693e-8,5.052809969564585e-9,0
40975,2.298812527826992e-8,1.334856303670486e-9,4.758800196423556e-9,2.4906762574416375e-8,4.2269569259153805e-8,1.102320009118262e-8,5.280006289169368e-8,5.054974898244577e-9,0
40976,2.2990425601554358e-8,1.3259638354115588e-9,4.73495473892082e-9,2.4851483680821052e-8,4.168588065892805e-8,1.0914875903844908e-8,5.2622328477650434e-8,5.057139826924569e-9,0
40977,2.2992725924838794e-8,1.3170713671526317e-9,4.711109281418085e-9,2.4796204787225732e-8,4.1102192058702296e-8,1.0806551716507198e-8,5.2444594063607185e-8,5.059304755604562e-9,0
40978,2.299502624812323e-8,1.3081788988937046e-9,4.687263823915349e-9,2.474092589363041e-8,4.051850345847654e-8,1.0698227529169488e-8,5.2266859649563943e-8,5.061469684284554e-9,0
40979,2.2997326571407667e-8,1.2992864306347776e-9,4.663418366412613e-9,2.4685647000035086e-8,3.993481485825078e-8,1.0589903341831776e-8,5.2089125235520695e-8,5.0636346129645465e-9,0
40980,2.2999626894692104e-8,1.2903939623758505e-9,4.639572908909877e-9,2.4630368106439763e-8,3.935112625802502e-8,1.0481579154494065e-8,5.1911390821477446e-8,5.06579954164454e-9,0
40981,2.300192721797654e-8,1.2815014941169236e-9,4.615727451407141e-9,2.457508921284444e-8,3.8767437657799265e-8,1.0373254967156354e-8,5.17336564074342e-8,5.067964470324532e-9,0
40982,2.3004227541260973e-8,1.2726090258579965e-9,4.591881993904405e-9,2.4519810319249116e-8,3.818374905757351e-8,1.0264930779818643e-8,5.1555921993390956e-8,5.0701293990045245e-9,0
40983,2.300652786454541e-8,1.2637165575990694e-9,4.5680365364016686e-9,2.4464531425653793e-8,3.7600060457347755e-8,1.0156606592480931e-8,5.137818757934771e-8,5.072294327684517e-9,0
40984,2.3008828187829846e-8,1.2548240893401423e-9,4.5441910788989325e-9,2.440925253205847e-8,3.7016371857122e-8,1.0048282405143221e-8,5.120045316530446e-8,5.074459256364509e-9,0
40985,2.3011128511114283e-8,1.2459316210812153e-9,4.5203456213961964e-9,2.435397363846315e-8,3.643268325689624e-8,9.93995821780551e-9,5.102271875126121e-8,5.076624185044502e-9,0
40986,2.3007983337003236e-8,1.2480483783324488e-9,4.5173057566313555e-9,2.438380078188148e-8,3.6449578488259314e-8,9.91071112929598e-9,5.103076104132368e-8,5.233857351110719e-9,0
40987,2.290785632112602e-8,1.2418931652243676e-9,4.469299201215219e-9,2.40541403126071e-8,3.585493453023611e-8,9.914925801041365e-9,5.0739191060114855e-8,5.377922037386005e-9,0
40988,2.2807729305248798e-8,1.2357379521162867e-9,4.421292645799083e-9,2.3724479843332722e-8,3.5260290572212915e-8,9.91914047278675e-9,5.044762107890603e-8,5.521986723661289e-9,0
40989,2.270760228937158e-8,1.2295827390082057e-9,4.3732860903829475e-9,2.3394819374058343e-8,3.466564661418971e-8,9.923355144532133e-9,5.01560510976972e-8,5.666051409936575e-9,0
40990,2.260747527349436e-8,1.2234275259001245e-9,4.325279534966812e-9,2.3065158904783964e-8,3.407100265616651e-8,9.927569816277518e-9,4.9864481116488365e-8,5.81011609621186e-9,0
40991,2.2507348257617143e-8,1.2172723127920435e-9,4.277272979550676e-9,2.2735498435509585e-8,3.3476358698143305e-8,9.931784488022901e-9,4.957291113527954e-8,5.954180782487145e-9,0
40992,2.2407221241739922e-8,1.2111170996839626e-9,4.2292664241345394e-9,2.2405837966235206e-8,3.28817147401201e-8,9.935999159768286e-9,4.928134115407071e-8,6.098245468762431e-9,0
40993,2.2307094225862705e-8,1.2049618865758814e-9,4.181259868718404e-9,2.2076177496960827e-8,3.22870707820969e-8,9.940213831513671e-9,4.898977117286188e-8,6.242310155037715e-9,0
40994,2.2294391759624987e-8,1.194930098997876e-9,4.1322715890883875e-9,2.1797424795563817e-8,3.241262083225203e-8,9.93080963248951e-9,4.869332510067946e-8,6.217330521128694e-9,0
40995,2.2350883123830283e-8,2.5471479965532414e-9,4.085551371516602e-9,2.1438675508185506e-8,3.2112490711868784e-8,9.979283445762383e-9,4.842635003849164e-8,6.207876202934335e-9,0
40996,2.240737448803558e-8,3.899365894108607e-9,4.038831153944817e-9,2.10799262208072e-8,3.1812360591485545e-8,1.0027757259035258e-8,4.815937497630382e-8,6.198421884739975e-9,0
40997,2.2463865852240875e-8,5.2515837916639726e-9,3.992110936373031e-9,2.0721176933428892e-8,3.1512230471102307e-8,1.007623107230813e-8,4.7892399914116e-8,6.188967566545616e-9,0
40998,2.252035721644617e-8,6.603801689219338e-9,3.945390718801246e-9,2.0362427646050585e-8,3.121210035071907e-8,1.0124704885581003e-8,4.7625424851928176e-8,6.179513248351257e-9,0
40999,2.2576848580651467e-8,7.956019586774704e-9,3.89867050122946e-9,2.0003678358672278e-8,3.091197023033583e-8,1.0173178698853877e-8,4.735844978974036e-8,6.170058930156898e-9,0
41000,2.2633339944856763e-8,9.308237484330068e-9,3.851950283657675e-9,1.964492907129397e-8,3.061184010995259e-8,1.022165251212675e-8,4.709147472755254e-8,6.160604611962538e-9,0
41001,2.2689831309062056e-8,1.0660455381885435e-8,3.805230066085889e-9,1.9286179783915664e-8,3.031170998956935e-8,1.0270126325399622e-8,4.6824499665364715e-8,6.151150293768179e-9,0
41002,2.274632267326735e-8,1.20126732794408e-8,3.758509848514104e-9,1.8927430496537357e-8,3.0011579869186114e-8,1.0318600138672495e-8,4.65575246031769e-8,6.14169597557382e-9,0
41003,2.2802814037472648e-8,1.3364891176996166e-8,3.7117896309423182e-9,1.856868120915905e-8,2.9711449748802872e-8,1.0367073951945369e-8,4.629054954098908e-8,6.13224165737946e-9,0
41004,2.2859305401677944e-8,1.471710907455153e-8,3.665069413370533e-9,1.8209931921780743e-8,2.9411319628419633e-8,1.0415547765218242e-8,4.602357447880126e-8,6.122787339185101e-9,0
41005,2.291579676588324e-8,1.6069326972106896e-8,3.6183491957987474e-9,1.7851182634402436e-8,2.9111189508036395e-8,1.0464021578491114e-8,4.575659941661344e-8,6.113333020990742e-9,0
41006,2.2972288130088536e-8,1.7421544869662262e-8,3.571628978226962e-9,1.749243334702413e-8,2.8811059387653156e-8,1.0512495391763988e-8,4.5489624354425616e-8,6.103878702796382e-9,0
41007,2.3028779494293832e-8,1.8773762767217628e-8,3.5249087606551765e-9,1.7133684059645822e-8,2.8510929267269914e-8,1.0560969205036861e-8,4.52226492922378e-8,6.094424384602023e-9,0
41008,2.3323451702383898e-8,1.8810123313854546e-8,3.4798789419217494e-9,1.677421605567593e-8,2.8640803431605206e-8,1.0867508692211859e-8,4.4940208259484637e-8,6.075323840969567e-9,0
41009,2.3618123910473968e-8,1.8846483860491464e-8,3.4348491231883224e-9,1.641474805170604e-8,2.87706775959405e-8,1.1174048179386856e-8,4.465776722673147e-8,6.05622329733711e-9,0
41010,2.401390024722877e-8,1.8888999620236462e-8,3.4348491231883224e-9,1.641097799024276e-8,2.946756594299113e-8,1.148395736867778e-8,4.4610105183944624e-8,6.05622329733711e-9,0
41011,2.4034613648956068e-8,1.888283611281371e-8,3.461152026995688e-9,1.6419099568701178e-8,2.943993616768327e-8,1.2309033226641471e-8,4.456775574506142e-8,6.062155361178635e-9,0
41012,2.405532705068337e-8,1.8876672605390954e-8,3.4874549308030532e-9,1.6427221147159596e-8,2.941230639237541e-8,1.3134109084605163e-8,4.452540630617822e-8,6.0680874250201595e-9,0
41013,2.407604045241067e-8,1.8870509097968198e-8,3.513757834610419e-9,1.643534272561801e-8,2.9384676617067553e-8,1.3959184942568854e-8,4.4483056867295014e-8,6.074019488861684e-9,0
41014,2.4096753854137967e-8,1.8864345590545442e-8,3.5400607384177845e-9,1.644346430407643e-8,2.935704684175969e-8,1.4784260800532544e-8,4.444070742841181e-8,6.079951552703209e-9,0
41015,2.4117467255865267e-8,1.8858182083122686e-8,3.56636364222515e-9,1.645158588253485e-8,2.9329417066451834e-8,1.5609336658496237e-8,4.439835798952861e-8,6.085883616544733e-9,0
41016,2.4138180657592568e-8,1.8852018575699933e-8,3.5926665460325154e-9,1.6459707460993263e-8,2.9301787291143973e-8,1.643441251645993e-8,4.4356008550645405e-8,6.091815680386257e-9,0
41017,2.4158894059319865e-8,1.8845855068277177e-8,3.618969449839881e-9,1.6467829039451682e-8,2.927415751583611e-8,1.7259488374423618e-8,4.43136591117622e-8,6.0977477442277816e-9,0
41018,2.4179607461047166e-8,1.883969156085442e-8,3.6452723536472466e-9,1.64759506179101e-8,2.9246527740528254e-8,1.808456423238731e-8,4.4271309672879e-8,6.103679808069307e-9,0
41019,2.4200320862774467e-8,1.8833528053431666e-8,3.671575257454612e-9,1.648407219636852e-8,2.9218897965220393e-8,1.8909640090351002e-8,4.4228960233995795e-8,6.109611871910831e-9,0
41020,2.4221034264501767e-8,1.8827364546008913e-8,3.697878161261978e-9,1.6492193774826934e-8,2.9191268189912535e-8,1.973471594831469e-8,4.418661079511259e-8,6.115543935752355e-9,0
41021,2.4241747666229065e-8,1.8821201038586157e-8,3.7241810650693433e-9,1.6500315353285352e-8,2.9163638414604674e-8,2.0559791806278384e-8,4.414426135622939e-8,6.12147599959388e-9,0
41022,2.4262461067956365e-8,1.88150375311634e-8,3.750483968876709e-9,1.650843693174377e-8,2.9136008639296816e-8,2.1384867664242076e-8,4.4101911917346186e-8,6.1274080634354044e-9,0
41023,2.4283174469683666e-8,1.8808874023740645e-8,3.776786872684075e-9,1.6516558510202186e-8,2.9108378863988955e-8,2.2209943522205765e-8,4.405956247846298e-8,6.133340127276929e-9,0
41024,2.4303887871410963e-8,1.8802710516317893e-8,3.80308977649144e-9,1.6524680088660604e-8,2.9080749088681097e-8,2.3035019380169457e-8,4.401721303957978e-8,6.139272191118454e-9,0
41025,2.4324601273138264e-8,1.8796547008895137e-8,3.8293926802988054e-9,1.6532801667119023e-8,2.9053119313373236e-8,2.386009523813315e-8,4.3974863600696577e-8,6.145204254959978e-9,0
41026,2.4345314674865565e-8,1.879038350147238e-8,3.855695584106171e-9,1.6540923245577438e-8,2.902548953806538e-8,2.4685171096096838e-8,4.3932514161813373e-8,6.151136318801502e-9,0
41027,2.4366028076592862e-8,1.8784219994049625e-8,3.881998487913536e-9,1.6549044824035856e-8,2.8997859762757517e-8,2.551024695406053e-8,4.389016472293017e-8,6.157068382643027e-9,0
41028,2.4386741478320163e-8,1.8778056486626873e-8,3.9083013917209026e-9,1.6557166402494275e-8,2.8970229987449656e-8,2.6335322812024223e-8,4.384781528404697e-8,6.1630004464845515e-9,0
41029,2.4407454880047463e-8,1.8771892979204117e-8,3.934604295528268e-9,1.656528798095269e-8,2.89426002121418e-8,2.716039866998791e-8,4.3805465845163764e-8,6.168932510326076e-9,0
41030,2.4428168281774764e-8,1.8771892979204117e-8,3.9559354501840966e-9,1.65774388017944e-8,2.8907948222420747e-8,2.799175632236859e-8,4.3795312478502064e-8,6.180022021550835e-9,0
41031,2.4421664097804175e-8,1.879170129080773e-8,3.9626922902971904e-9,1.683248665823929e-8,2.8909982905661868e-8,2.7991360646354588e-8,4.368902886452566e-8,6.183683209582448e-9,0
41032,2.4415159913833587e-8,1.8811509602411346e-8,3.969449130410285e-9,1.708753451468418e-8,2.891201758890299e-8,2.7990964970340587e-8,4.358274525054925e-8,6.187344397614062e-9,0
41033,2.4469259479687333e-8,1.8812215188161757e-8,3.969401784348685e-9,1.7093719906842222e-8,2.909850584703907e-8,2.823095998062094e-8,4.34722356910624e-8,6.1871215078379376e-9,0
41034,2.452335904554108e-8,1.881292077391217e-8,3.969354438287086e-9,1.7099905299000265e-8,2.9284994105175153e-8,2.8470954990901294e-8,4.3361726131575544e-8,6.186898618061814e-9,0
41035,2.457745861139483e-8,1.881362635966258e-8,3.969307092225486e-9,1.7106090691158308e-8,2.9471482363311232e-8,2.871095000118165e-8,4.325121657208869e-8,6.18667572828569e-9,0
41036,2.4631558177248576e-8,1.881433194541299e-8,3.969259746163886e-9,1.711227608331635e-8,2.965797062144731e-8,2.8950945011462e-8,4.3140707012601843e-8,6.186452838509567e-9,0
41037,2.4685657743102326e-8,1.88150375311634e-8,3.969212400102287e-9,1.7118461475474394e-8,2.984445887958339e-8,2.9190940021742357e-8,4.303019745311499e-8,6.186229948733442e-9,0
41038,2.4659702187560664e-8,1.8815743116913812e-8,3.971191630550582e-9,1.7112358785731005e-8,3.0034098339511896e-8,2.941088598833093e-8,4.286817417807373e-8,6.177093471928839e-9,0
41039,2.4633746632019003e-8,1.8816448702664223e-8,3.973170860998876e-9,1.7106256095987613e-8,3.0223737799440395e-8,2.9630831954919505e-8,4.270615090303247e-8,6.167956995124236e-9,0
41040,2.460779107647734e-8,1.8817154288414634e-8,3.975150091447171e-9,1.7100153406244225e-8,3.04133772593689e-8,2.985077792150808e-8,4.254412762799122e-8,6.158820518319632e-9,0
41041,2.4581835520935683e-8,1.8817859874165045e-8,3.9771293218954655e-9,1.7094050716500832e-8,3.0603016719297406e-8,3.0070723888096654e-8,4.238210435294996e-8,6.1496840415150285e-9,0
41042,2.4555879965394022e-8,1.8818565459915456e-8,3.97910855234376e-9,1.708794802675744e-8,3.0792656179225904e-8,3.029066985468523e-8,4.222008107790871e-8,6.140547564710424e-9,0
41043,2.452992440985236e-8,1.8819271045665867e-8,3.981087782792055e-9,1.7081845337014052e-8,3.098229563915441e-8,3.05106158212738e-8,4.2058057802867445e-8,6.131411087905821e-9,0
41044,2.4503968854310703e-8,1.881997663141628e-8,3.98306701324035e-9,1.707574264727066e-8,3.117193509908291e-8,3.073056178786238e-8,4.189603452782619e-8,6.122274611101218e-9,0
41045,2.445166095734466e-8,1.8910007456065932e-8,3.970372481782372e-9,1.6836047020169043e-8,3.12530901410211e-8,3.109346639558397e-8,4.1894364588088935e-8,6.031872358724262e-9,0
41046,2.446408899838104e-8,1.9000066643332518e-8,3.9802686340238456e-9,1.6764403049796597e-8,3.1311682280368085e-8,3.1506403009730923e-8,4.1787996445885676e-8,6.038526065459117e-9,0
41047,2.447651703941742e-8,1.9090125830599103e-8,3.9901647862653195e-9,1.669275907942415e-8,3.137027441971507e-8,3.191933962387787e-8,4.168162830368242e-8,6.045179772193973e-9,0
41048,2.44889450804538e-8,1.9180185017865688e-8,4.0000609385067926e-9,1.6621115109051707e-8,3.142886655906206e-8,3.233227623802482e-8,4.157526016147916e-8,6.051833478928828e-9,0
41049,2.450137312149018e-8,1.9270244205132277e-8,4.0099570907482665e-9,1.654947113867926e-8,3.148745869840905e-8,3.274521285217177e-8,4.14688920192759e-8,6.058487185663683e-9,0
41050,2.4513801162526557e-8,1.9360303392398862e-8,4.01985324298974e-9,1.6477827168306815e-8,3.154605083775604e-8,3.315814946631872e-8,4.136252387707264e-8,6.065140892398539e-9,0
41051,2.4513475458264053e-8,1.9415965203207514e-8,4.033608408764265e-9,1.65376187162032e-8,3.148829752155428e-8,3.3230167753203525e-8,4.125528733294122e-8,6.06319885349467e-9,0
41052,2.451744508975481e-8,1.9496783276497302e-8,4.031581832254371e-9,1.6467930540853946e-8,3.142497857951866e-8,3.348729555677489e-8,4.114722696296101e-8,6.062084404614051e-9,0
41053,2.452141472124557e-8,1.9577601349787093e-8,4.0295552557444766e-9,1.6398242365504693e-8,3.136165963748304e-8,3.3744423360346265e-8,4.10391665929808e-8,6.060969955733431e-9,0
41054,2.452538435273633e-8,1.9658419423076884e-8,4.027528679234582e-9,1.632855419015544e-8,3.129834069544742e-8,3.400155116391763e-8,4.093110622300059e-8,6.059855506852812e-9,0
41055,2.4529353984227086e-8,1.9739237496366672e-8,4.0255021027246875e-9,1.625886601480619e-8,3.1235021753411797e-08,3.4258678967489006e-8,4.0823045853020384e-8,6.058741057972193e-9,0
41056,2.4533323615717847e-8,1.9820055569656463e-8,4.023475526214794e-9,1.6189177839456936e-8,3.1171702811376176e-8,3.451580677106037e-8,4.0714985483040175e-8,6.057626609091574e-9,0
41057,2.4537293247208605e-8,1.9900873642946255e-8,4.021448949704899e-9,1.6119489664107683e-8,3.1108383869340555e-8,3.4772934574631746e-8,4.0606925113059966e-8,6.056512160210954e-9,0
41058,2.4541262878699362e-8,1.9981691716236043e-8,4.019422373195005e-9,1.604980148875843e-8,3.1045064927304934e-8,3.503006237820311e-8,4.049886474307976e-8,6.055397711330335e-9,0
41059,2.454523251019012e-8,2.0062509789525834e-8,4.01739579668511e-9,1.5980113313409176e-8,3.0981745985269314e-8,3.5287190181774486e-8,4.039080437309955e-8,6.054283262449716e-9,0
41060,2.454920214168088e-8,2.014332786281562e-8,4.0153692201752165e-9,1.5910425138059923e-8,3.091842704323369e-8,3.554431798534585e-8,4.028274400311934e-8,6.053168813569097e-9,0
41061,2.4553171773171638e-8,2.0224145936105413e-8,4.013342643665322e-9,1.584073696271067e-8,3.085510810119807e-8,3.5801445788917226e-8,4.017468363313913e-8,6.052054364688478e-9,0
41062,2.4557141404662395e-8,2.0304964009395204e-8,4.0113160671554274e-9,1.5771048787361417e-8,3.079178915916245e-8,3.605857359248859e-8,4.006662326315892e-8,6.050939915807858e-9,0
41063,2.4561111036153156e-8,2.0385782082684992e-8,4.009289490645533e-9,1.5701360612012163e-8,3.072847021712683e-8,3.6315701396059967e-8,3.995856289317871e-8,6.049825466927239e-9,0
41064,2.4565080667643913e-8,2.0466600155974783e-8,4.007262914135639e-9,1.563167243666291e-8,3.066515127509121e-8,3.6572829199631333e-8,3.9850502523198504e-8,6.04871101804662e-9,0
41065,2.456905029913467e-8,2.0547418229264574e-8,4.005236337625745e-9,1.5561984261313657e-8,3.060183233305558e-8,3.682995700320271e-8,3.9742442153218296e-8,6.047596569166001e-9,0
41066,2.457301993062543e-8,2.0628236302554362e-8,4.00320976111585e-9,1.5492296085964403e-8,3.053851339101996e-8,3.7087084806774074e-8,3.963438178323809e-8,6.046482120285381e-9,0
41067,2.457698956211619e-8,2.0709054375844153e-8,4.001183184605956e-9,1.542260791061515e-8,3.047519444898434e-8,3.734421261034545e-8,3.952632141325788e-8,6.045367671404762e-9,0
41068,2.4580959193606946e-8,2.0789872449133945e-8,3.999156608096062e-9,1.53529197352659e-8,3.041187550694872e-8,3.7601340413916814e-8,3.9418261043277676e-8,6.044253222524143e-9,0
41069,2.458508148050551e-8,2.08706621598068e-8,3.999156608096062e-9,1.5352860909097444e-8,3.041391019018985e-8,3.785916065051269e-8,3.936134094772892e-8,6.036485066908668e-9,0
41070,2.4585692102136725e-8,2.0947668678175205e-8,3.963393177082296e-9,1.532479347347413e-8,3.041905640445109e-8,3.816162137014844e-8,3.927307931009105e-8,6.036591014038587e-9,0
41071,2.458630272376794e-8,2.1024675196543613e-8,3.927629746068531e-9,1.5296726037850815e-8,3.0424202618712344e-8,3.846408208978419e-8,3.9184817672453185e-8,6.036696961168506e-9,0
41072,2.4586913345399157e-8,2.1101681714912017e-8,3.891866315054766e-9,1.5268658602227498e-8,3.0429348832973596e-8,3.876654280941994e-8,3.909655603481532e-8,6.036802908298424e-9,0
41073,2.4587523967030376e-8,2.117868823328042e-8,3.8561028840410014e-9,1.5240591166604184e-8,3.043449504723485e-8,3.906900352905569e-8,3.9008294397177444e-8,6.036908855428343e-9,0
41074,2.461485342124227e-8,2.117857478281269e-8,3.855913499794603e-9,1.533122270535275e-8,3.1474440460452254e-8,3.913760265432282e-8,3.896086827496339e-8,6.116285565661786e-9,0
41075,2.4622853864564482e-8,2.121685702805522e-8,3.82386704412909e-9,1.532122803428579e-8,3.147581770748699e-8,3.916361408472006e-8,3.888080494366586e-8,6.1509334160414775e-9,0
41076,2.463085430788669e-8,2.1255139273297757e-8,3.791820588463578e-9,1.5311233363218834e-8,3.1477194954521726e-8,3.91896255151173e-8,3.880074161236833e-8,6.18558126642117e-9,0
41077,2.46388547512089e-8,2.129342151854029e-8,3.7597741327980655e-9,1.5301238692151877e-8,3.147857220155646e-8,3.9215636945514545e-8,3.87206782810708e-8,6.220229116800863e-9,0
41078,2.4646855194531108e-8,2.133170376378282e-8,3.7277276771325535e-9,1.529124402108492e-8,3.14799494485912e-8,3.924164837591178e-8,3.8640614949773264e-8,6.254876967180555e-9,0
41079,2.465485563785332e-8,2.1369986009025352e-8,3.695681221467041e-9,1.5281249350017962e-8,3.1481326695625934e-8,3.9267659806309024e-8,3.8560551618475734e-8,6.289524817560247e-9,0
41080,2.4662856081175526e-8,2.1408268254267884e-8,3.6636347658015286e-9,1.5271254678951005e-8,3.148270394266067e-8,3.929367123670627e-8,3.8480488287178204e-8,6.32417266793994e-9,0
41081,2.4670856524497737e-8,2.1446550499510416e-8,3.631588310136016e-9,1.5261260007884047e-8,3.1484081189695406e-8,3.9319682667103504e-8,3.840042495588067e-8,6.358820518319632e-9,0
41082,2.4678856967819944e-8,2.1484832744752947e-8,3.5995418544705038e-9,1.525126533681709e-8,3.148545843673014e-8,3.934569409750075e-8,3.832036162458314e-8,6.3934683686993245e-9,0
41083,2.4686857411142155e-8,2.152311498999548e-8,3.5674953988049913e-9,1.5241270665750133e-8,3.148683568376488e-8,3.937170552789799e-8,3.824029829328561e-8,6.428116219079016e-9,0
41084,2.4694857854464362e-8,2.156139723523801e-8,3.535448943139479e-9,1.5231275994683175e-8,3.1488212930799614e-8,3.9397716958295227e-8,3.816023496198807e-8,6.462764069458709e-9,0
41085,2.4702858297786573e-8,2.1599679480480543e-8,3.5034024874739664e-9,1.5221281323616218e-8,3.148959017783435e-8,3.942372838869247e-8,3.808017163069054e-8,6.497411919838402e-9,0
41086,2.471085874110878e-8,2.1637961725723075e-8,3.471356031808454e-9,1.5211286652549257e-8,3.1490967424869086e-8,3.944973981908971e-8,3.800010829939301e-8,6.5320597702180935e-9,0
41087,2.471885918443099e-8,2.167624397096561e-8,3.4393095761429416e-9,1.52012919814823e-8,3.149234467190382e-8,3.947575124948695e-8,3.792004496809548e-8,6.566707620597786e-9,0
41088,2.468986042201277e-8,2.1676977919332952e-8,3.4183145991586487e-9,1.51074044755871e-8,3.137629961561081e-8,3.9407444723130615e-8,3.7911303332558544e-8,6.55540621511319e-9,0
41089,2.4143419856967665e-8,2.1704165851214524e-8,3.4443807726580162e-9,1.5075445058640217e-8,3.06935629919909e-8,3.9423530550685466e-8,3.6988836738434564e-8,6.520758364733498e-9,0
41090,2.3596979291922556e-8,2.17313537830961e-8,3.4704469461573838e-9,1.5043485641693334e-8,3.001082636837098e-8,3.943961637824032e-8,3.6066370144310584e-8,6.486110514353805e-9,0
41091,2.305053872687745e-8,2.175854171497767e-8,3.4965131196567513e-9,1.5011526224746455e-8,2.932808974475107e-8,3.945570220579517e-8,3.5143903550186604e-8,6.4514626639741126e-9,0
41092,2.2504098161832344e-8,2.1785729646859243e-8,3.522579293156119e-9,1.4979566807799572e-8,2.8645353121131157e-8,3.947178803335002e-8,3.4221436956062624e-8,6.416814813594421e-9,0
41093,2.1957657596787238e-8,2.1812917578740818e-8,3.5486454666554867e-9,1.494760739085269e-8,2.796261649751124e-8,3.948787386090487e-8,3.3298970361938644e-8,6.382166963214728e-9,0
41094,2.141121703174213e-8,2.184010551062239e-8,3.5747116401548542e-9,1.4915647973905806e-8,2.7279879873891328e-8,3.950395968845973e-8,3.2376503767814664e-8,6.347519112835036e-9,0
41095,2.0864776466697022e-8,2.1867293442503962e-8,3.6007778136542217e-9,1.4883688556958924e-8,2.6597143250271415e-8,3.952004551601458e-8,3.1454037173690684e-8,6.3128712624553435e-9,0
41096,2.0318335901651916e-8,2.1894481374385537e-8,3.6268439871535897e-9,1.485172914001204e-8,2.59144066266515e-8,3.953613134356943e-8,3.0531570579566704e-8,6.278223412075651e-9,0
41097,1.977189533660681e-8,2.192166930626711e-8,3.652910160652957e-9,1.4819769723065158e-8,2.523167000303159e-8,3.955221717112428e-8,2.9609103985442727e-8,6.243575561695959e-9,0
41098,1.9225454771561704e-8,2.194885723814868e-8,3.6789763341523247e-9,1.4787810306118277e-8,2.4548933379411675e-8,3.956830299867913e-8,2.8686637391318747e-8,6.208927711316266e-9,0
41099,1.8678169355689987e-8,2.2003578267956786e-8,3.6749547451736024e-9,1.4710865065008675e-8,2.3528348278508194e-8,3.956545885848114e-8,2.776701192355207e-8,6.203218537250866e-9,0
41100,1.8140319462151408e-8,2.2007004520228695e-8,3.67119042376375e-9,1.4638926963793963e-8,2.2985500796198484e-8,3.956388633082704e-8,2.6847386455785394e-8,6.1737281342544075e-9,0
41101,1.760246956861283e-8,2.2010430772500604e-8,3.667426102353898e-9,1.4566988862579251e-8,2.2442653313888778e-8,3.9562313803172944e-8,2.5927760988018718e-8,6.14423773125795e-9,0
41102,1.760988968503024e-8,2.2022514297781303e-8,3.667683369922768e-9,1.4575785672660235e-8,2.292443759511513e-8,3.95394474280839e-8,2.580908465809508e-8,6.134167717300178e-9,0
