time,channel1,channel2,channel3,channel4,channel5,channel6,channel7,channel8,class
51194,1.9317939024980052e-8,9.568321853598792e-9,6.570459934097733e-8,1.7489304868210175e-7,2.122669945033087e-7,2.905395666442224e-8,8.02002233720503e-9,2.224030604516883e-9,0
51195,1.9360934729863643e-8,9.54615747194697e-9,6.616057370589046e-8,1.7484391684705734e-7,2.121429382103171e-7,2.9038463110037412e-8,8.042511875307475e-9,2.227016896157553e-9,0
51196,1.9403930434747234e-8,9.523993090295149e-9,6.66165480708036e-8,1.747947850120129e-7,2.1201888191732552e-7,2.9022969555652582e-8,8.06500141340992e-9,2.2300031877982234e-9,0
51197,1.944692613963083e-8,9.501828708643327e-9,6.707252243571672e-8,1.7474565317696848e-7,2.118948256243339e-7,2.9007476001267753e-8,8.087490951512364e-9,2.2329894794388935e-9,0
51198,1.948992184451442e-8,9.479664326991506e-9,6.752849680062986e-8,1.7469652134192407e-7,2.117707693313423e-7,2.8991982446882923e-8,8.109980489614809e-9,2.2359757710795637e-9,0
51199,1.953291754939801e-8,9.457499945339682e-9,6.798447116554299e-8,1.7464738950687965e-7,2.1164671303835072e-7,2.8976488892498093e-8,8.132470027717253e-9,2.238962062720234e-9,0
51200,1.9575913254281602e-8,9.43533556368786e-9,6.844044553045613e-8,1.7459825767183524e-7,2.115226567453591e-7,2.8960995338113264e-8,8.154959565819697e-9,2.241948354360904e-9,0
51201,1.9618908959165193e-8,9.413171182036039e-9,6.889641989536925e-8,1.745491258367908e-7,2.1139860045236753e-7,2.8945501783728434e-8,8.177449103922142e-9,2.244934646001574e-9,0
51202,1.9661904664048784e-8,9.391006800384217e-9,6.935239426028238e-8,1.7449999400174638e-7,2.1127454415937592e-7,2.8930008229343605e-8,8.199938642024586e-9,2.247920937642244e-9,0
51203,1.9704900368932375e-8,9.368842418732395e-9,6.980836862519552e-8,1.7445086216670197e-7,2.1115048786638432e-7,2.8914514674958775e-8,8.22242818012703e-9,2.250907229282914e-9,0
51204,1.9747896073815966e-8,9.346678037080574e-9,7.026434299010864e-8,1.7440173033165755e-7,2.1102643157339273e-7,2.8899021120573945e-8,8.244917718229475e-9,2.2538935209235843e-9,0
51205,1.9796765559254757e-8,9.342083571935951e-9,7.035325890521787e-8,1.7272929201979345e-7,2.1100315489133772e-7,2.895016770441607e-8,8.268732496328966e-9,2.2526388543023523e-9,0
51206,1.9815932371363697e-8,9.32322179940605e-9,7.073004293702294e-8,1.7271865536664585e-7,2.080775800772458e-7,2.8975169775779243e-8,8.287357381020198e-9,2.2432895685031856e-9,0
51207,1.9835099183472634e-8,9.304360026876148e-9,7.110682696882801e-8,1.7270801871349826e-7,2.051520052631539e-7,2.900017184714242e-8,8.305982265711432e-9,2.2339402827040194e-9,0
51208,1.985426599558157e-8,9.285498254346246e-9,7.148361100063308e-8,1.7269738206035066e-7,2.0222643044906198e-7,2.9025173918505593e-8,8.324607150402666e-9,2.2245909969048527e-9,0
51209,1.987343280769051e-8,9.266636481816346e-9,7.186039503243815e-8,1.7268674540720306e-7,1.993008556349701e-7,2.9050175989868767e-8,8.3432320350939e-9,2.215241711105686e-9,0
51210,1.9892599619799448e-8,9.247774709286445e-9,7.223717906424321e-8,1.7267610875405546e-7,1.9637528082087818e-7,2.9075178061231943e-8,8.361856919785134e-9,2.2058924253065197e-9,0
51211,1.9911766431908388e-8,9.228912936756543e-9,7.261396309604828e-8,1.7266547210090787e-7,1.9344970600678626e-7,2.9100180132595117e-8,8.380481804476368e-9,2.196543139507353e-9,0
51212,1.98827562598287e-8,9.216557666231323e-9,7.257630192539856e-8,1.726318472084328e-7,1.908781783336337e-7,2.9132679604592104e-8,8.410047914864544e-9,2.1817106829501955e-9,0
51213,1.9883164201616737e-8,9.204202395706103e-9,7.24735375420516e-8,1.726212105552852e-7,1.8871550150451625e-7,3.014144687625826e-8,8.439990139832055e-9,2.1798520345029916e-9,0
51214,1.9883572143404773e-8,9.191847125180883e-9,7.237077315870464e-8,1.726105739021376e-7,1.8655282467539878e-7,3.115021414792442e-8,8.469932364799566e-9,2.1779933860557876e-9,0
51215,1.988398008519281e-8,9.179491854655663e-9,7.226800877535767e-8,1.7259993724899e-7,1.843901478462813e-7,3.215898141959057e-8,8.499874589767077e-9,2.1761347376085832e-9,0
51216,1.9884388026980844e-8,9.167136584130443e-9,7.216524439201071e-8,1.725893005958424e-7,1.8222747101716382e-7,3.316774869125673e-8,8.529816814734589e-9,2.1742760891613793e-9,0
51217,1.988479596876888e-8,9.154781313605223e-9,7.206248000866374e-8,1.725786639426948e-7,1.8006479418804636e-7,3.4176515962922887e-08,8.5597590397021e-9,2.1724174407141753e-9,0
51218,1.985934291969634e-8,9.137612333440667e-9,7.205293737257172e-8,1.7260649455344682e-7,1.788664321130715e-7,3.517978084642406e-8,8.58678573667611e-9,2.1480993343362274e-9,0
51219,1.98338898706238e-8,9.120443353276108e-9,7.20433947364797e-8,1.7263432516419887e-7,1.7766807003809662e-7,3.618304572992523e-8,8.613812433650121e-9,2.1237812279582798e-09,0
51220,1.980843682155126e-8,9.103274373111552e-9,7.203385210038767e-8,1.726621557749509e-7,1.7646970796312174e-7,3.71863106134264e-8,8.640839130624132e-9,2.099463121580332e-9,0
51221,1.978298377247872e-8,9.086105392946995e-9,7.202430946429565e-8,1.726899863857029e-7,1.7527134588814688e-7,3.8189575496927575e-8,8.667865827598142e-9,2.0751450152023843e-9,0
51222,1.9757530723406182e-8,9.068936412782438e-9,7.201476682820364e-8,1.7271781699645495e-7,1.74072983813172e-7,3.919284038042875e-8,8.694892524572154e-9,2.0508269088244363e-9,0
51223,1.9732077674333642e-8,9.051767432617881e-9,7.200522419211162e-8,1.7274564760720697e-7,1.7287462173819715e-7,4.019610526392992e-8,8.721919221546165e-9,2.0265088024464887e-9,0
51224,1.9706624625261102e-8,9.034598452453323e-9,7.19956815560196e-8,1.72773478217959e-7,1.7167625966322227e-7,4.1199370147431097e-8,8.748945918520176e-9,2.0021906960685407e-9,0
51225,1.9653093059156596e-8,9.012593051168438e-9,7.219170475494121e-8,1.7365844863162796e-7,1.697615890583998e-7,4.1499024614647944e-8,8.74207170847063e-9,1.9647748716841596e-9,0
51226,1.9599561493052088e-8,8.990587649883554e-9,7.238772795386282e-8,1.745434190452969e-7,1.678469184535773e-7,4.17986790818648e-8,8.735197498421086e-9,1.927359047299778e-9,0
51227,1.9597945656801692e-8,8.984844568452775e-9,7.206873556004678e-8,1.753765284407754e-7,1.6788368182018333e-7,4.2027028424226445e-8,8.688297667468537e-9,1.8958043504254e-9,0
51228,1.9596329820551297e-8,8.979101487021996e-9,7.174974316623073e-8,1.762096378362539e-7,1.6792044518678936e-7,4.22553777665881e-8,8.641397836515988e-9,1.8642496535510226e-9,0
51229,1.9594713984300902e-8,8.973358405591219e-9,7.143075077241468e-8,1.770427472317324e-7,1.6795720855339538e-7,4.248372710894975e-8,8.59449800556344e-9,1.8326949566766447e-9,0
51230,1.9593098148050507e-8,8.96761532416044e-9,7.111175837859865e-8,1.7787585662721088e-7,1.679939719200014e-7,4.27120764513114e-8,8.547598174610891e-9,1.8011402598022668e-9,0
51231,1.9591482311800112e-8,8.961872242729662e-9,7.07927659847826e-8,1.787089660226894e-7,1.6803073528660744e-7,4.2940425793673054e-8,8.500698343658342e-9,1.7695855629278889e-9,0
51232,1.9589866475549717e-8,8.956129161298883e-9,7.047377359096656e-8,1.7954207541816787e-7,1.6806749865321346e-7,4.316877513603471e-8,8.453798512705795e-9,1.7380308660535112e-9,0
51233,1.9634568828012877e-8,9.047959998992745e-9,7.003215165392458e-8,1.7959422675585336e-7,1.689950776992863e-7,4.309709962203826e-8,8.405730156164256e-9,1.7072227420893009e-9,0
51234,1.9679271180476034e-8,9.139790836686609e-9,6.95905297168826e-8,1.7964637809353882e-7,1.699226567453591e-7,4.302542410804181e-8,8.357661799622719e-9,1.6764146181250904e-9,0
51235,1.972397353293919e-8,9.23162167438047e-9,6.914890777984064e-8,1.796985294312243e-7,1.7085023579143193e-7,4.295374859404536e-8,8.30959344308118e-9,1.6456064941608801e-9,0
51236,1.9768675885402347e-8,9.323452512074334e-9,6.870728584279867e-8,1.7975068076890976e-7,1.7177781483750478e-7,4.2882073080048915e-8,8.261525086539643e-9,1.6147983701966699e-9,0
51237,1.9813378237865508e-8,9.415283349768196e-9,6.826566390575669e-8,1.7980283210659524e-7,1.727053938835776e-7,4.2810397566052467e-8,8.213456729998104e-9,1.5839902462324596e-9,0
51238,1.9858080590328665e-8,9.50711418746206e-9,6.782404196871471e-8,1.7985498344428073e-7,1.7363297292965043e-7,4.273872205205602e-8,8.165388373456567e-9,1.5531821222682493e-9,0
51239,1.990278294279182e-8,9.598945025155922e-9,6.738242003167273e-8,1.7990713478196619e-7,1.7456055197572325e-7,4.2667046538059577e-8,8.11732001691503e-9,1.5223739983040388e-9,0
51240,1.9947485295254982e-8,9.690775862849785e-9,6.694079809463076e-8,1.7995928611965167e-7,1.7548813102179608e-7,4.259537102406313e-8,8.069251660373491e-9,1.4915658743398286e-9,0
51241,1.9959970763280138e-8,9.638066113328187e-9,6.654418597126642e-8,1.788264372748496e-7,1.7623450910274338e-7,4.261752504457473e-8,8.040278331747356e-9,1.451798875453608e-9,0
51242,1.9972456231305297e-8,9.58535636380659e-9,6.614757384790209e-8,1.7769358843004756e-7,1.7698088718369072e-7,4.263967906508632e-8,8.011305003121221e-9,1.4120318765673872e-9,0
51243,2.001888567687013e-8,9.682325842724264e-9,6.575633118221422e-8,1.7778388972819983e-7,1.778899355726372e-7,4.266183308559792e-8,8.012068804237836e-9,1.4101576604637538e-9,0
51244,2.0065315122434965e-8,9.77929532164194e-9,6.536508851652636e-8,1.778741910263521e-7,1.7879898396158367e-7,4.268398710610952e-8,8.012832605354453e-9,1.4082834443601201e-9,0
51245,2.0111744567999803e-8,9.876264800559613e-9,6.497384585083848e-8,1.7796449232450439e-7,1.7970803235053015e-7,4.2706141126621116e-8,8.013596406471069e-9,1.4064092282564867e-9,0
51246,2.0158174013564637e-8,9.973234279477288e-9,6.458260318515062e-8,1.7805479362265665e-7,1.8061708073947663e-7,4.2728295147132715e-8,8.014360207587685e-9,1.4045350121528532e-9,0
51247,2.020460345912947e-8,1.0070203758394962e-8,6.419136051946276e-8,1.7814509492080894e-7,1.815261291284231e-7,4.2750449167644314e-8,8.015124008704302e-9,1.4026607960492196e-9,0
51248,2.0292791949545935e-8,1.036875337173762e-8,6.419672997713923e-8,1.7958797744883027e-7,1.8197357172571707e-7,4.27624675540844e-8,8.01509266582269e-9,1.4019079960764803e-9,0
51249,2.0299692001905153e-8,1.0395466795572082e-8,6.373627204068744e-8,1.8099847081034914e-7,1.8220550305609265e-7,4.2846338130124014e-8,8.017119021173129e-9,1.3994111169591594e-9,0
51250,2.0313611683522363e-8,1.0426178114659395e-8,6.356378561611628e-8,1.8161885548022055e-7,1.8284321209728588e-7,4.2930836757316173e-8,8.019051347878735e-9,1.4002784862345214e-9,0
51251,2.0327531365139573e-8,1.045688943374671e-8,6.339129919154513e-8,1.8223924015009198e-7,1.8348092113847912e-7,4.301533538450834e-8,8.02098367458434e-9,1.4011458555098833e-9,0
51252,2.0341451046756783e-8,1.0487600752834022e-8,6.321881276697397e-8,1.8285962481996339e-7,1.8411863017967235e-7,4.3099834011700505e-8,8.022916001289945e-9,1.4020132247852453e-9,0
51253,2.0355370728373992e-8,1.0518312071921335e-8,6.304632634240281e-8,1.834800094898348e-7,1.8475633922086556e-7,4.318433263889267e-8,8.024848327995551e-9,1.4028805940606073e-9,0
51254,2.0369290409991202e-8,1.054902339100865e-8,6.287383991783165e-8,1.841003941597062e-7,1.853940482620588e-7,4.326883126608483e-8,8.026780654701155e-9,1.403747963335969e-9,0
51255,2.0383210091608412e-8,1.0579734710095962e-8,6.270135349326049e-8,1.8472077882957763e-7,1.8603175730325204e-7,4.3353329893276996e-8,8.028712981406761e-9,1.404615332611331e-9,0
51256,2.0397129773225622e-8,1.0610446029183275e-8,6.252886706868933e-8,1.8534116349944903e-7,1.8666946634444527e-7,4.343782852046916e-8,8.030645308112367e-9,1.405482701886693e-9,0
51257,2.041104945484283e-8,1.0641157348270589e-8,6.235638064411818e-8,1.8596154816932044e-7,1.873071753856385e-7,4.352232714766132e-8,8.032577634817972e-9,1.4063500711620549e-9,0
51258,2.042496913646004e-8,1.0671868667357902e-8,6.218389421954702e-8,1.8658193283919187e-7,1.8794488442683172e-7,4.3606825774853486e-8,8.034509961523578e-9,1.4072174404374168e-9,0
51259,2.043888881807725e-8,1.0702579986445215e-8,6.201140779497586e-8,1.8720231750906328e-7,1.8858259346802495e-7,4.369132440204565e-8,8.036442288229184e-9,1.4080848097127786e-9,0
51260,2.045280849969446e-8,1.0733291305532527e-8,6.18389213704047e-8,1.8782270217893468e-7,1.892203025092182e-7,4.377582302923782e-8,8.038374614934788e-9,1.4089521789881405e-9,0
51261,2.046672818131167e-8,1.0764002624619842e-8,6.166643494583353e-8,1.884430868488061e-7,1.8985801155041142e-7,4.386032165642998e-8,8.040306941640394e-9,1.4098195482635025e-9,0
51262,2.048064786292888e-8,1.0794713943707155e-8,6.149394852126239e-8,1.8906347151867752e-7,1.9049572059160463e-7,4.394482028362214e-8,8.042239268346e-9,1.4106869175388644e-9,0
51263,2.049456754454609e-8,1.0825425262794467e-8,6.132146209669122e-8,1.8968385618854893e-7,1.9113342963279787e-7,4.402931891081431e-8,8.044171595051605e-9,1.4115542868142264e-9,0
51264,2.050971556614777e-8,1.0840909320908876e-8,6.082233746601225e-8,1.8861768299352786e-7,1.915331927363105e-7,4.406429604452162e-8,7.974565558813905e-9,1.4115542868142264e-9,0
51265,2.049544547388173e-8,1.0832786031297017e-8,6.064985104144109e-8,1.8733935827400948e-7,1.9175286335237628e-7,4.401014177215994e-8,7.975796770166118e-9,1.4115542868142264e-9,0
51266,2.048117538161569e-8,1.0824662741685158e-8,6.047736461686993e-8,1.860610335544911e-7,1.919725339684421e-7,4.3955987499798255e-8,7.97702798151833e-9,1.4115542868142264e-9,0
51267,2.0466905289349648e-8,1.08165394520733e-8,6.030487819229877e-8,1.8478270883497267e-7,1.9219220458450787e-7,4.3901833227436567e-8,7.978259192870542e-9,1.4115542868142264e-9,0
51268,2.045263519708361e-8,1.080841616246144e-8,6.013239176772761e-8,1.8350438411545429e-7,1.9241187520057366e-7,4.3847678955074885e-8,7.979490404222753e-9,1.4115542868142264e-9,0
51269,2.043836510481757e-8,1.0800292872849583e-8,5.995990534315646e-8,1.8222605939593587e-7,1.9263154581663944e-7,4.3793524682713196e-8,7.980721615574965e-9,1.4115542868142264e-9,0
51270,2.0424095012551528e-8,1.0792169583237724e-8,5.97874189185853e-8,1.8094773467641748e-7,1.9285121643270522e-7,4.3739370410351515e-8,7.981952826927177e-9,1.4115542868142264e-9,0
51271,2.0396016495519563e-8,1.0750191345783569e-8,5.9461645564981725e-8,1.8126569444163647e-7,1.9360283277058011e-7,4.359061361744788e-8,7.985039374275253e-9,1.4088127014352308e-9,0
51272,2.0365868794784576e-8,1.0719812828595924e-8,5.898746660750616e-8,1.7972426536191157e-7,1.9394717322692346e-7,4.3455226535454584e-8,7.98407321092245e-9,1.4065729827047283e-9,0
51273,2.0335721094049593e-8,1.068943431140828e-8,5.85132876500306e-8,1.7818283628218666e-7,1.9429151368326684e-7,4.33198394534613e-8,7.983107047569647e-9,1.4043332639742257e-9,0
51274,2.030557339331461e-8,1.0659055794220637e-8,5.803910869255504e-8,1.7664140720246173e-7,1.946358541396102e-7,4.318445237146801e-8,7.982140884216845e-9,1.402093545243723e-9,0
51275,2.0275425692579627e-8,1.0628677277032993e-8,5.756492973507947e-8,1.7509997812273682e-7,1.9498019459595357e-7,4.3049065289474716e-8,7.981174720864043e-9,1.3998538265132205e-9,0
51276,2.0245277991844644e-8,1.0598298759845349e-8,5.709075077760391e-8,1.7355854904301191e-7,1.9532453505229692e-7,4.291367820748143e-8,7.980208557511239e-9,1.397614107782718e-9,0
51277,2.0239181697586876e-8,1.0561111520549539e-8,5.701698040192003e-8,1.7349858979913644e-7,1.9394391885159038e-7,4.264826149677847e-8,7.96412308623417e-9,1.3857648293349447e-9,0
51278,2.023308540332911e-8,1.052392428125373e-8,5.694321002623616e-8,1.73438630555261e-7,1.9256330265088387e-7,4.238284478607552e-8,7.948037614957103e-9,1.3739155508871714e-9,0
51279,2.0226989109071344e-8,1.0486737041957921e-8,5.686943965055229e-8,1.7337867131138552e-7,1.9118268645017734e-7,4.211742807537257e-8,7.931952143680034e-9,1.3620662724393984e-9,0
51280,2.022089281481358e-8,1.0449549802662112e-8,5.679566927486841e-8,1.7331871206751004e-7,1.898020702494708e-7,4.185201136466961e-8,7.915866672402965e-9,1.3502169939916251e-9,0
51281,2.021479652055581e-8,1.0412362563366302e-8,5.672189889918454e-8,1.732587528236346e-7,1.8842145404876427e-7,4.158659465396666e-8,7.899781201125896e-9,1.3383677155438519e-9,0
51282,2.0208700226298047e-8,1.0375175324070492e-8,5.6648128523500666e-8,1.7319879357975912e-7,1.8704083784805776e-7,4.13211779432637e-8,7.883695729848828e-9,1.3265184370960788e-9,0
51283,2.0211239397548665e-8,1.0327257472171836e-8,5.711643385609759e-8,1.7285247653267369e-7,1.8678676327344829e-7,4.13057819461925e-8,7.887668716851392e-9,1.316908877378808e-9,0
51284,2.038720843659356e-8,1.0318484319391028e-8,5.871854548761047e-8,1.737296362379745e-7,1.8527194639319625e-7,4.111150978861737e-8,7.871583245574324e-9,1.3228814606601484e-9,0
51285,2.0563177475638455e-8,1.0309711166610221e-8,6.032065711912335e-8,1.746067959432753e-7,1.8375712951294421e-7,4.091723763104225e-8,7.855497774297255e-9,1.3288540439414886e-9,0
51286,2.0743284882089378e-8,1.0331354083663845e-8,6.200228009746857e-8,1.7588707564908812e-7,1.8404057216870338e-7,4.10017035834533e-8,7.855497774297255e-9,1.3479243452292625e-9,0
51287,2.0923392288540305e-8,1.0352997000717469e-8,6.368390307581379e-8,1.7716735535490093e-7,1.8432401482446254e-7,4.108616953586436e-8,7.855497774297255e-9,1.3669946465170364e-9,0
51288,2.110349969499123e-8,1.0374639917771093e-8,6.5365526054159e-8,1.7844763506071372e-7,1.846074574802217e-7,4.117063548827542e-8,7.855497774297255e-9,1.38606494780481e-9,0
51289,2.1283607101442156e-8,1.0396282834824717e-8,6.704714903250422e-8,1.7972791476652653e-7,1.8489090013598086e-7,4.125510144068648e-8,7.855497774297255e-9,1.405135249092584e-9,0
51290,2.146371450789308e-8,1.041792575187834e-8,6.872877201084943e-8,1.8100819447233934e-7,1.8517434279174002e-7,4.133956739309754e-8,7.855497774297255e-9,1.424205550380358e-9,0
51291,2.1643821914344006e-8,1.0439568668931964e-8,7.041039498919465e-8,1.8228847417815215e-7,1.8545778544749919e-7,4.142403334550859e-8,7.855497774297255e-9,1.4432758516681316e-9,0
51292,2.182392932079493e-8,1.0461211585985588e-8,7.209201796753988e-8,1.8356875388396496e-7,1.8574122810325835e-7,4.150849929791965e-8,7.855497774297255e-9,1.4623461529559056e-9,0
51293,2.182392932079493e-8,1.0450216305926043e-8,7.216286215138559e-8,1.8492227771813342e-7,1.8628640596113844e-7,4.153557690113019e-8,7.855731479415053e-9,1.4627209961766322e-9,0
51294,2.182392932079493e-8,1.04392210258665e-8,7.223370633523132e-8,1.8627580155230192e-7,1.8683158381901853e-7,4.156265450434072e-8,7.85596518453285e-9,1.463095839397359e-9,0
51295,2.182392932079493e-8,1.0428225745806954e-8,7.230455051907703e-8,1.876293253864704e-7,1.8737676167689863e-7,4.158973210755126e-8,7.856198889650649e-9,1.4634706826180856e-9,0
51296,2.182392932079493e-8,1.041723046574741e-8,7.237539470292276e-8,1.8898284922063887e-7,1.8792193953477872e-7,4.1616809710761794e-8,7.856432594768447e-9,1.4638455258388123e-9,0
51297,2.182392932079493e-8,1.0406235185687866e-8,7.244623888676847e-8,1.9033637305480737e-7,1.8846711739265882e-7,4.164388731397233e-8,7.856666299886244e-9,1.464220369059539e-9,0
51298,2.182392932079493e-8,1.039523990562832e-8,7.25170830706142e-8,1.9168989688897583e-7,1.890122952505389e-7,4.1670964917182864e-8,7.856900005004042e-9,1.4645952122802657e-9,0
51299,2.182392932079493e-8,1.0384244625568777e-8,7.258792725445991e-8,1.9304342072314433e-7,1.89557473108419e-7,4.16980425203934e-8,7.85713371012184e-9,1.4649700555009926e-9,0
51300,2.182392932079493e-8,1.0373249345509232e-8,7.265877143830563e-8,1.943969445573128e-7,1.9010265096629912e-7,4.1725120123603935e-8,7.857367415239638e-9,1.4653448987217193e-9,0
51301,2.1790430370660384e-8,1.0375161382369291e-8,7.259928716362782e-8,1.9534734839096929e-7,1.8894165355001117e-7,4.0583748938263544e-8,7.848717592892544e-9,1.4612278503562972e-9,0
51302,2.1729075417196433e-8,1.0381667884373973e-8,7.267000931434454e-8,1.9609094182467017e-7,1.895936210163768e-7,4.054325331251554e-8,7.833116569786163e-9,1.4608561206668564e-9,0
51303,2.1667720463732482e-8,1.0388174386378654e-8,7.274073146506124e-8,1.9683453525837108e-7,1.9024558848274246e-7,4.050275768676754e-8,7.817515546679783e-9,1.4604843909774155e-9,0
51304,2.160636551026853e-8,1.0394680888383336e-8,7.281145361577795e-8,1.9757812869207196e-7,1.908975559491081e-7,4.046226206101953e-8,7.801914523573402e-9,1.4601126612879747e-9,0
51305,2.154501055680458e-8,1.0401187390388017e-8,7.288217576649466e-8,1.9832172212577287e-7,1.9154952341547375e-7,4.0421766435271525e-8,7.786313500467021e-9,1.459740931598534e-9,0
51306,2.148365560334063e-8,1.0407693892392699e-8,7.295289791721136e-8,1.9906531555947375e-7,1.9220149088183938e-7,4.0381270809523525e-8,7.77071247736064e-9,1.459369201909093e-9,0
51307,2.143246114030629e-8,1.041420039439738e-8,7.297813534559366e-8,1.9846007306468417e-7,1.9358395964230972e-7,4.0316110826772485e-8,7.77071247736064e-9,1.4604906180399873e-9,0
51308,2.138126667727195e-8,1.0420706896402062e-8,7.300337277397595e-8,1.9785483056989458e-7,1.9496642840278004e-7,4.025095084402145e-8,7.77071247736064e-9,1.4616120341708815e-9,0
51309,2.131799088257336e-8,1.0466509207576337e-8,7.310403333558435e-8,1.9773164598782475e-7,1.947001257194523e-7,4.043074352435156e-8,7.75511145425426e-9,1.464353619549877e-9,0
51310,2.125471508787477e-8,1.051231151875061e-8,7.320469389719274e-8,1.9760846140575492e-7,1.9443382303612455e-7,4.061053620468167e-8,7.73951043114788e-9,1.4670952049288725e-9,0
51311,2.119143929317618e-8,1.0558113829924884e-8,7.330535445880115e-8,1.9748527682368509e-7,1.941675203527968e-7,4.079032888501178e-8,7.7239094080415e-9,1.4698367903078679e-9,0
51312,2.1128163498477587e-8,1.0603916141099157e-8,7.340601502040954e-8,1.9736209224161526e-7,1.9390121766946904e-7,4.0970121565341895e-8,7.70830838493512e-9,1.4725783756868635e-9,0
51313,2.1064887703778997e-8,1.064971845227343e-8,7.350667558201793e-8,1.9723890765954542e-7,1.936349149861413e-7,4.1149914245672e-8,7.692707361828739e-9,1.4753199610658589e-9,0
51314,2.1001611909080407e-8,1.0695520763447704e-8,7.360733614362633e-8,1.971157230774756e-7,1.9336861230281355e-7,4.132970692600211e-8,7.677106338722358e-9,1.4780615464448543e-9,0
51315,2.0938336114381817e-8,1.0741323074621977e-8,7.370799670523472e-8,1.9699253849540576e-7,1.931023096194858e-7,4.1509499606332225e-8,7.661505315615978e-9,1.4808031318238497e-9,0
51316,2.0875060319683227e-8,1.0787125385796251e-8,7.380865726684311e-8,1.9686935391333593e-7,1.9283600693615806e-7,4.168929228666233e-8,7.645904292509597e-9,1.4835447172028453e-9,0
51317,2.0811784524984637e-8,1.0832927696970524e-8,7.390931782845151e-8,1.967461693312661e-7,1.925697042528303e-7,4.186908496699244e-8,7.630303269403216e-9,1.4862863025818407e-9,0
51318,2.0748508730286047e-8,1.0878730008144798e-8,7.40099783900599e-8,1.9662298474919627e-7,1.9230340156950255e-7,4.2048877647322555e-8,7.614702246296836e-9,1.489027887960836e-9,0
51319,2.0685232935587457e-8,1.0924532319319071e-8,7.41106389516683e-8,1.9649980016712644e-7,1.9203709888617482e-7,4.222867032765267e-8,7.599101223190455e-9,1.4917694733398317e-9,0
51320,2.0621957140888867e-8,1.0970334630493344e-8,7.421129951327669e-8,1.963766155850566e-7,1.9177079620284706e-7,4.240846300798277e-8,7.583500200084074e-9,1.4945110587188271e-9,0
51321,2.0558681346190277e-8,1.1016136941667618e-8,7.43119600748851e-8,1.9625343100298678e-7,1.915044935195193e-7,4.2588255688312885e-8,7.567899176977694e-9,1.4972526440978225e-9,0
51322,2.0495405551491687e-8,1.1061939252841891e-8,7.441262063649349e-8,1.9613024642091695e-7,1.9123819083619157e-7,4.2768048368643e-8,7.552298153871313e-9,1.499994229476818e-9,0
51323,2.0375383158282782e-8,1.1105467042924845e-8,7.441506129907369e-8,1.966169922393147e-7,1.905976539907488e-7,4.286591670674551e-8,7.552298153871313e-9,1.4966206404902777e-9,0
51324,2.0371735223946465e-8,1.1148994833007798e-8,7.451228629512557e-8,1.9701711878706407e-7,1.9055764085856575e-7,4.2662747045409494e-8,7.1529025075913e-9,1.4988603592207802e-9,0
51325,2.036808728961015e-8,1.1192522623090751e-8,7.460951129117744e-8,1.9741724533481345e-7,1.9051762772638267e-7,4.245957738407348e-8,6.753506861311287e-9,1.5011000779512828e-9,0
51326,2.0364439355273832e-8,1.1236050413173705e-8,7.470673628722931e-8,1.9781737188256283e-7,1.904776145941996e-7,4.225640772273747e-8,6.354111215031273e-9,1.5033397966817853e-9,0
51327,2.0360791420937515e-8,1.1279578203256657e-8,7.480396128328117e-8,1.982174984303122e-7,1.9043760146201654e-7,4.205323806140146e-8,5.95471556875126e-9,1.505579515412288e-9,0
51328,2.0357143486601195e-8,1.132310599333961e-8,7.490118627933305e-8,1.9861762497806158e-7,1.9039758832983346e-7,4.185006840006544e-8,5.555319922471247e-9,1.5078192341427905e-9,0
51329,2.0365317284609472e-8,1.1318813748298471e-8,7.4912912287888e-8,1.9875171792077588e-7,1.9059227136975396e-7,4.141710191567297e-8,5.159743281774314e-9,1.516301150666595e-9,0
51330,2.0370267730164445e-8,1.1494277028780764e-8,7.528608842882855e-8,2.0017679329850346e-7,1.9104185986470233e-7,4.09660514880554e-8,4.761142779492528e-9,1.516301150666595e-9,0
51331,2.0375218175719422e-8,1.1669740309263058e-8,7.565926456976912e-8,2.01601868676231e-7,1.914914483596507e-7,4.051500106043782e-8,4.362542277210742e-9,1.516301150666595e-9,0
51332,2.03801686212744e-8,1.184520358974535e-8,7.603244071070969e-8,2.0302694405395858e-7,1.919410368545991e-7,4.0063950632820245e-8,3.963941774928956e-9,1.516301150666595e-9,0
51333,2.0385119066829373e-8,1.2020666870227643e-8,7.640561685165026e-8,2.0445201943168613e-7,1.9239062534954748e-7,3.961290020520267e-8,3.5653412726471695e-9,1.516301150666595e-9,0
51334,2.039006951238435e-8,1.2196130150709936e-8,7.677879299259082e-8,2.058770948094137e-7,1.9284021384449588e-7,3.916184977758509e-8,3.1667407703653835e-9,1.516301150666595e-9,0
51335,2.0395019957939326e-8,1.2371593431192229e-8,7.715196913353139e-8,2.0730217018714126e-7,1.9328980233944425e-7,3.871079934996752e-8,2.7681402680835976e-9,1.516301150666595e-9,0
51336,2.0399822061025925e-8,1.2551175135182929e-8,7.751709889773157e-8,2.0850818314254493e-7,1.934619508680326e-7,3.869672153555578e-8,2.7689040692002135e-9,1.5119425095707843e-9,0
51337,2.0404624164112523e-8,1.2730756839173628e-8,7.788222866193173e-8,2.0971419609794863e-7,1.9363409939662097e-7,3.868264372114404e-8,2.76966787031683e-9,1.5075838684749736e-9,0
51338,2.0409426267199122e-8,1.2910338543164327e-8,7.82473584261319e-8,2.109202090533523e-7,1.9380624792520933e-7,3.8668565906732297e-8,2.770431671433446e-9,1.5032252273791628e-9,0
51339,2.0414228370285724e-8,1.3089920247155027e-8,7.861248819033206e-8,2.1212622200875598e-7,1.939783964537977e-7,3.8654488092320556e-8,2.7711954725500617e-9,1.498866586283352e-9,0
51340,2.0419030473372322e-8,1.3269501951145726e-8,7.897761795453224e-8,2.1333223496415965e-7,1.9415054498238605e-7,3.8640410277908816e-8,2.771959273666678e-9,1.4945079451875412e-9,0
51341,2.042383257645892e-8,1.3449083655136426e-8,7.93427477187324e-8,2.1453824791956333e-7,1.9432269351097438e-7,3.8626332463497075e-8,2.772723074783294e-9,1.4901493040917304e-9,0
51342,2.042863467954552e-8,1.3628665359127125e-8,7.970787748293257e-8,2.1574426087496703e-7,1.9449484203956274e-7,3.8612254649085335e-8,2.7734868758999104e-9,1.4857906629959197e-9,0
51343,2.0433436782632117e-8,1.3808247063117824e-8,8.007300724713273e-8,2.169502738303707e-7,1.946669905681511e-7,3.8598176834673594e-8,2.7742506770165264e-9,1.4814320219001088e-9,0
51344,2.0433436782632117e-8,1.3944875734900946e-8,8.011079045091145e-8,2.1666373551153575e-7,1.9514197938106024e-7,3.854558230310697e-8,2.76316977484662e-9,1.4781885698726205e-9,0
51345,2.039991738697546e-8,1.4122160206319334e-8,8.042289588649708e-8,2.1815139975247326e-7,1.9557791647700387e-7,3.854413435538247e-8,2.758042567201586e-9,1.475948851142118e-9,0
51346,2.0366397991318802e-8,1.4299444677737722e-8,8.07350013220827e-8,2.1963906399341076e-7,1.960138535729475e-7,3.854268640765797e-8,2.7529153595565522e-9,1.4737091324116152e-9,0
51347,2.0332878595662144e-8,1.447672914915611e-8,8.104710675766832e-8,2.2112672823434827e-7,1.9644979066889114e-7,3.854123845993346e-8,2.7477881519115183e-9,1.4714694136811127e-9,0
51348,2.0299359200005487e-8,1.46540136205745e-8,8.135921219325394e-8,2.2261439247528578e-7,1.9688572776483477e-7,3.853979051220896e-8,2.7426609442664844e-9,1.4692296949506102e-9,0
51349,2.0265839804348825e-8,1.4831298091992886e-8,8.167131762883957e-8,2.241020567162233e-7,1.973216648607784e-7,3.853834256448446e-8,2.7375337366214505e-9,1.4669899762201074e-9,0
51350,2.0225642870035517e-8,1.487876261373632e-8,8.165452453838819e-8,2.241020567162233e-7,1.9739622058148566e-7,3.855497855998506e-8,2.732343843213194e-9,1.4638766611516713e-9,0
51351,2.0185445935722205e-8,1.492622713547975e-8,8.163773144793683e-8,2.241020567162233e-7,1.9747077630219292e-7,3.857161455548566e-8,2.7271539498049376e-9,1.460763346083235e-9,0
51352,2.0145249001408893e-8,1.4973691657223183e-8,8.162093835748545e-8,2.241020567162233e-7,1.9754533202290017e-7,3.8588250550986265e-8,2.721964056396681e-9,1.4576500310147986e-9,0
51353,2.010505206709558e-8,1.5021156178966616e-8,8.160414526703408e-8,2.241020567162233e-7,1.9761988774360742e-7,3.860488654648687e-8,2.7167741629884247e-9,1.4545367159463624e-9,0
51354,2.006485513278227e-8,1.506862070071005e-8,8.158735217658271e-8,2.241020567162233e-7,1.9769444346431468e-7,3.8621522541987465e-8,2.7115842695801683e-9,1.451423400877926e-9,0
51355,2.0024658198468957e-8,1.511608522245348e-8,8.157055908613134e-8,2.241020567162233e-7,1.977689991850219e-7,3.863815853748807e-8,2.706394376171912e-9,1.44831008580949e-9,0
51356,1.9984461264155645e-8,1.5163549744196912e-8,8.155376599567997e-8,2.241020567162233e-7,1.9784355490572916e-7,3.865479453298867e-8,2.7012044827636553e-9,1.4451967707410536e-9,0
51357,1.9944264329842334e-8,1.5211014265940345e-8,8.15369729052286e-8,2.241020567162233e-7,1.979181106264364e-7,3.867143052848927e-8,2.696014589355399e-9,1.4420834556726172e-9,0
51358,1.9904067395529022e-8,1.5258478787683777e-8,8.152017981477722e-8,2.241020567162233e-7,1.9799266634714367e-7,3.868806652398987e-8,2.6908246959471424e-9,1.438970140604181e-9,0
51359,1.9906025322380757e-8,1.526214388103696e-8,8.187308742056335e-8,2.2423550668013226e-7,1.9787396771500444e-7,3.8682129798210504e-8,2.640792669818388e-9,1.4471948967411675e-9,0
51360,1.990798324923249e-8,1.526580897439014e-8,8.222599502634947e-8,2.2436895664404125e-7,1.9775526908286522e-7,3.8676193072431144e-8,2.5907606436896336e-9,1.4554196528781537e-9,0
51361,1.989808235812254e-8,1.5274552444839356e-8,8.28027552136941e-8,2.2470113552610017e-7,1.975162062350254e-7,3.8398388053176545e-8,2.596107251505946e-9,1.4591525174289915e-9,0
51362,1.988818146701259e-8,1.528329591528857e-8,8.337951540103874e-8,2.2503331440815908e-7,1.9727714338718558e-7,3.812058303392195e-8,2.601453859322259e-9,1.462885381979829e-9,0
51363,1.9878280575902635e-8,1.5292039385737786e-8,8.395627558838337e-8,2.25365493290218e-7,1.9703808053934576e-7,3.7842778014667354e-8,2.6068004671385717e-9,1.4666182465306667e-9,0
51364,1.9868379684792685e-8,1.5300782856187e-8,8.453303577572801e-8,2.256976721722769e-7,1.9679901769150594e-7,3.7564972995412755e-8,2.612147074954884e-9,1.4703511110815043e-9,0
51365,1.9858478793682734e-8,1.5309526326636214e-8,8.510979596307265e-8,2.2602985105433582e-7,1.965599548436661e-7,3.728716797615816e-8,2.617493682771197e-9,1.474083975632342e-9,0
51366,1.9852716269978813e-8,1.5333919806417374e-8,8.510141534874872e-8,2.2644175598715533e-7,1.9666958147591326e-7,3.700789890530336e-8,2.6175563685344196e-9,1.4697159939426736e-9,0
51367,1.9840626618267072e-8,1.5336738503587884e-8,8.513138301818578e-8,2.261583097508352e-7,1.9662497129262487e-7,3.672864593832426e-8,2.622746261942676e-9,1.4697159939426736e-9,0
51368,1.9830836984008403e-8,1.5338650540447943e-8,8.509099463629318e-8,2.2599638713142826e-7,1.9723928424783827e-7,3.654446203725291e-8,2.6228089477058986e-9,1.4659706752666924e-9,0
51369,1.9821047349749735e-8,1.5340562577308e-8,8.505060625440059e-8,2.258344645120213e-7,1.9785359720305168e-7,3.636027813618156e-8,2.622871633469121e-9,1.462225356590711e-9,0
51370,1.9811257715491067e-8,1.534247461416806e-8,8.501021787250798e-8,2.2567254189261435e-7,1.9846791015826508e-7,3.617609423511021e-8,2.6229343192323437e-9,1.4584800379147299e-9,0
51371,1.9801468081232395e-8,1.5344386651028123e-8,8.496982949061538e-8,2.255106192732074e-7,1.990822231134785e-7,3.5991910334038865e-8,2.6229970049955662e-9,1.4547347192387487e-9,0
51372,1.9791678446973727e-8,1.534629868788818e-8,8.492944110872278e-8,2.2534869665380043e-7,1.996965360686919e-7,3.580772643296751e-8,2.623059690758789e-9,1.4509894005627676e-9,0
51373,1.978188881271506e-8,1.534821072474824e-8,8.488905272683017e-8,2.251867740343935e-7,2.0031084902390532e-7,3.562354253189617e-8,2.623122376522011e-9,1.4472440818867864e-9,0
51374,1.977209917845639e-8,1.53501227616083e-8,8.484866434493758e-8,2.2502485141498654e-7,2.0092516197911872e-7,3.5439358630824815e-8,2.6231850622852335e-9,1.443498763210805e-9,0
51375,1.976230954419772e-8,1.5352034798468358e-8,8.480827596304497e-8,2.2486292879557958e-7,2.0153947493433215e-7,3.525517472975347e-8,2.623247748048456e-9,1.4397534445348239e-9,0
51376,1.975251990993905e-8,1.5353946835328417e-8,8.476788758115237e-8,2.2470100617617263e-7,2.0215378788954555e-7,3.507099082868212e-8,2.6233104338116786e-9,1.4360081258588427e-9,0
51377,1.9742730275680382e-8,1.5355858872188476e-8,8.472749919925977e-8,2.2453908355676567e-7,2.0276810084475895e-7,3.488680692761077e-8,2.623373119574901e-9,1.4322628071828616e-9,0
51378,1.9732940641421714e-8,1.5357770909048534e-8,8.468711081736716e-8,2.2437716093735874e-7,2.0338241379997236e-7,3.470262302653942e-8,2.6234358053381237e-9,1.4285174885068804e-9,0
51379,1.9723151007163042e-8,1.5359682945908593e-8,8.464672243547457e-8,2.2421523831795178e-7,2.0399672675518579e-7,3.4518439125468075e-8,2.6234984911013463e-9,1.4247721698308992e-9,0
51380,1.9713361372904374e-8,1.5361594982768652e-8,8.460633405358197e-8,2.2405331569854482e-7,2.046110397103992e-7,3.433425522439672e-8,2.623561176864569e-9,1.4210268511549179e-9,0
51381,1.9703571738645706e-8,1.536350701962871e-8,8.456594567168936e-8,2.2389139307913786e-7,2.052253526656126e-7,3.415007132332538e-8,2.6236238626277914e-9,1.4172815324789367e-9,0
51382,1.968074867215296e-8,1.5356675586039556e-8,8.44179035639463e-8,2.2407268611830247e-7,2.056163371071238e-7,3.4245140389233124e-8,2.6125429604578847e-9,1.412421024734633e-9,0
51383,1.9682817855855976e-8,1.5283041816540848e-8,8.43977438380616e-8,2.231536218451572e-7,2.0437886957217397e-7,3.4332647639004233e-8,2.61357180957391e-9,1.4127927544240739e-9,0
51384,1.968488703955899e-8,1.5209408047042144e-8,8.437758411217689e-8,2.2223455757201195e-7,2.0314140203722414e-7,3.442015488877535e-8,2.6146006586899354e-9,1.4131644841135148e-9,0
51385,1.968695622326201e-8,1.513577427754344e-8,8.435742438629219e-8,2.213154932988667e-7,2.0190393450227432e-7,3.450766213854646e-8,2.6156295078059606e-9,1.4135362138029556e-9,0
51386,1.9689025406965023e-8,1.506214050804473e-8,8.433726466040749e-8,2.2039642902572143e-7,2.006664669673245e-7,3.4595169388317574e-8,2.6166583569219857e-9,1.4139079434923963e-9,0
51387,1.969109459066804e-8,1.4988506738546027e-8,8.431710493452278e-8,2.1947736475257617e-7,1.9942899943237467e-7,3.468267663808868e-8,2.617687206038011e-9,1.4142796731818373e-9,0
51388,1.9691131676285134e-8,1.4908819797197863e-8,8.437646717607157e-8,2.1830979394525308e-7,1.9748464514676318e-7,3.468249949545591e-8,2.6217399167388894e-9,1.4151532695197709e-9,0
51389,1.9755037926474324e-8,1.4826986733329132e-8,8.442007090172311e-8,2.1790827070196365e-7,1.9572394489109038e-7,3.467797850964964e-8,2.6517420944810497e-9,1.416646415340106e-9,0
51390,1.9818944176663513e-8,1.47451536694604e-8,8.446367462737465e-8,2.1750674745867422e-7,1.9396324463541758e-7,3.467345752384336e-8,2.6817442722232105e-9,1.418139561160441e-9,0
51391,1.9882850426852703e-8,1.4663320605591666e-8,8.450727835302619e-8,2.1710522421538478e-7,1.9220254437974475e-7,3.4668936538037085e-8,2.711746449965371e-9,1.4196327069807761e-9,0
51392,1.9946756677041893e-8,1.4581487541722935e-8,8.455088207867772e-8,2.1670370097209535e-7,1.9044184412407195e-7,3.466441555223081e-8,2.7417486277075312e-9,1.421125852801111e-9,0
51393,2.001062584161399e-8,1.4581812473307409e-8,8.45152954712212e-8,2.1703883421480186e-7,1.9025697143204187e-7,3.457238731665342e-8,2.765594748688633e-9,1.421125852801111e-9,0
51394,2.0074495006186087e-8,1.4582137404891884e-8,8.447970886376467e-8,2.173739674575084e-7,1.900720987400118e-7,3.4480359081076035e-8,2.7894408696697343e-9,1.421125852801111e-9,0
51395,2.0138364170758184e-8,1.4582462336476358e-8,8.444412225630814e-8,2.177091007002149e-7,1.8988722604798173e-7,3.438833084549865e-8,2.8132869906508356e-9,1.421125852801111e-9,0
51396,2.0202233335330278e-8,1.4582787268060832e-8,8.440853564885161e-8,2.180442339429214e-7,1.8970235335595167e-7,3.429630260992126e-8,2.837133111631937e-9,1.421125852801111e-9,0
51397,2.0266102499902375e-8,1.4583112199645307e-8,8.437294904139508e-8,2.183793671856279e-7,1.895174806639216e-7,3.420427437434387e-8,2.860979232613038e-9,1.421125852801111e-9,0
51398,2.0329971664474472e-8,1.4583437131229781e-8,8.433736243393856e-8,2.1871450042833442e-7,1.8933260797189153e-7,3.411224613876648e-8,2.88482535359414e-9,1.421125852801111e-9,0
51399,2.039384082904657e-8,1.4583762062814255e-8,8.430177582648204e-8,2.1904963367104093e-7,1.8914773527986147e-7,3.40202179031891e-8,2.908671474575241e-9,1.421125852801111e-9,0
51400,2.0457709993618663e-8,1.458408699439873e-8,8.426618921902551e-8,2.1938476691374743e-7,1.889628625878314e-7,3.392818966761171e-8,2.9325175955563425e-9,1.421125852801111e-9,0
51401,2.052157915819076e-8,1.4584411925983205e-8,8.423060261156898e-8,2.1971990015645394e-7,1.8877798989580133e-7,3.383616143203432e-8,2.956363716537444e-9,1.421125852801111e-9,0
51402,1.9936142129966426e-8,1.4549733293439226e-8,8.430352135860788e-8,2.2048081502956803e-7,1.884311130617368e-7,3.38064778031375e-8,2.9861321891618067e-9,1.4147690857051866e-9,0
51403,1.935070510174209e-8,1.4515054660895247e-8,8.437644010564679e-8,2.2124172990268212e-7,1.8808423622767228e-7,3.377679417424068e-8,3.015900661786169e-9,1.408412318609262e-9,0
51404,1.8765268073517757e-8,1.448037602835127e-8,8.444935885268568e-8,2.2200264477579622e-7,1.8773735939360775e-7,3.374711054534385e-8,3.045669134410532e-9,1.4020555515133373e-9,0
51405,1.8179831045293423e-8,1.4445697395807291e-8,8.452227759972459e-8,2.2276355964891028e-7,1.8739048255954323e-7,3.371742691644703e-8,3.0754376070348944e-9,1.3956987844174127e-9,0
51406,1.759439401706909e-8,1.4411018763263313e-8,8.459519634676349e-8,2.2352447452202438e-7,1.870436057254787e-7,3.368774328755021e-8,3.105206079659257e-9,1.389342017321488e-9,0
51407,1.7008956988844758e-8,1.4376340130719336e-8,8.46681150938024e-8,2.2428538939513847e-7,1.8669672889141418e-7,3.365805965865339e-8,3.1349745522836196e-9,1.3829852502255634e-9,0
51408,1.6423519960620424e-8,1.4341661498175357e-8,8.474103384084129e-8,2.2504630426825256e-7,1.8634985205734968e-7,3.362837602975656e-8,3.1647430249079825e-9,1.3766284831296388e-9,0
51409,1.583808293239609e-8,1.4306982865631378e-8,8.481395258788019e-8,2.2580721914136663e-7,1.8600297522328515e-7,3.359869240085974e-8,3.194511497532345e-9,1.3702717160337143e-9,0
51410,1.519080883768558e-8,1.427783594033866e-8,8.482310788338286e-8,2.2618966228439344e-7,1.861793311099436e-7,3.3567496408735595e-8,3.2146183366286805e-9,1.362046959896728e-9,0
51411,1.4543534742975072e-8,1.424868901504594e-8,8.483226317888551e-8,2.2657210542742025e-7,1.8635568699660208e-7,3.353630041661144e-8,3.234725175725016e-9,1.3538222037597415e-9,0
51412,1.3896149391413282e-8,1.424302890922393e-8,8.483450225761236e-8,2.2679776794795874e-7,1.8567362310763198e-7,3.351393704571566e-8,3.234725175725016e-9,1.3482182366365562e-9,0
51413,1.3248764039851492e-8,1.4237368803401921e-8,8.483674133633921e-8,2.2702343046849724e-7,1.849915592186619e-7,3.349157367481988e-8,3.234725175725016e-9,1.3426142695133709e-9,0
51414,1.26013786882897e-8,1.423170869757991e-8,8.483898041506607e-8,2.2724909298903573e-7,1.843094953296918e-7,3.34692103039241e-8,3.234725175725016e-9,1.3370103023901855e-9,0
51415,1.195399333672791e-8,1.4226048591757901e-8,8.484121949379292e-8,2.2747475550957423e-7,1.836274314407217e-7,3.344684693302832e-8,3.234725175725016e-9,1.3314063352670002e-9,0
51416,1.130660798516612e-8,1.4220388485935892e-8,8.484345857251975e-8,2.2770041803011272e-7,1.8294536755175163e-7,3.3424483562132536e-8,3.234725175725016e-9,1.325802368143815e-9,0
51417,1.1219124121474443e-8,1.4243119755147894e-8,8.48332394439176e-8,2.2734645778264234e-7,1.823787387000756e-7,3.3407252190260485e-8,3.1139158547810004e-9,1.318692801075151e-9,0
51418,1.1131640257782767e-8,1.4265851024359896e-8,8.482302031531544e-8,2.2699249753517196e-7,1.8181210984839954e-7,3.339002081838844e-8,2.9931065338369847e-9,1.3115832340064872e-9,0
51419,1.1085210812217933e-8,1.4295020661133605e-8,8.478250990029383e-8,2.2717146801837645e-7,1.8179530121623785e-7,3.33865456504437e-8,2.9871841821937235e-9,1.3129555834616278e-9,0
51420,1.1038781366653097e-8,1.4324190297907317e-8,8.474199948527222e-8,2.2735043850158094e-7,1.8177849258407613e-7,3.3383070482498955e-8,2.9812618305504624e-9,1.3143279329167685e-9,0
51421,1.0992351921088261e-8,1.4353359934681026e-8,8.47014890702506e-8,2.275294089847854e-7,1.8176168395191442e-7,3.337959531455421e-8,2.975339478907201e-9,1.315700282371909e-9,0
51422,1.0945922475523427e-8,1.4382529571454738e-8,8.466097865522899e-8,2.277083794679899e-7,1.8174487531975273e-7,3.337612014660947e-8,2.9694171272639398e-9,1.3170726318270499e-9,0
51423,1.0899493029958591e-8,1.4411699208228447e-8,8.462046824020738e-8,2.278873499511944e-7,1.81728066687591e-7,3.337264497866473e-8,2.9634947756206786e-9,1.3184449812821904e-9,0
51424,1.0851909415643474e-8,1.4437218592814772e-8,8.481907277278243e-8,2.279723101248049e-7,1.8176192545815785e-7,3.3360337189491614e-8,2.966222246324511e-9,1.3179431146336976e-9,0
51425,1.0804325801328356e-8,1.4462737977401098e-8,8.50176773053575e-8,2.2805727029841541e-7,1.8179578422872466e-7,3.3348029400318506e-8,2.968949717028344e-9,1.3174412479852047e-9,0
51426,1.075674218701324e-8,1.4488257361987423e-8,8.521628183793256e-8,2.281422304720259e-7,1.8182964299929147e-7,3.33357216111454e-8,2.9716771877321767e-9,1.3169393813367118e-9,0
51427,1.0709158572698122e-8,1.4513776746573748e-8,8.541488637050763e-8,2.282271906456364e-7,1.818635017698583e-7,3.332341382197229e-8,2.9744046584360096e-9,1.316437514688219e-9,0
51428,1.0661574958383005e-8,1.4539296131160073e-8,8.561349090308268e-8,2.2831215081924693e-7,1.818973605404251e-7,3.3311106032799174e-8,2.9771321291398424e-9,1.315935648039726e-9,0
51429,1.0613991344067887e-8,1.4564815515746398e-8,8.581209543565775e-8,2.2839711099285743e-7,1.8193121931099195e-7,3.3298798243626066e-8,2.9798595998436752e-9,1.3154337813912332e-9,0
51430,1.056640772975277e-8,1.4590334900332723e-8,8.605951144685401e-8,2.283525498217407e-7,1.8301064046055266e-7,3.341077613686204e-8,2.9827751278371753e-9,1.3143092517290531e-9,0
51431,1.0518824115437652e-8,1.4615854284919048e-8,8.630692745805026e-8,2.2830798865062394e-7,1.840900616101134e-7,3.3522754030098015e-8,2.985690655830676e-9,1.313184722066873e-9,0
51432,1.0471240501122536e-8,1.4641373669505373e-8,8.655434346924652e-8,2.282634274795072e-7,1.851694827596741e-7,3.3634731923333986e-8,2.988606183824176e-9,1.312060192404693e-9,0
51433,1.0423656886807418e-8,1.4666893054091698e-8,8.680175948044278e-8,2.2821886630839046e-7,1.8624890390923485e-7,3.3746709816569964e-8,2.9915217118176764e-9,1.3109356627425127e-9,0
51434,1.03760732724923e-8,1.4692412438678023e-8,8.704917549163905e-8,2.2817430513727374e-7,1.8732832505879556e-7,3.3858687709805935e-8,2.9944372398111765e-9,1.3098111330803326e-9,0
51435,1.0328489658177183e-8,1.4717931823264347e-8,8.72965915028353e-8,2.28129743966157e-7,1.884077462083563e-7,3.397066560304191e-8,2.997352767804677e-9,1.3086866034181526e-9,0
51436,1.0280906043862065e-8,1.4743451207850672e-8,8.754400751403156e-8,2.2808518279504026e-7,1.89487167357917e-7,3.4082643496277884e-8,3.000268295798177e-9,1.3075620737559723e-9,0
51437,1.0233322429546948e-8,1.4768970592436997e-8,8.779142352522781e-8,2.2804062162392351e-7,1.9056658850747774e-7,3.419462138951386e-8,3.0031838237916777e-9,1.3064375440937922e-9,0
51438,1.0185738815231832e-8,1.4794489977023322e-8,8.803883953642407e-8,2.2799606045280677e-7,1.9164600965703845e-7,3.4306599282749834e-8,3.006099351785178e-9,1.3053130144316122e-9,0
51439,1.0170664964864338e-8,1.4804827523598724e-8,8.832807386199947e-8,2.2798569550715605e-7,1.8850779208105057e-7,3.443242953613766e-8,3.002841785082527e-9,1.3009450327419436e-9,0
51440,1.0169510796114057e-8,1.4821089843452831e-8,8.8519897434787e-8,2.2768005103818007e-7,1.895759788054029e-7,3.455068186951314e-8,2.9998036185511546e-9,1.3010689426384238e-9,0
51441,1.0168356627363775e-8,1.4837352163306937e-8,8.871172100757453e-8,2.2737440656920407e-7,1.9064416552975522e-7,3.466893420288862e-8,2.9967654520197827e-9,1.3011928525349043e-9,0
51442,1.0167202458613493e-8,1.4853614483161044e-8,8.890354458036205e-8,2.2706876210022808e-7,1.9171235225410755e-7,3.47871865362641e-8,2.9937272854884104e-9,1.3013167624313846e-9,0
51443,1.016604828986321e-8,1.4869876803015152e-8,8.909536815314958e-8,2.2676311763125208e-7,1.9278053897845988e-7,3.490543886963958e-8,2.990689118957038e-9,1.3014406723278648e-9,0
51444,1.0164894121112928e-8,1.4886139122869257e-8,8.928719172593711e-8,2.2645747316227608e-7,1.938487257028122e-7,3.5023691203015064e-8,2.987650952425666e-9,1.301564582224345e-9,0
51445,1.0163739952362646e-8,1.4902401442723365e-8,8.947901529872464e-8,2.2615182869330008e-7,1.9491691242716453e-7,3.5141943536390545e-8,2.984612785894294e-9,1.3016884921208253e-9,0
51446,1.0161782025510912e-8,1.4893816952641086e-8,8.958844121198824e-8,2.2590613416220048e-7,1.9577680811175828e-7,3.516197418045736e-8,2.973531883724387e-9,1.3016884921208253e-9,0
51447,1.0208211471075748e-8,1.4884559887908869e-8,8.964424585485149e-8,2.2559479497531301e-7,1.9609555857554472e-7,3.515441236432072e-8,2.973751283895666e-9,1.3114188482032904e-9,0
51448,1.0212164410396309e-8,1.4911945886393272e-8,8.957521894408167e-8,2.2570978920576657e-7,1.9607255949074995e-7,3.514989137851445e-8,2.9626076959625373e-9,1.311793691424017e-9,0
51449,1.0216117349716871e-8,1.4939331884877673e-8,8.950619203331184e-8,2.2582478343622012e-7,1.9604956040595516e-7,3.514537039270817e-8,2.9514641080294084e-9,1.3121685346447437e-9,0
51450,1.0220070289037432e-8,1.4966717883362075e-8,8.943716512254202e-8,2.2593977766667367e-7,1.9602656132116038e-7,3.5140849406901894e-8,2.940320520096279e-9,1.3125433778654704e-9,0
51451,1.0224023228357995e-8,1.4994103881846476e-8,8.93681382117722e-8,2.2605477189712723e-7,1.9600356223636561e-7,3.513632842109562e-8,2.9291769321631503e-9,1.3129182210861971e-9,0
51452,1.0214056486061346e-8,1.4965871487179402e-8,8.939171226201109e-8,2.2584861471603544e-7,1.95947681536852e-7,3.512900816309458e-8,2.9299093903981554e-9,1.3125464913967564e-9,0
51453,1.0204089743764699e-8,1.4937639092512328e-8,8.941528631224999e-8,2.2564245753494362e-7,1.9589180083733837e-7,3.512168790509354e-8,2.93064184863316e-9,1.3121747617073154e-9,0
51454,1.019412300146805e-8,1.4909406697845254e-8,8.94388603624889e-8,2.2543630035385184e-7,1.9583592013782476e-7,3.51143676470925e-8,2.9313743068681647e-9,1.3118030320178747e-9,0
51455,1.0184156259171403e-8,1.4881174303178179e-8,8.94624344127278e-8,2.2523014317276002e-7,1.9578003943831115e-7,3.5107047389091456e-8,2.9321067651031698e-9,1.311431302328434e-9,0
51456,1.0174189516874756e-8,1.4852941908511105e-8,8.94860084629667e-8,2.2502398599166823e-7,1.9572415873879755e-7,3.509972713109042e-8,2.9328392233381744e-9,1.311059572638993e-9,0
51457,1.0164222774578107e-8,1.482470951384403e-8,8.950958251320561e-8,2.2481782881057642e-7,1.9566827803928394e-7,3.509240687308938e-8,2.9335716815731795e-9,1.3106878429495522e-9,0
51458,1.015425603228146e-8,1.4796477119176955e-8,8.953315656344451e-8,2.2461167162948463e-7,1.956123973397703e-7,3.508508661508834e-8,2.934304139808184e-9,1.3103161132601114e-9,0
51459,1.014428928998481e-8,1.4768244724509882e-8,8.955673061368342e-8,2.2440551444839281e-7,1.955565166402567e-7,3.5077766357087296e-8,2.9350365980431893e-9,1.3099443835706705e-9,0
51460,1.0134322547688164e-8,1.4740012329842808e-8,8.958030466392232e-8,2.2419935726730103e-7,1.9550063594074308e-7,3.507044609908626e-8,2.935769056278194e-9,1.3095726538812297e-9,0
51461,9.95916939221934e-9,1.4745823545716559e-8,8.874532822211084e-8,2.2184788798323852e-7,1.9412889363285187e-7,3.505120407789937e-8,2.9365015145131986e-9,1.2968497790955228e-09,0
51462,9.784016236750518e-9,1.475163476159031e-8,8.791035178029936e-8,2.1949641869917602e-7,1.9275715132496062e-7,3.503196205671248e-8,2.9372339727482037e-9,1.284126904309816e-9,0
51463,9.608863081281696e-9,1.475744597746406e-8,8.707537533848789e-8,2.1714494941511351e-07,1.913854090170694e-7,3.5012720035525595e-8,2.9379664309832083e-9,1.271404029524109e-9,0
51464,9.433709925812873e-9,1.4763257193337812e-8,8.624039889667642e-8,2.1479348013105098e-7,1.9001366670917818e-7,3.49934780143387e-8,2.9386988892182134e-9,1.2586811547384022e-9,0
51465,9.258556770344051e-9,1.4769068409211563e-8,8.540542245486495e-8,2.1244201084698848e-7,1.8864192440128693e-7,3.497423599315181e-8,2.939431347453218e-9,1.2459582799526953e-9,0
51466,9.083403614875228e-9,1.4774879625085314e-8,8.457044601305348e-8,2.1009054156292597e-7,1.872701820933957e-7,3.4954993971964926e-8,2.940163805688223e-9,1.2332354051669884e-9,0
51467,8.902108759484054e-9,1.4747561761043884e-8,8.372671484018797e-8,2.088900967776844e-7,1.87125913819086e-7,3.4940095793951544e-8,2.9557648287946034e-9,1.2314788718972633e-9,0
51468,8.720813904092879e-9,1.4720243897002455e-8,8.288298366732246e-8,2.076896519924428e-7,1.869816455447763e-7,3.4925197615938156e-8,2.971365851900984e-9,1.2297223386275383e-9,0
51469,8.539519048701704e-9,1.4692926032961026e-8,8.203925249445696e-8,2.0648920720720123e-7,1.8683737727046655e-7,3.4910299437924774e-8,2.9869668750073647e-9,1.2279658053578132e-9,0
51470,8.35822419331053e-9,1.4665608168919596e-8,8.119552132159145e-8,2.0528876242195964e-7,1.8669310899615684e-7,3.489540125991139e-8,3.0025678981137454e-9,1.2262092720880883e-9,0
51471,8.176929337919356e-9,1.4638290304878167e-8,8.035179014872595e-8,2.0408831763671806e-7,1.8654884072184713e-7,3.4880503081898005e-8,3.0181689212201256e-9,1.2244527388183632e-9,0
51472,7.99563448252818e-9,1.4610972440836738e-8,7.950805897586044e-8,2.0288787285147648e-7,1.8640457244753742e-7,3.486560490388462e-8,3.0337699443265063e-9,1.2226962055486382e-9,0
51473,7.814339627137007e-9,1.4583654576795308e-8,7.866432780299494e-8,2.016874280662349e-7,1.8626030417322768e-7,3.485070672587124e-8,3.049370967432887e-9,1.220939672278913e-9,0
51474,7.633044771745832e-9,1.4556336712753879e-8,7.782059663012943e-8,2.004869832809933e-7,1.8611603589891797e-7,3.483580854785786e-8,3.064971990539267e-9,1.219183139009188e-9,0
51475,7.451980750104714e-9,1.4534761930143228e-8,7.695723634629992e-8,1.980568561641596e-7,1.8484552473318937e-7,3.481645379954102e-8,3.0650033334208784e-9,1.2064602642234811e-9,0
51476,7.371079808313392e-9,1.4486949765334331e-8,7.694570931834023e-8,1.983833300882486e-7,1.8478770546261018e-7,3.458796092338709e-8,3.0652683814202876e-9,1.2060885345340404e-9,0
51477,7.29017886652207e-9,1.4439137600525434e-8,7.693418229038055e-8,1.9870980401233758e-7,1.84729886192031e-7,3.435946804723316e-8,3.065533429419697e-9,1.2057168048445996e-9,0
51478,7.289449279654807e-9,1.4383519207373957e-8,7.688727825616077e-8,1.9896501114260098e-7,1.8474952262844222e-7,3.432930130206515e-8,3.0497130061420377e-9,1.2048432085066658e-9,0
51479,7.288719692787543e-9,1.432790081422248e-8,7.684037422194099e-8,1.992202182728644e-7,1.8476915906485345e-7,3.429913455689713e-8,3.033892582864378e-9,1.2039696121687322e-9,0
51480,7.28799010592028e-9,1.4272282421071003e-8,7.679347018772119e-8,1.994754254031278e-7,1.8478879550126467e-7,3.426896781172912e-8,3.018072159586719e-9,1.2030960158307985e-9,0
51481,7.359414738484669e-9,1.4208079537837247e-8,7.68674872329212e-8,2.0051997913636423e-7,1.8508716926927926e-7,3.432085377276465e-8,3.002220393427448e-9,1.2100723324091244e-9,0
51482,7.430839371049058e-9,1.4143876654603494e-8,7.694150427812119e-8,2.015645328696007e-7,1.8538554303729385e-7,3.437273973380019e-8,2.9863686272681775e-9,1.2170486489874505e-9,0
51483,7.502264003613447e-9,1.4079673771369738e-8,7.701552132332119e-8,2.0260908660283714e-7,1.8568391680530845e-7,3.442462569483573e-8,2.970516861108907e-9,1.2240249655657764e-9,0
51484,7.573688636177836e-9,1.4015470888135983e-8,7.70895383685212e-8,2.0365364033607358e-7,1.8598229057332304e-7,3.4476511655871274e-8,2.954665094949636e-9,1.2310012821441023e-9,0
51485,7.645113268742226e-9,1.3951268004902228e-8,7.716355541372119e-8,2.0469819406931002e-7,1.8628066434133763e-7,3.4528397616906815e-8,2.9388133287903657e-9,1.2379775987224284e-9,0
51486,7.716537901306615e-9,1.3887065121668472e-8,7.723757245892118e-8,2.0574274780254646e-7,1.8657903810935222e-7,3.4580283577942356e-8,2.922961562631095e-9,1.2449539153007543e-9,0
51487,7.7455480733863e-9,1.3879258893325893e-8,7.724474336255618e-8,2.0609752410656687e-7,1.8682758648593107e-7,3.4548717196676954e-8,2.9068760913540268e-9,1.2481973673282428e-9,0
51488,7.774558245465984e-9,1.3871452664983315e-8,7.725191426619118e-8,2.064523004105873e-7,1.870761348625099e-7,3.451715081541156e-8,2.890790620076958e-9,1.251440819355731e-9,0
51489,7.80356841754567e-9,1.3863646436640735e-8,7.725908516982617e-8,2.0680707671460773e-7,1.8732468323908874e-7,3.4485584434146156e-8,2.8747051487998896e-9,1.2546842713832193e-9,0
51490,7.832578589625355e-9,1.3855840208298156e-8,7.726625607346117e-8,2.0716185301862814e-7,1.875732316156676e-7,3.445401805288076e-8,2.858619677522821e-9,1.2579277234107076e-9,0
51491,7.861588761705039e-9,1.3848033979955578e-8,7.727342697709617e-8,2.0751662932264856e-7,1.8782177999224641e-7,3.4422451671615366e-8,2.8425342062457527e-9,1.261171175438196e-9,0
51492,7.890598933784725e-9,1.3840227751612998e-8,7.728059788073117e-8,2.0787140562666897e-7,1.8807032836882526e-7,3.4390885290349964e-8,2.8264487349686843e-9,1.2644146274656844e-9,0
51493,7.91960910586441e-9,1.3832421523270418e-8,7.728776878436616e-8,2.0822618193068938e-7,1.8831887674540411e-07,3.435931890908457e-8,2.810363263691616e-9,1.2676580794931727e-9,0
51494,7.948619277944094e-9,1.382461529492784e-8,7.729493968800116e-8,2.085809582347098e-7,1.8856742512198294e-7,3.4327752527819166e-8,2.794277792414547e-9,1.270901531520661e-9,0
51495,7.977629450023779e-9,1.3816809066585261e-8,7.730211059163616e-8,2.089357345387302e-7,1.888159734985618e-7,3.429618614655377e-8,2.7781923211374787e-9,1.2741449835481494e-9,0
51496,8.006639622103465e-9,1.3809002838242681e-8,7.730928149527114e-8,2.0929051084275063e-7,1.8906452187514064e-7,3.4264619765288375e-8,2.7621068498604103e-9,1.2773884355756377e-9,0
51497,8.034421454198678e-9,1.3829429004567177e-8,7.702533707664787e-8,2.0917502529706018e-7,1.890459754773839e-7,3.4265633375398493e-8,2.726384682711175e-9,1.281756417265306e-9,0
51498,8.048580289613437e-9,1.386715254962698e-8,7.700949901002626e-8,2.086784830638245e-7,1.8924604113829924e-7,3.419114248533158e-8,2.7254185193583724e-9,1.2692844758038456e-9,0
51499,8.062739125028194e-9,1.3904876094686784e-8,7.699366094340464e-8,2.0818194083058883e-7,1.8944610679921458e-7,3.411665159526466e-8,2.72445235600557e-9,1.2568125343423852e-9,0
51500,8.076897960442952e-9,1.3942599639746587e-8,7.697782287678304e-8,2.0768539859735316e-7,1.8964617246012991e-7,3.4042160705197736e-8,2.723486192652767e-9,1.2443405928809247e-9,0
51501,8.09105679585771e-9,1.398032318480639e-8,7.696198481016142e-8,2.071888563641175e-7,1.8984623812104525e-7,3.396766981513082e-8,2.7225200292999642e-9,1.2318686514194643e-9,0
51502,8.105215631272468e-9,1.4018046729866193e-8,7.694614674353981e-8,2.0669231413088182e-7,1.900463037819606e-7,3.38931789250639e-8,2.7215538659471616e-9,1.2193967099580038e-9,0
51503,8.119374466687227e-9,1.4055770274925997e-8,7.693030867691819e-8,2.0619577189764618e-7,1.9024636944287592e-7,3.3818688034996986e-8,2.720587702594359e-9,1.2069247684965434e-9,0
51504,8.104597301256487e-9,1.403625076891195e-8,7.690900817046774e-8,2.052518034563993e-7,1.901324529266822e-7,3.37500533513309e-8,2.744402480693849e-9,1.1907075083591017e-9,0
51505,8.089053463341391e-9,1.4018748986847725e-8,7.685442385889458e-8,2.0435230592845663e-7,1.900716614877862e-7,3.369184417149904e-8,2.744402480693849e-9,1.1772318336006555e-9,0
51506,8.073509625426294e-9,1.4001247204783498e-8,7.679983954732143e-8,2.0345280840051398e-7,1.900108700488902e-7,3.363363499166718e-8,2.744402480693849e-9,1.1637561588422093e-9,0
51507,8.057965787511198e-9,1.3983745422719271e-8,7.674525523574828e-8,2.0255331087257135e-7,1.8995007860999421e-7,3.357542581183532e-8,2.744402480693849e-9,1.1502804840837631e-9,0
51508,8.0424219495961e-9,1.3966243640655046e-8,7.669067092417513e-8,2.016538133446287e-7,1.8988928717109822e-7,3.351721663200346e-8,2.744402480693849e-9,1.1368048093253171e-9,0
51509,8.017937641188373e-9,1.3959737138650364e-8,7.670711915644179e-8,2.0133151089516174e-7,1.8960988367353015e-7,3.3501931960973125e-8,2.7453686440466517e-9,1.1390445280558197e-9,0
51510,7.993453332780645e-9,1.3953230636645683e-8,7.672356738870846e-8,2.010092084456948e-7,1.8933048017596205e-7,3.348664728994278e-8,2.7463348073994543e-9,1.1412842467863222e-9,0
51511,7.968969024372917e-9,1.3946724134641001e-8,7.674001562097513e-8,2.0068690599622782e-7,1.8905107667839398e-7,3.347136261891245e-8,2.7473009707522573e-9,1.143523965516825e-9,0
51512,7.944484715965189e-9,1.394021763263632e-8,7.675646385324179e-8,2.0036460354676088e-7,1.8877167318082591e-7,3.3456077947882106e-8,2.74826713410506e-9,1.1457636842473274e-9,0
51513,7.920000407557462e-9,1.3933711130631638e-8,7.677291208550846e-8,2.0004230109729393e-7,1.8849226968325784e-7,3.344079327685177e-8,2.7492332974578625e-9,1.14800340297783e-9,0
51514,7.895516099149734e-9,1.3927204628626956e-8,7.678936031777513e-8,1.9971999864782695e-7,1.8821286618568978e-7,3.342550860582143e-8,2.750199460810665e-9,1.1502431217083327e-9,0
51515,7.871031790742006e-9,1.3920698126622274e-8,7.680580855004179e-8,1.9939769619836e-7,1.879334626881217e-7,3.3410223934791094e-8,2.751165624163468e-9,1.1524828404388352e-9,0
51516,7.846547482334278e-9,1.3914191624617593e-8,7.682225678230846e-8,1.9907539374889306e-7,1.8765405919055364e-7,3.339493926376075e-8,2.7521317875162707e-9,1.1547225591693377e-9,0
51517,7.82206317392655e-9,1.390768512261291e-8,7.683870501457513e-8,1.987530912994261e-7,1.8737465569298557e-7,3.3379654592730417e-08,2.7530979508690733e-9,1.1569622778998403e-9,0
51518,7.80229847732374e-9,1.3830264832040873e-8,7.683870501457513e-8,1.987605186283086e-7,1.8736234696975306e-7,3.3397480873944215e-8,2.745180586756984e-9,1.160326526292523e-9,0
51519,7.782533780720932e-9,1.3752844541468836e-8,7.683870501457513e-8,1.9876794595719107e-7,1.8735003824652057e-7,3.3415307155158013e-8,2.737263222644895e-9,1.1636907746852059e-9,0
51520,7.762769084118123e-9,1.36754242508968e-8,7.683870501457513e-8,1.9877537328607355e-7,1.8733772952328806e-7,3.343313343637181e-8,2.729345858532806e-9,1.1670550230778884e-9,0
51521,7.743004387515315e-9,1.3598003960324762e-8,7.683870501457513e-8,1.9878280061495603e-7,1.8732542080005558e-7,3.3450959717585617e-8,2.7214284944207165e-9,1.1704192714705712e-9,0
51522,7.723239690912505e-9,1.3520583669752725e-8,7.683870501457513e-8,1.9879022794383851e-7,1.8731311207682307e-7,3.3468785998799415e-8,2.7135111303086272e-9,1.173783519863254e-9,0
51523,7.703474994309698e-9,1.3443163379180689e-8,7.683870501457513e-8,1.98797655272721e-7,1.8730080335359059e-7,3.348661228001321e-8,2.7055937661965383e-9,1.1771477682559366e-9,0
51524,7.684402798957058e-9,1.342096841573268e-8,7.687198881969782e-8,1.9903779093965755e-7,1.872138509869868e-7,3.3491680330563816e-8,2.738651148405163e-9,1.1826309390139276e-9,0
51525,7.665330603604419e-9,1.3398773452284672e-8,7.690527262482052e-8,1.9927792660659414e-7,1.8712689862038303e-7,3.349674838111442e-8,2.771708530613788e-9,1.1881141097719184e-9,0
51526,7.649213841337926e-9,1.332519207659855e-8,7.696852409938028e-8,2.0093972826531062e-7,1.885304843359858e-7,3.360182471711772e-8,2.7989232848774666e-9,1.2010879178818718e-9,0
51527,7.633097079071435e-9,1.3251610700912427e-8,7.703177557394005e-8,2.0260152992402712e-7,1.899340700515886e-7,3.370690105312102e-8,2.826138039141145e-9,1.214061725991825e-9,0
51528,7.616980316804943e-9,1.3178029325226304e-8,7.709502704849982e-8,2.0426333158274362e-7,1.913376557671914e-7,3.3811977389124323e-08,2.853352793404823e-9,1.2270355341017784e-9,0
51529,7.600863554538452e-9,1.3104447949540181e-8,7.715827852305958e-8,2.059251332414601e-7,1.9274124148279416e-7,3.391705372512763e-8,2.8805675476685014e-9,1.2400093422117318e-9,0
51530,7.58474679227196e-9,1.3030866573854058e-8,7.722152999761935e-8,2.075869349001766e-7,1.9414482719839696e-7,3.4022130061130924e-8,2.90778230193218e-9,1.252983150321685e-9,0
51531,7.568630030005468e-9,1.2957285198167935e-8,7.728478147217912e-8,2.092487365588931e-7,1.9554841291399975e-7,3.412720639713423e-8,2.9349970561958584e-9,1.2659569584316384e-9,0
51532,7.570245866255863e-9,1.2950393500451002e-8,7.73147491416162e-8,2.109485430183289e-7,1.9665362486158793e-7,3.420998377774457e-8,2.9622118104595367e-9,1.2789307665415917e-9,0
51533,7.570097523787487e-9,1.2950393500451002e-8,7.705079472682776e-8,2.1224128598231036e-7,1.9792452189762723e-7,3.431200317954181e-8,2.9983100921881073e-9,1.2901604955069635e-9,0
51534,7.56994918131911e-9,1.2950393500451002e-8,7.678684031203931e-8,2.135340289462918e-7,1.9919541893366654e-7,3.441402258133904e-8,3.0344083739166775e-9,1.3013902244723353e-9,0
51535,7.569800838850735e-9,1.2950393500451002e-8,7.652288589725087e-8,2.1482677191027326e-7,2.0046631596970584e-7,3.451604198313628e-8,3.0705066556452477e-9,1.3126199534377071e-9,0
51536,7.569652496382358e-9,1.2950393500451002e-8,7.625893148246243e-8,2.1611951487425472e-7,2.0173721300574514e-7,3.461806138493351e-8,3.106604937373818e-9,1.323849682403079e-9,0
51537,7.569504153913981e-9,1.2950393500451002e-8,7.599497706767398e-8,2.1741225783823619e-7,2.0300811004178444e-7,3.472008078673075e-8,3.1427032191023885e-9,1.335079411368451e-9,0
51538,7.569355811445605e-9,1.2950393500451002e-8,7.573102265288554e-8,2.1870500080221765e-7,2.0427900707782372e-7,3.482210018852798e-8,3.1788015008309586e-9,1.3463091403338228e-9,0
51539,7.56625203589108e-9,1.2959892521158925e-8,7.547623415420091e-8,2.1830517387996235e-7,2.0427900707782372e-7,3.4914128424105365e-8,3.1849575575920177e-9,1.3479293095819238e-9,0
51540,7.563148260336556e-9,1.296939154186685e-8,7.52214456555163e-8,2.1790534695770704e-7,2.0427900707782372e-7,3.500615665968275e-8,3.1911136143530768e-9,1.3495494788300251e-9,0
51541,7.560044484782031e-9,1.2978890562574772e-8,7.496665715683168e-8,2.1750552003545176e-7,2.0427900707782372e-7,3.5098184895260145e-8,3.1972696711141362e-9,1.3511696480781264e-9,0
51542,7.556940709227508e-9,1.2988389583282697e-8,7.471186865814706e-8,2.1710569311319646e-7,2.0427900707782372e-7,3.519021313083753e-8,3.2034257278751953e-9,1.3527898173262277e-9,0
51543,7.553836933672983e-9,1.299788860399062e-8,7.445708015946244e-8,2.1670586619094116e-7,2.0427900707782372e-7,3.528224136641492e-8,3.2095817846362543e-9,1.3544099865743287e-9,0
51544,7.55073315811846e-9,1.3007387624698544e-8,7.420229166077783e-8,2.1630603926868585e-7,2.0427900707782372e-7,3.5374269601992304e-8,3.2157378413973134e-9,1.35603015582243e-9,0
51545,7.548968979399688e-9,1.300582323090395e-8,7.42753378550307e-8,2.1755784818711948e-7,2.0408088459773e-7,3.538158985999335e-8,3.2196651805717468e-9,1.3576503250705313e-9,0
51546,7.547204800680916e-9,1.3004258837109355e-8,7.434838404928357e-8,2.1880965710555308e-7,2.038827621176363e-7,3.538891011799439e-8,3.22359251974618e-9,1.3592704943186325e-9,0
51547,7.545440621962145e-9,1.3002694443314763e-8,7.442143024353644e-8,2.200614660239867e-7,2.0368463963754256e-7,3.5396230375995426e-8,3.2275198589206135e-9,1.3608906635667336e-9,0
51548,7.543676443243374e-9,1.3001130049520168e-8,7.449447643778931e-8,2.213132749424203e-7,2.0348651715744884e-7,3.5403550633996464e-8,3.231447198095047e-9,1.3625108328148349e-9,0
51549,7.541912264524602e-9,1.2999565655725574e-8,7.456752263204218e-8,2.2256508386085392e-7,2.032883946773551e-7,3.541087089199751e-8,3.2353745372694802e-9,1.3641310020629362e-9,0
51550,7.54014808580583e-9,1.2998001261930981e-8,7.464056882629505e-8,2.2381689277928752e-7,2.0309027219726138e-7,3.541819114999855e-8,3.2393018764439136e-9,1.3657511713110374e-9,0
51551,7.538383907087058e-9,1.2996436868136387e-8,7.471361502054792e-8,2.2506870169772114e-7,2.0289214971716765e-7,3.5425511407999586e-8,3.243229215618347e-9,1.3673713405591385e-9,0
51552,7.536619728368288e-9,1.2994872474341793e-8,7.478666121480079e-8,2.2632051061615474e-7,2.0269402723707393e-7,3.543283166600063e-8,3.2471565547927803e-9,1.3689915098072398e-9,0
51553,7.534855549649516e-9,1.29933080805472e-8,7.485970740905366e-8,2.2757231953458834e-7,2.024959047569802e-7,3.544015192400167e-8,3.2510838939672137e-9,1.370611679055341e-9,0
51554,7.49525198520971e-9,1.299760032558834e-8,7.35635169875559e-8,2.289336261591278e-7,2.0032876793267488e-7,3.530050058415402e-8,3.2461277056767548e-9,1.374099837344504e-9,0
51555,7.493636148959316e-9,1.2966889006501025e-8,7.387924634869215e-8,2.2955787710836564e-7,1.9816163110836954e-7,3.5195311521020774e-8,3.243898988090129e-9,1.3772131524129402e-9,0
51556,7.49202031270892e-9,1.2936177687413712e-8,7.419497570982839e-8,2.3018212805760349e-7,1.9599449428406422e-7,3.5090122457887527e-8,3.2416702705035034e-9,1.3803264674813766e-9,0
51557,7.490404476458525e-9,1.29054663683264e-8,7.451070507096465e-8,2.3080637900684133e-7,1.9382735745975887e-7,3.498493339475428e-8,3.2394415529168777e-9,1.3834397825498128e-9,0
51558,7.48878864020813e-9,1.2874755049239086e-8,7.482643443210089e-8,2.3143062995607918e-7,1.9166022063545355e-7,3.487974433162103e-8,3.237212835330252e-9,1.3865530976182491e-9,0
51559,7.487172803957735e-9,1.2844043730151772e-8,7.514216379323712e-8,2.3205488090531703e-7,1.894930838111482e-7,3.4774555268487785e-8,3.234984117743626e-9,1.3896664126866855e-9,0
51560,7.48555696770734e-9,1.281333241106446e-8,7.545789315437338e-8,2.326791318545549e-7,1.873259469868429e-7,3.466936620535454e-8,3.2327554001570002e-9,1.3927797277551216e-9,0
51561,7.483941131456945e-9,1.2782621091977146e-8,7.577362251550962e-8,2.3330338280379275e-7,1.8515881016253755e-7,3.456417714222129e-8,3.2305266825703745e-9,1.395893042823558e-9,0
51562,7.480293197120628e-9,1.2751909772889832e-8,7.5880607766193e-8,2.322911056656054e-7,1.8301424585194342e-7,3.468004797011099e-8,3.236699777266526e-9,1.3981389886166324e-9,0
51563,7.485243642675603e-9,1.2746249667067823e-8,7.580038546178893e-8,2.3235636974408576e-7,1.8088682882193055e-7,3.457833407492249e-8,3.2428728719626772e-9,1.404625892671609e-9,0
51564,7.490194088230578e-9,1.2740589561245814e-8,7.572016315738485e-8,2.3242163382256612e-7,1.7875941179191765e-7,3.447662017973398e-8,3.2490459666588286e-9,1.4111127967265857e-9,0
51565,7.495144533785555e-9,1.2734929455423804e-8,7.563994085298077e-8,2.324868979010465e-7,1.7663199476190478e-7,3.437490628454548e-8,3.25521906135498e-9,1.4175997007815623e-9,0
51566,7.50009497934053e-9,1.2729269349601795e-8,7.555971854857671e-8,2.3255216197952685e-7,1.7450457773189188e-7,3.427319238935697e-8,3.2613921560511313e-9,1.424086604836539e-9,0
51567,7.50009497934053e-9,1.2757766411725566e-8,7.55686748634841e-8,2.3365250998583764e-7,1.7432139558356567e-7,3.428212163383958e-8,3.2674085363392263e-9,1.4309483521122423e-9,0
51568,7.50009497934053e-9,1.2786263473849336e-8,7.55776311783915e-8,2.3475285799214843e-7,1.7413821343523946e-7,3.429105087832219e-8,3.2734249166273212e-9,1.4378100993879458e-9,0
51569,7.50009497934053e-9,1.2814760535973108e-8,7.55865874932989e-8,2.358532059984592e-7,1.7395503128691328e-7,3.429998012280479e-8,3.279441296915416e-9,1.4446718466636492e-9,0
51570,7.50009497934053e-9,1.2843257598096878e-8,7.55955438082063e-8,2.3695355400476998e-7,1.7377184913858707e-7,3.4308909367287396e-8,3.285457677203511e-9,1.4515335939393525e-9,0
51571,7.50009497934053e-9,1.2871754660220648e-8,7.560450012311369e-8,2.3805390201108076e-7,1.7358866699026086e-7,3.431783861177001e-8,3.2914740574916065e-9,1.458395341215056e-9,0
51572,7.50009497934053e-9,1.290025172234442e-8,7.56134564380211e-8,2.391542500173915e-7,1.7340548484193465e-7,3.432676785625261e-8,3.2974904377797015e-9,1.4652570884907592e-9,0
51573,7.50009497934053e-9,1.292874878446819e-8,7.562241275292849e-8,2.402545980237023e-7,1.7322230269360844e-7,3.4335697100735216e-8,3.3035068180677965e-9,1.4721188357664626e-9,0
51574,7.50009497934053e-9,1.2957245846591961e-8,7.563136906783589e-8,2.413549460300131e-7,1.7303912054528223e-7,3.434462634521783e-8,3.3095231983558914e-9,1.4789805830421659e-9,0
51575,7.50009497934053e-9,1.2985742908715733e-8,7.564032538274328e-8,2.424552940363239e-7,1.7285593839695602e-7,3.435355558970043e-8,3.315539578643987e-9,1.4858423303178693e-9,0
51576,7.5066612611459e-9,1.3006562141067674e-8,7.56545345362831e-8,2.435222888576565e-7,1.7290005443688324e-7,3.432223076657063e-8,3.3276350249833993e-9,1.4927040775935728e-9,0
51577,7.513227542951273e-9,1.3027381373419617e-8,7.566874368982291e-8,2.445892836789891e-7,1.729441704768105e-7,3.4290905943440826e-8,3.3397304713228118e-9,1.499565824869276e-9,0
51578,7.519793824756643e-9,1.304820060577156e-8,7.568295284336274e-8,2.456562785003217e-7,1.729882865167377e-7,3.4259581120311024e-8,3.3518259176622247e-9,1.5064275721449795e-9,0
51579,7.526360106562014e-9,1.3069019838123503e-8,7.569716199690256e-8,2.467232733216543e-7,1.7303240255666496e-7,3.422825629718123e-8,3.363921364001637e-9,1.5132893194206827e-9,0
51580,7.532926388367384e-9,1.3089839070475444e-8,7.571137115044237e-8,2.477902681429869e-7,1.7307651859659218e-7,3.4196931474051425e-8,3.3760168103410496e-9,1.5201510666963862e-9,0
51581,7.546438128196558e-9,1.3239064069294898e-8,7.584700815386224e-8,2.4806985927405845e-7,1.7308580984097895e-7,3.4169580571983574e-8,3.3768119543392773e-9,1.5213995062550465e-9,0
51582,7.559949868025732e-9,1.338828906811435e-8,7.59826451572821e-8,2.4834945040512997e-7,1.7309510108536573e-7,3.4142229669915723e-8,3.3776070983375045e-9,1.522647945813707e-9,0
51583,7.573461607854908e-9,1.3537514066933803e-8,7.611828216070197e-8,2.486290415362015e-7,1.7310439232975253e-7,3.4114878767847866e-8,3.3784022423357317e-9,1.5238963853723674e-9,0
51584,7.586973347684082e-9,1.3686739065753255e-8,7.625391916412184e-8,2.4890863266727306e-7,1.731136835741393e-7,3.4087527865780015e-8,3.3791973863339593e-9,1.5251448249310279e-9,0
51585,7.600485087513256e-9,1.3835964064572709e-8,7.638955616754172e-8,2.491882237983446e-7,1.7312297481852607e-7,3.4060176963712164e-8,3.3799925303321866e-9,1.5263932644896882e-9,0
51586,7.61399682734243e-9,1.398518906339216e-8,7.652519317096157e-8,2.4946781492941615e-7,1.7313226606291285e-7,3.4032826061644314e-8,3.3807876743304138e-9,1.5276417040483485e-9,0
51587,7.627508567171605e-9,1.4134414062211614e-8,7.6660830174381445e-08,2.4974740606048766e-07,1.7314155730729962e-7,3.400547515957646e-8,3.3815828183286414e-9,1.528890143607009e-9,0
51588,7.641020307000779e-9,1.4283639061031066e-8,7.679646717780132e-8,2.500269971915592e-7,1.7315084855168642e-7,3.397812425750861e-8,3.3823779623268686e-9,1.5301385831656694e-9,0
51589,7.669098824032747e-9,1.4275439766661041e-8,7.715234606108835e-8,2.532020120716441e-7,1.7333881090459584e-7,3.400105126405412e-8,3.4457339131586745e-9,1.5414797679023779e-9,0
51590,7.618345582976408e-9,1.3955292659226741e-8,7.579174495408959e-8,2.555880097603661e-7,1.7298574361789826e-7,3.3867112596815025e-8,3.4282434781862456e-9,1.5528209526390866e-9,0
51591,7.56759234192007e-9,1.3635145551792441e-8,7.443114384709084e-8,2.5797400744908803e-7,1.7263267633120065e-7,3.3733173929575925e-8,3.4107530432138166e-9,1.564162137375795e-9,0
51592,7.548833471599167e-9,1.3633452759427096e-8,7.43080844808709e-8,2.611545449033991e-7,1.7283776100454884e-7,3.3748667483960754e-8,3.4495617577111278e-9,1.5698962414580323e-9,0
51593,7.530074601278265e-9,1.3631759967061751e-8,7.418502511465095e-8,2.643350823577102e-7,1.7304284567789703e-7,3.3764161038345584e-8,3.4883704722084385e-9,1.5756303455402698e-9,0
51594,7.511315730957362e-9,1.3630067174696408e-8,7.406196574843099e-8,2.675156198120213e-7,1.7324793035124522e-7,3.3779654592730414e-8,3.5271791867057496e-9,1.5813644496225072e-9,0
51595,7.492556860636459e-9,1.3628374382331063e-8,7.393890638221105e-8,2.706961572663324e-7,1.734530150245934e-7,3.379514814711524e-8,3.5659879012030603e-9,1.5870985537047445e-9,0
51596,7.447483652002359e-9,1.3635787544646194e-8,7.346987686818312e-8,2.7105880568447684e-7,1.7374653449462886e-7,3.374400156327312e-8,3.5903041654083304e-9,1.594589191056707e-9,0
51597,7.402410443368261e-9,1.3643200706961327e-8,7.300084735415519e-8,2.7142145410262134e-7,1.7404005396466433e-7,3.3692854979431e-8,3.614620429613601e-9,1.6020798284086693e-9,0
51598,7.357337234734161e-9,1.365061386927646e-8,7.253181784012726e-8,2.7178410252076583e-7,1.743335734346998e-7,3.364170839558888e-8,3.638936693818871e-9,1.6095704657606316e-9,0
51599,7.312264026100062e-9,1.365802703159159e-8,7.206278832609933e-8,2.721467509389103e-7,1.7462709290473525e-7,3.359056181174676e-8,3.6632529580241415e-9,1.6170611031125941e-9,0
51600,7.2671908174659636e-9,1.3665440193906723e-8,7.15937588120714e-8,2.725093993570548e-7,1.749206123747707e-7,3.3539415227904634e-8,3.6875692222294116e-9,1.6245517404645565e-9,0
51601,7.222117608831864e-9,1.3672853356221854e-8,7.112472929804348e-8,2.728720477751993e-7,1.7521413184480617e-7,3.348826864406251e-8,3.711885486434682e-9,1.632042377816519e-9,0
51602,7.188791961308168e-9,1.3733467150860596e-8,7.169683358854148e-8,2.7366658754078845e-7,1.7527537020517216e-7,3.351169346966584e-8,3.687104544982389e-9,1.6268101403827744e-9,0
51603,7.155466313784472e-9,1.3794080945499336e-8,7.226893787903948e-8,2.744611273063776e-7,1.7533660856553815e-7,3.3535118295269174e-8,3.6623236035300964e-9,1.6215779029490298e-9,0
51604,7.122140666260776e-9,1.3854694740138078e-8,7.284104216953749e-8,2.752556670719667e-7,1.7539784692590415e-7,3.35585431208725e-8,3.6375426620778033e-9,1.6163456655152855e-9,0
51605,7.08881501873708e-9,1.391530853477682e-8,7.341314646003549e-8,2.7605020683755586e-7,1.7545908528627014e-7,3.358196794647583e-8,3.6127617206255107e-9,1.611113428081541e-9,0
51606,7.055489371213383e-9,1.397592232941556e-8,7.398525075053349e-8,2.7684474660314505e-7,1.7552032364663613e-7,3.3605392772079155e-8,3.5879807791732177e-9,1.6058811906477965e-9,0
51607,7.022163723689688e-9,1.4036536124054303e-8,7.45573550410315e-8,2.776392863687342e-7,1.7558156200700212e-7,3.362881759768249e-8,3.563199837720925e-9,1.600648953214052e-9,0
51608,6.988838076165991e-9,1.4097149918693043e-8,7.51294593315295e-8,2.784338261343233e-7,1.7564280036736814e-7,3.3652242423285816e-8,3.538418896268632e-9,1.5954167157803074e-9,0
51609,6.9555124286422955e-9,1.4157763713331785e-8,7.57015636220275e-8,2.7922836589991246e-7,1.7570403872773413e-7,3.3675667248889143e-8,3.5136379548163394e-9,1.590184478346563e-9,0
51610,6.922186781118599e-9,1.4218377507970527e-8,7.62736679125255e-8,2.800229056655016e-7,1.7576527708810012e-7,3.369909207449247e-8,3.4888570133640464e-9,1.5849522409128185e-9,0
51611,6.888861133594903e-9,1.4278991302609267e-8,7.684577220302352e-8,2.8081744543109074e-7,1.758265154484661e-7,3.3722516900095804e-8,3.4640760719117537e-9,1.579720003479074e-9,0
51612,6.855535486071207e-9,1.433960509724801e-8,7.741787649352152e-8,2.8161198519667993e-7,1.758877538088321e-7,3.374594172569913e-8,3.4392951304594607e-9,1.5744877660453295e-9,0
51613,6.870386822736134e-9,1.4393712389882068e-8,7.84044259864743e-8,2.8242951320159654e-7,1.7559494502825873e-7,3.376186915066865e-8,3.4035729633102255e-9,1.574738699369576e-9,0
51614,6.8558200455333405e-9,1.4447819682516128e-8,7.945607869212434e-8,2.832240529671857e-7,1.7489328540365027e-7,3.2801528775968994e-8,3.3674746815816553e-9,1.562015824583869e-9,0
51615,6.841253268330548e-9,1.4501926975150187e-8,8.050773139777437e-8,2.840185927327748e-7,1.7419162577904182e-7,3.1841188401269346e-8,3.331376399853085e-9,1.5492929497981622e-9,0
51616,6.826686491127755e-9,1.4556034267784247e-8,8.155938410342442e-8,2.8481313249836396e-7,1.7348996615443339e-7,3.088084802656969e-8,3.2952781181245145e-9,1.5365700750124553e-9,0
51617,6.812119713924961e-9,1.4610141560418306e-8,8.261103680907446e-8,2.856076722639531e-7,1.7278830652982493e-7,2.992050765187004e-8,3.2591798363959443e-9,1.5238472002267484e-9,0
51618,6.7975529367221684e-9,1.4664248853052367e-8,8.366268951472449e-8,2.864022120295423e-7,1.7208664690521647e-7,2.896016727717039e-8,3.223081554667374e-9,1.5111243254410415e-9,0
51619,6.782986159519376e-9,1.4718356145686427e-8,8.471434222037453e-8,2.871967517951314e-7,1.7138498728060801e-7,2.7999826902470734e-8,3.186983272938804e-9,1.4984014506553346e-9,0
51620,6.768419382316582e-9,1.4772463438320486e-8,8.576599492602457e-8,2.8799129156072056e-7,1.7068332765599956e-7,2.7039486527771083e-8,3.1508849912102334e-9,1.4856785758696277e-9,0
51621,6.753852605113789e-9,1.4826570730954546e-8,8.681764763167462e-8,2.887858313263097e-7,1.6998166803139113e-7,2.6079146153071432e-8,3.114786709481663e-9,1.4729557010839209e-9,0
51622,6.7392858279109955e-9,1.4880678023588605e-8,8.786930033732464e-8,2.8958037109189884e-7,1.6928000840678267e-7,2.5118805778371777e-8,3.078688427753093e-9,1.460232826298214e-9,0
51623,6.724719050708203e-9,1.4934785316222663e-8,8.892095304297469e-8,2.9037491085748803e-7,1.685783487821742e-7,2.4158465403672126e-8,3.0425901460245224e-9,1.447509951512507e-9,0
51624,6.71015227350541e-9,1.4988892608856724e-8,8.997260574862473e-8,2.9116945062307717e-7,1.6787668915756576e-7,2.3198125028972475e-8,3.0064918642959522e-9,1.4347870767268002e-9,0
51625,6.751528336711478e-9,1.51140263479985e-8,9.053831121340835e-8,2.924190458553613e-7,1.686824484293592e-7,2.2246746106506842e-8,2.9954879528357874e-9,1.4532440555947445e-9,0
51626,6.8209829169495146e-9,1.5243996508260604e-8,9.089845084317835e-8,2.928115012847285e-7,1.702045162310003e-7,2.199897760032553e-8,3.0183849483991785e-9,1.4847987524691222e-9,0
51627,6.818950818863593e-9,1.524692089252087e-8,9.081747249553978e-8,2.922245591235884e-7,1.7034386454641554e-7,2.167658937307165e-8,3.0161875736941636e-9,1.485173595689849e-9,0
51628,6.816918720777671e-9,1.5249845276781142e-8,9.073649414790121e-8,2.9163761696244824e-7,1.704832128618308e-7,2.1354201145817766e-8,3.0139901989891492e-9,1.4855484389105756e-9,0
51629,6.814886622691749e-9,1.525276966104141e-8,9.065551580026265e-8,2.9105067480130816e-7,1.7062256117724604e-7,2.1031812918563886e-8,3.011792824284135e-9,1.4859232821313025e-9,0
51630,6.812854524605827e-9,1.525569404530168e-8,9.057453745262408e-8,2.9046373264016803e-07,1.707619094926613e-7,2.0709424691310006e-8,3.00959544957912e-9,1.4862981253520292e-9,0
51631,6.8108224265199045e-9,1.5258618429561948e-8,9.04935591049855e-8,2.898767904790279e-7,1.7090125780807653e-7,2.0387036464056123e-8,3.0073980748741056e-9,1.4866729685727559e-9,0
51632,6.808790328433983e-9,1.526154281382222e-8,9.041258075734694e-8,2.892898483178878e-7,1.710406061234918e-7,2.0064648236802243e-8,3.005200700169091e-9,1.4870478117934826e-9,0
51633,6.806758230348061e-9,1.5264467198082486e-8,9.033160240970837e-8,2.8870290615674767e-7,1.7117995443890703e-7,1.9742260009548363e-8,3.0030033254640763e-9,1.4874226550142093e-9,0
51634,6.758407943548585e-9,1.5169817663218116e-8,9.037325360529574e-8,2.8889692205340056e-7,1.704284870748555e-7,1.971989663865258e-8,3.001974476348051e-9,1.4870509253247685e-9,0
51635,6.710057656749111e-9,1.5075168128353743e-8,9.04149048008831e-8,2.8909093795005345e-7,1.6967701971080396e-7,1.9697533267756798e-8,3.000945627232026e-9,1.4866791956353276e-9,0
51636,6.661707369949636e-9,1.4980518593489373e-8,9.045655599647047e-8,2.892849538467064e-7,1.689255523467524e-7,1.9675169896861017e-8,2.999916778116001e-9,1.4863074659458868e-9,0
51637,6.613357083150161e-9,1.4885869058625e-8,9.049820719205783e-8,2.894789697433593e-7,1.6817408498270086e-7,1.9652806525965233e-8,2.9988879289999757e-9,1.485935736256446e-9,0
51638,6.565006796350686e-9,1.4791219523760628e-8,9.05398583876452e-8,2.8967298564001217e-7,1.674226176186493e-7,1.9630443155069452e-8,2.9978590798839506e-9,1.485564006567005e-9,0
51639,6.5166565095512116e-9,1.4696569988896256e-8,9.058150958323256e-8,2.8986700153666505e-7,1.6667115025459776e-7,1.960807978417367e-8,2.9968302307679254e-9,1.4851922768775644e-9,0
51640,6.470338320837659e-9,1.4657939783526002e-8,9.09563649294339e-8,2.898998103725901e-7,1.6637428196544687e-7,1.9701894148865395e-8,3.0021141528210153e-9,1.4851922768775644e-9,0
51641,6.424020132124106e-9,1.461930957815575e-8,9.133122027563522e-8,2.8993261920851513e-7,1.66077413676296e-7,1.979570851355712e-8,3.0073980748741056e-9,1.4851922768775644e-9,0
51642,6.375632759707537e-9,1.4522340099238074e-8,9.219717511697745e-8,2.918743032518576e-7,1.6519367307289017e-7,1.9768036001004833e-8,3.0066029308758784e-9,1.4856941435260572e-9,0
51643,6.327245387290968e-9,1.44253706203204e-8,9.306312995831968e-8,2.938159872952e-7,1.6430993246948435e-7,1.9740363488452544e-8,3.0058077868776507e-9,1.4861960101745501e-9,0
51644,6.278858014874399e-9,1.4328401141402725e-8,9.392908479966191e-8,2.957576713385424e-7,1.634261918660785e-7,1.9712690975900255e-8,3.0050126428794235e-9,1.486697876823043e-9,0
51645,6.23047064245783e-9,1.4231431662485052e-8,9.479503964100414e-8,2.9769935538188487e-7,1.625424512626727e-7,1.968501846334797e-8,3.0042174988811963e-9,1.4871997434715359e-9,0
51646,6.182083270041261e-9,1.4134462183567378e-8,9.566099448234637e-8,2.996410394252273e-7,1.6165871065926688e-7,1.965734595079568e-8,3.0034223548829686e-9,1.4877016101200287e-9,0
51647,6.133695897624692e-9,1.4037492704649703e-8,9.652694932368859e-8,3.0158272346856974e-7,1.6077497005586106e-7,1.962967343824339e-8,3.0026272108847414e-9,1.4882034767685216e-9,0
51648,6.085308525208123e-9,1.394052322573203e-8,9.739290416503082e-8,3.0352440751191215e-7,1.5989122945245522e-7,1.9602000925691106e-8,3.001832066886514e-9,1.4887053434170145e-9,0
51649,5.995162107939924e-9,1.3641973612389371e-8,9.786224688300871e-8,3.041135103253855e-7,1.5946909464070192e-7,1.958446404721033e-8,3.001832066886514e-9,1.488085793934613e-9,0
51650,5.986304128728973e-9,1.3615260188554909e-8,9.879741699511487e-8,3.0473500230536135e-7,1.5926247109586698e-7,1.9495074979130026e-8,2.9997743686544635e-9,1.4892103235967931e-9,0
51651,5.970426520260029e-9,1.3584548869467596e-8,9.94446155953404e-8,3.0614660297698467e-7,1.586500698402144e-7,1.9405057859897173e-8,2.997810699067247e-9,1.4869706048662906e-9,0
51652,5.954548911791086e-9,1.3553837550380282e-8,1.0009181419556591e-7,3.0755820364860794e-7,1.5803766858456183e-7,1.9315040740664317e-8,2.99584702948003e-9,1.484730886135788e-9,0
51653,5.938671303322142e-9,1.3523126231292969e-8,1.0073901279579144e-7,3.0896980432023126e-7,1.5742526732890926e-7,1.9225023621431465e-8,2.9938833598928136e-9,1.4824911674052853e-9,0
51654,5.922793694853199e-9,1.3492414912205656e-8,1.0138621139601696e-7,3.103814049918545e-7,1.568128660732567e-7,1.9135006502198612e-8,2.991919690305597e-9,1.4802514486747828e-9,0
51655,5.9069531720013494e-9,1.3500538201817514e-8,1.013319985979158e-7,3.0999585208837416e-7,1.5615662637493713e-7,1.9058021379515965e-8,2.9907511647166075e-9,1.4768872002821e-9,0
51656,5.8911126491495e-9,1.3508661491429373e-8,1.0127778579981464e-7,3.096102991848938e-7,1.5550038667661755e-7,1.8981036256833318e-8,2.9895826391276182e-9,1.4735229518894174e-9,0
51657,5.87527212629765e-9,1.3516784781041231e-8,1.0122357300171347e-7,3.0922474628141343e-7,1.5484414697829797e-7,1.8904051134150674e-8,2.988414113538629e-9,1.4701587034967346e-9,0
51658,5.859431603445801e-9,1.352490807065309e-8,1.0116936020361231e-7,3.088391933779331e-7,1.541879072799784e-7,1.8827066011468027e-8,2.9872455879496397e-9,1.466794455104052e-9,0
51659,5.843591080593952e-9,1.3533031360264948e-8,1.0111514740551115e-7,3.0845364047445276e-7,1.5353166758165883e-7,1.875008088878538e-8,2.9860770623606505e-9,1.4634302067113692e-9,0
51660,5.827750557742103e-9,1.3541154649876807e-8,1.0106093460740999e-7,3.080680875709724e-7,1.5287542788333925e-7,1.8673095766102736e-8,2.984908536771661e-9,1.4600659583186864e-9,0
51661,5.811872949273159e-9,1.3518899422301022e-8,1.0100672180930883e-7,3.0749442285643216e-7,1.522559515516257e-7,1.858859713891057e-8,2.984908536771661e-9,1.4569526432502503e-9,0
51662,5.795995340804215e-9,1.3496644194725235e-8,1.0095250901120767e-7,3.06920758141892e-7,1.5163647521991214e-7,1.8504098511718408e-8,2.984908536771661e-9,1.453839328181814e-9,0
51663,5.7801177323352724e-9,1.347438896714945e-8,1.0089829621310651e-7,3.0634709342735176e-7,1.510169988881986e-7,1.8419599884526242e-8,2.984908536771661e-9,1.4507260131133776e-9,0
51664,5.764240123866329e-9,1.3452133739573665e-8,1.0084408341500535e-7,3.0577342871281154e-7,1.5039752255648506e-7,1.833510125733408e-8,2.984908536771661e-9,1.4476126980449414e-9,0
51665,5.748362515397385e-9,1.3429878511997879e-8,1.0078987061690419e-7,3.0519976399827136e-7,1.497780462247715e-7,1.8250602630141914e-8,2.984908536771661e-9,1.444499382976505e-9,0
51666,5.732484906928442e-9,1.3407623284422094e-8,1.0073565781880303e-7,3.0462609928373114e-7,1.4915856989305796e-7,1.816610400294975e-8,2.984908536771661e-9,1.441386067908069e-9,0
51667,5.716607298459498e-9,1.3385368056846309e-8,1.0068144502070187e-7,3.040524345691909e-7,1.485390935613444e-7,1.808160537575759e-8,2.984908536771661e-9,1.4382727528396325e-9,0
51668,5.7007296899905545e-9,1.3363112829270524e-8,1.0062723222260071e-7,3.0347876985465073e-7,1.4791961722963087e-7,1.7997106748565423e-8,2.984908536771661e-9,1.4351594377711962e-9,0
51669,5.684852081521612e-9,1.3340857601694737e-8,1.0057301942449955e-7,3.029051051401105e-7,1.4730014089791732e-7,1.791260812137326e-8,2.984908536771661e-9,1.43204612270276e-9,0
51670,5.668974473052668e-9,1.3318602374118952e-8,1.0051880662639839e-7,3.023314404255703e-7,1.4668066456620377e-7,1.7828109494181095e-8,2.984908536771661e-9,1.4289328076343237e-9,0
51671,5.653096864583724e-9,1.3296347146543167e-8,1.0046459382829723e-7,3.017577757110301e-7,1.460611882344902e-7,1.7743610866988932e-8,2.984908536771661e-9,1.4258194925658873e-9,0
51672,5.651027680880708e-9,1.3307946866809678e-8,1.0056366795922848e-7,2.995878265117525e-7,1.4490976618096757e-7,1.7753714760338724e-8,2.983053200775797e-9,1.4254477628764466e-9,0
51673,5.651027680880708e-9,1.3307946866809678e-8,1.0081114769403172e-7,2.992772661574188e-7,1.4416562000897645e-7,1.7750448942778164e-8,2.985250575480812e-9,1.424574166538513e-9,0
51674,5.651027680880708e-9,1.3307946866809678e-8,1.0105862742883497e-7,2.989667058030851e-7,1.4342147383698533e-7,1.7747183125217607e-8,2.9874479501858264e-9,1.4237005702005791e-9,0
51675,5.651027680880708e-9,1.3307946866809678e-8,1.013061071636382e-7,2.986561454487514e-7,1.426773276649942e-7,1.7743917307657047e-8,2.9896453248908408e-9,1.4228269738626455e-9,0
51676,5.651027680880708e-9,1.3307946866809678e-8,1.0155358689844145e-7,2.983455850944177e-7,1.4193318149300309e-7,1.7740651490096487e-8,2.991842699595855e-9,1.4219533775247119e-9,0
51677,5.652985607732442e-9,1.3343018565381103e-8,1.01547967960422e-7,2.985873807924515e-7,1.423061359418674e-7,1.7765508626578306e-8,2.9958954102967337e-9,1.4251968295522001e-9,0
51678,5.652754773982385e-9,1.3361275897704038e-8,1.0157721665494427e-7,2.984949923558992e-7,1.4152642932473124e-7,1.7762033458633564e-8,3.011980881573802e-9,1.426569179007341e-9,0
51679,5.652523940232329e-9,1.3379533230026972e-8,1.0160646534946656e-7,2.984026039193468e-7,1.407467227075951e-7,1.7758558290688822e-8,3.028066352850871e-9,1.4279415284624815e-9,0
51680,5.652293106482273e-9,1.3397790562349908e-8,1.0163571404398884e-7,2.983102154827944e-7,1.3996701609045897e-7,1.775508312274408e-8,3.0441518241279393e-9,1.4293138779176222e-9,0
51681,5.652062272732216e-9,1.3416047894672842e-8,1.0166496273851111e-7,2.9821782704624205e-7,1.391873094733228e-7,1.7751607954799337e-8,3.0602372954050077e-9,1.4306862273727628e-9,0
51682,5.651831438982159e-9,1.3434305226995777e-8,1.0169421143303339e-7,2.9812543860968966e-7,1.3840760285618666e-7,1.7748132786854592e-8,3.076322766682076e-9,1.4320585768279036e-9,0
51683,5.6516006052321035e-9,1.3452562559318712e-8,1.0172346012755566e-7,2.9803305017313727e-7,1.376278962390505e-7,1.774465761890985e-8,3.0924082379591445e-9,1.4334309262830442e-9,0
51684,5.64273430597366e-9,1.3481550504244496e-8,1.0121063311379714e-7,2.9822701953979486e-7,1.357216479958173e-7,1.749116173733336e-8,3.088435250956581e-9,1.4325635570076822e-9,0
51685,5.460438138920944e-9,1.3471393750052428e-8,9.956399980112266e-8,2.971975121540662e-7,1.3507614205822663e-7,1.741654201626079e-8,3.1045207222336493e-9,1.4161140447337096e-9,0
51686,5.278141971868228e-9,1.346123699586036e-8,9.791736648844819e-8,2.961680047683376e-7,1.34430636120636e-7,1.7341922295188218e-8,3.120606193510718e-9,1.3996645324597368e-9,0
51687,5.095845804815513e-9,1.3451080241668294e-8,9.627073317577371e-8,2.9513849738260895e-7,1.3378513018304535e-7,1.7267302574115648e-8,3.1366916647877865e-9,1.383215020185764e-9,0
51688,4.913549637762797e-9,1.3440923487476226e-8,9.462409986309923e-8,2.941089899968803e-7,1.331396242454547e-7,1.7192682853043078e-8,3.152777136064855e-9,1.3667655079117911e-9,0
51689,4.731253470710081e-9,1.343076673328416e-8,9.297746655042476e-8,2.9307948261115164e-7,1.3249411830786405e-7,1.7118063131970508e-8,3.1688626073419233e-9,1.3503159956378185e-9,0
51690,4.548957303657365e-9,1.3420609979092091e-8,9.133083323775028e-8,2.92049975225423e-7,1.3184861237027339e-7,1.704344341089794e-8,3.1849480786189918e-9,1.3338664833638457e-9,0
51691,4.36666113660465e-9,1.3410453224900025e-8,8.96841999250758e-8,2.9102046783969433e-7,1.3120310643268275e-7,1.696882368982537e-8,3.20103354989606e-9,1.3174169710898728e-9,0
51692,4.184364969551934e-9,1.3400296470707957e-8,8.803756661240132e-8,2.899909604539657e-7,1.305576004950921e-7,1.68942039687528e-8,3.217119021173129e-9,1.3009674588159002e-9,0
51693,4.002068802499218e-9,1.339013971651589e-8,8.639093329972685e-8,2.8896145306823707e-7,1.2991209455750144e-7,1.681958424768023e-8,3.2332044924501974e-9,1.2845179465419274e-9,0
51694,3.9998800418974285e-9,1.3412621159436991e-8,8.635507878155187e-8,2.8785870155415276e-7,1.2900485341778985e-7,1.6802352875808182e-8,3.249056258609468e-9,1.2867638923350018e-9,0
51695,3.997691281295638e-9,1.3435102602358092e-8,8.631922426337689e-8,2.8675595004006845e-7,1.2809761227807828e-7,1.6785121503936134e-8,3.2649080247687383e-9,1.289009838128076e-9,0
51696,3.995502520693848e-9,1.3457584045279194e-8,8.628336974520191e-8,2.856531985259841e-7,1.2719037113836668e-7,1.676789013206409e-8,3.2807597909280092e-9,1.2912557839211504e-9,0
51697,3.993313760092057e-9,1.3480065488200295e-8,8.624751522702694e-8,2.845504470118998e-7,1.262831299986551e-7,1.675065876019204e-8,3.2966115570872797e-9,1.2935017297142248e-9,0
51698,3.9911249994902674e-9,1.3502546931121396e-8,8.621166070885195e-8,2.8344769549781547e-7,1.2537588885894352e-7,1.6733427388319994e-8,3.31246332324655e-9,1.2957476755072992e-9,0
51699,3.998025051849485e-9,1.3602411111967747e-8,8.614093855813525e-8,2.8453157627931877e-7,1.2641887876919943e-7,1.724572782609979e-8,3.3370105595810453e-9,1.3103291987402103e-9,0
51700,4.004925104208703e-9,1.37022752928141e-8,8.607021640741854e-8,2.85615457060822e-7,1.2746186867945534e-7,1.7758028263879587e-8,3.3615577959155404e-9,1.324910721973121e-9,0
51701,4.0029671773569695e-9,1.371463056333932e-8,8.604720743716192e-8,2.8429453362895637e-7,1.2654350599734188e-7,1.7735342815469677e-8,3.3613240907977424e-9,1.325282451662562e-9,0
51702,4.0010092505052355e-9,1.372698583386454e-8,8.602419846690532e-8,2.829736101970907e-7,1.2562514331522842e-7,1.7712657367059763e-8,3.3610903856799445e-9,1.3256541813520028e-9,0
51703,3.9990513236535015e-9,1.3739341104389758e-8,8.600118949664872e-8,2.8165268676522506e-7,1.2470678063311494e-7,1.7689971918649853e-8,3.3608566805621466e-9,1.3260259110414436e-9,0
51704,3.9970933968017675e-9,1.3751696374914977e-8,8.59781805263921e-8,2.8033176333335946e-7,1.2378841795100148e-7,1.7667286470239943e-8,3.3606229754443486e-9,1.3263976407308845e-9,0
51705,3.9951354699500335e-9,1.3764051645440197e-8,8.59551715561355e-8,2.790108399014938e-7,1.22870055268888e-7,1.7644601021830033e-8,3.360389270326551e-9,1.3267693704203253e-9,0
51706,3.9931775430983e-9,1.3776406915965417e-8,8.593216258587888e-8,2.7768991646962816e-7,1.2195169258677453e-7,1.762191557342012e-8,3.360155565208753e-9,1.3271411001097662e-9,0
51707,3.991219616246566e-9,1.3788762186490637e-8,8.590915361562228e-8,2.763689930377625e-7,1.2103332990466104e-7,1.759923012501021e-8,3.3599218600909553e-9,1.327512829799207e-9,0
51708,3.979101198965222e-9,1.3801117457015857e-8,8.593162936770008e-8,2.763969055343874e-7,1.193844659284429e-7,1.7601209033603333e-8,3.3440871318667767e-9,1.3263914136683126e-9,0
51709,3.966982781683878e-9,1.3813472727541077e-8,8.595410511977788e-8,2.764248180310122e-7,1.1773560195222474e-7,1.7603187942196453e-8,3.3282524036425985e-9,1.3252699975374185e-9,0
51710,3.9669456960667844e-9,1.3786532188896706e-8,8.59011577386296e-8,2.759706726149173e-7,1.1773550941980466e-7,1.7360214187708427e-8,3.3280186985248006e-9,1.322528412158423e-9,0
51711,3.96690861044969e-9,1.3759591650252333e-8,8.58482103574813e-8,2.7551652719882237e-7,1.1773541688738458e-7,1.71172404332204e-8,3.3277849934070026e-9,1.3197868267794275e-9,0
51712,3.9676752829340474e-9,1.3712096546712716e-8,8.577808514855038e-8,2.75116400651073e-7,1.177464458973664e-7,1.6914520746344783e-8,3.327816336288614e-9,1.3162986684902644e-9,0
51713,3.968441955418405e-9,1.3664601443173098e-8,8.570795993961946e-8,2.747162741033236e-7,1.177574749073482e-7,1.6711801059469165e-8,3.327847679170225e-9,1.3128105102011016e-9,0
51714,3.969208627902763e-9,1.361710633963348e-8,8.563783473068853e-8,2.7431614755557424e-7,1.1776850391733001e-7,1.6509081372593546e-8,3.3278790220518365e-9,1.3093223519119386e-9,0
51715,3.96997530038712e-9,1.3569611236093862e-8,8.556770952175761e-8,2.7391602100782486e-7,1.1777953292731181e-7,1.6306361685717928e-8,3.3279103649334477e-9,1.3058341936227755e-9,0
51716,3.970741972871478e-9,1.3522116132554243e-8,8.549758431282669e-8,2.735158944600755e-7,1.1779056193729363e-7,1.6103641998842313e-8,3.327941707815059e-9,1.3023460353336127e-9,0
51717,3.9715086453558355e-9,1.3474621029014625e-8,8.542745910389576e-8,2.731157679123261e-7,1.1780159094727544e-7,1.5900922311966694e-8,3.3279730506966703e-9,1.2988578770444496e-9,0
51718,3.973540743441757e-9,1.3432657632726266e-8,8.53302341078439e-8,2.7284744804126783e-7,1.1789811215552622e-7,1.567112548891023e-8,3.3638376273074426e-9,1.2954936286517668e-9,0
51719,3.975572841527679e-9,1.3390694236437907e-8,8.523300911179203e-8,2.7257912817020956e-7,1.1799463336377701e-7,1.5441328665853772e-8,3.3997022039182152e-9,1.2921293802590842e-9,0
51720,3.977604939613602e-9,1.3348730840149548e-8,8.513578411574016e-8,2.7231080829915123e-7,1.180911545720278e-7,1.5211531842797313e-8,3.4355667805289875e-9,1.2887651318664014e-9,0
51721,3.979637037699523e-9,1.3306767443861189e-8,8.503855911968828e-8,2.7204248842809296e-7,1.1818767578027858e-7,1.4981735019740854e-8,3.47143135713976e-9,1.2854008834737186e-9,0
51722,3.9816691357854456e-9,1.3264804047572828e-8,8.494133412363642e-8,2.717741685570347e-7,1.1828419698852938e-7,1.4751938196684391e-8,3.5072959337505324e-9,1.282036635081036e-9,0
51723,3.983701233871367e-9,1.322284065128447e-8,8.484410912758455e-8,2.7150584868597636e-7,1.1838071819678017e-7,1.4522141373627932e-8,3.543160510361305e-9,1.2786723866883532e-9,0
51724,3.9857333319572894e-9,1.318087725499611e-8,8.474688413153268e-8,2.712375288149181e-7,1.1847723940503096e-7,1.429234455057147e-8,3.5790250869720773e-9,1.2753081382956707e-9,0
51725,3.987765430043212e-9,1.3138913858707751e-8,8.464965913548082e-8,2.709692089438598e-7,1.1857376061328174e-7,1.4062547727515011e-8,3.61488966358285e-9,1.2719438899029879e-9,0
51726,3.989797528129133e-9,1.3096950462419392e-8,8.455243413942894e-8,2.707008890728015e-7,1.1867028182153253e-7,1.383275090445855e-8,3.650754240193622e-9,1.268579641510305e-9,0
51727,3.991829626215056e-9,1.3054987066131033e-8,8.445520914337707e-8,2.704325692017432e-7,1.1876680302978333e-7,1.3602954081402091e-8,3.686618816804395e-9,1.2652153931176225e-9,0
51728,3.993861724300978e-9,1.3013023669842672e-8,8.435798414732521e-8,2.7016424933068493e-7,1.188633242380341e-7,1.337315725834563e-8,3.722483393415167e-9,1.2618511447249397e-9,0
51729,3.9958938223868996e-9,1.2971060273554313e-8,8.426075915127334e-8,2.698959294596266e-7,1.189598454462849e-7,1.3143360435289169e-8,3.75834797002594e-9,1.258486896332257e-9,0
51730,3.9861041881282304e-9,1.2976916912390047e-8,8.424903314271838e-8,2.698936431936034e-7,1.1882167048243214e-7,1.3143360435289169e-8,3.7903935410536315e-9,1.2488804501462723e-9,0
51731,3.97953790632286e-9,1.2803018025702348e-8,8.387585700177782e-8,2.686003744925669e-7,1.1842859006355147e-7,1.3161444378514272e-8,3.8254629736661765e-9,1.2477559204840922e-9,0
51732,3.972971624517489e-9,1.2629119139014649e-8,8.350268086083725e-8,2.6730710579153043e-7,1.1803550964467081e-7,1.3179528321739375e-8,3.8605324062787215e-9,1.246631390821912e-9,0
51733,3.9664053427121185e-9,1.245522025232695e-8,8.312950471989668e-8,2.6601383709049396e-7,1.1764242922579015e-7,1.3197612264964478e-8,3.8956018388912665e-9,1.2455068611597319e-9,0
51734,3.959839060906747e-9,1.228132136563925e-8,8.275632857895613e-8,2.647205683894575e-7,1.1724934880690948e-7,1.3215696208189581e-8,3.9306712715038116e-9,1.2443823314975518e-9,0
51735,3.975724989423183e-9,1.2101739661648551e-8,8.237959483933001e-8,2.632751167137982e-7,1.1684669954638181e-7,1.3216211065182494e-8,3.931839797092801e-9,1.2457546809526924e-9,0
51736,3.975947503125748e-9,1.193141502239007e-8,8.210364369444132e-8,2.617356277446071e-7,1.1643174156262164e-7,1.3226572153513896e-8,3.931075995976185e-9,1.2452528143041995e-9,0
51737,3.968041624484624e-9,1.1760183722821137e-8,8.17309556860168e-8,2.6034663566906317e-7,1.1595316894547201e-7,1.3231624100188792e-8,3.950105605139792e-9,1.245872363786601e-9,0
51738,3.960135745843501e-9,1.1588952423252206e-8,8.135826767759227e-8,2.5895764359351917e-7,1.1547459632832237e-7,1.3236676046863688e-8,3.969135214303399e-9,1.2464919132690024e-9,0
51739,3.952229867202377e-9,1.1417721123683275e-8,8.098557966916774e-8,2.5756865151797523e-7,1.1499602371117272e-7,1.3241727993538583e-8,3.988164823467006e-9,1.2471114627514037e-9,0
51740,3.944323988561254e-9,1.1246489824114342e-8,8.061289166074323e-8,2.561796594424313e-7,1.1451745109402308e-7,1.3246779940213479e-8,4.007194432630612e-9,1.2477310122338051e-9,0
51741,3.93641810992013e-9,1.1075258524545411e-8,8.02402036523187e-8,2.5479066736688735e-7,1.1403887847687345e-7,1.3251831886888375e-08,4.02622404179422e-9,1.2483505617162064e-9,0
51742,3.928512231279007e-9,1.090402722497648e-8,7.986751564389418e-8,2.5340167529134336e-7,1.135603058597238e-7,1.325688383356327e-8,4.045253650957826e-9,1.2489701111986078e-9,0
51743,3.920606352637883e-9,1.0732795925407548e-8,7.949482763546965e-8,2.520126832157994e-7,1.1308173324257416e-7,1.3261935780238166e-8,4.0642832601214334e-9,1.249589660681009e-9,0
51744,3.91270047399676e-9,1.0561564625838617e-8,7.912213962704512e-8,2.5062369114025547e-7,1.1260316062542452e-7,1.326698772691306e-8,4.08331286928504e-9,1.2502092101634105e-9,0
51745,3.904794595355636e-9,1.0390333326269686e-8,7.874945161862061e-8,2.4923469906471153e-7,1.1212458800827487e-7,1.3272039673587957e-8,4.102342478448647e-9,1.250828759645812e-9,0
51746,3.896888716714513e-9,1.0219102026700753e-8,7.837676361019608e-8,2.4784570698916754e-7,1.1164601539112524e-7,1.3277091620262853e-8,4.121372087612254e-9,1.2514483091282132e-9,0
51747,3.8889828380733894e-9,1.0047870727131822e-8,7.800407560177156e-8,2.464567149136236e-7,1.111674427739756e-7,1.3282143566937749e-8,4.140401696775861e-9,1.2520678586106147e-9,0
51748,3.881076959432266e-9,9.87663942756289e-9,7.763138759334703e-8,2.4506772283807966e-7,1.1068887015682595e-7,1.3287195513612645e-8,4.159431305939468e-9,1.252687408093016e-9,0
51749,3.8731710807911425e-9,9.705408127993958e-9,7.725869958492252e-8,2.4367873076253566e-7,1.102102975396763e-7,1.3292247460287539e-8,4.178460915103075e-9,1.2533069575754174e-9,0
51750,3.865265202150019e-9,9.534176828425027e-9,7.688601157649799e-8,2.422897386869917e-7,1.0973172492252666e-7,1.3297299406962435e-8,4.197490524266682e-9,1.2539265070578186e-9,0
51751,3.864036862165548e-9,9.49276547853105e-9,7.684222209411046e-8,2.423884108523853e-7,1.0961453368061341e-7,1.3284267410412228e-8,4.216582819193511e-9,1.2554196528781537e-9,0
51752,3.862808522181078e-9,9.451354128637076e-9,7.679843261172292e-8,2.4248708301777885e-7,1.0949734243870016e-7,1.3271235413862021e-8,4.235675114120341e-9,1.2569127986984888e-9,0
51753,3.861580182196608e-9,9.4099427787431e-9,7.67546431293354e-8,2.4258575518317237e-7,1.0938015119678691e-7,1.3258203417311812e-8,4.25476740904717e-9,1.258405944518824e-9,0
51754,3.8603518422121375e-9,9.368531428849124e-9,7.671085364694786e-8,2.4268442734856593e-7,1.0926295995487366e-7,1.3245171420761605e-8,4.273859703974e-9,1.259899090339159e-9,0
51755,3.8591235022276665e-9,9.327120078955149e-9,7.666706416456033e-8,2.427830995139595e-7,1.0914576871296041e-7,1.3232139424211398e-8,4.292951998900829e-9,1.261392236159494e-9,0
51756,3.857895162243196e-9,9.293749043064263e-9,7.666706416456033e-8,2.427540452854121e-7,1.0903077328898653e-7,1.3215503428710797e-8,4.292250883547435e-9,1.2622658324974277e-9,0
51757,3.856666822258726e-9,9.260378007173378e-9,7.666706416456033e-8,2.427249910568647e-7,1.0891577786501266e-7,1.3198867433210195e-8,4.291549768194042e-9,1.2631394288353615e-9,0
51758,3.8544780616569356e-9,9.223190767877568e-9,7.669214769801011e-8,2.4275776360285285e-7,1.0886543989119157e-7,1.3182311957088127e-8,4.291549768194042e-9,1.2627645856146346e-9,0
51759,3.852289301055146e-9,9.186003528581758e-9,7.671723123145991e-8,2.42790536148841e-7,1.0881510191737049e-7,1.3165756480966057e-8,4.291549768194042e-9,1.262389742393908e-9,0
51760,3.850100540453355e-9,9.183396205590769e-9,7.616384611375891e-8,2.421325253874391e-7,1.0888762653459208e-7,1.316583700034459e-8,4.286203160377729e-9,1.2541649862569217e-9,0
51761,3.847911779851565e-9,9.18078888259978e-9,7.561046099605791e-8,2.414745146260371e-7,1.0896015115181368e-7,1.3165917519723121e-8,4.280856552561416e-9,1.2459402301199353e-9,0
51762,3.8457230192497745e-9,9.17818155960879e-9,7.505707587835692e-8,2.408165038646351e-7,1.0903267576903529e-7,1.3165998039101654e-8,4.275509944745103e-9,1.237715473982949e-9,0
51763,3.843534258647985e-9,9.1755742366178e-9,7.450369076065592e-8,2.4015849310323313e-7,1.0910520038625688e-7,1.3166078558480186e-8,4.2701633369287905e-9,1.2294907178459625e-9,0
51764,3.841345498046194e-9,9.172966913626811e-9,7.395030564295492e-8,2.395004823418312e-7,1.0917772500347848e-7,1.3166159077858719e-8,4.264816729112478e-9,1.221265961708976e-9,0
51765,3.839156737444404e-9,9.170359590635822e-9,7.339692052525392e-8,2.388424715804292e-7,1.0925024962070008e-7,1.316623959723725e-8,4.259470121296165e-9,1.2130412055719897e-9,0
51766,3.8369679768426135e-9,9.16775226764483e-9,7.284353540755294e-8,2.3818446081902724e-7,1.0932277423792167e-7,1.3166320116615783e-8,4.254123513479853e-9,1.2048164494350033e-9,0
51767,3.830640848834791e-9,9.149494935321896e-9,7.287529109152051e-8,2.374467240068647e-7,1.090466093750563e-7,1.3167864687594523e-8,4.25406082771663e-9,1.204692539538523e-9,0
51768,3.830640848834791e-9,9.152812385609612e-9,7.286869849172708e-8,2.3740433836384177e-7,1.0892468132772647e-7,1.3169393154697558e-8,4.248870934308374e-9,1.2002006479523744e-9,0
51769,3.8283408313817186e-9,9.15703649620778e-9,7.293246194326333e-8,2.3724042910390568e-7,1.0814383014189484e-7,1.3075852555892842e-8,4.248808248545151e-9,1.1994540750422068e-9,0
51770,3.8383900649600466e-9,9.150529994203098e-9,7.293576485508968e-8,2.370312607921125e-7,1.0736862534505016e-7,1.2980767386109387e-8,4.2480131045469236e-9,1.2021956604212022e-9,0
51771,3.8484392985383745e-9,9.144023492198416e-9,7.293906776691603e-8,2.3682209248031934e-7,1.0659342054820548e-7,1.2885682216325931e-8,4.247217960548696e-9,1.2049372458001978e-9,0
51772,3.8584885321167025e-9,9.137516990193735e-9,7.294237067874237e-8,2.3661292416852614e-7,1.058182157513608e-7,1.2790597046542474e-8,4.246422816550469e-9,1.2076788311791932e-9,0
51773,3.8685377656950305e-9,9.131010488189053e-9,7.294567359056872e-8,2.3640375585673297e-7,1.0504301095451613e-7,1.2695511876759019e-8,4.2456276725522415e-9,1.2104204165581886e-9,0
51774,3.8785869992733585e-9,9.124503986184371e-9,7.294897650239507e-8,2.361945875449398e-7,1.0426780615767145e-7,1.2600426706975564e-8,4.244832528554014e-9,1.2131620019371842e-9,0
51775,3.888636232851686e-9,9.11799748417969e-9,7.295227941422142e-8,2.3598541923314663e-7,1.0349260136082677e-7,1.2505341537192108e-8,4.244037384555787e-9,1.2159035873161796e-9,0
51776,3.935473620204556e-9,9.378551014690653e-9,7.305419216892342e-8,2.3582285270087498e-7,1.0287828840561336e-7,1.2417657144788224e-8,4.246935874614195e-9,1.2207640950604832e-9,0
51777,3.982311007557427e-9,9.639104545201615e-9,7.315610492362542e-8,2.356602861686033e-7,1.0226397545039995e-7,1.2329972752384342e-8,4.2498343646726035e-9,1.2256246028047868e-9,0
51778,4.0291483949102975e-9,9.899658075712579e-9,7.325801767832741e-8,2.3549771963633164e-7,1.0164966249518654e-7,1.2242288359980458e-8,4.252732854731011e-9,1.2304851105490906e-9,0
51779,4.075985782263168e-9,1.0160211606223542e-8,7.335993043302941e-8,2.3533515310405996e-7,1.0103534953997313e-7,1.2154603967576576e-8,4.255631344789419e-9,1.2353456182933943e-9,0
51780,4.122823169616039e-9,1.0420765136734506e-8,7.34618431877314e-8,2.351725865717883e-7,1.0042103658475972e-7,1.2066919575172692e-8,4.258529834847827e-9,1.2402061260376979e-9,0
51781,4.169660556968909e-9,1.068131866724547e-8,7.356375594243339e-8,2.3501002003951663e-7,9.980672362954632e-8,1.1979235182768809e-8,4.2614283249062355e-9,1.2450666337820015e-9,0
51782,4.216497944321779e-9,1.0941872197756433e-8,7.366566869713539e-8,2.3484745350724498e-7,9.91924106743329e-8,1.1891550790364926e-8,4.264326814964644e-9,1.2499271415263053e-9,0
51783,4.26333533167465e-9,1.1202425728267397e-8,7.376758145183738e-8,2.346848869749733e-7,9.85780977191195e-8,1.1803866397961043e-8,4.267225305023052e-9,1.254787649270609e-9,0
51784,4.3101727190275205e-9,1.1462979258778359e-8,7.386949420653938e-8,2.3452232044270165e-7,9.796378476390609e-8,1.171618200555716e-8,4.27012379508146e-9,1.2596481570149125e-9,0
51785,4.357010106380391e-9,1.1723532789289323e-8,7.397140696124138e-8,2.3435975391042997e-7,9.734947180869268e-8,1.1628497613153277e-8,4.273022285139868e-9,1.2645086647592162e-9,0
51786,4.403847493733262e-9,1.1984086319800286e-8,7.407331971594336e-8,2.3419718737815832e-7,9.673515885347927e-8,1.1540813220749393e-8,4.2759207751982765e-9,1.26936917250352e-9,0
51787,4.4506848810861316e-9,1.224463985031125e-8,7.417523247064536e-8,2.3403462084588666e-7,9.612084589826587e-8,1.145312882834551e-8,4.278819265256684e-9,1.2742296802478236e-9,0
51788,4.497522268439002e-9,1.2505193380822213e-8,7.427714522534735e-8,2.3387205431361498e-7,9.550653294305245e-8,1.1365444435941627e-8,4.281717755315092e-9,1.2790901879921272e-9,0
51789,4.546391753877795e-9,1.2771800083182633e-8,7.429953601261585e-8,2.3395799431552116e-7,9.55991067385007e-8,1.1365444435941627e-8,4.281592383788647e-9,1.283448829087938e-9,0
51790,4.531392074744491e-9,1.3040552908063623e-8,7.43376853157816e-8,2.3327788675339366e-7,9.550802650401029e-8,1.1369788279115133e-8,4.2555175452209204e-9,1.2871879207013474e-9,0
51791,4.516392395611188e-9,1.3309305732944612e-8,7.437583461894735e-8,2.3259777919126618e-7,9.541694626951988e-8,1.1374132122288637e-8,4.229442706653193e-9,1.290927012314757e-9,0
51792,4.501392716477884e-9,1.3578058557825602e-8,7.44139839221131e-8,2.319176716291387e-7,9.532586603502945e-8,1.1378475965462141e-8,4.203367868085466e-9,1.2946661039281662e-9,0
51793,4.4382902243901454e-9,1.3648519016237732e-8,7.45243197735437e-8,2.3272478072052896e-7,9.505662266464568e-8,1.1427562654302918e-8,4.182437275097864e-9,1.2929220247835849e-9,0
51794,4.383241953411907e-9,1.3664758624610848e-8,7.445775216329831e-8,2.320527704500271e-7,9.473094800998386e-8,1.1424521823972556e-8,4.152668802473502e-9,1.2910540357425231e-9,0
51795,4.328193682433668e-9,1.3680998232983964e-8,7.439118455305292e-8,2.3138076017952522e-7,9.440527335532205e-8,1.1421480993642195e-8,4.1229003298491395e-9,1.2891860467014613e-9,0
51796,4.2731454114554296e-9,1.369723784135708e-8,7.432461694280754e-8,2.3070874990902337e-7,9.407959870066023e-8,1.1418440163311833e-8,4.093131857224777e-9,1.2873180576603996e-9,0
51797,4.218097140477191e-9,1.3713477449730196e-8,7.425804933256215e-8,2.3003673963852148e-7,9.375392404599842e-8,1.1415399332981473e-8,4.063363384600414e-9,1.2854500686193378e-9,0
51798,4.163048869498952e-9,1.3729717058103312e-8,7.419148172231676e-8,2.2936472936801963e-7,9.34282493913366e-8,1.141235850265111e-8,4.0335949119760514e-9,1.283582079578276e-9,0
51799,4.108000598520714e-9,1.3745956666476428e-8,7.412491411207138e-8,2.2869271909751775e-7,9.31025747366748e-8,1.140931767232075e-8,4.003826439351689e-9,1.2817140905372142e-9,0
51800,4.0529523275424745e-9,1.3762196274849544e-8,7.405834650182599e-8,2.280207088270159e-7,9.277690008201299e-8,1.1406276841990388e-8,3.974057966727326e-9,1.2798461014961525e-9,0
51801,3.997904056564236e-9,1.3778435883222659e-8,7.39917788915806e-8,2.27348698556514e-7,9.245122542735117e-8,1.1403236011660028e-8,3.944289494102963e-9,1.2779781124550907e-9,0
51802,3.942855785585998e-9,1.3794675491595775e-8,7.392521128133522e-8,2.2667668828601215e-7,9.212555077268936e-8,1.1400195181329666e-8,3.914521021478601e-9,1.276110123414029e-9,0
51803,3.887807514607759e-9,1.3810915099968891e-8,7.385864367108983e-8,2.2600467801551027e-7,9.179987611802754e-8,1.1397154350999305e-8,3.8847525488542385e-9,1.2742421343729671e-9,0
51804,3.83275924362952e-9,1.3827154708342007e-8,7.379207606084444e-8,2.2533266774500842e-7,9.147420146336574e-8,1.1394113520668943e-8,3.854984076229875e-9,1.2723741453319054e-9,0
51805,3.777710972651281e-9,1.3843394316715123e-8,7.372550845059906e-8,2.2466065747450654e-7,9.114852680870392e-8,1.1391072690338583e-8,3.825215603605513e-9,1.2705061562908436e-9,0
51806,3.7226627016730428e-9,1.385963392508824e-8,7.365894084035367e-8,2.2398864720400468e-7,9.082285215404211e-8,1.138803186000822e-8,3.79544713098115e-9,1.2686381672497818e-9,0
51807,3.667614430694804e-9,1.3875873533461356e-8,7.359237323010828e-8,2.233166369335028e-7,9.049717749938029e-8,1.138499102967786e-8,3.765678658356788e-9,1.26677017820872e-9,0
51808,3.6125661597165652e-9,1.389211314183447e-8,7.35258056198629e-8,2.2264462666300094e-7,9.017150284471848e-8,1.1381950199347498e-8,3.735910185732425e-9,1.2649021891676583e-9,0
51809,3.5575178887383265e-9,1.3908352750207586e-8,7.345923800961752e-8,2.2197261639249906e-7,8.984582819005668e-8,1.1378909369017138e-8,3.7061417131080622e-9,1.2630342001265965e-9,0
51810,3.502469617760088e-9,1.3924592358580702e-8,7.339267039937213e-8,2.213006061219972e-7,8.952015353539486e-8,1.1375868538686776e-8,3.6763732404836994e-9,1.2611662110855347e-9,0
51811,3.509258413268023e-9,1.393530025970256e-8,7.338986624066299e-8,2.210070675815826e-7,8.867124616001006e-8,1.1374340071583743e-8,3.6562664013873638e-9,1.2611662110855347e-9,0
51812,3.5160472087759587e-9,1.3946008160824417e-8,7.338706208195385e-8,2.2071352904116804e-7,8.782233878462525e-8,1.1372811604480708e-8,3.6361595622910286e-9,1.2611662110855347e-9,0
51813,3.5229472611351767e-9,1.3933229242475564e-8,7.339117414002051e-8,2.2057677112324175e-7,8.783185118486901e-8,1.1362450516149308e-8,3.6361595622910286e-9,1.2585454220717336e-9,0
51814,3.521026419900537e-9,1.3934891453044722e-8,7.37511650813742e-8,2.20624542552683e-7,8.783415988561489e-8,1.1352073323942198e-8,3.6420819139342897e-9,1.2566712059681e-9,0
51815,3.519105578665897e-9,1.3936553663613881e-8,7.411115602272791e-8,2.2067231398212422e-7,8.783646858636076e-8,1.1341696131735091e-8,3.648004265577551e-9,1.2547969898644665e-9,0
51816,3.519105578665897e-9,1.3989368200760646e-8,7.411807223950371e-8,2.2044151877066616e-7,8.783737356017511e-8,1.1331801588769483e-8,3.648004265577551e-9,1.2521762008506654e-9,0
51817,3.519105578665897e-9,1.4042182737907409e-8,7.412498845627953e-8,2.202107235592081e-7,8.783827853398945e-8,1.1321907045803876e-8,3.648004265577551e-9,1.2495554118368644e-9,0
51818,3.519105578665897e-9,1.4094997275054172e-8,7.413190467305533e-8,2.1997992834775e-7,8.783918350780378e-8,1.1312012502838268e-8,3.648004265577551e-9,1.2469346228230633e-9,0
51819,3.519105578665897e-9,1.4147811812200935e-8,7.413882088983115e-8,2.1974913313629194e-7,8.784008848161812e-8,1.1302117959872662e-8,3.648004265577551e-9,1.2443138338092622e-9,0
51820,3.519105578665897e-9,1.4200626349347699e-8,7.414573710660695e-8,2.1951833792483388e-7,8.784099345543245e-8,1.1292223416907053e-8,3.648004265577551e-9,1.241693044795461e-9,0
51821,3.519105578665897e-9,1.4253440886494462e-8,7.415265332338277e-8,2.192875427133758e-7,8.78418984292468e-8,1.1282328873941447e-8,3.648004265577551e-9,1.23907225578166e-9,0
51822,3.519105578665897e-9,1.4306255423641225e-8,7.415956954015858e-8,2.1905674750191772e-7,8.784280340306113e-8,1.1272434330975839e-8,3.648004265577551e-9,1.2364514667678591e-9,0
51823,3.519105578665897e-9,1.4359069960787988e-8,7.416648575693439e-8,2.1882595229045966e-7,8.784370837687547e-8,1.1262539788010232e-8,3.648004265577551e-9,1.233830677754058e-9,0
51824,3.519105578665897e-9,1.4411884497934752e-8,7.41734019737102e-8,2.185951570790016e-7,8.78446133506898e-8,1.1252645245044624e-8,3.648004265577551e-9,1.231209888740257e-9,0
51825,3.5202597474161793e-9,1.4468349287268901e-8,7.394120324288934e-8,2.184583721771375e-7,8.779485092177561e-8,1.1251583323307384e-8,3.639354443230457e-9,1.2304633158300893e-9,0
51826,3.5214139161664615e-9,1.452481407660305e-8,7.370900451206848e-8,2.183215872752734e-7,8.774508849286143e-8,1.1250521401570145e-8,3.630704620883363e-9,1.2297167429199218e-9,0
51827,3.5225680849167437e-9,1.4581278865937198e-8,7.347680578124761e-8,2.1818480237340933e-7,8.769532606394724e-8,1.1249459479832904e-8,3.622054798536269e-9,1.2289701700097542e-9,0
51828,3.523722253667026e-9,1.4570941319361798e-8,7.344321960034486e-8,2.1838149348533264e-7,8.769532606394724e-8,1.1248397558095666e-8,3.6142001201874022e-9,1.229472036658247e-9,0
51829,3.524876422417308e-9,1.4560603772786396e-8,7.340963341944213e-8,2.1857818459725595e-7,8.769532606394724e-8,1.1247335636358425e-8,3.6063454418385355e-9,1.22997390330674e-9,0
51830,3.5260305911675903e-9,1.4550266226210996e-8,7.337604723853939e-8,2.1877487570917928e-7,8.769532606394724e-8,1.1246273714621186e-8,3.5984907634896688e-9,1.2304757699552328e-9,0
51831,3.5271847599178725e-9,1.4539928679635594e-8,7.329364957901545e-8,2.1910108816582983e-7,8.664976368495334e-8,1.1120926110474861e-8,3.5904480278511343e-9,1.2316002996174131e-9,0
51832,3.5283389286681547e-9,1.4529591133060194e-8,7.321125191949151e-8,2.194273006224804e-7,8.560420130595944e-8,1.0995578506328536e-8,3.5824052922126003e-9,1.2327248292795932e-9,0
51833,3.529493097418437e-9,1.4519253586484793e-8,7.312885425996757e-8,2.1975351307913096e-7,8.455863892696552e-8,1.0870230902182213e-8,3.574362556574066e-9,1.2338493589417732e-9,0
51834,3.5306472661687186e-9,1.4508916039909392e-8,7.304645660044363e-8,2.2007972553578154e-7,8.351307654797162e-8,1.0744883298035888e-8,3.566319820935532e-9,1.2349738886039533e-9,0
51835,3.531801434919001e-9,1.449857849333399e-8,7.29640589409197e-8,2.2040593799243209e-7,8.246751416897772e-8,1.0619535693889565e-8,3.5582770852969975e-9,1.2360984182661336e-9,0
51836,3.532955603669283e-9,1.448824094675859e-8,7.288166128139576e-8,2.2073215044908266e-7,8.142195178998382e-8,1.049418808974324e-8,3.5502343496584635e-9,1.2372229479283136e-9,0
51837,3.5321518455678317e-9,1.4592730174545749e-8,7.270256382665569e-8,2.2123942703115872e-7,8.032803070900727e-8,1.0369902407334155e-8,3.542191614019929e-9,1.2370990380318334e-9,0
51838,3.53134808746638e-9,1.4697219402332909e-8,7.252346637191563e-8,2.2174670361323477e-7,7.923410962803072e-8,1.0245616724925071e-8,3.5341488783813947e-9,1.2369751281353531e-9,0
51839,3.530544329364928e-9,1.4801708630120069e-8,7.234436891717556e-8,2.2225398019531082e-7,7.814018854705417e-8,1.0121331042515986e-8,3.5261061427428607e-9,1.236851218238873e-9,0
51840,3.5297405712634767e-9,1.4906197857907227e-8,7.21652714624355e-8,2.227612567773869e-7,7.704626746607762e-8,9.997045360106902e-9,3.5180634071043263e-9,1.2367273083423926e-9,0
51841,3.528936813162025e-9,1.5010687085694387e-8,7.198617400769543e-8,2.2326853335946295e-7,7.595234638510107e-8,9.872759677697817e-9,3.5100206714657923e-9,1.2366033984459122e-9,0
51842,3.528133055060573e-9,1.5115176313481547e-8,7.180707655295536e-8,2.23775809941539e-7,7.485842530412452e-8,9.748473995288733e-9,3.501977935827258e-9,1.236479488549432e-9,0
51843,3.5273292969591218e-9,1.5219665541268707e-8,7.16279790982153e-8,2.2428308652361506e-7,7.376450422314797e-8,9.624188312879648e-9,3.4939352001887235e-9,1.2363555786529517e-9,0
51844,3.52652553885767e-9,1.5324154769055867e-8,7.144888164347523e-8,2.2479036310569111e-7,7.267058314217142e-8,9.499902630470565e-9,3.4858924645501895e-9,1.2362316687564714e-9,0
51845,3.525721780756218e-9,1.5428643996843027e-8,7.126978418873517e-8,2.2529763968776717e-7,7.157666206119487e-8,9.375616948061481e-9,3.477849728911655e-9,1.2361077588599912e-9,0
51846,3.524918022654767e-9,1.5533133224630186e-8,7.10906867339951e-8,2.2580491626984325e-7,7.048274098021832e-8,9.251331265652396e-9,3.469806993273121e-9,1.235983848963511e-9,0
51847,3.524918022654767e-9,1.566246926235373e-8,7.099398693877897e-8,2.262522429140429e-7,6.959711093900036e-8,9.22526727255198e-9,3.469806993273121e-9,1.235983848963511e-9,0
51848,3.476530650238198e-9,1.5792477874727215e-8,7.095090841396318e-8,2.2676521421403042e-7,6.92526261185897e-8,9.226795739655015e-9,3.458506690931936e-9,1.2262534928810459e-9,0
51849,3.470619784065902e-9,1.588584342388408e-8,7.103266144278046e-8,2.2685185209667692e-7,6.924989084676027e-8,9.225283376427688e-9,3.4585693766951584e-9,1.2258786496603192e-9,0
51850,3.4647089178936064e-9,1.5979208973040944e-8,7.111441447159776e-8,2.2693848997932344e-7,6.924715557493082e-8,9.22377101320036e-9,3.4586320624583805e-9,1.2255038064395925e-9,0
51851,3.4607559785730446e-9,1.5961911594305638e-8,7.146183318983649e-8,2.270284302462257e-7,6.924442030310138e-8,9.222258649973033e-9,3.457899604223376e-9,1.2251289632188658e-9,0
51852,3.4548451124007493e-9,1.6341198948508048e-8,7.157743510375877e-8,2.2681639689753807e-7,6.923937633052605e-8,9.229578907974073e-9,3.4632462120396887e-9,1.2251289632188658e-9,0
51853,3.4489342462284536e-9,1.672048630271046e-8,7.169303701768104e-8,2.266043635488504e-7,6.923433235795073e-8,9.236899165975113e-9,3.468592819856001e-9,1.2251289632188658e-9,0
51854,3.4430233800561583e-9,1.709977365691287e-8,7.180863893160333e-8,2.2639233020016274e-7,6.92292883853754e-8,9.244219423976153e-9,3.473939427672314e-9,1.2251289632188658e-9,0
51855,3.4371125138838625e-9,1.7479061011115283e-8,7.19242408455256e-8,2.261802968514751e-7,6.922424441280007e-8,9.251539681977193e-9,3.479286035488627e-9,1.2251289632188658e-9,0
51856,3.4312016477115672e-9,1.7858348365317692e-8,7.203984275944787e-8,2.2596826350278743e-7,6.921920044022476e-8,9.258859939978233e-9,3.4846326433049393e-9,1.2251289632188658e-9,0
51857,3.4252907815392715e-9,1.8237635719520105e-8,7.215544467337015e-8,2.257562301540998e-7,6.921415646764943e-8,9.266180197979275e-9,3.489979251121252e-9,1.2251289632188658e-9,0
51858,3.420109502234239e-9,1.8255795235068473e-8,7.216111931765353e-8,2.2539554139254664e-7,6.932197506363018e-8,9.308300447054859e-9,3.498084672523009e-9,1.2251289632188658e-9,0
51859,3.4149282229292073e-9,1.8273954750616842e-8,7.21667939619369e-8,2.2503485263099348e-7,6.942979365961092e-8,9.350420696130442e-9,3.5061900939247657e-9,1.2251289632188658e-9,0
51860,3.409746943624175e-9,1.8292114266165214e-8,7.217246860622027e-8,2.2467416386944036e-7,6.953761225559165e-8,9.392540945206025e-9,3.5142955153265227e-9,1.2251289632188658e-9,0
