time,channel1,channel2,channel3,channel4,channel5,channel6,channel7,channel8,class
54154,7.3080167799285265e-9,3.8407066407468954e-8,7.271210391127017e-8,1.737203272452379e-7,2.2110776100423125e-7,2.6546196520601436e-8,4.076335186209044e-9,2.3121234020956355e-9,0
54155,7.378776344189738e-9,3.851299418920903e-8,7.286957892810764e-8,1.738458939687741e-7,2.216398585804632e-7,2.6918624210500777e-8,4.083022979003104e-9,2.3206795085117453e-9,0
54156,7.44953590845095e-9,3.861892197094911e-8,7.30270539449451e-8,1.7397146069231033e-7,2.2217195615669515e-7,2.7291051900400115e-8,4.089710771797164e-9,2.329235614927855e-9,0
54157,7.52029547271216e-9,3.8724849752689186e-8,7.318452896178258e-8,1.7409702741584653e-7,2.227040537329271e-7,2.7663479590299456e-8,4.096398564591224e-9,2.337791721343965e-9,0
54158,7.591055036973373e-9,3.883077753442926e-8,7.334200397862004e-8,1.7422259413938276e-7,2.2323615130915903e-7,2.8035907280198794e-8,4.103086357385284e-9,2.3463478277600742e-9,0
54159,7.661814601234585e-9,3.8936705316169336e-8,7.349947899545751e-8,1.7434816086291896e-7,2.23768248885391e-7,2.8408334970098135e-8,4.1097741501793436e-9,2.354903934176184e-9,0
54160,7.732574165495796e-9,3.904263309790941e-8,7.365695401229498e-8,1.744737275864552e-7,2.2430034646162293e-7,2.8780762659997473e-8,4.116461942973404e-9,2.3634600405922938e-9,0
54161,7.803333729757008e-9,3.914856087964949e-8,7.381442902913245e-8,1.745992943099914e-7,2.248324440378549e-7,2.915319034989681e-8,4.123149735767464e-9,2.3720161470084036e-9,0
54162,7.87409329401822e-9,3.925448866138956e-8,7.397190404596991e-8,1.7472486103352763e-7,2.2536454161408683e-7,2.9525618039796152e-8,4.129837528561524e-9,2.380572253424513e-9,0
54163,7.94485285827943e-9,3.936041644312964e-8,7.412937906280739e-8,1.7485042775706383e-7,2.258966391903188e-7,2.989804572969549e-8,4.136525321355584e-9,2.3891283598406227e-9,0
54164,8.015612422540643e-9,3.946634422486971e-8,7.428685407964485e-8,1.7497599448060006e-7,2.2642873676655073e-7,3.027047341959483e-8,4.1432131141496436e-9,2.3976844662567325e-9,0
54165,8.086371986801855e-9,3.957227200660979e-8,7.444432909648232e-8,1.7510156120413626e-7,2.2696083434278266e-7,3.064290110949417e-8,4.149900906943704e-9,2.4062405726728423e-9,0
54166,8.157131551063066e-9,3.967819978834986e-8,7.460180411331979e-8,1.752271279276725e-7,2.2749293191901463e-7,3.101532879939351e-8,4.156588699737764e-9,2.414796679088952e-9,0
54167,8.239499883715179e-9,3.973975035784517e-8,7.476884426840652e-8,1.7439487631549523e-7,2.2800502732747424e-7,3.138273764953094e-8,4.1667980138777625e-9,2.423401949257922e-9,0
54168,8.30903808201505e-9,3.9784104667823375e-8,7.493808894867666e-8,1.7453957134633222e-7,2.2850563059700444e-7,3.175576921295814e-8,4.175671632750289e-9,2.431958055674032e-9,0
54169,8.37857628031492e-9,3.9828458977801584e-8,7.510733362894678e-8,1.7468426637716918e-7,2.2900623386653467e-7,3.2128800776385336e-8,4.1845452516228156e-9,2.4405141620901417e-9,0
54170,8.448114478614791e-9,3.9872813287779794e-8,7.52765783092169e-8,1.7482896140800616e-7,2.295068371360649e-7,3.2501832339812534e-8,4.193418870495342e-9,2.4490702685062515e-9,0
54171,8.517652676914662e-9,3.9917167597757996e-8,7.544582298948703e-8,1.7497365643884312e-7,2.3000744040559512e-7,3.287486390323973e-8,4.202292489367869e-9,2.4576263749223612e-9,0
54172,8.587190875214531e-9,3.9961521907736206e-8,7.561506766975717e-8,1.751183514696801e-7,2.3050804367512535e-7,3.324789546666693e-8,4.211166108240396e-9,2.4661824813384706e-9,0
54173,8.575183766245085e-9,3.9953337193675306e-8,7.563347029458196e-8,1.7503597226507053e-7,2.3056357094851454e-7,3.326568284129605e-8,4.207410335098599e-9,2.46613331758561e-9,0
54174,8.605632395832364e-9,3.986993163987566e-8,7.572730077313012e-8,1.7502416953069875e-7,2.3055733610430456e-7,3.3668574699242425e-8,4.234473317986436e-9,2.4719708637335117e-9,0
54175,8.636081025419644e-9,3.978652608607602e-8,7.582113125167828e-8,1.75012366796327e-7,2.3055110126009458e-7,3.4071466557188805e-8,4.261536300874273e-9,2.4778084098814132e-9,0
54176,8.666529655006922e-9,3.970312053227638e-8,7.591496173022642e-8,1.7500056406195522e-7,2.305448664158846e-7,3.447435841513518e-8,4.288599283762109e-9,2.483645956029315e-9,0
54177,8.696978284594201e-9,3.961971497847674e-8,7.600879220877458e-8,1.7498876132758347e-7,2.3053863157167461e-07,3.487725027308155e-8,4.315662266649946e-9,2.4894835021772166e-9,0
54178,8.72742691418148e-9,3.9536309424677094e-8,7.610262268732274e-8,1.749769585932117e-7,2.3053239672746463e-7,3.5280142131027925e-8,4.342725249537783e-9,2.4953210483251184e-9,0
54179,8.785183518026877e-9,3.9464330116146826e-08,7.626625584894423e-8,1.760757999188955e-7,2.3056102255837507e-7,3.52796277236158e-8,4.33984985673247e-9,2.4991354423334617e-9,0
54180,8.842940121872274e-9,3.9392350807616566e-8,7.642988901056573e-8,1.771746412445793e-7,2.3058964838928554e-7,3.527911331620367e-8,4.336974463927158e-9,2.502949836341805e-9,0
54181,8.82184435432366e-9,3.9309036862883173e-8,7.660329682315105e-8,1.7817643806308378e-7,2.2999542439386597e-7,3.526286470415715e-8,4.336740212131299e-9,2.503146491353248e-9,0
54182,8.837629973222664e-9,3.928531246452274e-8,7.671700798320711e-8,1.789749309152268e-7,2.2942769848633884e-7,3.5091682804890714e-8,4.317948157761583e-9,2.491078089034559e-9,0
54183,8.853415592121667e-9,3.9261588066162305e-8,7.683071914326318e-8,1.7977342376736985e-7,2.288599725788117e-7,3.4920500905624286e-8,4.299156103391867e-9,2.47900968671587e-9,0
54184,8.86920121102067e-9,3.9237863667801864e-8,7.694443030331924e-8,1.8057191661951288e-7,2.2829224667128458e-7,3.474931900635785e-8,4.2803640490221504e-9,2.466941284397181e-9,0
54185,8.884986829919674e-9,3.921413926944143e-8,7.705814146337531e-8,1.8137040947165591e-7,2.2772452076375745e-7,3.4578137107091415e-8,4.261571994652435e-9,2.454872882078492e-9,0
54186,8.900772448818678e-9,3.9190414871080995e-8,7.717185262343137e-8,1.8216890232379895e-7,2.2715679485623032e-7,3.440695520782499e-8,4.242779940282719e-9,2.442804479759803e-9,0
54187,8.91655806771768e-9,3.916669047272056e-8,7.728556378348743e-8,1.8296739517594198e-7,2.2658906894870319e-7,3.423577330855855e-8,4.223987885913002e-9,2.430736077441114e-9,0
54188,8.919175280491982e-9,3.913506509025767e-8,7.843552901639058e-8,1.8302825721295297e-7,2.2620073803411836e-7,3.444816832466791e-8,4.225042018994367e-9,2.430342767418228e-9,0
54189,8.921792493266284e-9,3.9103439707794787e-8,7.958549424929372e-8,1.8308911924996396e-7,2.2581240711953356e-7,3.4660563340777274e-8,4.226096152075731e-9,2.4299494573953426e-9,0
54190,8.924409706040585e-9,3.9071814325331896e-8,8.073545948219686e-8,1.8314998128697495e-7,2.2542407620494876e-7,3.4872958356886636e-8,4.227150285157095e-9,2.4295561473724567e-9,0
54191,8.927026918814888e-9,3.9040188942869006e-8,8.18854247151e-8,1.8321084332398594e-7,2.2503574529036396e-7,3.5085353372996e-8,4.2282044182384595e-9,2.429162837349571e-9,0
54192,8.929644131589189e-9,3.900856356040612e-8,8.303538994800315e-8,1.8327170536099694e-7,2.2464741437577916e-7,3.529774838910536e-8,4.229258551319824e-9,2.4287695273266853e-9,0
54193,8.932261344363492e-9,3.897693817794323e-8,8.418535518090629e-8,1.8333256739800793e-7,2.2425908346119433e-7,3.551014340521472e-8,4.2303126844011886e-9,2.4283762173037998e-9,0
54194,8.934878557137793e-9,3.894531279548035e-8,8.533532041380944e-8,1.8339342943501892e-7,2.2387075254660953e-7,3.572253842132409e-8,4.231366817482553e-9,2.427982907280914e-9,0
54195,8.937495769912094e-9,3.891368741301746e-8,8.648528564671259e-8,1.834542914720299e-7,2.2348242163202473e-7,3.593493343743345e-8,4.232420950563917e-9,2.4275895972580284e-9,0
54196,8.940112982686397e-9,3.888206203055457e-8,8.763525087961573e-8,1.835151535090409e-7,2.2309409071743993e-7,3.614732845354281e-8,4.233475083645281e-9,2.4271962872351425e-9,0
54197,8.942730195460699e-9,3.885043664809168e-8,8.878521611251888e-8,1.835760155460519e-7,2.2270575980285513e-7,3.635972346965217e-8,4.234529216726645e-9,2.426802977212257e-9,0
54198,8.945347408235e-9,3.88188112656288e-8,8.993518134542202e-8,1.8363687758306288e-7,2.223174288882703e-7,3.657211848576153e-8,4.23558334980801e-9,2.426409667189371e-9,0
54199,8.947964621009303e-9,3.878718588316591e-8,9.108514657832516e-8,1.8369773962007387e-7,2.219290979736855e-7,3.6784513501870894e-8,4.236637482889374e-9,2.4260163571664856e-9,0
54200,8.950581833783604e-9,3.8755560500703024e-8,9.22351118112283e-8,1.8375860165708486e-7,2.215407670591007e-7,3.6996908517980256e-8,4.237691615970738e-9,2.4256230471435996e-9,0
54201,8.953199046557905e-9,3.8723935118240134e-8,9.338507704413145e-8,1.8381946369409585e-7,2.211524361445159e-7,3.720930353408962e-8,4.238745749052102e-9,2.425229737120714e-9,0
54202,9.00863471088084e-9,3.869967724930928e-8,9.442953551474325e-8,1.841713594275558e-7,2.21399006679029e-7,3.759362075199376e-8,4.243043713497326e-9,2.4409931818598945e-9,0
54203,9.007475068513633e-9,3.908921524903458e-8,9.456461906499171e-8,1.848021038918761e-7,2.2371971362103033e-7,3.7792732825823785e-8,4.261822579206312e-9,2.4533847063664782e-9,0
54204,8.985180969653287e-9,3.9022235286863036e-8,9.586279825206053e-8,1.8480913144575188e-7,2.215928551037535e-7,3.7774672593193684e-8,4.2579062419803655e-9,2.4615403871711023e-9,0
54205,8.962886870792938e-9,3.895525532469149e-8,9.716097743912936e-8,1.8481615899962762e-7,2.194659965864767e-7,3.7756612360563576e-8,4.25398990475442e-9,2.4696960679757264e-9,0
54206,8.940592771932592e-9,3.8888275362519946e-8,9.845915662619818e-8,1.848231865535034e-7,2.1733913806919987e-7,3.7738552127933475e-8,4.250073567528473e-9,2.4778517487803505e-9,0
54207,8.918298673072244e-9,3.88212954003484e-8,9.9757335813267007e-08,1.8483021410737916e-7,2.1521227955192306e-7,3.772049189530337e-8,4.246157230302527e-9,2.4860074295849746e-9,0
54208,8.896004574211897e-9,3.8754315438176856e-8,1.0105551500033582e-7,1.848372416612549e-7,2.1308542103464624e-7,3.7702431662673266e-8,4.24224089307658e-9,2.4941631103895988e-9,0
54209,8.873710475351549e-9,3.868733547600531e-8,1.0235369418740466e-7,1.8484426921513068e-7,2.1095856251736942e-7,3.7684371430043165e-8,4.238324555850633e-9,2.502318791194223e-9,0
54210,8.8514163764912e-9,3.8620355513833765e-8,1.0365187337447347e-7,1.8485129676900645e-7,2.0883170400009263e-7,3.7666311197413057e-8,4.234408218624687e-9,2.510474471998847e-9,0
54211,8.829122277630854e-9,3.855337555166222e-8,1.049500525615423e-7,1.848583243228822e-7,2.067048454828158e-7,3.7648250964782955e-8,4.2304918813987405e-9,2.518630152803471e-9,0
54212,8.806828178770506e-9,3.8486395589490675e-8,1.0624823174861112e-7,1.8486535187675796e-7,2.04577986965539e-7,3.7630190732152854e-8,4.2265755441727946e-9,2.526785833608095e-9,0
54213,8.78453407991016e-9,3.841941562731913e-8,1.0754641093567996e-7,1.8487237943063374e-7,2.0245112844826218e-7,3.7612130499522746e-8,4.222659206946848e-9,2.5349415144127197e-9,0
54214,8.762239981049811e-9,3.8352435665147585e-8,1.0884459012274877e-7,1.8487940698450948e-7,2.0032426993098536e-7,3.7594070266892645e-8,4.218742869720902e-9,2.543097195217344e-9,0
54215,8.739945882189465e-9,3.828545570297604e-8,1.101427693098176e-7,1.8488643453838525e-7,1.9819741141370854e-7,3.7576010034262544e-8,4.214826532494955e-9,2.551252876021968e-9,0
54216,8.717651783329117e-9,3.8218475740804495e-8,1.1144094849688642e-7,1.8489346209226102e-7,1.9607055289643172e-7,3.7557949801632436e-8,4.210910195269009e-9,2.559408556826592e-9,0
54217,8.695357684468768e-9,3.815149577863295e-8,1.1273912768395525e-7,1.8490048964613676e-7,1.939436943791549e-7,3.7539889569002335e-8,4.206993858043062e-9,2.567564237631216e-9,0
54218,8.673063585608422e-9,3.8084515816461405e-8,1.1403730687102407e-7,1.8490751720001254e-7,1.918168358618781e-7,3.7521829336372234e-8,4.2030775208171155e-9,2.5757199184358403e-9,0
54219,8.650769486748074e-9,3.801753585428986e-8,1.1533548605809289e-7,1.849145447538883e-7,1.896899773446013e-7,3.7503769103742126e-8,4.1991611835911696e-9,2.5838755992404644e-9,0
54220,8.628475387887727e-9,3.7950555892118315e-8,1.1663366524516172e-7,1.8492157230776405e-7,1.8756311882732448e-7,3.7485708871112025e-8,4.195244846365223e-9,2.5920312800450885e-9,0
54221,8.606181289027379e-9,3.788357592994677e-8,1.1793184443223054e-7,1.8492859986163982e-7,1.8543626031004766e-7,3.746764863848192e-8,4.191328509139277e-9,2.6001869608497126e-9,0
54222,8.583887190167032e-9,3.7816595967775224e-8,1.1923002361929937e-7,1.849356274155156e-7,1.8330940179277084e-7,3.7449588405851815e-8,4.18741217191333e-9,2.6083426416543367e-9,0
54223,8.561593091306684e-9,3.774961600560368e-8,1.205282028063682e-7,1.8494265496939134e-7,1.8118254327549402e-7,3.7431528173221714e-8,4.183495834687384e-9,2.616498322458961e-9,0
54224,8.520296995117164e-9,3.769191950366013e-8,1.2044005902348961e-7,1.8483245884391207e-7,1.791184547906676e-7,3.740973511936002e-8,4.17927155795387e-9,2.614924759683749e-9,0
54225,8.521456637484372e-9,3.7528452623415484e-8,1.204510737312458e-7,1.8508661058301157e-7,1.7849222732681232e-7,3.741159370282835e-8,4.17927155795387e-9,2.616294551858918e-9,0
54226,8.53391312069572e-9,3.744653224188756e-8,1.204269525560815e-7,1.826944541459688e-7,1.779061932745839e-7,3.7498340976978745e-8,4.175164407118284e-9,2.6183878918334677e-9,0
54227,8.546369603907068e-9,3.7364611860359623e-8,1.2040283138091722e-7,1.8030229770892604e-7,1.7732015922235546e-7,3.758508825112913e-8,4.171057256282699e-9,2.620481231808017e-9,0
54228,8.558826087118415e-9,3.728269147883169e-8,1.2037871020575293e-7,1.779101412718833e-7,1.7673412517012705e-7,3.7671835525279527e-8,4.166950105447113e-9,2.6225745717825662e-9,0
54229,8.571282570329765e-9,3.720077109730376e-8,1.2035458903058868e-7,1.7551798483484054e-7,1.7614809111789863e-7,3.7758582799429914e-8,4.162842954611528e-9,2.624667911757116e-9,0
54230,8.583739053541112e-9,3.7118850715775823e-08,1.203304678554244e-7,1.7312582839779777e-7,1.7556205706567022e-7,3.784533007358031e-8,4.158735803775943e-9,2.626761251731665e-9,0
54231,8.59619553675246e-9,3.7036930334247897e-8,1.203063466802601e-7,1.70733671960755e-7,1.749760230134418e-7,3.7932077347730695e-8,4.154628652940358e-9,2.6288545917062143e-9,0
54232,8.608652019963807e-9,3.695500995271996e-8,1.2028222550509582e-7,1.6834151552371224e-7,1.7438998896121338e-7,3.801882462188109e-8,4.1505215021047726e-9,2.6309479316807636e-9,0
54233,8.621108503175156e-9,3.687308957119203e-8,1.2025810432993156e-7,1.6594935908666947e-7,1.7380395490898494e-7,3.8105571896031477e-8,4.146414351269187e-9,2.6330412716553132e-9,0
54234,8.633564986386503e-9,3.6791169189664096e-8,1.2023398315476727e-7,1.635572026496267e-7,1.7321792085675653e-7,3.8192319170181864e-8,4.1423072004336026e-9,2.6351346116298625e-9,0
54235,8.64602146959785e-9,3.670924880813616e-8,1.20209861979603e-7,1.6116504621258394e-7,1.726318868045281e-7,3.827906644433226e-8,4.138200049598017e-9,2.6372279516044117e-9,0
54236,8.6584779528092e-9,3.6627328426608236e-8,1.201857408044387e-7,1.5877288977554118e-7,1.720458527522997e-7,3.8365813718482645e-8,4.134092898762432e-9,2.6393212915789613e-9,0
54237,8.670934436020547e-9,3.65454080450803e-8,1.2016161962927444e-7,1.5638073333849844e-7,1.7145981870007128e-7,3.845256099263304e-8,4.129985747926846e-9,2.6414146315535106e-9,0
54238,8.692493577317933e-9,3.6157174911921163e-8,1.2044649193755483e-7,1.5617146937994757e-7,1.7144927202429224e-7,3.85996148907345e-8,4.075417655880916e-9,2.6349027013590897e-9,0
54239,8.71405271861532e-9,3.5768941778762024e-8,1.2073136424583521e-7,1.559622054213967e-7,1.714387253485132e-7,3.874666878883596e-8,4.020849563834986e-9,2.6283907711646684e-9,0
54240,8.735611859912708e-9,3.5380708645602885e-8,1.2101623655411563e-7,1.5575294146284583e-7,1.7142817867273416e-7,3.889372268693742e-8,3.966281471789056e-9,2.6218788409702475e-9,0
54241,8.757171001210094e-9,3.4992475512443745e-8,1.21301108862396e-7,1.5554367750429496e-7,1.7141763199695515e-7,3.904077658503889e-8,3.911713379743125e-9,2.6153669107758263e-9,0
54242,8.778730142507482e-9,3.4604242379284606e-8,1.215859811706764e-7,1.553344135457441e-7,1.714070853211761e-7,3.9187830483140346e-8,3.857145287697195e-9,2.6088549805814054e-9,0
54243,8.800289283804868e-9,3.421600924612547e-8,1.218708534789568e-7,1.5512514958719322e-7,1.7139653864539707e-7,3.933488438124181e-8,3.8025771956512645e-9,2.602343050386984e-9,0
54244,8.821848425102256e-9,3.382777611296633e-8,1.221557257872372e-7,1.5491588562864235e-7,1.7138599196961803e-7,3.948193827934327e-8,3.748009103605335e-9,2.5958311201925632e-9,0
54245,8.843407566399642e-9,3.343954297980719e-8,1.2244059809551758e-7,1.5470662167009148e-7,1.71375445293839e-7,3.9628992177444735e-8,3.693441011559404e-9,2.5893191899981424e-9,0
54246,8.86496670769703e-9,3.305130984664805e-8,1.22725470403798e-7,1.544973577115406e-7,1.7136489861805998e-7,3.9776046075546193e-8,3.638872919513474e-9,2.582807259803721e-9,0
54247,8.87529073174441e-9,3.27013329309413e-8,1.2273504919404862e-7,1.55088804856783e-7,1.7293124448199998e-7,3.9789496755415864e-8,3.607408034943214e-9,2.586024573189136e-9,0
54248,8.87312123842396e-9,3.249250387551086e-8,1.2436309213414366e-7,1.548556631837592e-7,1.7389411730988384e-7,3.978390535071593e-8,3.556361464243222e-9,2.5774684667730264e-9,0
54249,8.870951745103513e-9,3.228367482008043e-8,1.2599113507423867e-7,1.5462252151073538e-7,1.7485699013776766e-7,3.9778313946016004e-8,3.50531489354323e-9,2.568912360356917e-9,0
54250,8.868782251783065e-9,3.207484576464999e-8,1.2761917801433369e-7,1.5438937983771158e-7,1.7581986296565152e-7,3.977272254131608e-8,3.4542683228432384e-9,2.5603562539408072e-9,0
54251,8.866612758462618e-9,3.1866016709219556e-8,1.292472209544287e-7,1.5415623816468778e-7,1.7678273579353535e-7,3.9767131136616144e-8,3.4032217521432464e-9,2.5518001475246974e-9,0
54252,8.864443265142169e-9,3.165718765378912e-8,1.3087526389452372e-7,1.5392309649166395e-7,1.777456086214192e-7,3.976153973191622e-8,3.3521751814432547e-9,2.5432440411085877e-9,0
54253,8.86227377182172e-9,3.1448358598358685e-8,1.3250330683461873e-7,1.5368995481864015e-7,1.7870848144930303e-7,3.975594832721629e-8,3.3011286107432627e-9,2.534687934692478e-9,0
54254,8.860104278501273e-9,3.123952954292825e-8,1.3413134977471374e-7,1.5345681314561632e-7,1.7967135427718688e-7,3.975035692251636e-8,3.2500820400432706e-9,2.5261318282763685e-9,0
54255,8.857934785180824e-9,3.1030700487497814e-8,1.3575939271480876e-7,1.5322367147259252e-7,1.806342271050707e-7,3.974476551781643e-8,3.199035469343279e-9,2.5175757218602587e-9,0
54256,8.855765291860377e-9,3.082187143206738e-8,1.373874356549038e-7,1.5299052979956872e-7,1.8159709993295456e-7,3.9739174113116504e-8,3.147988898643287e-9,2.509019615444149e-9,0
54257,8.853595798539928e-9,3.061304237663694e-8,1.3901547859499881e-7,1.527573881265449e-7,1.825599727608384e-7,3.973358270841657e-8,3.096942327943295e-9,2.500463509028039e-9,0
54258,8.851426305219481e-9,3.040421332120651e-8,1.4064352153509383e-7,1.525242464535211e-7,1.8352284558872224e-7,3.9727991303716644e-8,3.0458957572433033e-9,2.4919074026119294e-9,0
54259,8.849256811899032e-9,3.019538426577607e-8,1.4227156447518884e-7,1.5229110478049727e-7,1.8448571841660607e-7,3.972239989901672e-8,2.9948491865433112e-9,2.48335129619582e-9,0
54260,8.849431292750653e-9,3.038319916780435e-8,1.4362472955518956e-7,1.5157858803817921e-7,1.8539113054984298e-7,3.9709280234673924e-8,2.9999104054270906e-9,2.4834004599486808e-9,0
54261,8.84542892309417e-9,3.0579889657902925e-8,1.4479598408310337e-7,1.5159220174776724e-7,1.8634667821022092e-7,3.9708902256262285e-8,3.0056611910377157e-9,2.479586065940337e-9,0
54262,8.84688814828931e-9,3.0582723316953705e-8,1.445375126521916e-7,1.5158891447821715e-7,1.8778736693300586e-7,4.0389525788672136e-8,3.094382619053608e-9,2.4846227608652677e-9,0
54263,8.848347373484452e-9,3.0585556976004484e-8,1.4427904122127982e-7,1.5158562720866706e-7,1.892280556557908e-7,4.107014932108199e-8,3.183104047069501e-9,2.4896594557901982e-9,0
54264,8.849806598679592e-9,3.0588390635055264e-8,1.4402056979036805e-7,1.51582339939117e-7,1.9066874437857573e-7,4.175077285349184e-8,3.2718254750853936e-9,2.4946961507151288e-9,0
54265,8.851265823874733e-9,3.059122429410604e-8,1.4376209835945627e-7,1.515790526695669e-7,1.9210943310136067e-7,4.243139638590169e-8,3.360546903101286e-9,2.4997328456400593e-9,0
54266,8.852725049069874e-9,3.059405795315682e-8,1.435036269285445e-7,1.5157576540001682e-7,1.935501218241456e-7,4.311201991831154e-8,3.4492683311171788e-9,2.50476954056499e-9,0
54267,8.854184274265015e-9,3.059689161220761e-8,1.4324515549763272e-7,1.5157247813046675e-7,1.9499081054693055e-7,4.3792643450721394e-8,3.537989759133071e-9,2.5098062354899204e-9,0
54268,8.855643499460156e-9,3.059972527125839e-8,1.4298668406672097e-7,1.5156919086091666e-7,1.9643149926971552e-7,4.4473266983131246e-8,3.626711187148964e-9,2.514842930414851e-9,0
54269,8.857102724655297e-9,3.060255893030917e-8,1.427282126358092e-7,1.515659035913666e-7,1.9787218799250046e-7,4.51538905155411e-8,3.7154326151648563e-9,2.5198796253397815e-9,0
54270,8.858561949850438e-9,3.060539258935995e-8,1.4246974120489742e-7,1.515626163218165e-7,1.993128767152854e-7,4.583451404795095e-8,3.804154043180749e-9,2.524916320264712e-9,0
54271,8.860021175045579e-9,3.0608226248410727e-8,1.4221126977398564e-7,1.5155932905226642e-7,2.0075356543807034e-7,4.65151375803608e-8,3.892875471196642e-9,2.5299530151896426e-9,0
54272,8.86148040024072e-9,3.0611059907461506e-8,1.4195279834307387e-7,1.5155604178271636e-7,2.0219425416085527e-7,4.719576111277065e-8,3.981596899212534e-9,2.534989710114573e-9,0
54273,8.86293962543586e-9,3.061389356651229e-8,1.416943269121621e-7,1.5155275451316627e-7,2.0363494288364021e-7,4.7876384645180504e-8,4.0703183272284266e-9,2.5400264050395036e-9,0
54274,8.864398850631001e-9,3.061672722556307e-8,1.4143585548125032e-7,1.5154946724361618e-7,2.0507563160642515e-7,4.8557008177590356e-8,4.15903975524432e-9,2.545063099964434e-9,0
54275,8.865858075826142e-9,3.061956088461385e-8,1.4117738405033857e-7,1.5154617997406612e-7,2.065163203292101e-7,4.923763171000021e-8,4.247761183260212e-9,2.5500997948893647e-9,0
54276,8.867317301021283e-9,3.062239454366463e-8,1.409189126194268e-7,1.5154289270451603e-7,2.0795700905199503e-7,4.991825524241006e-8,4.3364826112761045e-9,2.5551364898142953e-9,0
54277,8.868776526216424e-9,3.062522820271541e-8,1.4066044118851502e-7,1.5153960543496597e-7,2.0939769777478e-7,5.059887877481991e-8,4.425204039291997e-9,2.560173184739226e-9,0
54278,8.870235751411565e-9,3.062806186176619e-8,1.4040196975760324e-7,1.5153631816541588e-7,2.1083838649756494e-7,5.127950230722976e-8,4.51392546730789e-9,2.5652098796641564e-9,0
54279,8.871694976606706e-9,3.063089552081697e-8,1.4014349832669147e-7,1.515330308958658e-7,2.1227907522034988e-7,5.1960125839639614e-8,4.6026468953237824e-9,2.570246574589087e-9,0
54280,8.8622310120986e-9,3.060525517576057e-8,1.396727117893851e-7,1.4943289731310074e-7,2.1373616034430177e-7,5.260065453614652e-8,4.689139059074988e-9,2.579097663522361e-9,0
54281,8.866857236848603e-9,3.058039658567308e-8,1.3981341595961647e-7,1.492423536573099e-7,2.1486216621548976e-7,5.3082543973137984e-8,4.758378865994319e-9,2.587948752455635e-9,0
54282,8.871483461598606e-9,3.055553799558559e-8,1.3995412012984782e-7,1.4905181000151905e-7,2.1598817208667776e-7,5.356443341012945e-8,4.82761867291365e-9,2.5967998413889087e-9,0
54283,8.896121534631021e-9,3.052442245331982e-8,1.40260414885659e-7,1.4922219626214485e-7,2.1565610573629625e-7,5.363264854746858e-8,4.81447346691736e-9,2.6122893276930557e-9,0
54284,8.91021172388913e-9,3.0568799665564595e-8,1.402239034270792e-7,1.491175005776666e-7,2.1612015430763496e-7,5.347400928795314e-8,4.796869732391697e-9,2.6120153692580216e-9,0
54285,8.92430191314724e-9,3.061317687780936e-8,1.4018739196849935e-7,1.4901280489318834e-7,2.165842028789737e-7,5.331537002843769e-8,4.779265997866033e-9,2.611741410822988e-9,0
54286,8.938392102405348e-9,3.065755409005413e-8,1.4015088050991954e-7,1.4890810920871008e-7,2.1704825145031245e-7,5.3156730768922246e-8,4.76166226334037e-9,2.611467452387954e-9,0
54287,8.952482291663457e-9,3.07019313022989e-8,1.401143690513397e-7,1.4880341352423184e-7,2.175123000216512e-7,5.29980915094068e-8,4.7440585288147066e-9,2.6111934939529204e-9,0
54288,8.966572480921565e-9,3.074630851454367e-8,1.4007785759275988e-7,1.4869871783975358e-7,2.1797634859298994e-7,5.2839452249891355e-8,4.726454794289043e-9,2.6109195355178862e-9,0
54289,8.980662670179675e-9,3.079068572678844e-8,1.4004134613418004e-7,1.4859402215527534e-7,2.1844039716432868e-7,5.268081299037591e-8,4.7088510597633805e-9,2.6106455770828525e-9,0
54290,8.994752859437784e-9,3.083506293903321e-8,1.4000483467560022e-7,1.4848932647079708e-7,2.1890444573566742e-7,5.2522173730860464e-8,4.691247325237717e-9,2.6103716186478187e-9,0
54291,9.008843048695892e-9,3.0879440151277976e-8,1.3996832321702038e-7,1.483846307863188e-7,2.1936849430700617e-7,5.236353447134502e-8,4.673643590712054e-9,2.610097660212785e-9,0
54292,9.022933237954e-9,3.092381736352275e-8,1.3993181175844057e-7,1.4827993510184058e-7,2.1983254287834488e-7,5.220489521182957e-8,4.65603985618639e-9,2.609823701777751e-9,0
54293,9.03702342721211e-9,3.096819457576752e-8,1.3989530029986073e-7,1.481752394173623e-7,2.2029659144968363e-7,5.2046255952314133e-8,4.638436121660727e-9,2.609549743342717e-9,0
54294,9.051113616470219e-9,3.101257178801229e-8,1.398587888412809e-7,1.4807054373288407e-7,2.2076064002102237e-7,5.188761669279869e-8,4.620832387135064e-9,2.6092757849076834e-9,0
54295,8.954568681528211e-9,3.063765721644519e-8,1.3951598262688988e-7,1.4604009474751735e-7,2.1990003067842003e-7,5.1919883562121726e-8,4.5862881074891226e-9,2.5845839478116376e-9,0
54296,8.943296530121724e-9,3.0839708392420316e-8,1.398623450056146e-7,1.4657843339823629e-7,2.1876484862691308e-7,5.2089522239151784e-8,4.5767381105504805e-9,2.570745327706294e-9,0
54297,8.932024378715236e-9,3.104175956839544e-8,1.4020870738433932e-7,1.471167720489552e-7,2.1762966657540616e-7,5.2259160916181835e-8,4.567188113611838e-9,2.55690670760095e-9,0
54298,8.920752227308749e-9,3.1243810744370566e-8,1.4055506976306405e-7,1.4765511069967413e-7,2.1649448452389924e-7,5.2428799593211886e-8,4.557638116673196e-9,2.5430680874956064e-9,0
54299,8.909480075902263e-9,3.144586192034569e-8,1.4090143214178877e-7,1.4819344935039304e-7,2.1535930247239229e-7,5.259843827024194e-8,4.548088119734554e-9,2.5292294673902624e-9,0
54300,8.898207924495776e-9,3.164791309632081e-8,1.412477945205135e-7,1.4873178800111198e-7,2.1422412042088536e-7,5.276807694727199e-8,4.538538122795912e-9,2.515390847284919e-9,0
54301,8.886935773089288e-9,3.184996427229594e-8,1.415941568992382e-7,1.492701266518309e-7,2.1308893836937844e-7,5.2937715624302046e-8,4.52898812585727e-9,2.501552227179575e-9,0
54302,8.875663621682801e-9,3.205201544827106e-8,1.4194051927796293e-7,1.4980846530254983e-7,2.119537563178715e-7,5.31073543013321e-8,4.519438128918628e-9,2.487713607074231e-9,0
54303,8.864391470276313e-9,3.225406662424619e-8,1.4228688165668765e-7,1.5034680395326874e-7,2.1081857426636456e-7,5.327699297836215e-8,4.509888131979986e-9,2.473874986968887e-9,0
54304,8.853119318869828e-9,3.245611780022131e-8,1.4263324403541237e-7,1.5088514260398767e-7,2.0968339221485764e-7,5.34466316553922e-8,4.5003381350413436e-9,2.4600363668635436e-9,0
54305,8.85816857363603e-9,3.2531610554731854e-8,1.425829724515982e-7,1.5120662601391009e-7,2.0844108232931933e-7,5.341413443129915e-8,4.497475930896761e-9,2.4477713095334118e-9,0
54306,8.863217828402234e-9,3.260710330924239e-8,1.42532700867784e-7,1.5152810942383253e-7,2.0719877244378102e-7,5.33816372072061e-8,4.494613726752179e-9,2.4355062522032796e-9,0
54307,8.868267083168437e-9,3.2682596063752927e-8,1.4248242928396982e-7,1.5184959283375497e-7,2.059564625582427e-7,5.3349139983113043e-8,4.491751522607597e-9,2.4232411948731478e-9,0
54308,8.87331633793464e-9,3.275808881826347e-8,1.424321577001556e-7,1.521710762436774e-7,2.047141526727044e-7,5.3316642759019996e-8,4.4888893184630145e-9,2.410976137543016e-9,0
54309,8.878365592700843e-9,3.2833581572774006e-8,1.4238188611634143e-7,1.5249255965359985e-7,2.0347184278716608e-7,5.328414553492694e-8,4.486027114318433e-9,2.398711080212884e-9,0
54310,8.883414847467047e-9,3.290907432728455e-8,1.4233161453252724e-7,1.528140430635223e-7,2.0222953290162777e-7,5.325164831083389e-8,4.483164910173851e-9,2.3864460228827524e-9,0
54311,8.88846410223325e-9,3.2984567081795085e-8,1.4228134294871306e-7,1.5313552647344473e-7,2.0098722301608946e-7,5.321915108674084e-8,4.480302706029268e-9,2.3741809655526206e-9,0
54312,8.893513356999453e-9,3.306005983630562e-8,1.4223107136489887e-7,1.5345700988336717e-7,1.9974491313055115e-07,5.3186653862647785e-8,4.477440501884686e-9,2.3619159082224884e-9,0
54313,8.898562611765657e-9,3.3135552590816164e-8,1.421807997810847e-7,1.537784932932896e-7,1.9850260324501283e-7,5.315415663855473e-8,4.4745782977401045e-9,2.3496508508923566e-9,0
54314,8.903611866531859e-9,3.32110453453267e-8,1.421305281972705e-7,1.5409997670321205e-7,1.9726029335947452e-7,5.312165941446168e-8,4.471716093595522e-9,2.3373857935622248e-9,0
54315,8.908661121298063e-9,3.3286538099837236e-8,1.4208025661345632e-7,1.544214601131345e-7,1.960179834739362e-7,5.308916219036863e-8,4.46885388945094e-9,2.325120736232093e-9,0
54316,8.913710376064267e-9,3.336203085434778e-8,1.420299850296421e-7,1.5474294352305693e-7,1.947756735883979e-7,5.3056664966275574e-8,4.465991685306358e-9,2.312855678901961e-9,0
54317,8.918759630830469e-9,3.3437523608858315e-8,1.4197971344582793e-7,1.5506442693297937e-7,1.9353336370285958e-7,5.3024167742182526e-8,4.463129481161775e-9,2.3005906215718294e-9,0
54318,8.932375756409025e-9,3.3451216781368315e-8,1.4213195046277462e-7,1.5568851699812838e-7,1.928942423787644e-7,5.310340241098497e-8,4.4776103824255374e-9,2.3210113597065853e-9,0
54319,8.926577544572988e-9,3.354662567122066e-8,1.4204755870494292e-7,1.5572541892049567e-7,1.9165172259991026e-7,5.2993356904313694e-8,4.457998446770316e-9,2.321285318141619e-9,0
54320,8.920779332736952e-9,3.3642034561073e-8,1.4196316694711122e-7,1.5576232084286294e-7,1.9040920282105613e-7,5.288331139764242e-8,4.4383865111150945e-9,2.3215592765766527e-9,0
54321,8.914981120900913e-9,3.3737443450925347e-8,1.4187877518927952e-7,1.557992227652302e-7,1.8916668304220202e-7,5.2773265890971134e-8,4.418774575459872e-9,2.321833235011687e-9,0
54322,8.909182909064876e-9,3.383285234077769e-8,1.4179438343144782e-7,1.558361246875975e-7,1.8792416326334788e-7,5.266322038429986e-8,4.399162639804651e-9,2.3221071934467206e-9,0
54323,8.90338469722884e-9,3.392826123063003e-8,1.4170999167361612e-7,1.5587302660996475e-7,1.8668164348449377e-7,5.255317487762858e-8,4.379550704149429e-9,2.3223811518817544e-9,0
54324,8.897586485392803e-9,3.402367012048237e-8,1.4162559991578444e-7,1.5590992853233202e-7,1.8543912370563964e-7,5.2443129370957305e-8,4.359938768494208e-9,2.322655110316788e-9,0
54325,8.891788273556766e-9,3.411907901033472e-8,1.4154120815795274e-7,1.559468304546993e-7,1.841966039267855e-7,5.233308386428602e-8,4.340326832838986e-9,2.3229290687518223e-9,0
54326,8.88599006172073e-9,3.421448790018706e-8,1.4145681640012104e-7,1.5598373237706657e-7,1.829540841479314e-7,5.2223038357614745e-8,4.320714897183765e-9,2.323203027186856e-9,0
54327,8.880191849884693e-9,3.43098967900394e-8,1.4137242464228934e-7,1.5602063429943384e-7,1.8171156436907726e-7,5.211299285094347e-8,4.3011029615285424e-9,2.3234769856218897e-9,0
54328,8.874393638048656e-9,3.4405305679891745e-8,1.4128803288445764e-7,1.5605753622180113e-7,1.8046904459022315e-7,5.200294734427219e-8,4.281491025873321e-9,2.323750944056924e-9,0
54329,8.868595426212617e-9,3.450071456974409e-8,1.4120364112662594e-7,1.560944381441684e-7,1.79226524811369e-7,5.189290183760091e-8,4.2618790902180995e-9,2.3240249024919576e-9,0
54330,8.86279721437658e-9,3.4596123459596435e-8,1.4111924936879424e-7,1.5613134006653568e-7,1.7798400503251487e-7,5.178285633092963e-8,4.242267154562878e-9,2.3242988609269913e-9,0
54331,8.856999002540544e-9,3.4691532349448776e-8,1.4103485761096254e-7,1.5616824198890295e-7,1.7674148525366076e-7,5.1672810824258357e-08,4.2226552189076565e-9,2.324572819362025e-9,0
54332,8.851200790704507e-9,3.478694123930112e-8,1.4095046585313084e-7,1.562051439112702e-7,1.7549896547480663e-7,5.156276531758708e-8,4.203043283252435e-9,2.3248467777970592e-9,0
54333,8.84540257886847e-9,3.4882350129153466e-8,1.4086607409529914e-7,1.562420458336375e-7,1.742564456959525e-7,5.14527198109158e-8,4.1834313475972135e-9,2.325120736232093e-9,0
54334,8.839604367032433e-9,3.497775901900581e-8,1.4078168233746744e-7,1.5627894775600476e-7,1.7301392591709838e-7,5.134267430424452e-8,4.163819411941991e-9,2.3253946946671267e-9,0
54335,8.833806155196397e-9,3.507316790885815e-8,1.4069729057963576e-7,1.5631584967837203e-7,1.7177140613824425e-7,5.1232628797573244e-8,4.14420747628677e-9,2.3256686531021604e-9,0
54336,8.82800794336036e-9,3.516857679871049e-8,1.4061289882180406e-7,1.5635275160073932e-7,1.7052888635939014e-7,5.112258329090197e-8,4.124595540631548e-9,2.3259426115371946e-9,0
54337,8.818506944695772e-9,3.5236928149927674e-8,1.4051269613509018e-7,1.5521635133564227e-7,1.7029892039838025e-7,5.11120938211457e-8,4.123290094889566e-9,2.3201050653892927e-9,0
54338,8.810052831140908e-9,3.5330772801735446e-8,1.405631908836203e-7,1.55114993739255e-7,1.7032892885434718e-7,5.110340477733188e-8,4.123290094889566e-9,2.3180608891676042e-9,0
54339,8.801598717586043e-9,3.542461745354322e-8,1.4061368563215044e-7,1.5501363614286774e-7,1.7035893731031407e-7,5.109471573351805e-8,4.123290094889566e-9,2.3160167129459157e-9,0
54340,8.796785667265593e-9,3.546151409713662e-8,1.405429275820203e-7,1.5487069219219366e-7,1.7036644983292262e-7,5.111776349732023e-8,4.123055843093707e-9,2.313923372971366e-9,0
54341,8.791972616945144e-9,3.549841074073003e-8,1.4047216953189015e-7,1.5472774824151958e-7,1.7037396235553116e-7,5.11408112611224e-8,4.122821591297849e-9,2.311830032996817e-9,0
54342,8.79878067973442e-9,3.574314038973294e-8,1.403644479599077e-7,1.5526662230718488e-7,1.703934761788031e-7,5.113296764024758e-8,4.12593123589902e-9,2.3097366930222676e-9,0
54343,8.805588742523698e-9,3.5987870038735845e-8,1.4025672638792526e-7,1.5580549637285018e-7,1.7041299000207507e-7,5.112512401937276e-8,4.129040880500191e-9,2.307643353047718e-9,0
54344,8.812396805312977e-9,3.623259968773875e-8,1.401490048159428e-7,1.5634437043851547e-7,1.70432503825347e-7,5.1117280398497936e-8,4.1321505251013625e-9,2.3055500130731687e-9,0
54345,8.819204868102253e-9,3.647732933674166e-8,1.4004128324396034e-7,1.5688324450418077e-7,1.7045201764861895e-7,5.110943677762312e-8,4.135260169702534e-9,2.3034566730986195e-9,0
54346,8.826012930891531e-9,3.6722058985744566e-8,1.3993356167197788e-7,1.5742211856984607e-7,1.704715314718909e-7,5.11015931567483e-8,4.138369814303705e-9,2.30136333312407e-9,0
54347,8.83282099368081e-9,3.6966788634747473e-8,1.3982584009999544e-7,1.5796099263551137e-7,1.7049104529516284e-7,5.109374953587348e-8,4.141479458904877e-9,2.2992699931495206e-9,0
54348,8.839629056470086e-9,3.721151828375038e-8,1.3971811852801298e-7,1.5849986670117667e-7,1.705105591184348e-7,5.108590591499866e-8,4.144589103506048e-9,2.2971766531749714e-9,0
54349,8.846437119259364e-9,3.745624793275329e-8,1.3961039695603052e-7,1.5903874076684196e-7,1.7053007294170672e-7,5.1078062294123836e-8,4.147698748107219e-9,2.295083313200422e-9,0
54350,8.853245182048642e-9,3.7700977581756195e-8,1.395026753840481e-7,1.5957761483250726e-7,1.7054958676497868e-7,5.107021867324902e-8,4.15080839270839e-9,2.2929899732258725e-9,0
54351,8.860053244837919e-9,3.79457072307591e-8,1.3939495381206563e-7,1.6011648889817256e-7,1.7056910058825063e-7,5.10623750523742e-8,4.153918037309561e-9,2.2908966332513233e-09,0
54352,8.866861307627197e-9,3.819043687976201e-8,1.3928723224008317e-7,1.6065536296383786e-7,1.7058861441152256e-7,5.105453143149938e-8,4.157027681910732e-9,2.288803293276774e-9,0
54353,8.873669370416475e-9,3.8435166528764916e-8,1.391795106681007e-7,1.6119423702950316e-7,1.7060812823479452e-7,5.1046687810624556e-8,4.160137326511904e-9,2.2867099533022244e-9,0
54354,8.867721367166471e-9,3.8444280042260545e-8,1.3913708361529479e-7,1.611093157808663e-7,1.7101449839102305e-7,5.128661490893717e-8,4.163246971113075e-9,2.2905033232284373e-9,0
54355,8.861773363916467e-9,3.845339355575617e-8,1.3909465656248884e-7,1.6102439453222942e-7,1.714208685472516e-7,5.152654200724978e-8,4.1663566157142465e-9,2.2942966931546507e-9,0
54356,8.855825360666464e-9,3.846250706925179e-8,1.390522295096829e-7,1.6093947328359256e-7,1.7182723870348014e-7,5.1766469105562397e-8,4.1694662603154176e-9,2.2980900630808637e-9,0
54357,8.84987735741646e-9,3.847162058274741e-8,1.3900980245687697e-7,1.608545520349557e-7,1.7223360885970868e-7,5.200639620387501e-8,4.172575904916589e-9,2.3018834330070767e-9,0
54358,8.843929354166455e-9,3.848073409624304e-8,1.3896737540407102e-7,1.6076963078631883e-7,1.726399790159372e-7,5.2246323302187624e-8,4.17568554951776e-9,2.3056768029332896e-9,0
54359,8.842096477830421e-9,3.847318482079198e-8,1.3895021738670567e-7,1.6075899543872233e-7,1.7250974200064532e-7,5.2497569638900583e-8,4.179719012641636e-9,2.311563512834052e-9,0
54360,8.843430601049249e-9,3.8345424957014133e-8,1.389865887757513e-7,1.5987181600839967e-7,1.7194442572927994e-7,5.258358107017641e-8,4.18394328937515e-9,2.3167266749354343e-9,0
54361,8.844764724268076e-9,3.8217665093236286e-8,1.3902296016479693e-7,1.5898463657807698e-7,1.7137910945791455e-7,5.266959250145223e-8,4.1881675661086655e-9,2.3218898370368164e-9,0
54362,8.85026335327618e-9,3.813853402243949e-8,1.3909163437343592e-7,1.5800873571973844e-7,1.7043743148628755e-7,5.2657002898816485e-8,4.1881675661086655e-9,2.3209414945552632e-9,0
54363,8.855761982284283e-9,3.8059402951642693e-8,1.3916030858207492e-7,1.5703283486139988e-7,1.6949575351466056e-7,5.264441329618074e-8,4.1881675661086655e-9,2.3199931520737097e-9,0
54364,8.861260611292386e-9,3.79802718808459e-8,1.3922898279071388e-7,1.5605693400306131e-7,1.6855407554303353e-7,5.2631823693544996e-8,4.1881675661086655e-9,2.3190448095921565e-9,0
54365,8.866759240300491e-9,3.79011408100491e-8,1.3929765699935287e-7,1.5508103314472275e-7,1.6761239757140654e-7,5.2619234090909245e-8,4.1881675661086655e-9,2.3180964671106034e-9,0
54366,8.872257869308594e-9,3.7822009739252305e-8,1.3936633120799187e-7,1.541051322863842e-7,1.6667071959977954e-7,5.26066444882735e-8,4.1881675661086655e-9,2.3171481246290503e-9,0
54367,8.877756498316698e-9,3.774287866845551e-8,1.3943500541663086e-7,1.5312923142804562e-7,1.6572904162815252e-7,5.2594054885637756e-8,4.1881675661086655e-9,2.3161997821474967e-9,0
54368,8.883255127324801e-9,3.7663747597658706e-8,1.3950367962526985e-7,1.5215333056970706e-7,1.6478736365652552e-7,5.2581465283002005e-8,4.1881675661086655e-9,2.3152514396659436e-9,0
54369,8.888753756332904e-9,3.758461652686191e-8,1.3957235383390882e-7,1.5117742971136852e-7,1.6384568568489853e-7,5.256887568036626e-8,4.1881675661086655e-9,2.3143030971843904e-9,0
54370,8.894252385341007e-9,3.7505485456065114e-8,1.396410280425478e-7,1.5020152885302996e-7,1.6290400771327153e-7,5.2556286077730516e-8,4.1881675661086655e-9,2.3133547547028373e-9,0
54371,8.89975101434911e-9,3.742635438526832e-8,1.397097022511868e-7,1.492256279946914e-7,1.619623297416445e-7,5.254369647509477e-8,4.1881675661086655e-9,2.3124064122212837e-9,0
54372,8.905249643357216e-9,3.734722331447152e-8,1.397783764598258e-7,1.4824972713635283e-7,1.610206517700175e-7,5.253110687245902e-8,4.1881675661086655e-9,2.3114580697397306e-9,0
54373,8.910748272365319e-9,3.7268092243674726e-8,1.3984705066846476e-7,1.4727382627801427e-7,1.6007897379839051e-7,5.2518517269823275e-8,4.1881675661086655e-9,2.3105097272581775e-9,0
54374,8.916246901373422e-9,3.718896117287793e-8,1.3991572487710375e-7,1.462979254196757e-7,1.591372958267635e-7,5.250592766718753e-8,4.1881675661086655e-9,2.3095613847766243e-9,0
54375,8.921745530381525e-9,3.710983010208113e-8,1.3998439908574275e-7,1.4532202456133714e-7,1.581956178551365e-7,5.2493338064551786e-8,4.1881675661086655e-9,2.3086130422950708e-9,0
54376,8.927244159389629e-9,3.703069903128433e-8,1.4005307329438174e-7,1.443461237029986e-7,1.572539398835095e-7,5.2480748461916035e-8,4.1881675661086655e-9,2.3076646998135176e-9,0
54377,8.926234308436389e-9,3.689382565401086e-8,1.401536164620101e-7,1.4335163576061168e-7,1.573159596350596e-7,5.3377488637025705e-8,4.188475505616233e-9,2.3108047097753415e-9,0
54378,8.937892455702596e-9,3.6882320342968625e-8,1.405077539285627e-7,1.4420826964868513e-7,1.582079800154292e-7,5.32157293491141e-8,4.204904108958574e-9,2.321903745530347e-9,0
54379,8.949550602968804e-9,3.687081503192639e-8,1.408618913951153e-7,1.4506490353675859e-7,1.5910000039579876e-7,5.3053970061202495e-8,4.221332712300915e-9,2.3330027812853523e-9,0
54380,8.945722714163941e-9,3.693738712194024e-8,1.4118748835162913e-7,1.4673742347281757e-7,1.5813719870725304e-7,5.301999223205274e-8,4.228432381839742e-9,2.32928671478273e-9,0
54381,8.958390712383389e-9,3.6569058308936256e-8,1.41535990363024e-7,1.478574414769115e-7,1.6000392925977022e-7,5.299470790637059e-8,4.238919385961819e-9,2.3372457405759117e-9,0
54382,8.971058710602836e-9,3.620072949593227e-8,1.4188449237441886e-7,1.4897745948100547e-7,1.618706598122874e-7,5.296942358068845e-8,4.249406390083896e-9,2.345204766369093e-9,0
54383,8.983726708822285e-9,3.583240068292828e-8,1.4223299438581375e-7,1.500974774850994e-7,1.637373903648046e-7,5.2944139255006305e-8,4.259893394205973e-9,2.353163792162274e-9,0
54384,8.996394707041732e-9,3.5464071869924296e-8,1.425814963972086e-7,1.5121749548919336e-7,1.6560412091732177e-7,5.2918854929324156e-8,4.2703803983280504e-9,2.3611228179554556e-9,0
54385,9.009062705261181e-9,3.509574305692031e-8,1.4292999840860347e-7,1.523375134932873e-7,1.6747085146983895e-7,5.289357060364201e-8,4.2808674024501275e-9,2.3690818437486367e-9,0
54386,9.021730703480629e-9,3.472741424391632e-8,1.4327850041999836e-7,1.5345753149738126e-7,1.6933758202235613e-7,5.286828627795987e-8,4.2913544065722046e-9,2.377040869541818e-9,0
54387,9.034398701700078e-9,3.4359085430912336e-8,1.4362700243139322e-7,1.545775495014752e-7,1.7120431257487332e-7,5.2843001952277726e-8,4.301841410694282e-9,2.3849998953349994e-9,0
54388,9.047066699919525e-9,3.399075661790835e-8,1.4397550444278808e-7,1.5569756750556915e-7,1.730710431273905e-7,5.281771762659558e-8,4.312328414816359e-9,2.3929589211281806e-9,0
54389,9.059734698138974e-9,3.362242780490436e-8,1.4432400645418297e-7,1.5681758550966308e-7,1.7493777367990768e-7,5.2792433300913434e-8,4.322815418938436e-9,2.4009179469213618e-9,0
54390,9.072402696358421e-9,3.3254098991900376e-8,1.4467250846557783e-7,1.5793760351375702e-7,1.7680450423242486e-7,5.276714897523129e-8,4.333302423060513e-9,2.4088769727145433e-9,0
54391,9.08507069457787e-9,3.288577017889639e-8,1.450210104769727e-7,1.5905762151785098e-7,1.7867123478494204e-7,5.274186464954914e-8,4.34378942718259e-9,2.4168359985077245e-9,0
54392,9.097738692797317e-9,3.25174413658924e-8,1.4536951248836758e-7,1.601776395219449e-7,1.8053796533745923e-7,5.2716580323867e-8,4.354276431304667e-9,2.4247950243009056e-9,0
54393,9.110406691016765e-9,3.2149112552888416e-8,1.4571801449976244e-7,1.6129765752603887e-7,1.824046958899764e-7,5.2691295998184855e-8,4.364763435426744e-9,2.4327540500940868e-9,0
54394,9.123074689236214e-9,3.178078373988443e-8,1.460665165111573e-7,1.624176755301328e-7,1.842714264424936e-7,5.266601167250271e-8,4.375250439548821e-9,2.4407130758872683e-9,0
54395,9.120642647244313e-9,3.1904621557417575e-8,1.4627063632112144e-7,1.6421219178594318e-7,1.8613663991842552e-7,5.2669366515322667e-8,4.391488229281522e-9,2.4486721016804495e-9,0
54396,9.13230079451052e-9,3.1843976885090425e-8,1.4665304899381928e-7,1.6481326515593558e-7,1.879810306668365e-7,5.2606944104197193e-8,4.407916832623864e-9,2.4518894150658645e-9,0
54397,9.143958941776726e-9,3.178333221276328e-8,1.470354616665171e-7,1.65414338525928e-7,1.8982542141524749e-7,5.254452169307173e-8,4.424345435966205e-9,2.4551067284512796e-9,0
54398,9.155617089042934e-9,3.172268754043614e-8,1.474178743392149e-7,1.660154118959204e-7,1.916698121636585e-7,5.2482099281946254e-8,4.440774039308546e-9,2.4583240418366946e-9,0
54399,9.178510353559149e-9,3.157442117913302e-8,1.4766923225828585e-7,1.6865006979331362e-7,1.9203608344630126e-7,5.243319016787013e-8,4.44165441964503e-9,2.4518121116422738e-9,0
54400,9.22743753792074e-9,3.1502769948880854e-8,1.492724615937064e-7,1.6859254257618721e-7,1.9201867913028306e-7,5.242533089270039e-8,4.448181648354941e-9,2.4468737442230647e-9,0
54401,9.229906614069122e-9,3.1320010556717594e-8,1.4932627113918578e-7,1.6814688960509802e-7,1.939503724914389e-7,5.2366310287279635e-8,4.496239572555719e-9,2.4504352038785045e-9,0
54402,9.232375690217503e-9,3.113725116455434e-8,1.4938008068466515e-7,1.6770123663400883e-7,1.9588206585259473e-7,5.230728968185888e-8,4.544297496756498e-9,2.4539966635339447e-9,0
54403,9.234844766365885e-9,3.095449177239109e-8,1.4943389023014453e-7,1.6725558366291964e-7,1.9781375921375056e-7,5.224826907643813e-8,4.592355420957277e-9,2.4575581231893845e-9,0
54404,9.237313842514265e-9,3.0771732380227836e-8,1.4948769977562388e-7,1.6680993069183042e-7,1.997454525749064e-7,5.218924847101737e-8,4.640413345158056e-9,2.4611195828448247e-9,0
54405,9.239782918662648e-9,3.0588972988064576e-8,1.4954150932110325e-7,1.6636427772074123e-7,2.0167714593606223e-7,5.2130227865596614e-8,4.688471269358835e-9,2.4646810425002645e-9,0
54406,9.242251994811028e-9,3.040621359590132e-8,1.4959531886658263e-7,1.6591862474965204e-7,2.0360883929721807e-7,5.2071207260175864e-8,4.736529193559613e-9,2.4682425021557048e-9,0
54407,9.24472107095941e-9,3.022345420373807e-8,1.4964912841206197e-7,1.6547297177856284e-7,2.055405326583739e-7,5.201218665475511e-8,4.784587117760392e-9,2.4718039618111446e-9,0
54408,9.247190147107791e-9,3.004069481157482e-8,1.4970293795754135e-7,1.6502731880747362e-7,2.0747222601952977e-7,5.195316604933435e-8,4.8326450419611705e-9,2.4753654214665848e-9,0
54409,9.250494593357795e-9,2.9747598653496222e-8,1.4969210090782986e-7,1.6498853839453782e-7,2.0933129832880303e-7,5.195183752757306e-8,4.859976398374384e-9,2.483865248541234e-9,0
54410,9.253799039607797e-9,2.9454502495417628e-8,1.496812638581184e-7,1.6494975798160202e-7,2.111903706380763e-7,5.195050900581177e-8,4.887307754787598e-9,2.492365075615883e-9,0
54411,9.257103485857799e-9,2.9161406337339036e-8,1.496704268084069e-7,1.6491097756866622e-7,2.1304944294734955e-7,5.194918048405048e-8,4.914639111200812e-9,2.5008649026905322e-9,0
54412,9.2604079321078e-9,2.8868310179260445e-8,1.496595897586954e-7,1.648721971557304e-7,2.1490851525662282e-7,5.194785196228919e-8,4.9419704676140255e-9,2.5093647297651815e-9,0
54413,9.263712378357802e-9,2.857521402118185e-8,1.496487527089839e-7,1.648334167427946e-7,2.1676758756589608e-7,5.19465234405279e-8,4.969301824027239e-9,2.5178645568398304e-9,0
54414,9.267016824607804e-9,2.828211786310326e-8,1.4963791565927241e-7,1.647946363298588e-7,2.1862665987516937e-7,5.194519491876661e-8,4.996633180440453e-9,2.5263643839144797e-9,0
54415,9.270321270857806e-9,2.7989021705024668e-8,1.4962707860956095e-7,1.6475585591692296e-7,2.2048573218444263e-7,5.1943866397005324e-8,5.023964536853668e-9,2.534864210989129e-9,0
54416,9.273625717107808e-9,2.7695925546946073e-8,1.4961624155984945e-7,1.6471707550398716e-7,2.223448044937159e-7,5.1942537875244033e-8,5.051295893266881e-9,2.543364038063778e-9,0
54417,9.257852442927632e-9,2.7405174653774226e-8,1.495174929933096e-7,1.6485254650630883e-7,2.2376017474426735e-7,5.19481605885338e-8,5.098473437131175e-9,2.551667210126984e-9,0
54418,9.242079168747455e-9,2.7114423760602377e-8,1.4941874442676974e-7,1.649880175086305e-7,2.251755449948188e-7,5.1953783301823565e-8,5.145650980995469e-9,2.5599703821901905e-9,0
54419,9.2800831634058e-9,2.683708230998208e-8,1.4932300203093452e-7,1.6431860842516796e-7,2.2465474351477638e-7,5.195940601511334e-8,5.154099534462499e-9,2.5597737271787475e-9,0
54420,9.264309889225622e-9,2.6608766437420617e-8,1.4918640856933303e-7,1.6479600590691151e-07,2.2413394203473395e-7,5.200882953660159e-8,5.162548087929528e-9,2.5566337172169237e-9,0
54421,9.248536615045446e-9,2.6380450564859154e-8,1.4904981510773157e-7,1.6527340338865504e-7,2.2361314055469153e-7,5.205825305808984e-8,5.170996641396557e-9,2.5534937072551e-9,0
54422,9.23276334086527e-9,2.615213469229769e-8,1.489132216461301e-7,1.657508008703986e-7,2.2309233907464908e-7,5.210767657957809e-8,5.179445194863586e-9,2.5503536972932755e-9,0
54423,9.216990066685093e-9,2.5923818819736228e-8,1.4877662818452863e-7,1.6622819835214214e-7,2.2257153759460665e-7,5.215710010106634e-8,5.1878937483306154e-9,2.5472136873314517e-9,0
54424,9.201216792504917e-9,2.5695502947174765e-8,1.4864003472292717e-7,1.667055958338857e-7,2.2205073611456423e-7,5.220652362255459e-8,5.196342301797644e-9,2.5440736773696274e-9,0
54425,9.18544351832474e-9,2.5467187074613302e-8,1.4850344126132568e-7,1.6718299331562925e-7,2.215299346345218e-7,5.225594714404284e-8,5.204790855264673e-9,2.5409336674078036e-9,0
54426,9.169670244144562e-9,2.523887120205184e-8,1.4836684779972422e-7,1.676603907973728e-7,2.2100913315447938e-7,5.230537066553109e-8,5.213239408731702e-9,2.5377936574459793e-9,0
54427,9.153896969964386e-9,2.5010555329490375e-8,1.4823025433812273e-7,1.6813778827911635e-7,2.2048833167443695e-7,5.235479418701934e-8,5.221687962198732e-9,2.5346536474841555e-9,0
54428,9.13812369578421e-9,2.4782239456928912e-8,1.4809366087652127e-7,1.686151857608599e-7,2.1996753019439453e-7,5.240421770850759e-8,5.230136515665761e-9,2.531513637522331e-9,0
54429,9.122350421604033e-9,2.455392358436745e-8,1.4795706741491981e-7,1.6909258324260346e-7,2.1944672871435208e-7,5.245364122999584e-8,5.23858506913279e-9,2.5283736275605073e-9,0
54430,9.125654867854035e-9,2.4619611951372964e-8,1.4765424454508708e-7,1.6995443443744318e-7,2.188541380112823e-7,5.248733054684969e-8,5.227187435148739e-9,2.5290971753598875e-9,0
54431,9.125654867854035e-9,2.4686433781998786e-8,1.4751765108348562e-7,1.7100358448865885e-7,2.1823556879067092e-7,5.249093139873458e-8,5.229989140242342e-9,2.5298207231592676e-9,0
54432,9.125654867854035e-9,2.475325561262461e-8,1.4738105762188413e-7,1.7205273453987455e-7,2.1761699957005953e-7,5.249453225061946e-8,5.232790845335945e-9,2.5305442709586478e-9,0
54433,9.125654867854035e-9,2.4820077443250437e-8,1.4724446416028268e-7,1.7310188459109023e-7,2.1699843034944815e-7,5.2498133102504345e-8,5.235592550429548e-9,2.531267818758028e-9,0
54434,9.125654867854035e-9,2.488689927387626e-8,1.4710787069868122e-7,1.7415103464230593e-7,2.163798611288368e-7,5.250173395438923e-8,5.238394255523151e-9,2.531991366557408e-9,0
54435,9.125654867854035e-9,2.4953721104502084e-8,1.4697127723707973e-7,1.752001846935216e-7,2.157612919082254e-7,5.250533480627412e-8,5.241195960616755e-9,2.5327149143567878e-9,0
54436,9.125654867854035e-9,2.5020542935127907e-8,1.4683468377547827e-7,1.762493347447373e-7,2.1514272268761402e-7,5.2508935658159006e-8,5.243997665710357e-9,2.533438462156168e-9,0
54437,9.125654867854035e-9,2.5087364765753732e-8,1.4669809031387678e-7,1.77298484795953e-7,2.1452415346700264e-7,5.251253651004389e-8,5.246799370803961e-9,2.534162009955548e-9,0
54438,9.125654867854035e-9,2.5154186596379558e-8,1.4656149685227532e-7,1.7834763484716868e-7,2.1390558424639128e-7,5.251613736192878e-8,5.2496010758975634e-9,2.534885557754928e-9,0
54439,9.125654867854035e-9,2.522100842700538e-8,1.4642490339067384e-7,1.7939678489838438e-7,2.132870150257799e-7,5.251973821381367e-8,5.252402780991167e-9,2.5356091055543083e-9,0
54440,9.125654867854035e-9,2.5287830257631205e-8,1.4628830992907238e-7,1.8044593494960006e-7,2.126684458051685e-7,5.2523339065698554e-8,5.25520448608477e-9,2.5363326533536885e-9,0
54441,9.14782386473807e-9,2.5297635373242973e-8,1.461385439243761e-7,1.8036735011606346e-7,2.12032015149889e-7,5.248076611850449e-8,5.2838847264261855e-9,2.5363818171065492e-9,0
54442,9.169992861622103e-9,2.530744048885474e-8,1.459887779196798e-7,1.8028876528252686e-7,2.1139558449460948e-7,5.2438193171310436e-8,5.312564966767602e-9,2.53643098085941e-9,0
54443,9.16833446613769e-9,2.5314660957920958e-8,1.4585935831176528e-7,1.801927524033115e-7,2.1094739107636344e-7,5.2428569238441876e-8,5.308106438238228e-9,2.542563509524476e-9,0
54444,9.166676070653274e-9,2.532188142698718e-8,1.4572993870385077e-7,1.8009673952409614e-7,2.1049919765811743e-7,5.2418945305573316e-8,5.303647909708855e-9,2.5486960381895418e-9,0
54445,9.16501767516886e-9,2.5329101896053398e-8,1.4560051909593623e-7,1.800007266448808e-7,2.100510042398714e-7,5.2409321372704757e-8,5.299189381179482e-9,2.5548285668546077e-9,0
54446,9.163359279684445e-9,2.5336322365119616e-8,1.4547109948802172e-7,1.7990471376566541e-7,2.0960281082162537e-7,5.23996974398362e-8,5.294730852650109e-9,2.5609610955196736e-9,0
54447,9.161700884200032e-9,2.5343542834185838e-8,1.453416798801072e-7,1.7980870088645004e-7,2.0915461740337936e-7,5.239007350696764e-8,5.290272324120735e-9,2.5670936241847395e-9,0
54448,9.160042488715618e-9,2.5350763303252056e-8,1.4521226027219267e-7,1.797126880072347e-7,2.0870642398513332e-7,5.2380449574099083e-8,5.285813795591362e-9,2.5732261528498058e-9,0
54449,9.158384093231203e-9,2.5357983772318278e-8,1.4508284066427816e-7,1.7961667512801931e-7,2.082582305668873e-7,5.2370825641230523e-8,5.281355267061988e-9,2.5793586815148717e-9,0
54450,9.156725697746789e-9,2.5365204241384496e-8,1.4495342105636364e-7,1.7952066224880394e-7,2.078100371486413e-7,5.2361201708361963e-8,5.276896738532615e-9,2.5854912101799376e-9,0
54451,9.155067302262374e-9,2.5372424710450718e-8,1.4482400144844913e-7,1.794246493695886e-7,2.0736184373039525e-7,5.235157777549341e-8,5.2724382100032414e-9,2.5916237388450035e-9,0
54452,9.15587798292634e-9,2.524163833862315e-8,1.4474618231016344e-7,1.7941379586300997e-7,2.074350979869238e-7,5.237928205494077e-8,5.2658807317678415e-9,2.5977562675100694e-9,0
54453,9.15668866359031e-9,2.5110851966795585e-8,1.4466836317187778e-7,1.7940294235643137e-7,2.0750835224345237e-7,5.240698633438814e-8,5.2593232535324415e-9,2.6038887961751353e-9,0
54454,9.152686293933827e-9,2.512368359045707e-8,1.4468751620171195e-7,1.7991740329267735e-7,2.0760967198656306e-7,5.240174159951001e-8,5.260143134817947e-9,2.605785481138242e-9,0
54455,9.148683924277344e-9,2.5136515214118553e-8,1.447066692315461e-7,1.8043186422892333e-7,2.0771099172967377e-7,5.239649686463188e-8,5.260963016103453e-9,2.6076821661013482e-9,0
54456,9.194444109084073e-9,2.5145900642385972e-8,1.455888837681972e-7,1.8127704095201276e-7,2.0802090477056194e-7,5.244092839529427e-8,5.253377782108149e-9,2.616238272517458e-9,0
54457,9.2402042938908e-9,2.5155286070653395e-8,1.4647109830484827e-7,1.8212221767510216e-7,2.0833081781145008e-7,5.2485359925956667e-8,5.245792548112845e-9,2.624794378933568e-9,0
54458,9.28596447869753e-9,2.5164671498920814e-8,1.4735331284149934e-7,1.829673943981916e-7,2.0864073085233825e-7,5.252979145661906e-8,5.238207314117541e-9,2.633350485349677e-9,0
54459,9.331724663504259e-9,2.5174056927188236e-8,1.482355273781504e-7,1.8381257112128102e-7,2.089506438932264e-7,5.2574222987281456e-8,5.230622080122238e-9,2.641906591765787e-9,0
54460,9.377484848310988e-9,2.5183442355455656e-8,1.491177419148015e-7,1.8465774784437045e-7,2.0926055693411457e-7,5.261865451794385e-8,5.223036846126934e-9,2.6504626981818967e-9,0
54461,9.423245033117717e-9,2.5192827783723075e-8,1.4999995645145257e-7,1.8550292456745986e-7,2.095704699750027e-7,5.2663086048606245e-8,5.21545161213163e-9,2.6590188045980065e-9,0
54462,9.469005217924447e-9,2.5202213211990497e-8,1.5088217098810363e-7,1.8634810129054929e-7,2.0988038301589088e-7,5.270751757926864e-8,5.207866378136327e-9,2.6675749110141163e-9,0
54463,9.514765402731176e-9,2.5211598640257916e-8,1.517643855247547e-7,1.8719327801363872e-7,2.1019029605677905e-7,5.2751949109931035e-8,5.200281144141023e-9,2.6761310174302256e-9,0
54464,9.560525587537905e-9,2.5220984068525336e-8,1.5264660006140577e-7,1.8803845473672815e-7,2.105002090976672e-7,5.279638064059343e-8,5.192695910145719e-9,2.6846871238463354e-9,0
54465,9.601123760320944e-9,2.5227909720553197e-8,1.533839712320194e-7,1.8833441933750225e-7,2.1096754162897992e-7,5.2549576119050575e-8,5.192695910145719e-9,2.6924705187102043e-9,0
54466,9.641721933103983e-9,2.5234835372581058e-8,1.54121342402633e-7,1.8863038393827634e-7,2.1143487416029265e-7,5.2302771597507713e-08,5.192695910145719e-9,2.700253913574073e-9,0
54467,9.682320105887021e-9,2.5241761024608916e-8,1.548587135732466e-7,1.8892634853905047e-7,2.1190220669160539e-7,5.205596707596486e-8,5.192695910145719e-9,2.708037308437942e-9,0
54468,9.72291827867006e-9,2.5248686676636778e-8,1.5559608474386023e-7,1.8922231313982457e-7,2.123695392229181e-7,5.1809162554422e-8,5.192695910145719e-9,2.715820703301811e-9,0
54469,9.7635164514531e-9,2.5255612328664636e-8,1.5633345591447385e-7,1.895182777405987e-7,2.1283687175423082e-7,5.156235803287914e-8,5.192695910145719e-9,2.72360409816568e-9,0
54470,9.804114624236139e-9,2.5262537980692497e-8,1.5707082708508745e-7,1.898142423413728e-7,2.1330420428554356e-7,5.131555351133628e-8,5.192695910145719e-9,2.7313874930295488e-9,0
54471,9.844712797019178e-9,2.526946363272036e-8,1.5780819825570107e-7,1.901102069421469e-7,2.137715368168563e-7,5.106874898979342e-8,5.192695910145719e-9,2.7391708878934177e-9,0
54472,9.885310969802217e-9,2.5276389284748216e-8,1.5854556942631467e-7,1.9040617154292102e-7,2.1423886934816902e-7,5.0821944468250565e-8,5.192695910145719e-9,2.7469542827572866e-9,0
54473,9.935073524265429e-9,2.5276389284748216e-8,1.5939189194119535e-7,1.9186498448071587e-7,2.1467210972102584e-7,5.0872649548615344e-8,5.196920186879233e-9,2.754737677621155e-9,0
54474,9.98483607872864e-9,2.5276389284748216e-8,1.6023821445607604e-7,1.9332379741851074e-7,2.151053500938827e-7,5.092335462898013e-8,5.201144463612749e-9,2.762521072485024e-9,0
54475,9.990297673580264e-9,2.5649854129603563e-8,1.6016719565271946e-7,1.9440569529492123e-7,2.1594849094778643e-7,5.114817596978869e-8,5.225496489983451e-9,2.7655627549411267e-9,0
54476,1.0123887785890728e-8,2.5636183859360126e-8,1.6045171264491053e-7,1.9504560389270348e-7,2.1688417347339013e-7,5.1188516814756565e-8,5.31663412366964e-9,2.836168018490945e-9,0
54477,1.0257477898201194e-8,2.5622513589116693e-8,1.6073622963710158e-7,1.9568551249048573e-7,2.1781985599899384e-7,5.1228857659724435e-8,5.407771757355829e-9,2.9067732820407634e-9,0
54478,1.0391068010511658e-8,2.5608843318873256e-8,1.6102074662929262e-7,1.96325421088268e-7,2.1875553852459754e-7,5.126919850469231e-8,5.498909391042019e-9,2.9773785455905813e-9,0
54479,1.0524658122822123e-8,2.559517304862982e-8,1.613052636214837e-7,1.9696532968605025e-7,2.1969122105020125e-7,5.130953934966018e-8,5.590047024728208e-9,3.0479838091403996e-9,0
54480,1.0658248235132587e-8,2.5581502778386383e-8,1.6158978061367474e-7,1.976052382838325e-7,2.2062690357580495e-7,5.134988019462805e-8,5.681184658414397e-9,3.118589072690218e-9,0
54481,1.0791838347443053e-8,2.556783250814295e-8,1.618742976058658e-7,1.9824514688161475e-7,2.2156258610140868e-7,5.1390221039595925e-8,5.772322292100586e-9,3.189194336240036e-9,0
54482,1.0925428459753517e-8,2.5554162237899514e-8,1.6215881459805685e-7,1.98885055479397e-7,2.2249826862701238e-7,5.1430561884563794e-8,5.863459925786776e-9,3.2597995997898545e-9,0
54483,1.1059018572063981e-08,2.5540491967656077e-8,1.624433315902479e-7,1.9952496407717927e-7,2.234339511526161e-7,5.147090272953167e-8,5.954597559472965e-9,3.330404863339673e-9,0
54484,1.1192608684374446e-8,2.552682169741264e-8,1.6272784858243897e-7,2.0016487267496152e-7,2.243696336782198e-7,5.151124357449954e-8,6.045735193159154e-9,3.4010101268894907e-9,0
54485,1.132619879668491e-8,2.5513151427169204e-8,1.6301236557463001e-7,2.0080478127274377e-7,2.253053162038235e-7,5.1551584419467415e-8,6.136872826845343e-9,3.471615390439309e-9,0
54486,1.1459788908995376e-8,2.549948115692577e-8,1.6329688256682109e-7,2.0144468987052601e-07,2.262409987294272e-7,5.1591925264435284e-8,6.228010460531533e-9,3.5422206539891273e-9,0
54487,1.1569650386688005e-8,2.5325869267604614e-8,1.6366278059547207e-7,2.021331815229477e-7,2.266296852579632e-7,5.160415254295432e-8,6.29479606784702e-9,3.609784235082843e-9,0
54488,1.1697778904146847e-8,2.5308174983077046e-8,1.6372810241865135e-7,2.0281892712907176e-07,2.2759686209026864e-7,5.114876855766207e-8,6.383865001352672e-9,3.681162210184902e-9,0
54489,1.1683339753185498e-8,2.5927557647848428e-8,1.6346252776040646e-7,2.0295306340417696e-7,2.2743933937416573e-7,5.124027746786831e-8,6.385053321196725e-9,3.6660521254101104e-9,0
54490,1.1687491914255947e-8,2.594184045443515e-8,1.6446320872223545e-7,2.026507932418257e-7,2.273379484917169e-7,5.1224180939117195e-8,6.404899508647805e-9,3.6509420406353188e-9,0
54491,1.1691644075326396e-8,2.5956123261021865e-8,1.6546388968406447e-7,2.0234852307947445e-7,2.272365576092681e-7,5.120808441036608e-8,6.424745696098885e-9,3.635831955860527e-9,0
54492,1.1695796236396846e-8,2.5970406067608586e-8,1.6646457064589346e-7,2.020462529171232e-7,2.2713516672681927e-7,5.1191987881614965e-8,6.444591883549966e-9,3.6207218710857355e-9,0
54493,1.1699948397467294e-8,2.5984688874195303e-8,1.6746525160772246e-7,2.0174398275477195e-7,2.2703377584437043e-7,5.117589135286385e-8,6.464438071001046e-9,3.605611786310944e-9,0
54494,1.1704100558537745e-8,2.599897168078202e-8,1.6846593256955148e-7,2.014417125924207e-7,2.269323849619216e-7,5.1159794824112735e-8,6.4842842584521265e-9,3.5905017015361522e-9,0
54495,1.1708252719608193e-8,2.601325448736874e-8,1.6946661353138047e-7,2.0113944243006944e-7,2.268309940794728e-7,5.114369829536162e-8,6.504130445903207e-9,3.5753916167613606e-9,0
54496,1.1712404880678643e-8,2.6027537293955457e-8,1.704672944932095e-7,2.0083717226771819e-7,2.2672960319702397e-7,5.1127601766610506e-8,6.523976633354287e-9,3.560281531986569e-9,0
54497,1.1716557041749092e-8,2.6041820100542177e-8,1.7146797545503849e-7,2.0053490210536693e-7,2.2662821231457516e-7,5.111150523785939e-8,6.543822820805367e-9,3.5451714472117773e-09,0
54498,1.172070920281954e-8,2.6056102907128894e-8,1.7246865641686748e-7,2.0023263194301565e-7,2.2652682143212634e-7,5.1095408709108276e-8,6.5636690082564475e-9,3.5300613624369857e-9,0
54499,1.172486136388999e-8,2.607038571371561e-8,1.734693373786965e-7,1.999303617806644e-7,2.2642543054967752e-7,5.107931218035716e-8,6.583515195707528e-9,3.514951277662194e-9,0
54500,1.172901352496044e-8,2.608466852030233e-8,1.744700183405255e-7,1.9962809161831315e-7,2.263240396672287e-7,5.1063215651606046e-8,6.603361383158608e-9,3.4998411928874025e-9,0
54501,1.173316568603089e-8,2.6098951326889048e-8,1.7547069930235452e-7,1.993258214559619e-7,2.2622264878477986e-7,5.104711912285493e-8,6.623207570609689e-9,3.484731108112611e-9,0
54502,1.1737317847101338e-8,2.6113234133475768e-8,1.764713802641835e-7,1.9902355129361064e-7,2.2612125790233104e-7,5.1031022594103816e-8,6.643053758060769e-9,3.4696210233378196e-9,0
54503,1.1741470008171788e-8,2.6127516940062485e-8,1.774720612260125e-7,1.9872128113125939e-7,2.2601986701988222e-7,5.10149260653527e-8,6.66289994551185e-9,3.454510938563028e-9,0
54504,1.1745622169242237e-8,2.6141799746649205e-8,1.7847274218784152e-7,1.9841901096890813e-7,2.259184761374334e-7,5.0998829536601587e-8,6.682746132962929e-9,3.4394008537882364e-9,0
54505,1.1749774330312687e-8,2.6156082553235922e-8,1.7947342314967052e-7,1.9811674080655688e-7,2.2581708525498459e-07,5.098273300785047e-8,6.70259232041401e-9,3.4242907690134447e-9,0
54506,1.1753926491383136e-8,2.617036535982264e-8,1.804741041114995e-7,1.9781447064420563e-7,2.2571569437253577e-7,5.096663647909936e-8,6.72243850786509e-9,3.409180684238653e-9,0
54507,1.1758078652453584e-8,2.618464816640936e-8,1.8147478507332853e-7,1.9751220048185437e-7,2.2561430349008695e-7,5.095053995034824e-8,6.742284695316171e-9,3.3940705994638615e-9,0
54508,1.1762230813524035e-8,2.6198930972996077e-8,1.8247546603515753e-7,1.9720993031950312e-7,2.2551291260763813e-7,5.093444342159713e-8,6.762130882767251e-9,3.37896051468907e-9,0
54509,1.1764987127781523e-8,2.623090806411036e-8,1.8372390661254618e-7,1.9730690658322338e-7,2.247794540840731e-7,5.09426806751785e-8,6.7825495110472475e-9,3.373895680093409e-9,0
54510,1.175993787301532e-8,2.6233231882964024e-8,1.8373426884564955e-7,1.972794468483535e-7,2.2381343002676449e-7,5.0929938989247344e-8,6.78224157153968e-9,3.370102310167196e-9,0
54511,1.175993787301532e-8,2.6203578610703402e-8,1.837558040587118e-7,1.970465774210591e-7,2.2394330274046796e-7,5.088323958811514e-8,6.78224157153968e-9,3.371472102342365e-9,0
54512,1.1827556781947368e-8,2.6188717985226617e-8,1.8516264771599194e-7,1.9689255926472467e-7,2.2406171454109246e-7,5.084591137579921e-8,6.806593597910382e-9,3.4129879626583966e-9,0
54513,1.1895175690879419e-8,2.617385735974983e-8,1.865694913732721e-7,1.9673854110839023e-7,2.2418012634171699e-7,5.0808583163483286e-8,6.830945624281085e-9,3.454503822974428e-9,0
54514,1.1962794599811467e-8,2.6158996734273044e-8,1.8797633503055225e-7,1.9658452295205576e-7,2.242985381423415e-7,5.077125495116736e-8,6.855297650651787e-9,3.4960196832904595e-9,0
54515,1.2030413508743518e-8,2.614413610879626e-8,1.8938317868783242e-7,1.9643050479572133e-7,2.24416949942966e-7,5.0733926738851434e-8,6.879649677022489e-9,3.5375355436064907e-9,0
54516,1.2098032417675567e-8,2.612927548331947e-8,1.9079002234511257e-7,1.962764866393869e-7,2.2453536174359054e-7,5.069659852653551e-8,6.9040017033931915e-9,3.5790514039225223e-9,0
54517,1.2165651326607615e-8,2.6114414857842687e-8,1.9219686600239274e-7,1.9612246848305243e-7,2.2465377354421506e-7,5.065927031421958e-8,6.9283537297638935e-9,3.6205672642385535e-9,0
54518,1.2233270235539666e-8,2.6099554232365902e-8,1.9360370965967288e-7,1.95968450326718e-7,2.2477218534483959e-7,5.062194210190366e-8,6.9527057561345955e-09,3.662083124554585e-9,0
54519,1.2300889144471714e-8,2.6084693606889114e-8,1.9501055331695305e-7,1.9581443217038355e-7,2.2489059714546408e-7,5.0584613889587735e-8,6.977057782505298e-9,3.7035989848706164e-9,0
54520,1.2368508053403765e-8,2.606983298141233e-8,1.964173969742332e-7,1.9566041401404909e-7,2.250090089460886e-7,5.0547285677271806e-8,7.001409808876e-9,3.745114845186648e-9,0
54521,1.2365367398074603e-8,2.594904457419547e-8,1.9603991722470192e-7,1.95346253636956e-7,2.230003306583971e-7,5.0482778787561776e-8,7.010270239087797e-9,3.775531669747674e-9,0
54522,1.236222674274544e-8,2.5828256166978606e-8,1.9566243747517063e-7,1.950320932598629e-7,2.2099165237070556e-7,5.0418271897851747e-8,7.019130669299593e-9,3.8059484943087e-9,0
54523,1.2359086087416278e-8,2.5707467759761743e-8,1.9528495772563936e-7,1.947179328827698e-7,2.1898297408301405e-7,5.035376500814171e-8,7.027991099511389e-9,3.836365318869726e-9,0
54524,1.2355945432087116e-8,2.5586679352544883e-8,1.9490747797610809e-7,1.944037725056767e-7,2.1697429579532252e-7,5.028925811843168e-8,7.036851529723185e-9,3.8667821434307525e-9,0
54525,1.2352804776757954e-8,2.546589094532802e-8,1.945299982265768e-7,1.940896121285836e-7,2.14965617507631e-7,5.022475122872165e-8,7.045711959934982e-9,3.897198967991779e-9,0
54526,1.234966412142879e-8,2.534510253811116e-8,1.9415251847704552e-7,1.9377545175149048e-7,2.1295693921993947e-7,5.016024433901162e-8,7.054572390146779e-9,3.927615792552805e-9,0
54527,1.2346523466099629e-8,2.5224314130894297e-8,1.9377503872751422e-7,1.934612913743974e-7,2.1094826093224796e-7,5.0095737449301586e-8,7.063432820358575e-9,3.958032617113831e-9,0
54528,1.2343382810770467e-8,2.5103525723677437e-8,1.9339755897798295e-7,1.931471309973043e-7,2.0893958264455643e-7,5.0031230559591556e-8,7.072293250570371e-9,3.9884494416748565e-9,0
54529,1.2340242155441305e-8,2.4982737316460573e-8,1.9302007922845165e-7,1.928329706202112e-7,2.0693090435686492e-7,4.9966723669881526e-8,7.0811536807821675e-9,4.018866266235883e-9,0
54530,1.2331102463198785e-8,2.5000386524561756e-8,1.9399607418631248e-7,1.9277557734990323e-7,2.064698162178892e-7,4.991469006775545e-8,7.099564107932606e-9,4.040909730898711e-9,0
54531,1.2321962770956267e-8,2.5018035732662936e-8,1.949720691441733e-7,1.9271818407959526e-7,2.0600872807891348e-7,4.986265646562938e-8,7.117974535083044e-9,4.0629531955615404e-9,0
54532,1.2312823078713747e-8,2.5035684940764116e-8,1.9594806410203414e-7,1.9266079080928727e-7,2.0554763993993777e-7,4.981062286350331e-8,7.136384962233482e-9,4.084996660224369e-9,0
54533,1.2303683386471228e-8,2.5053334148865296e-8,1.9692405905989494e-7,1.926033975389793e-7,2.0508655180096203e-7,4.9758589261377235e-8,7.154795389383921e-9,4.107040124887197e-9,0
54534,1.229454369422871e-8,2.5070983356966476e-8,1.9790005401775577e-7,1.9254600426867133e-7,2.0462546366198632e-7,4.9706555659251166e-8,7.17320581653436e-9,4.129083589550027e-9,0
54535,1.228540400198619e-8,2.5088632565067656e-8,1.988760489756166e-7,1.9248861099836336e-7,2.0416437552301062e-7,4.9654522057125097e-8,7.191616243684798e-9,4.151127054212855e-9,0
54536,1.2276264309743672e-8,2.510628177316884e-8,1.9985204393347743e-7,1.924312177280554e-7,2.0370328738403488e-7,4.960248845499902e-8,7.210026670835236e-9,4.1731705188756835e-9,0
54537,1.2267124617501152e-8,2.512393098127002e-8,2.0082803889133823e-7,1.9237382445774743e-7,2.0324219924505917e-7,4.955045485287295e-8,7.228437097985675e-9,4.195213983538512e-9,0
54538,1.2257984925258633e-8,2.51415801893712e-8,2.0180403384919906e-7,1.9231643118743943e-7,2.0278111110608344e-7,4.949842125074688e-8,7.2468475251361135e-9,4.217257448201341e-9,0
54539,1.2248845233016113e-8,2.515922939747238e-8,2.027800288070599e-7,1.9225903791713146e-7,2.0232002296710773e-7,4.9446387648620806e-8,7.265257952286552e-9,4.23930091286417e-9,0
54540,1.2239705540773595e-8,2.5176878605573558e-8,2.0375602376492072e-7,1.922016446468235e-7,2.01858934828132e-7,4.9394354046494736e-8,7.28366837943699e-9,4.261344377526998e-9,0
54541,1.2230565848531075e-8,2.5194527813674738e-8,2.0473201872278152e-7,1.9214425137651553e-7,2.013978466891563e-7,4.9342320444368667e-8,7.302078806587428e-9,4.283387842189827e-9,0
54542,1.2221426156288556e-8,2.5212177021775918e-8,2.0570801368064235e-7,1.9208685810620756e-7,2.0093675855018058e-7,4.929028684224259e-8,7.320489233737867e-9,4.305431306852656e-9,0
54543,1.2212286464046038e-8,2.52298262298771e-8,2.0668400863850318e-7,1.9202946483589957e-7,2.0047567041120485e-7,4.923825324011652e-8,7.338899660888306e-9,4.327474771515484e-9,0
54544,1.2203146771803518e-8,2.524747543797828e-8,2.07660003596364e-7,1.919720715655916e-7,2.0001458227222914e-7,4.918621963799045e-8,7.357310088038744e-9,4.349518236178313e-9,0
54545,1.2272873450461881e-8,2.5260307061639763e-8,2.0898491622355516e-7,1.8942383952459259e-7,2.001354982470565e-7,4.916720886201069e-8,7.365233511067105e-9,4.389811795577757e-9,0
54546,1.226973279513272e-8,2.5139518654422903e-8,2.1021938261232773e-7,1.892851211827564e-7,1.9972181247144906e-7,4.880267175587093e-8,7.376956145423484e-9,4.423445933524198e-9,0
54547,1.2266592139803558e-8,2.501873024720604e-8,2.1145384900110034e-7,1.891464028409202e-7,1.9930812669584162e-7,4.843813464973117e-8,7.388678779779862e-9,4.45708007147064e-9,0
54548,1.2184223807151445e-8,2.4912802465465965e-8,2.112612654053452e-7,1.893766485521233e-7,1.9880128858210142e-7,4.808083729093837e-8,7.395721822471739e-9,4.454607329966735e-9,0
54549,1.2105496537733749e-8,2.477592908819249e-8,2.1112056123511384e-7,1.894240442549697e-7,1.982646085502633e-7,4.771475696256223e-8,7.395721822471739e-9,4.446725607597145e-9,0
54550,1.2026769268316053e-8,2.4639055710919022e-8,2.1097985706488247e-7,1.894714399578161e-7,1.9772792851842518e-7,4.734867663418609e-8,7.395721822471739e-9,4.438843885227554e-9,0
54551,1.1948041998898355e-8,2.450218233364555e-8,2.1083915289465112e-7,1.8951883566066249e-7,1.9719124848658706e-7,4.698259630580995e-8,7.395721822471739e-9,4.430962162857964e-9,0
54552,1.1869314729480659e-8,2.4365308956372075e-8,2.1069844872441978e-7,1.8956623136350888e-7,1.9665456845474894e-7,4.661651597743381e-8,7.395721822471739e-9,4.4230804404883735e-9,0
54553,1.178811838391458e-8,2.4311512326513413e-8,2.1069283720577113e-7,1.8965918674876837e-7,1.9633219699454742e-7,4.6434140074126383e-8,7.384207062589758e-9,4.415198718118784e-9,0
54554,1.1706922038348502e-8,2.4257715696654748e-8,2.106872256871225e-7,1.8975214213402785e-7,1.960098255343459e-7,4.625176417081896e-8,7.372692302707778e-9,4.407316995749194e-9,0
54555,1.1625725692782424e-8,2.4203919066796082e-8,2.1068161416847386e-7,1.8984509751928734e-7,1.9568745407414437e-7,4.606938826751154e-8,7.361177542825797e-9,4.399435273379603e-9,0
54556,1.1544529347216347e-8,2.415012243693742e-8,2.1067600264982523e-7,1.899380529045468e-7,1.9536508261394286e-7,4.588701236420411e-8,7.349662782943817e-9,4.391553551010013e-9,0
54557,1.1463333001650268e-8,2.4096325807078754e-8,2.106703911311766e-7,1.9003100828980628e-7,1.9504271115374134e-7,4.570463646089669e-8,7.338148023061836e-9,4.3836718286404225e-9,0
54558,1.138213665608419e-8,2.404252917722009e-8,2.1066477961252796e-7,1.9012396367506576e-7,1.9472033969353983e-7,4.552226055758926e-8,7.3266332631798556e-9,4.375790106270832e-9,0
54559,1.1300940310518112e-8,2.3988732547361423e-8,2.1065916809387934e-7,1.9021691906032525e-7,1.9439796823333831e-7,4.5339884654281836e-8,7.315118503297875e-9,4.367908383901242e-9,0
54560,1.1219743964952033e-8,2.393493591750276e-8,2.106535565752307e-7,1.9030987444558473e-7,1.9407559677313677e-7,4.515750875097441e-8,7.3036037434158945e-9,4.360026661531651e-9,0
54561,1.1138547619385955e-8,2.3881139287644096e-8,2.1064794505658207e-7,1.904028298308442e-7,1.9375322531293526e-7,4.4975132847666984e-8,7.292088983533915e-9,4.352144939162061e-9,0
54562,1.1057351273819876e-8,2.382734265778543e-8,2.1064233353793342e-7,1.9049578521610368e-7,1.9343085385273375e-7,4.479275694435956e-8,7.280574223651934e-9,4.344263216792471e-9,0
54563,1.09761549282538e-8,2.3773546027926768e-8,2.106367220192848e-7,1.9058874060136316e-7,1.9310848239253223e-7,4.461038104105214e-8,7.269059463769954e-9,4.336381494422881e-9,0
54564,1.0894958582687721e-8,2.3719749398068103e-8,2.1063111050063615e-7,1.9068169598662265e-7,1.927861109323307e-7,4.4428005137744714e-8,7.257544703887973e-9,4.328499772053291e-9,0
54565,1.0813762237121643e-8,2.3665952768209437e-8,2.1062549898198753e-7,1.9077465137188213e-7,1.9246373947212918e-7,4.424562923443729e-8,7.2460299440059925e-9,4.3206180496837e-9,0
54566,1.0732565891555564e-8,2.3612156138350772e-8,2.106198874633389e-7,1.908676067571416e-7,1.9214136801192766e-7,4.406325333112986e-8,7.234515184124012e-9,4.31273632731411e-9,0
54567,1.0651369545989486e-8,2.355835950849211e-8,2.1061427594469026e-7,1.9096056214240107e-7,1.9181899655172615e-7,4.3880877427822437e-8,7.223000424242031e-9,4.3048546049445196e-9,0
54568,1.0575671829431511e-8,2.360936828383312e-8,2.1050407999296374e-7,1.909406661044601e-7,1.919660957744722e-7,4.3513468577685004e-8,7.2103710322277074e-9,4.296024540093376e-9,0
54569,1.0499974112873537e-8,2.3660377059174128e-8,2.1039388404123722e-7,1.9092077006651912e-7,1.9211319499721825e-7,4.314605972754758e-8,7.1977416402133835e-9,4.2871944752422325e-9,0
54570,1.042124684345584e-8,2.3522472186319768e-8,2.1019676497758249e-7,1.9071951193116738e-7,1.9163324791733997e-7,4.277524907170543e-8,7.186226880331403e-9,4.280682545047811e-9,0
54571,1.0342519574038143e-8,2.338456731346541e-8,2.0999964591392776e-7,1.9051825379581565e-7,1.911533008374617e-7,4.240443841586328e-8,7.174712120449422e-9,4.27417061485339e-9,0
54572,1.0263792304620447e-8,2.324666244061105e-8,2.0980252685027302e-7,1.903169956604639e-7,1.9067335375758342e-7,4.203362776002114e-8,7.163197360567442e-9,4.2676586846589695e-9,0
54573,1.018506503520275e-8,2.310875756775669e-8,2.096054077866183e-7,1.9011573752511218e-7,1.9019340667770516e-7,4.166281710417899e-8,7.151682600685461e-9,4.261146754464548e-9,0
54574,1.0187883073054372e-8,2.3023391718941435e-8,2.0955913077840888e-7,1.90141553625207e-7,1.9015853559396791e-7,4.164725063713492e-8,7.152797232817805e-9,4.2632400944390975e-9,0
54575,1.0148245372349268e-8,2.301324670986492e-8,2.0943742591647613e-7,1.9009679325506402e-7,1.9018542662782984e-7,4.12465796867736e-8,7.1230931089205145e-9,4.259446724512885e-9,0
54576,1.0108607671644161e-8,2.3003101700788408e-8,2.0931572105454338e-7,1.9005203288492102e-7,1.9021231766169178e-7,4.0845908736412275e-8,7.0933889850232235e-9,4.2556533545866715e-9,0
54577,1.0068969970939057e-8,2.2992956691711896e-8,2.091940161926106e-7,1.9000727251477802e-7,1.902392086955537e-7,4.044523778605095e-8,7.0636848611259325e-9,4.251859984660459e-9,0
54578,1.0029332270233952e-8,2.2982811682635384e-8,2.0907231133067785e-7,1.8996251214463503e-7,1.9026609972941563e-7,4.004456683568963e-8,7.033980737228642e-9,4.248066614734246e-9,0
54579,9.989694569528846e-9,2.2972666673558872e-8,2.089506064687451e-7,1.8991775177449206e-7,1.9029299076327755e-7,3.96438958853283e-8,7.004276613331351e-9,4.244273244808032e-9,0
54580,9.922748894565623e-9,2.2951095419212982e-8,2.08759098923739e-7,1.887623473442935e-7,1.9028502112201905e-7,3.9646631200325485e-8,7.00451086512721e-9,4.2425030270213775e-9,0
54581,9.855803219602401e-9,2.2929524164867096e-8,2.085675913787329e-7,1.8760694291409492e-7,1.9027705148076055e-7,3.9649366515322666e-8,7.004745116923069e-9,4.240732809234723e-9,0
54582,9.788857544639179e-9,2.290795291052121e-8,2.083760838337268e-7,1.8645153848389637e-7,1.9026908183950205e-7,3.965210183031984e-8,7.0049793687189274e-9,4.238962591448068e-9,0
54583,9.721911869675957e-9,2.2886381656175324e-8,2.081845762887207e-7,1.8529613405369782e-7,1.9026111219824356e-7,3.965483714531702e-8,7.005213620514786e-9,4.237192373661413e-9,0
54584,9.654966194712735e-9,2.2864810401829435e-8,2.079930687437146e-7,1.8414072962349926e-7,1.9025314255698506e-7,3.96575724603142e-8,7.005447872310645e-9,4.2354221558747584e-09,0
54585,9.588020519749512e-9,2.284323914748355e-8,2.078015611987085e-7,1.829853251933007e-7,1.9024517291572656e-7,3.966030777531138e-8,7.005682124106504e-9,4.233651938088104e-9,0
54586,9.52107484478629e-9,2.2821667893137662e-8,2.076100536537024e-7,1.8182992076310213e-7,1.9023720327446806e-7,3.9663043090308555e-8,7.0059163759023625e-9,4.231881720301449e-9,0
54587,9.454129169823068e-9,2.2800096638791773e-8,2.074185461086963e-7,1.8067451633290358e-7,1.9022923363320957e-7,3.9665778405305736e-8,7.0061506276982214e-9,4.230111502514794e-9,0
54588,9.387183494859846e-9,2.2778525384445887e-8,2.0722703856369022e-7,1.7951911190270502e-7,1.9022126399195107e-7,3.966851372030291e-8,7.00638487949408e-9,4.228341284728139e-9,0
54589,9.333406226021324e-9,2.276485511420245e-8,2.0599927694583702e-7,1.791013382876385e-7,1.9003389935775024e-7,3.9287672119924297e-8,6.986772943838859e-9,4.214895974645682e-9,0
54590,9.279628957182804e-9,2.2751184843959014e-8,2.0477151532798385e-7,1.78683564672572e-7,1.898465347235494e-7,3.890683051954568e-8,6.967161008183637e-9,4.201450664563223e-9,0
54591,9.226549611750763e-9,2.293848990579017e-8,2.0354828917803027e-7,1.8031305608173984e-7,1.8965200105109484e-7,3.853226246886945e-8,6.948854518270397e-9,4.1866355623055956e-9,0
54592,9.234367525493281e-9,2.2957578481629936e-8,2.0331541816213934e-7,1.7996746010155098e-7,1.8940546174243219e-7,3.8156151195956843e-08,6.958946706512467e-9,4.190850381925425e-9,0
54593,9.242185439235799e-9,2.2976667057469697e-8,2.030825471462484e-7,1.796218641213621e-7,1.8915892243376953e-7,3.7780039923044235e-8,6.969038894754535e-9,4.195065201545254e-9,0
54594,9.250003352978319e-9,2.2995755633309463e-8,2.0284967613035748e-7,1.7927626814117322e-7,1.889123831251069e-7,3.740392865013163e-8,6.979131082996605e-9,4.199280021165083e-9,0
54595,9.257821266720837e-9,2.3014844209149224e-8,2.0261680511446655e-7,1.7893067216098433e-7,1.8866584381644425e-7,3.702781737721902e-8,6.9892232712386735e-9,4.203494840784912e-9,0
54596,9.265639180463355e-9,2.303393278498899e-8,2.0238393409857562e-7,1.7858507618079547e-7,1.884193045077816e-7,3.665170610430641e-8,6.999315459480743e-9,4.2077096604047406e-9,0
54597,9.273457094205873e-9,2.305302136082875e-8,2.021510630826847e-7,1.7823948020060658e-7,1.8817276519911894e-7,3.62755948313938e-8,7.009407647722812e-9,4.21192448002457e-9,0
54598,9.28127500794839e-9,2.3072109936668516e-8,2.0191819206679377e-7,1.7789388422041771e-7,1.8792622589045628e-7,3.589948355848119e-8,7.01949983596488e-9,4.216139299644399e-9,0
54599,9.28909292169091e-9,2.3091198512508278e-8,2.0168532105090284e-7,1.7754828824022882e-7,1.8767968658179363e-7,3.552337228556858e-8,7.02959202420695e-9,4.220354119264228e-9,0
54600,9.296910835433428e-9,2.3110287088348043e-8,2.014524500350119e-7,1.7720269226003996e-7,1.87433147273131e-7,3.5147261012655973e-8,7.0396842124490185e-9,4.224568938884057e-9,0
54601,9.304728749175946e-9,2.3129375664187805e-8,2.0121957901912098e-7,1.7685709627985107e-7,1.8718660796446835e-7,3.4771149739743365e-8,7.049776400691088e-9,4.228783758503886e-9,0
54602,9.312546662918464e-9,2.314846424002757e-8,2.0098670800323005e-7,1.765115002996622e-7,1.869400686558057e-7,3.439503846683076e-8,7.059868588933157e-9,4.232998578123715e-9,0
54603,9.320364576660982e-9,2.3167552815867332e-8,2.0075383698733912e-7,1.761659043194733e-7,1.8669352934714304e-7,3.401892719391814e-8,7.069960777175225e-9,4.237213397743544e-9,0
54604,9.33115031966909e-9,2.2834962824356396e-8,2.0045355002227004e-7,1.7563651745154032e-7,1.8466873827240786e-7,3.381993589479369e-8,7.038509081265696e-9,4.228910225680338e-9,0
54605,9.321774422980816e-9,2.292897742289654e-8,1.9906258910339933e-7,1.7542705275892546e-7,1.8491291912750303e-7,3.3814465264799334e-8,7.0419569148999256e-9,4.220951199887156e-9,0
54606,9.312398526292543e-9,2.3022992021436688e-8,1.9767162818452861e-7,1.752175880663106e-7,1.851570999825982e-7,3.380899463480498e-8,7.0454047485341544e-9,4.212992174093975e-9,0
54607,9.303022629604271e-9,2.3117006619976835e-8,1.9628066726565793e-7,1.7500812337369577e-7,1.8540128083769337e-7,3.380352400481062e-8,7.048852582168383e-9,4.205033148300794e-9,0
54608,9.293646732915998e-9,2.321102121851698e-8,1.948897063467872e-7,1.747986586810809e-7,1.8564546169278856e-7,3.3798053374816264e-8,7.052300415802612e-9,4.1970741225076125e-9,0
54609,9.284270836227726e-9,2.3305035817057127e-8,1.934987454279165e-7,1.7458919398846608e-7,1.8588964254788373e-7,3.379258274482191e-8,7.055748249436841e-9,4.189115096714431e-9,0
54610,9.274894939539453e-9,2.339905041559727e-8,1.921077845090458e-7,1.7437972929585122e-7,1.861338234029789e-7,3.378711211482755e-8,7.05919608307107e-9,4.18115607092125e-9,0
54611,9.283125193367393e-9,2.3404933484964332e-8,1.9075513875117768e-7,1.740787205370581e-7,1.875022657840865e-7,3.3980632783957646e-8,7.078560578269703e-9,4.1754660160319305e-9,0
54612,9.29135544719533e-9,2.3410816554331393e-8,1.8940249299330958e-7,1.7377771177826496e-7,1.8887070816519413e-7,3.417415345308774e-8,7.097925073468335e-9,4.169775961142611e-9,0
54613,9.299585701023268e-9,2.341669962369845e-8,1.8804984723544148e-7,1.7347670301947183e-7,1.9023915054630174e-7,3.436767412221784e-8,7.117289568666967e-9,4.164085906253291e-9,0
54614,9.307815954851207e-9,2.3422582693065512e-8,1.8669720147757338e-7,1.731756942606787e-7,1.9160759292740937e-7,3.4561194791347926e-8,7.1366540638656e-9,4.1583958513639716e-9,0
54615,9.316046208679145e-9,2.3428465762432573e-8,1.8534455571970528e-7,1.7287468550188556e-7,1.9297603530851697e-7,3.475471546047802e-8,7.1560185590642326e-9,4.152705796474653e-9,0
54616,9.324276462507084e-9,2.3434348831799634e-8,1.8399190996183718e-7,1.7257367674309243e-7,1.943444776896246e-7,3.4948236129608117e-8,7.175383054262865e-9,4.147015741585333e-9,0
54617,9.332506716335022e-9,2.344023190116669e-8,1.8263926420396908e-7,1.7227266798429933e-7,1.957129200707322e-7,3.514175679873821e-8,7.194747549461498e-9,4.141325686696013e-9,0
54618,9.340736970162961e-9,2.3446114970533753e-8,1.8128661844610096e-7,1.719716592255062e-7,1.9708136245183983e-7,3.533527746786831e-8,7.21411204466013e-9,4.135635631806694e-9,0
54619,9.348967223990899e-9,2.3451998039900814e-8,1.7993397268823286e-7,1.7167065046671307e-7,1.9844980483294744e-7,3.55287981369984e-8,7.233476539858762e-9,4.129945576917374e-9,0
54620,9.357197477818838e-9,2.345788110926787e-8,1.7858132693036476e-7,1.7136964170791994e-7,1.9981824721405506e-7,3.57223188061285e-8,7.2528410350573945e-9,4.124255522028055e-9,0
54621,9.365427731646776e-9,2.3463764178634932e-8,1.7722868117249666e-7,1.710686329491268e-7,2.0118668959516267e-7,3.591583947525859e-8,7.2722055302560275e-9,4.1185654671387356e-09,0
54622,9.373657985474715e-9,2.3469647248001993e-8,1.7587603541462856e-7,1.7076762419033367e-7,2.025551319762703e-7,3.610936014438868e-8,7.29157002545466e-9,4.112875412249416e-9,0
54623,9.381888239302653e-9,2.3475530317369055e-8,1.7452338965676046e-7,1.7046661543154054e-7,2.039235743573779e-7,3.630288081351878e-8,7.310934520653292e-9,4.107185357360096e-9,0
54624,9.390118493130592e-9,2.3481413386736112e-8,1.7317074389889236e-7,1.701656066727474e-7,2.0529201673848553e-7,3.649640148264887e-8,7.330299015851925e-9,4.101495302470777e-9,0
54625,9.417350744287702e-9,2.3478012995875176e-8,1.7320442111097165e-7,1.6998182159330932e-7,2.0659768908714274e-7,3.669365497301056e-8,7.349971450558126e-9,4.105534491161293e-9,0
54626,9.444582995444813e-9,2.347461260501424e-8,1.7323809832305092e-7,1.697980365138712e-7,2.0790336143579995e-7,3.6890908463372245e-8,7.3696438852643264e-9,4.10957367985181e-9,0
54627,9.432126512233466e-9,2.345732619264437e-8,1.7295442393238526e-7,1.6978589075021134e-7,2.0809218155537494e-7,3.674089335515738e-8,7.369292507570538e-9,4.108302215182362e-9,0
54628,9.419670029022117e-9,2.3440039780274498e-8,1.726707495417196e-7,1.6977374498655147e-7,2.0828100167494993e-7,3.659087824694252e-8,7.3689411298767495e-9,4.107030750512915e-9,0
54629,9.421414837538318e-9,2.3593881850612917e-8,1.723866743282933e-7,1.7037460673397455e-7,2.0861279654080453e-7,3.6492413642031435e-8,7.366711865612064e-9,4.104937410538365e-9,0
54630,9.423159646054519e-9,2.374772392095134e-8,1.72102599114867e-7,1.7097546848139763e-7,2.0894459140665914e-7,3.639394903712036e-8,7.364482601347377e-9,4.102844070563815e-9,0
54631,9.42490445457072e-9,2.390156599128976e-8,1.7181852390144073e-7,1.7157633022882072e-7,2.0927638627251376e-7,3.629548443220928e-8,7.36225333708269e-9,4.100750730589266e-9,0
54632,9.426649263086923e-9,2.405540806162818e-8,1.7153444868801444e-7,1.721771919762438e-7,2.0960818113836837e-7,3.61970198272982e-8,7.3600240728180035e-9,4.098657390614717e-9,0
54633,9.428394071603123e-9,2.42092501319666e-8,1.7125037347458814e-7,1.7277805372366688e-7,2.0993997600422297e-7,3.6098555222387116e-8,7.357794808553317e-9,4.096564050640168e-9,0
54634,9.430138880119325e-9,2.4363092202305022e-8,1.7096629826116185e-7,1.7337891547108996e-7,2.1027177087007757e-7,3.600009061747604e-8,7.35556554428863e-9,4.0944707106656185e-9,0
54635,9.431883688635525e-9,2.451693427264344e-8,1.7068222304773556e-7,1.7397977721851305e-7,2.1060356573593217e-7,3.590162601256496e-8,7.353336280023943e-9,4.092377370691069e-9,0
54636,9.433628497151727e-9,2.4670776342981863e-8,1.703981478343093e-7,1.7458063896593613e-7,2.109353606017868e-7,3.580316140765388e-8,7.3511070157592566e-9,4.090284030716519e-9,0
54637,9.435373305667927e-9,2.4824618413320284e-8,1.70114072620883e-7,1.751815007133592e-7,2.112671554676414e-7,3.5704696802742796e-8,7.34887775149457e-9,4.08819069074197e-9,0
54638,9.43711811418413e-9,2.4978460483658703e-8,1.698299974074567e-7,1.757823624607823e-7,2.11598950333496e-7,3.560623219783172e-8,7.346648487229883e-9,4.086097350767421e-9,0
54639,9.43886292270033e-9,2.5132302553997125e-8,1.695459221940304e-7,1.7638322420820537e-7,2.119307451993506e-7,3.550776759292064e-8,7.344419222965196e-9,4.0840040107928715e-9,0
54640,9.440607731216531e-9,2.5286144624335546e-8,1.6926184698060413e-7,1.7698408595562846e-7,2.122625400652052e-7,3.540930298800956e-8,7.34218995870051e-9,4.081910670818322e-9,0
54641,9.442352539732733e-9,2.5439986694673965e-8,1.6897777176717784e-7,1.7758494770305154e-7,2.1259433493105983e-7,3.5310838383098476e-8,7.339960694435823e-9,4.079817330843773e-9,0
54642,9.444097348248934e-9,2.5593828765012387e-8,1.6869369655375155e-7,1.7818580945047462e-7,2.1292612979691443e-7,3.52123737781874e-8,7.337731430171137e-9,4.077723990869223e-9,0
54643,9.445842156765136e-9,2.574767083535081e-8,1.6840962134032525e-7,1.787866711978977e-7,2.1325792466276903e-7,3.511390917327632e-8,7.33550216590645e-9,4.075630650894674e-9,0
54644,9.447586965281336e-9,2.5901512905689227e-8,1.6812554612689898e-7,1.7938753294532079e-7,2.1358971952862364e-7,3.501544456836524e-8,7.333272901641764e-9,4.0735373109201245e-9,0
54645,9.449331773797538e-9,2.605535497602765e-8,1.678414709134727e-7,1.7998839469274387e-7,2.1392151439447826e-7,3.4916979963454156e-8,7.331043637377077e-9,4.071443970945575e-9,0
54646,9.451076582313738e-9,2.620919704636607e-8,1.675573957000464e-7,1.8058925644016695e-7,2.1425330926033287e-7,3.481851535854308e-8,7.32881437311239e-9,4.069350630971026e-9,0
54647,9.45282139082994e-9,2.636303911670449e-8,1.672733204866201e-7,1.8119011818759003e-7,2.1458510412618747e-7,3.4720050753632e-8,7.3265851088477035e-9,4.067257290996477e-9,0
54648,9.441163243563732e-9,2.634850729761254e-8,1.6729501852255218e-7,1.8034729366296927e-7,2.1300973907167048e-7,3.489291903912265e-8,7.301942203834192e-9,4.0554838711949515e-9,0
54649,9.440988762712112e-9,2.6295775424574498e-8,1.657172562676056e-7,1.8073040103223686e-7,2.1206364690328586e-7,3.4936735501616057e-8,7.307810115342747e-9,4.055209912759918e-9,0
54650,9.440814281860492e-9,2.6243043551536454e-8,1.6413949401265902e-7,1.8111350840150447e-7,2.1111755473490124e-7,3.498055196410946e-8,7.313678026851301e-9,4.054935954324884e-9,0
54651,9.440639801008872e-9,2.6190311678498413e-8,1.6256173175771245e-7,1.814966157707721e-7,2.1017146256651664e-7,3.502436842660286e-8,7.319545938359855e-9,4.05466199588985e-9,0
54652,9.440465320157252e-9,2.613757980546037e-8,1.6098396950276588e-7,1.818797231400397e-7,2.0922537039813202e-7,3.506818488909626e-8,7.3254138498684094e-9,4.054388037454817e-9,0
54653,9.440290839305631e-9,2.6084847932422328e-8,1.594062072478193e-7,1.822628305093073e-7,2.082792782297474e-7,3.511200135158966e-8,7.3312817613769645e-9,4.0541140790197824e-9,0
54654,9.440116358454011e-9,2.6032116059384287e-8,1.5782844499287272e-7,1.826459378785749e-7,2.073331860613628e-7,3.515581781408306e-8,7.337149672885519e-9,4.053840120584749e-9,0
54655,9.439941877602391e-9,2.5979384186346243e-8,1.5625068273792616e-7,1.8302904524784252e-7,2.0638709389297819e-7,3.519963427657646e-8,7.343017584394073e-9,4.053566162149715e-9,0
54656,9.43976739675077e-9,2.5926652313308202e-8,1.546729204829796e-7,1.834121526171101e-7,2.0544100172459356e-7,3.524345073906986e-8,7.348885495902627e-9,4.053292203714681e-9,0
54657,9.43959291589915e-9,2.587392044027016e-8,1.53095158228033e-7,1.8379525998637773e-7,2.0449490955620897e-7,3.528726720156327e-8,7.354753407411182e-9,4.0530182452796475e-9,0
54658,9.43941843504753e-9,2.5821188567232117e-8,1.5151739597308643e-7,1.8417836735564534e-7,2.0354881738782435e-7,3.533108366405667e-8,7.360621318919736e-9,4.052744286844613e-9,0
54659,9.439243954195912e-9,2.5768456694194077e-8,1.4993963371813986e-7,1.8456147472491293e-7,2.0260272521943973e-7,3.537490012655007e-8,7.3664892304282905e-9,4.052470328409579e-9,0
54660,9.439069473344292e-9,2.5715724821156036e-8,1.4836187146319327e-7,1.8494458209418055e-7,2.0165663305105513e-7,3.541871658904347e-8,7.3723571419368455e-9,4.052196369974546e-9,0
54661,9.441238966664739e-9,2.556706167477514e-8,1.4691832958795436e-7,1.8660918441551723e-7,2.0178665406686332e-7,3.542559401227372e-8,7.370639819450096e-9,4.052147206221685e-9,0
54662,9.443408459985188e-9,2.5418398528394244e-8,1.4547478771271546e-7,1.882737867368539e-7,2.019166750826715e-7,3.543247143550396e-8,7.368922496963347e-9,4.052098042468824e-9,0
54663,9.440116358454011e-9,2.5463592213061143e-8,1.4546097179630211e-7,1.8995529003732866e-7,2.015615550360727e-7,3.475834734791272e-8,7.28423453207133e-9,4.0431977897826895e-9,0
54664,9.436824256922836e-9,2.5508785897728042e-8,1.4544715587988877e-7,1.916367933378034e-7,2.0120643498947384e-7,3.408422326032148e-8,7.199546567179313e-9,4.0342975370965545e-9,0
54665,9.433532155391662e-9,2.555397958239494e-8,1.4543333996347543e-7,1.9331829663827818e-7,2.0085131494287502e-7,3.3410099172730235e-8,7.114858602287296e-9,4.02539728441042e-9,0
54666,9.430240053860485e-9,2.559917326706184e-8,1.4541952404706206e-7,1.9499979993875293e-7,2.0049619489627617e-7,3.2735975085139e-8,7.030170637395279e-9,4.0164970317242854e-9,0
54667,9.42694795232931e-9,2.564436695172874e-8,1.4540570813064872e-7,1.9668130323922767e-7,2.0014107484967735e-7,3.2061850997547755e-8,6.945482672503263e-9,4.0075967790381505e-9,0
54668,9.423132408243274e-9,2.5854659005271062e-8,1.452364634503786e-7,1.9711500610052169e-7,1.9887133440318244e-7,3.139578077165264e-8,6.860326204019528e-9,4.014628486431909e-9,0
54669,9.419316864157238e-9,2.6064951058813385e-8,1.4506721877010847e-7,1.9754870896181572e-7,1.9760159395668753e-7,3.072971054575753e-8,6.775169735535794e-9,4.021660193825668e-9,0
54670,9.415501320071203e-9,2.6275243112355708e-8,1.4489797408983834e-7,1.9798241182310973e-7,1.9633185351019262e-7,3.0063640319862406e-8,6.6900132670520594e-9,4.028691901219426e-9,0
54671,9.411685775985168e-9,2.648553516589803e-8,1.4472872940956822e-7,1.9841611468440374e-7,1.9506211306369771e-7,2.9397570093967292e-8,6.604856798568325e-9,4.0357236086131845e-9,0
54672,9.40787023189913e-9,2.669582721944035e-8,1.445594847292981e-7,1.9884981754569776e-7,1.937923726172028e-7,2.8731499868072175e-8,6.519700330084591e-9,4.042755316006943e-9,0
54673,9.404054687813095e-9,2.6906119272982673e-8,1.4439024004902797e-7,1.9928352040699177e-7,1.925226321707079e-7,2.8065429642177057e-8,6.434543861600857e-9,4.049787023400701e-9,0
54674,9.40023914372706e-9,2.7116411326524995e-8,1.4422099536875782e-7,1.9971722326828578e-7,1.9125289172421298e-7,2.7399359416281943e-8,6.3493873931171225e-9,4.05681873079446e-9,0
54675,9.396423599641025e-9,2.7326703380067318e-8,1.440517506884877e-7,2.001509261295798e-7,1.8998315127771805e-7,2.6733289190386826e-8,6.264230924633388e-9,4.0638504381882185e-9,0
54676,9.392608055554988e-9,2.7536995433609638e-8,1.4388250600821757e-7,2.005846289908738e-7,1.8871341083122314e-7,2.606721896449171e-8,6.179074456149654e-9,4.070882145581977e-9,0
54677,9.388792511468952e-9,2.774728748715196e-8,1.4371326132794745e-7,2.010183318521678e-7,1.8744367038472823e-7,2.5401148738596594e-8,6.09391798766592e-9,4.077913852975735e-9,0
54678,9.384976967382917e-9,2.7957579540694283e-8,1.4354401664767732e-7,2.0145203471346182e-7,1.8617392993823332e-7,2.4735078512701477e-8,6.0087615191821855e-9,4.084945560369494e-9,0
54679,9.381161423296882e-9,2.8167871594236606e-8,1.433747719674072e-7,2.0188573757475583e-7,1.849041894917384e-7,2.406900828680636e-8,5.923605050698451e-9,4.0919772677632526e-9,0
54680,9.377345879210845e-9,2.837816364777893e-8,1.4320552728713707e-7,2.0231944043604984e-7,1.836344490452435e-7,2.3402938060911246e-8,5.838448582214717e-9,4.0990089751570104e-9,0
54681,9.37353033512481e-9,2.8588455701321248e-8,1.4303628260686695e-7,2.0275314329734385e-7,1.823647085987486e-7,2.2736867835016128e-8,5.753292113730982e-9,4.106040682550769e-9,0
54682,9.369714791038774e-9,2.879874775486357e-8,1.428670379265968e-7,2.0318684615863786e-7,1.8109496815225368e-7,2.207079760912101e-8,5.668135645247249e-9,4.113072389944528e-9,0
54683,9.365899246952739e-9,2.9009039808405893e-8,1.4269779324632667e-7,2.0362054901993188e-7,1.7982522770575877e-7,2.1404727383225897e-8,5.582979176763514e-9,4.1201040973382866e-9,0
54684,9.340425803818702e-9,2.9021338689603696e-8,1.423346827743315e-7,2.0391021967574092e-7,1.7984261120454334e-7,2.1154389086631615e-8,5.576642761663242e-9,4.104614611034139e-9,0
54685,9.325500244458972e-9,2.8958144816290958e-8,1.4231437851672732e-7,2.0447497227665402e-7,1.7906387978160765e-7,2.1130905186891912e-8,5.574764875092343e-9,4.104888569469173e-9,0
54686,9.311061093497624e-9,2.8914549359015103e-8,1.4229407425912315e-7,2.0500566555838003e-7,1.7920978373439983e-7,2.109168708251781e-8,5.574764875092343e-9,4.104888569469173e-9,0
54687,9.296621942536275e-9,2.8870953901739248e-8,1.42273770001519e-7,2.0553635884010604e-7,1.7935568768719204e-7,2.105246897814371e-8,5.574764875092343e-9,4.104888569469173e-9,0
54688,9.282182791574926e-9,2.8827358444463392e-8,1.4225346574391483e-7,2.0606705212183205e-7,1.7950159163998425e-7,2.101325087376961e-8,5.574764875092343e-9,4.104888569469173e-9,0
54689,9.267743640613575e-9,2.878376298718754e-8,1.4223316148631065e-7,2.0659774540355806e-7,1.7964749559277646e-7,2.097403276939551e-8,5.574764875092343e-9,4.104888569469173e-9,0
54690,9.253304489652227e-9,2.8740167529911685e-8,1.422128572287065e-7,2.0712843868528407e-7,1.7979339954556867e-7,2.0934814665021408e-8,5.574764875092343e-9,4.104888569469173e-9,0
54691,9.238865338690878e-9,2.869657207263583e-8,1.4219255297110233e-7,2.076591319670101e-7,1.7993930349836088e-7,2.0895596560647307e-8,5.574764875092343e-9,4.104888569469173e-9,0
54692,9.224426187729529e-9,2.8652976615359974e-8,1.4217224871349816e-7,2.081898252487361e-7,1.800852074511531e-7,2.0856378456273203e-8,5.574764875092343e-9,4.104888569469173e-9,0
54693,9.20998703676818e-9,2.860938115808412e-8,1.4215194445589401e-7,2.0872051853046212e-7,1.802311114039453e-7,2.0817160351899102e-8,5.574764875092343e-9,4.104888569469173e-9,0
54694,9.195547885806831e-9,2.8565785700808263e-8,1.4213164019828984e-7,2.0925121181218813e-7,1.803770153567375e-7,2.0777942247525e-8,5.574764875092343e-9,4.104888569469173e-9,0
54695,9.18110873484548e-9,2.852219024353241e-8,1.4211133594068567e-7,2.0978190509391413e-7,1.805229193095297e-7,2.07387241431509e-8,5.574764875092343e-9,4.104888569469173e-9,0
54696,9.166669583884132e-9,2.8478594786256556e-8,1.4209103168308152e-7,2.1031259837564014e-7,1.806688232623219e-7,2.06995060387768e-8,5.574764875092343e-9,4.104888569469173e-9,0
54697,9.167155992282513e-9,2.8308440907516115e-8,1.416477198895726e-7,2.103766460451194e-7,1.8143653876123225e-7,2.0487305609193823e-8,5.570891976052617e-9,4.102570434812451e-9,0
54698,9.167642400680894e-9,2.8138287028775674e-8,1.4120440809606364e-7,2.1044069371459865e-7,1.8220425426014256e-7,2.0275105179610847e-8,5.5670190770128904e-9,4.100252300155728e-9,0
54699,9.168128809079273e-9,2.796813315003523e-8,1.4076109630255472e-7,2.105047413840779e-7,1.8297196975905288e-7,2.006290475002787e-8,5.563146177973164e-9,4.097934165499006e-9,0
54700,9.168615217477654e-9,2.7797979271294788e-8,1.403177845090458e-7,2.1056878905355717e-7,1.837396852579632e-7,1.985070432044489e-8,5.5592732789334376e-9,4.0956160308422835e-9,0
54701,9.169101625876035e-9,2.7627825392554347e-8,1.3987447271553687e-7,2.1063283672303642e-7,1.845074007568735e-7,1.9638503890861914e-8,5.555400379893711e-9,4.0932978961855605e-9,0
54702,9.169588034274414e-9,2.7457671513813906e-8,1.3943116092202795e-7,2.1069688439251568e-7,1.8527511625578385e-7,1.9426303461278938e-8,5.551527480853985e-9,4.090979761528838e-9,0
54703,9.170074442672795e-9,2.7287517635073465e-8,1.3898784912851902e-7,2.1076093206199493e-7,1.8604283175469417e-7,1.9214103031695962e-8,5.547654581814258e-9,4.088661626872116e-9,0
54704,9.170560851071175e-9,2.7117363756333024e-8,1.385445373350101e-7,2.108249797314742e-7,1.8681054725360449e-7,1.9001902602112986e-8,5.543781682774532e-9,4.086343492215393e-9,0
54705,9.176894850180898e-9,2.691904177760367e-8,1.3811972609668254e-7,2.1041151085720993e-7,1.86643184787176e-7,1.8871560300931633e-8,5.538030897163907e-9,4.0881137100020486e-9,0
54706,9.16105985240659e-9,2.68472782203389e-8,1.3807584037303545e-7,2.100828692147997e-7,1.8660306681733618e-7,1.886209964599962e-8,5.525592318759221e-9,4.084222012570114e-9,0
54707,9.145224854632279e-9,2.677551466307413e-8,1.3803195464938836e-7,2.0975422757238947e-7,1.8656294884749632e-7,1.8852638991067605e-8,5.513153740354536e-9,4.08033031513818e-9,0
54708,9.129389856857969e-9,2.6703751105809366e-8,1.3798806892574127e-7,2.0942558592997925e-7,1.865228308776565e-7,1.884317833613559e-8,5.500715161949852e-9,4.076438617706245e-9,0
54709,9.113554859083658e-9,2.6631987548544597e-8,1.379441832020942e-7,2.09096944287569e-7,1.8648271290781667e-7,1.883371768120358e-8,5.488276583545166e-9,4.072546920274311e-9,0
54710,9.097719861309348e-9,2.656022399127983e-8,1.3790029747844712e-7,2.0876830264515878e-7,1.8644259493797684e-7,1.8824257026271567e-8,5.475838005140481e-9,4.068655222842376e-9,0
54711,9.081884863535038e-9,2.6488460434015063e-8,1.3785641175480003e-7,2.0843966100274854e-7,1.8640247696813702e-7,1.8814796371339553e-8,5.4633994267357965e-9,4.064763525410442e-9,0
54712,9.066049865760729e-9,2.6416696876750294e-8,1.3781252603115294e-7,2.0811101936033832e-7,1.8636235899829716e-7,1.880533571640754e-8,5.450960848331111e-9,4.060871827978507e-9,0
54713,9.050214867986419e-9,2.6344933319485525e-8,1.3776864030750585e-7,2.0778237771792807e-7,1.8632224102845734e-7,1.879587506147553e-8,5.438522269926426e-9,4.056980130546573e-9,0
54714,9.034379870212108e-9,2.627316976222076e-8,1.3772475458385876e-7,2.0745373607551785e-7,1.862821230586175e-7,1.8786414406543515e-8,5.4260836915217415e-9,4.053088433114638e-9,0
54715,9.018544872437798e-9,2.620140620495599e-8,1.3768086886021167e-7,2.071250944331076e-7,1.8624200508877768e-7,1.87769537516115e-8,5.413645113117056e-9,4.049196735682704e-9,0
54716,9.002709874663487e-9,2.6129642647691222e-8,1.376369831365646e-7,2.067964527906974e-7,1.8620188711893783e-7,1.8767493096679487e-8,5.401206534712371e-9,4.045305038250769e-9,0
54717,8.986874876889179e-9,2.6057879090426457e-8,1.375930974129175e-7,2.0646781114828714e-7,1.86161769149098e-7,1.8758032441747477e-8,5.388767956307686e-9,4.041413340818835e-9,0
54718,8.971039879114868e-9,2.5986115533161688e-8,1.3754921168927042e-7,2.0613916950587692e-7,1.8612165117925817e-7,1.8748571786815463e-8,5.376329377903001e-9,4.0375216433869e-9,0
54719,8.951787677833068e-9,2.5973986598696258e-8,1.3716095286552686e-7,2.054718919218013e-7,1.855125374506401e-7,1.8561165849104995e-8,5.342236540984018e-9,4.017100905252145e-9,0
54720,8.951949813965863e-9,2.5880141946888486e-8,1.370093228165617e-7,2.0539180248050738e-7,1.8550682217678095e-7,1.856304008686825e-8,5.342236540984018e-9,4.016826946817111e-9,0
54721,8.952111950098656e-9,2.578629729508071e-8,1.368576927675965e-7,2.0531171303921347e-7,1.855011069029218e-7,1.8564914324631505e-8,5.342236540984018e-9,4.0165529883820765e-9,0
54722,8.952274086231449e-9,2.569245264327294e-8,1.3670606271863132e-7,2.0523162359791955e-7,1.8549539162906265e-7,1.8566788562394764e-8,5.342236540984018e-9,4.016279029947043e-9,0
54723,8.952436222364242e-9,2.5598607991465168e-8,1.3655443266966615e-7,2.0515153415662564e-7,1.8548967635520352e-7,1.856866280015802e-8,5.342236540984018e-9,4.016005071512009e-9,0
54724,8.952598358497037e-9,2.5504763339657392e-8,1.3640280262070096e-7,2.050714447153317e-7,1.8548396108134437e-7,1.8570537037921274e-8,5.342236540984018e-9,4.015731113076975e-9,0
54725,8.95276049462983e-9,2.541091868784962e-8,1.3625117257173579e-07,2.049913552740378e-7,1.8547824580748522e-7,1.857241127568453e-8,5.342236540984018e-9,4.0154571546419416e-9,0
54726,8.955266604934692e-9,2.5317074036041846e-8,1.3612408390653748e-7,2.0492065139339436e-7,1.854466786404658e-7,1.8588823165667602e-8,5.3420022891881595e-9,4.0151831962069074e-9,0
54727,8.957772715239552e-9,2.5223229384234074e-8,1.3599699524133915e-7,2.0484994751275092e-7,1.854151114734464e-7,1.8605235055650672e-8,5.3417680373923005e-9,4.014909237771874e-9,0
54728,8.960278825544414e-9,2.51293847324263e-8,1.3586990657614084e-7,2.0477924363210746e-7,1.8538354430642698e-7,1.8621646945633746e-8,5.3415337855964415e-9,4.01463527933684e-9,0
54729,8.962784935849276e-9,2.5035540080618527e-8,1.357428179109425e-7,2.0470853975146403e-7,1.8535197713940757e-7,1.8638058835616816e-8,5.3412995338005826e-9,4.014361320901806e-9,0
54730,8.965291046154137e-9,2.4941695428810755e-8,1.356157292457442e-7,2.0463783587082056e-7,1.8532040997238815e-7,1.865447072559989e-8,5.3410652820047244e-9,4.0140873624667725e-9,0
54731,8.967797156458999e-9,2.484785077700298e-8,1.3548864058054587e-7,2.0456713199017713e-7,1.8528884280536874e-7,1.867088261558296e-8,5.3408310302088655e-9,4.013813404031738e-9,0
54732,8.97030326676386e-9,2.4754006125195208e-8,1.3536155191534756e-7,2.0449642810953367e-7,1.8525727563834933e-7,1.8687294505566032e-8,5.3405967784130065e-9,4.013539445596704e-9,0
54733,8.972809377068723e-9,2.4660161473387433e-8,1.3523446325014925e-7,2.0442572422889023e-7,1.8522570847132992e-7,1.8703706395549102e-8,5.340362526617148e-9,4.013265487161671e-9,0
54734,8.975315487373583e-9,2.456631682157966e-8,1.3510737458495092e-7,2.0435502034824677e-7,1.851941413043105e-7,1.8720118285532176e-8,5.340128274821289e-9,4.012991528726637e-9,0
54735,8.977821597678445e-9,2.4472472169771886e-8,1.3498028591975261e-7,2.0428431646760333e-7,1.851625741372911e-7,1.8736530175515246e-8,5.3398940230254304e-9,4.0127175702916026e-9,0
54736,8.980327707983307e-9,2.4378627517964114e-8,1.3485319725455428e-7,2.0421361258695987e-7,1.8513100697027168e-7,1.875294206549832e-8,5.3396597712295715e-9,4.012443611856569e-9,0
54737,8.98283381828817e-9,2.4284782866156343e-8,1.3472610858935598e-7,2.0414290870631644e-7,1.8509943980325226e-7,1.876935395548139e-8,5.339425519433713e-9,4.012169653421535e-9,0
54738,8.98533992859303e-9,2.4190938214348568e-8,1.3459901992415764e-7,2.0407220482567297e-7,1.8506787263623285e-7,1.878576584546446e-8,5.339191267637854e-9,4.011895694986502e-9,0
54739,8.987846038897892e-9,2.4097093562540796e-8,1.3447193125895934e-7,2.0400150094502954e-7,1.8503630546921344e-7,1.8802177735447532e-8,5.338957015841995e-9,4.011621736551468e-9,0
54740,8.990352149202754e-9,2.400324891073302e-8,1.3434484259376103e-7,2.0393079706438608e-7,1.8500473830219402e-7,1.8818589625430602e-8,5.338722764046137e-9,4.0113477781164335e-9,0
54741,8.991050072609235e-9,2.396764459041239e-8,1.3431446534345612e-7,2.0392169209787073e-7,1.8500162088008905e-7,1.880326470779768e-8,5.337842383709652e-9,4.012071325915814e-9,0
54742,8.991747996015715e-9,2.393204027009176e-8,1.3428408809315122e-7,2.0391258713135537e-7,1.8499850345798404e-7,1.8787939790164753e-8,5.336962003373168e-9,4.012794873715194e-9,0
54743,8.988094588062473e-9,2.3688602944361625e-8,1.3428393892228277e-7,2.032459073973791e-7,1.84976443826042e-7,1.87857188825797e-8,5.344547237368471e-9,4.013616749020295e-9,0
54744,8.984441180109229e-9,2.344516561863149e-8,1.3428378975141432e-7,2.025792276634028e-7,1.8495438419409998e-7,1.878349797499465e-8,5.352132471363775e-9,4.014438624325397e-9,0
54745,8.980787772155987e-9,2.3201728292901357e-8,1.3428364058054588e-7,2.0191254792942653e-7,1.8493232456215792e-7,1.87812770674096e-8,5.359717705359079e-9,4.015260499630499e-9,0
54746,8.977134364202745e-9,2.2958290967171223e-8,1.3428349140967743e-7,2.0124586819545026e-7,1.8491026493021588e-7,1.8779056159824546e-8,5.367302939354382e-9,4.0160823749356e-9,0
54747,8.973480956249502e-9,2.271485364144109e-8,1.3428334223880898e-7,2.0057918846147398e-7,1.8488820529827385e-7,1.8776835252239493e-8,5.374888173349686e-9,4.016904250240702e-9,0
54748,8.96982754829626e-9,2.2471416315710954e-8,1.3428319306794054e-7,1.999125087274977e-7,1.848661456663318e-7,1.877461434465444e-8,5.38247340734499e-9,4.0177261255458035e-9,0
54749,8.966174140343018e-9,2.222797898998082e-8,1.342830438970721e-7,1.9924582899352144e-7,1.8484408603438975e-7,1.877239343706939e-8,5.390058641340294e-9,4.018548000850905e-9,0
54750,8.962520732389776e-9,2.198454166425069e-8,1.3428289472620364e-7,1.9857914925954517e-7,1.8482202640244772e-7,1.877017252948434e-8,5.397643875335597e-9,4.019369876156006e-9,0
54751,8.958867324436533e-9,2.1741104338520555e-8,1.342827455553352e-7,1.979124695255689e-7,1.8479996677050566e-7,1.8767951621899287e-8,5.405229109330901e-9,4.0201917514611075e-9,0
54752,8.955213916483291e-9,2.149766701279042e-8,1.3428259638446675e-7,1.9724578979159262e-7,1.8477790713856363e-7,1.8765730714314234e-8,5.412814343326205e-9,4.021013626766209e-9,0
54753,8.951560508530049e-9,2.1254229687060286e-8,1.3428244721359827e-7,1.9657911005761635e-7,1.847558475066216e-7,1.876350980672918e-8,5.420399577321508e-9,4.021835502071311e-9,0
54754,8.947907100576807e-9,2.1010792361330152e-8,1.3428229804272983e-7,1.9591243032364008e-7,1.8473378787467953e-7,1.876128889914413e-8,5.427984811316812e-9,4.022657377376412e-9,0
54755,8.957009758662845e-9,2.1002971171107303e-8,1.3421685435268487e-7,1.9586954590396596e-7,1.843248719097809e-7,1.8511297272371645e-8,5.435570045312116e-9,4.017592542780751e-9,0
54756,8.966112416748886e-9,2.0995149980884454e-08,1.341514106626399e-7,1.9582666148429187e-7,1.8391595594488226e-7,1.826130564559916e-8,5.4431552793074196e-9,4.012527708185091e-9,0
54757,8.975215074834924e-9,2.09873287906616e-8,1.3408596697259495e-7,1.9578377706461775e-7,1.8350703997998362e-7,1.8011314018826676e-8,5.450740513302723e-9,4.00746287358943e-9,0
54758,8.984317732920963e-9,2.097950760043875e-8,1.3402052328255e-7,1.9574089264494366e-7,1.8309812401508498e-7,1.7761322392054192e-8,5.458325747298027e-9,4.002398038993769e-9,0
54759,8.993420391007001e-9,2.0971686410215902e-8,1.3395507959250503e-7,1.9569800822526954e-7,1.8268920805018637e-7,1.7511330765281704e-8,5.465910981293331e-9,3.997333204398108e-9,0
54760,9.002523049093042e-9,2.096386521999305e-8,1.3388963590246007e-7,1.9565512380559544e-7,1.8228029208528774e-7,1.726133913850922e-8,5.473496215288634e-9,3.992268369802447e-9,0
54761,9.01162570717908e-9,2.09560440297702e-8,1.3382419221241511e-7,1.9561223938592132e-7,1.818713761203891e-7,1.7011347511736736e-8,5.481081449283939e-9,3.987203535206787e-9,0
54762,9.020728365265119e-9,2.094822283954735e-8,1.3375874852237015e-7,1.9556935496624723e-7,1.8146246015549046e-7,1.676135588496425e-8,5.488666683279242e-9,3.982138700611126e-9,0
54763,9.014880774553775e-9,2.0894039783584072e-8,1.3366673539824617e-7,1.956580763942631e-7,1.8143696129481202e-7,1.660996529210334e-8,5.4897813154115854e-9,3.98241265904616e-9,0
54764,9.00837229459243e-9,2.0848936251769945e-8,1.3367074362585232e-7,1.957844166567456e-7,1.8140440703017501e-7,1.646552593429348e-8,5.490895947543929e-9,3.982637453728333e-9,0
54765,9.001863814631088e-9,2.080383271995582e-8,1.336747518534585e-7,1.9591075691922808e-7,1.8137185276553799e-7,1.6321086576483628e-8,5.492010579676272e-9,3.982862248410506e-9,0
54766,8.995355334669743e-9,2.075872918814169e-8,1.3367876008106464e-7,1.9603709718171057e-7,1.8133929850090098e-7,1.6176647218673774e-8,5.4931252118086155e-9,3.983087043092679e-9,0
54767,8.988846854708398e-9,2.0713625656327564e-8,1.3368276830867082e-7,1.9616343744419303e-7,1.8130674423626398e-7,1.6032207860863917e-8,5.494239843940959e-9,3.983311837774852e-9,0
54768,8.982338374747055e-9,2.0668522124513434e-8,1.33686776536277e-7,1.9628977770667552e-7,1.8127418997162695e-7,1.5887768503054064e-8,5.495354476073302e-9,3.983536632457025e-9,0
54769,8.97582989478571e-9,2.0623418592699307e-8,1.3369078476388315e-7,1.96416117969158e-7,1.8124163570698995e-7,1.5743329145244207e-8,5.496469108205646e-9,3.983761427139199e-9,0
54770,8.969321414824366e-9,2.057831506088518e-8,1.3369479299148933e-7,1.965424582316405e-7,1.8120908144235292e-7,1.5598889787434353e-8,5.497583740337988e-9,3.983986221821372e-9,0
54771,8.962812934863023e-9,2.0533211529071053e-8,1.3369880121909548e-7,1.9666879849412295e-7,1.8117652717771592e-7,1.54544504296245e-8,5.4986983724703315e-9,3.984211016503545e-9,0
54772,8.956304454901678e-9,2.0488107997256926e-8,1.3370280944670166e-7,1.9679513875660544e-7,1.811439729130789e-7,1.5310011071814643e-8,5.499813004602675e-9,3.984435811185718e-9,0
54773,8.949795974940334e-9,2.0443004465442796e-8,1.3370681767430783e-7,1.9692147901908792e-7,1.8111141864844188e-7,1.516557171400479e-8,5.500927636735018e-9,3.984660605867891e-9,0
54774,8.94328749497899e-9,2.039790093362867e-8,1.3371082590191398e-7,1.970478192815704e-7,1.8107886438380488e-7,1.5021132356194932e-8,5.5020422688673616e-9,3.984885400550064e-9,0
54775,8.936779015017646e-9,2.0352797401814542e-8,1.3371483412952016e-7,1.9717415954405287e-7,1.8104631011916785e-7,1.4876692998385078e-8,5.503156900999705e-9,3.985110195232238e-9,0
54776,8.930270535056301e-9,2.0307693870000415e-8,1.3371884235712634e-7,1.9730049980653536e-7,1.8101375585453085e-7,1.4732253640575223e-8,5.504271533132048e-9,3.985334989914411e-9,0
54777,8.924771906048198e-9,2.033302831093855e-8,1.3362229376510274e-7,1.9737908464007196e-7,1.8099460547235754e-7,1.4582238532360359e-8,5.510798761841959e-9,3.987505633312551e-9,0
54778,8.92578175700144e-9,2.0416105058353353e-8,1.3349387621408977e-7,1.974762565576569e-7,1.799717573670071e-7,1.3522893646400077e-8,5.517018051044302e-9,3.985587924267314e-9,0
54779,8.914123609735232e-9,2.0373813739536927e-8,1.3311186436415256e-7,1.9572230664478147e-7,1.7811890863283723e-7,1.3522048223461075e-8,5.507116676411871e-9,3.975711189428896e-9,0
54780,8.902465462469024e-9,2.0331522420720497e-8,1.3272985251421535e-7,1.9396835673190608e-7,1.7626605989866736e-7,1.3521202800522071e-8,5.497215301779441e-9,3.965834454590478e-9,0
54781,8.890807315202817e-9,2.0289231101904067e-8,1.3234784066427817e-7,1.9221440681903067e-7,1.7441321116449746e-7,1.3520357377583069e-8,5.487313927147011e-9,3.9559577197520595e-9,0
54782,8.87914916793661e-9,2.0246939783087637e-8,1.3196582881434096e-7,1.9046045690615525e-7,1.725603624303276e-7,1.3519511954644065e-8,5.477412552514581e-9,3.946080984913641e-9,0
54783,8.867491020670402e-9,2.0124825063251527e-8,1.3158296862903778e-7,1.8862134762064308e-7,1.706941410395444e-7,1.3516414315530172e-8,5.462098581304584e-9,3.934258401359256e-9,0
54784,8.855832873404194e-9,2.0002710343415417e-8,1.3120010844373463e-7,1.8678223833513092e-7,1.6882791964876125e-7,1.3513316676416278e-8,5.446784610094585e-9,3.92243581780487e-9,0
54785,8.844174726137987e-9,1.9880595623579307e-8,1.3081724825843145e-7,1.8494312904961875e-7,1.669616982579781e-7,1.3510219037302383e-8,5.431470638884588e-9,3.910613234250485e-9,0
54786,8.832516578871779e-9,1.9758480903743197e-8,1.304343880731283e-7,1.8310401976410658e-7,1.6509547686719494e-7,1.350712139818849e-8,5.4161566676745905e-9,3.898790650696099e-9,0
54787,8.820858431605572e-9,1.9636366183907088e-8,1.3005152788782514e-7,1.8126491047859444e-7,1.6322925547641179e-7,1.3504023759074595e-8,5.400842696464593e-9,3.8869680671417135e-9,0
54788,8.809200284339364e-9,1.9514251464070978e-8,1.2966866770252196e-7,1.7942580119308227e-7,1.613630340856286e-7,1.3500926119960701e-8,5.3855287252545956e-9,3.875145483587329e-9,0
54789,8.797542137073156e-9,1.9392136744234868e-8,1.292858075172188e-7,1.775866919075701e-7,1.5949681269484545e-7,1.3497828480846808e-8,5.370214754044598e-9,3.863322900032943e-9,0
54790,8.78588398980695e-9,1.9270022024398758e-8,1.2890294733191562e-7,1.7574758262205794e-7,1.576305913040623e-7,1.3494730841732913e-8,5.354900782834601e-9,3.851500316478558e-9,0
54791,8.774225842540743e-9,1.9147907304562648e-8,1.2852008714661247e-7,1.7390847333654577e-7,1.5576436991327914e-7,1.3491633202619019e-8,5.339586811624602e-9,3.839677732924172e-9,0
54792,8.762567695274535e-9,1.9025792584726538e-8,1.281372269613093e-7,1.720693640510336e-7,1.5389814852249598e-7,1.3488535563505126e-8,5.324272840414605e-9,3.8278551493697866e-9,0
54793,8.750909548008328e-9,1.8903677864890428e-8,1.2775436677600614e-7,1.7023025476552144e-7,1.520319271317128e-7,1.348543792439123e-8,5.3089588692046075e-9,3.816032565815401e-9,0
54794,8.73925140074212e-9,1.8781563145054318e-8,1.2737150659070298e-7,1.6839114548000927e-7,1.5016570574092964e-7,1.3482340285277337e-8,5.29364489799461e-9,3.8042099822610154e-9,0
54795,8.727593253475913e-9,1.8659448425218208e-8,1.269886464053998e-7,1.665520361944971e-7,1.4829948435014649e-7,1.3479242646163442e-8,5.278330926784613e-9,3.792387398706631e-9,0
54796,8.715935106209705e-9,1.8537333705382098e-8,1.2660578622009665e-7,1.6471292690898493e-7,1.4643326295936333e-7,1.3476145007049548e-8,5.263016955574615e-9,3.780564815152245e-9,0
54797,8.704276958943498e-9,1.8415218985545992e-8,1.2622292603479347e-7,1.6287381762347277e-7,1.4456704156858017e-7,1.3473047367935655e-8,5.247702984364618e-9,3.7687422315978596e-9,0
54798,8.69261881167729e-9,1.8293104265709882e-8,1.2584006584949031e-7,1.610347083379606e-7,1.42700820177797e-7,1.346994972882176e-8,5.2323890131546194e-9,3.756919648043474e-9,0
54799,8.680960664411083e-9,1.8170989545873772e-8,1.2545720566418713e-7,1.5919559905244846e-7,1.4083459878701383e-7,1.3466852089707866e-8,5.217075041944622e-9,3.7450970644890885e-9,0
54800,8.658067399894869e-9,1.8136496515013628e-8,1.2520540023251085e-7,1.5532290523953548e-7,1.4044649686199892e-7,1.3450241153544624e-8,5.217309293740481e-9,3.743003724514539e-9,0
54801,8.609140215533277e-9,1.8025388353102548e-8,1.2360172338448493e-7,1.541423965411421e-7,1.4044207053564492e-7,1.3392580378475e-8,5.2118966971629135e-9,3.739336821764778e-9,0
54802,8.606671139384896e-9,1.8025388353102548e-8,1.235474663264002e-7,1.5335001359671155e-7,1.384885465321169e-7,1.3386080933656388e-8,5.164953405094478e-9,3.727170091940368e-9,0
54803,8.604202063236514e-9,1.8025388353102548e-8,1.234932092683155e-7,1.5255763065228098e-7,1.365350225285889e-7,1.3379581488837779e-8,5.118010113026043e-9,3.715003362115957e-9,0
54804,8.601732987088133e-9,1.8025388353102548e-8,1.2343895221023078e-7,1.5176524770785043e-7,1.345814985250609e-7,1.3373082044019169e-8,5.071066820957607e-9,3.702836632291547e-9,0
54805,8.603890135689755e-9,1.8282790766114475e-8,1.2338449474076576e-7,1.509716349414916e-7,1.3266623279092244e-7,1.33674593307294e-8,5.023889277093313e-9,3.6914917777722377e-9,0
54806,8.600411208588133e-9,1.8300077178484347e-8,1.233491857504678e-7,1.5021406561828336e-7,1.307136646591616e-7,1.336095988591079e-8,4.976022166502174e-9,3.679374211700688e-9,0
54807,8.59693228148651e-9,1.831736359085422e-8,1.233138767601698e-7,1.4945649629507513e-7,1.2876109652740075e-7,1.3354460441092178e-8,4.928155055911034e-9,3.667256645629138e-9,0
54808,8.593453354384887e-9,1.833465000322409e-8,1.2327856776987184e-7,1.4869892697186689e-7,1.2680852839563992e-7,1.3347960996273569e-8,4.880287945319894e-9,3.6551390795575885e-9,0
54809,8.589974427283265e-9,1.8351936415593963e-8,1.2324325877957386e-7,1.4794135764865866e-7,1.248559602638791e-7,1.3341461551454959e-8,4.832420834728754e-9,3.643021513486039e-9,0
54810,8.586495500181643e-9,1.8369222827963835e-8,1.232079497892759e-7,1.4718378832545042e-7,1.2290339213211823e-7,1.3334962106636347e-8,4.784553724137614e-9,3.630903947414489e-9,0
54811,8.583016573080021e-9,1.8386509240333704e-8,1.2317264079897791e-7,1.4642621900224217e-7,1.209508240003574e-7,1.3328462661817737e-8,4.736686613546474e-9,3.6187863813429394e-9,0
54812,8.579537645978399e-9,1.8403795652703576e-8,1.2313733180867991e-07,1.4566864967903394e-7,1.1899825586859654e-7,1.3321963216999127e-8,4.688819502955334e-9,3.60666881527139e-9,0
54813,8.576058718876777e-9,1.8421082065073448e-8,1.2310202281838194e-7,1.449110803558257e-7,1.170456877368357e-7,1.3315463772180517e-8,4.640952392364194e-9,3.59455124919984e-9,0
54814,8.572579791775155e-9,1.843836847744332e-8,1.2306671382808396e-7,1.4415351103261747e-7,1.1509311960507485e-7,1.3308964327361906e-8,4.593085281773054e-9,3.5824336831282902e-9,0
54815,8.569100864673533e-9,1.8455654889813192e-8,1.23031404837786e-7,1.4339594170940922e-7,1.1314055147331402e-7,1.3302464882543296e-8,4.545218171181914e-9,3.5703161170567406e-9,0
54816,8.56562193757191e-9,1.8472941302183064e-8,1.2299609584748801e-7,1.42638372386201e-7,1.1118798334155318e-7,1.3295965437724686e-8,4.497351060590774e-9,3.5581985509851906e-9,0
54817,8.562143010470289e-9,1.8490227714552936e-8,1.2296078685719004e-7,1.4188080306299275e-7,1.0923541520979233e-7,1.3289465992906075e-8,4.449483949999634e-9,3.546080984913641e-9,0
54818,8.558664083368666e-9,1.8507514126922808e-8,1.2292547786689207e-7,1.4112323373978453e-7,1.0728284707803149e-7,1.3282966548087465e-8,4.401616839408494e-9,3.533963418842091e-9,0
54819,8.555185156267044e-9,1.8524800539292677e-8,1.228901688765941e-7,1.4036566441657628e-7,1.0533027894627065e-7,1.3276467103268855e-8,4.353749728817354e-9,3.5218458527705415e-9,0
54820,8.507267822858694e-9,1.8592472103580367e-8,1.2283335316041008e-7,1.4036614901298174e-7,1.0531289544748609e-7,1.3280908918438958e-8,4.3444207950138405e-9,3.5201247987367475e-9,0
54821,8.505609427374278e-9,1.8564530113830124e-8,1.228185351870952e-7,1.396552160103854e-7,1.0532782681515186e-7,1.3230608665421866e-8,4.335282674819966e-9,3.519450414690228e-9,0
