time,channel1,channel2,channel3,channel4,channel5,channel6,channel7,channel8,class
46221,1.2169308468472663e-8,2.5716443883960218e-8,8.265747466982245e-8,2.476595149469038e-7,4.768887765000751e-7,2.731425302986588e-7,2.254688339431463e-8,6.815486417367361e-9,0
46222,1.2167230964722156e-8,2.5297552429098724e-8,8.17144810060316e-8,2.473867239757294e-7,4.7668594869582564e-7,2.730640967612219e-7,2.2544951067609027e-8,6.816849426228644e-9,0
46223,1.2165153460971648e-8,2.487866097423723e-8,8.077148734224073e-8,2.47113933004555e-7,4.764831208915761e-7,2.7298566322378505e-7,2.2543018740903423e-8,6.818212435089927e-9,0
46224,1.216307595722114e-8,2.4459769519375736e-8,7.982849367844988e-8,2.468411420333806e-7,4.762802930873266e-7,2.7290722968634824e-7,2.2541086414197815e-8,6.81957544395121e-9,0
46225,1.2160998453470632e-8,2.4040878064514242e-8,7.888550001465901e-8,2.4656835106220617e-7,4.7607746528307706e-7,2.7282879614891137e-7,2.253915408749221e-8,6.820938452812493e-9,0
46226,1.2158920949720124e-8,2.3621986609652748e-8,7.794250635086816e-8,2.4629556009103176e-7,4.7587463747882754e-7,2.7275036261147456e-7,2.2537221760786606e-8,6.822301461673776e-9,0
46227,1.2156843445969615e-8,2.3203095154791254e-8,7.69995126870773e-8,2.4602276911985735e-7,4.75671809674578e-7,2.726719290740377e-7,2.2535289434081e-8,6.823664470535059e-9,0
46228,1.2154765942219108e-8,2.2784203699929764e-8,7.605651902328644e-8,2.4574997814868294e-7,4.754689818703285e-7,2.725934955366009e-7,2.2533357107375394e-8,6.8250274793963425e-9,0
46229,1.21526884384686e-8,2.236531224506827e-8,7.511352535949558e-8,2.454771871775085e-7,4.7526615406607896e-7,2.72515061999164e-7,2.253142478066979e-8,6.826390488257625e-9,0
46230,1.2150610934718093e-8,2.1946420790206776e-8,7.417053169570472e-8,2.452043962063341e-7,4.7506332626182944e-7,2.724366284617272e-7,2.2529492453964182e-8,6.8277534971189084e-9,0
46231,1.2148533430967584e-8,2.1527529335345282e-8,7.322753803191386e-8,2.449316052351597e-7,4.748604984575799e-7,2.7235819492429034e-7,2.2527560127258578e-8,6.829116505980191e-9,0
46232,1.2146455927217076e-8,2.1108637880483788e-8,7.228454436812301e-8,2.446588142639853e-7,4.7465767065333044e-7,2.722797613868535e-7,2.2525627800552973e-8,6.830479514841474e-9,0
46233,1.2144378423466569e-8,2.0689746425622294e-8,7.134155070433214e-8,2.443860232928109e-7,4.744548428490809e-7,2.7220132784941667e-7,2.252369547384737e-8,6.831842523702757e-9,0
46234,1.214230091971606e-8,2.02708549707608e-8,7.039855704054129e-8,2.4411323232163647e-7,4.742520150448314e-7,2.721228943119798e-7,2.252176314714176e-8,6.83320553256404e-9,0
46235,1.2137193811645216e-8,1.9853474616416724e-8,6.941374506237129e-8,2.437408256467097e-7,4.7404918724058187e-7,2.7203746259405607e-7,2.252053193578955e-8,6.828964574302138e-9,0
46236,1.1943689727643527e-8,1.9778805788036817e-8,6.87154057334722e-8,2.40782663204442e-7,4.7323308738651996e-7,2.720334564652427e-7,2.2510195063812594e-8,6.745149142361078e-9,0
46237,1.1965201962870124e-8,1.9849266246448948e-8,6.871662606476231e-8,2.4154949890702847e-7,4.7308742651615307e-7,2.719879415676009e-7,2.2590850659338588e-8,6.767081825393041e-9,0
46238,1.198671419809672e-8,1.9919726704861075e-8,6.871784639605241e-8,2.4231633460961496e-7,4.7294176564578617e-7,2.719424266699591e-7,2.267150625486458e-8,6.789014508425005e-9,0
46239,1.2008226433323317e-8,1.9990187163273206e-8,6.871906672734253e-8,2.4308317031220146e-7,4.727961047754192e-7,2.7189691177231735e-7,2.2752161850390575e-8,6.810947191456969e-9,0
46240,1.2029738668549913e-8,2.0060647621685337e-8,6.872028705863263e-8,2.4385000601478795e-7,4.7265044390505233e-7,2.718513968746755e-7,2.283281744591657e-8,6.832879874488932e-9,0
46241,1.205125090377651e-8,2.013110808009747e-8,6.872150738992273e-8,2.4461684171737444e-7,4.7250478303468543e-7,2.7180588197703375e-7,2.2913473041442563e-8,6.854812557520896e-9,0
46242,1.2072763139003107e-8,2.0201568538509596e-8,6.872272772121285e-8,2.4538367741996094e-7,4.723591221643185e-7,2.717603670793919e-7,2.299412863696856e-8,6.8767452405528596e-9,0
46243,1.2094275374229703e-8,2.0272028996921727e-8,6.872394805250295e-8,2.4615051312254743e-7,4.722134612939516e-7,2.7171485218175015e-7,2.3074784232494553e-8,6.898677923584824e-9,0
46244,1.21157876094563e-8,2.0342489455333858e-8,6.872516838379307e-8,2.469173488251339e-7,4.720678004235847e-7,2.716693372841084e-7,2.3155439828020547e-8,6.920610606616787e-9,0
46245,1.2137299844682898e-8,2.041294991374599e-8,6.872638871508317e-8,2.476841845277204e-7,4.7192213955321774e-7,2.7162382238646655e-7,2.323609542354654e-8,6.942543289648751e-9,0
46246,1.2158812079909495e-8,2.0483410372158117e-8,6.872760904637327e-8,2.484510202303069e-7,4.7177647868285085e-7,2.715783074888248e-7,2.3316751019072535e-8,6.964475972680715e-9,0
46247,1.2180324315136091e-8,2.0553870830570248e-8,6.872882937766339e-8,2.4921785593289345e-7,4.7163081781248395e-7,2.7153279259118295e-7,2.339740661459853e-8,6.986408655712678e-9,0
46248,1.2201836550362688e-8,2.062433128898238e-8,6.873004970895349e-8,2.4998469163547995e-7,4.71485156942117e-7,2.714872776935412e-7,2.3478062210124522e-8,7.008341338744642e-9,0
46249,1.2202059064065252e-8,2.064969956351696e-8,6.877675476257801e-8,2.50658988172005e-7,4.719900663323025e-7,2.7153208495471126e-7,2.3473043336070842e-8,7.001854434689666e-9,0
46250,1.2202281577767816e-8,2.0675067838051546e-8,6.882345981620254e-8,2.513332847085301e-7,4.72494975722488e-7,2.715768922158814e-7,2.3468024462017158e-8,6.995367530634689e-9,0
46251,1.2210335798877317e-8,2.069828999006556e-8,6.887484200787601e-8,2.5227264619591246e-7,4.7130356010013723e-7,2.716481973407366e-7,2.3468149833543603e-8,6.992254215566253e-9,0
46252,1.2217235851236535e-8,2.0676163161060524e-8,6.888105788768125e-8,2.5114341423662083e-7,4.6986087735704006e-7,2.7174521264045636e-7,2.3468149833543603e-8,6.979531340780546e-9,0
46253,1.2224135903595752e-8,2.065403633205549e-8,6.888727376748649e-8,2.500141822773292e-7,4.6841819461394284e-7,2.718422279401761e-7,2.3468149833543603e-8,6.966808465994839e-9,0
46254,1.2247070226939782e-8,2.0647378719999066e-8,6.947419737716936e-8,2.492216244819723e-7,4.669592000804389e-7,2.718422279401761e-7,2.3584450605509092e-8,6.972781049276179e-9,0
46255,1.2270004550283811e-8,2.0640721107942643e-8,7.006112098685225e-8,2.4842906668661534e-7,4.65500205546935e-7,2.718422279401761e-7,2.370075137747458e-8,6.978753632557519e-9,0
46256,1.2292938873627841e-8,2.063406349588622e-8,7.064804459653512e-8,2.4763650889125844e-7,4.6404121101343105e-7,2.718422279401761e-7,2.3817052149440068e-8,6.984726215838859e-9,0
46257,1.231587319697187e-8,2.0627405883829796e-8,7.1234968206218e-8,2.468439510959015e-7,4.625822164799271e-7,2.718422279401761e-7,2.3933352921405553e-8,6.9906987991201994e-9,0
46258,1.23388075203159e-8,2.0620748271773372e-8,7.182189181590087e-8,2.460513933005446e-7,4.611232219464232e-7,2.718422279401761e-7,2.404965369337104e-8,6.99667138240154e-9,0
46259,1.236174184365993e-8,2.061409065971695e-8,7.240881542558374e-8,2.452588355051876e-7,4.5966422741291925e-7,2.718422279401761e-7,2.416595446533653e-8,7.00264396568288e-9,0
46260,1.238467616700396e-8,2.0607433047660525e-8,7.299573903526662e-8,2.444662777098307e-7,4.582052328794153e-7,2.718422279401761e-7,2.4282255237302018e-8,7.0086165489642204e-9,0
46261,1.2407610490347988e-8,2.0600775435604102e-8,7.358266264494949e-8,2.4367371991447377e-7,4.567462383459114e-7,2.718422279401761e-7,2.4398556009267506e-8,7.014589132245561e-9,0
46262,1.2430544813692017e-8,2.0594117823547678e-8,7.416958625463236e-8,2.4288116211911686e-7,4.5528724381240746e-7,2.718422279401761e-7,2.451485678123299e-8,7.020561715526901e-9,0
46263,1.2453479137036047e-8,2.0587460211491255e-8,7.475650986431524e-8,2.420886043237599e-7,4.5382824927890353e-7,2.718422279401761e-7,2.463115755319848e-8,7.026534298808241e-9,0
46264,1.2476413460380077e-8,2.058080259943483e-8,7.534343347399811e-8,2.41296046528403e-7,4.523692547453996e-7,2.718422279401761e-7,2.4747458325163968e-8,7.032506882089581e-9,0
46265,1.2499347783724106e-8,2.0574144987378408e-8,7.5930357083681e-8,2.4050348873304605e-7,4.5091026021189566e-7,2.718422279401761e-7,2.4863759097129456e-8,7.038479465370921e-9,0
46266,1.2522282107068136e-8,2.0567487375321984e-8,7.651728069336387e-8,2.3971093093768914e-7,4.4945126567839173e-7,2.718422279401761e-7,2.4980059869094944e-8,7.044452048652262e-9,0
46267,1.2545216430412166e-8,2.056082976326556e-8,7.710420430304674e-8,2.389183731423322e-7,4.479922711448878e-7,2.718422279401761e-7,2.509636064106043e-8,7.050424631933602e-9,0
46268,1.2568150753756195e-8,2.0554172151209137e-8,7.769112791272962e-8,2.3812581534697526e-7,4.4653327661138387e-7,2.718422279401761e-7,2.5212661413025918e-8,7.056397215214942e-9,0
46269,1.2591085077100223e-8,2.0547514539152714e-8,7.827805152241249e-8,2.3733325755161835e-7,4.4507428207787994e-7,2.718422279401761e-7,2.5328962184991406e-8,7.062369798496283e-9,0
46270,1.2600985968210176e-8,2.0499868325561354e-8,7.833527547716112e-8,2.371904931821093e-7,4.4295044041962704e-7,2.7193924323989587e-7,2.533379300175542e-8,7.049646923710576e-9,0
46271,1.2610886859320128e-8,2.0452222111969995e-8,7.839249943190975e-8,2.3704772881260025e-7,4.408265987613741e-7,2.7203625853961565e-7,2.533862381851943e-8,7.036924048924869e-9,0
46272,1.2651083793633438e-8,2.048384009136776e-8,7.852490245362646e-8,2.3496360143941911e-7,4.3887900662809146e-7,2.720514626912674e-7,2.5364918057258437e-8,7.023950240814916e-9,0
46273,1.2687142360540717e-8,2.0553847219624666e-8,7.871351068265504e-8,2.3485532735110865e-7,4.3841593796971033e-7,2.7204645905621966e-7,2.5346606601383316e-8,7.01584939457441e-9,0
46274,1.2639855431162353e-8,2.0421368452610728e-8,7.762235548125022e-8,2.3281712155464745e-7,4.3785784706082385e-7,2.7138261959127655e-7,2.4848551866541154e-8,6.881167371740809e-9,0
46275,1.2592568501783989e-8,2.0288889685596794e-8,7.65312002798454e-8,2.3077891575818627e-7,4.372997561519374e-7,2.7071878012633343e-7,2.4350497131698995e-8,6.746485348907208e-9,0
46276,1.2545281572405625e-8,2.015641091858286e-8,7.544004507844057e-8,2.2874070996172507e-7,4.367416652430509e-7,2.7005494066139036e-7,2.3852442396856832e-8,6.611803326073607e-9,0
46277,1.2497994643027259e-8,2.0023932151568925e-8,7.434888987703575e-8,2.2670250416526387e-7,4.361835743341644e-7,2.6939110119644725e-7,2.335438766201467e-8,6.4771213032400066e-9,0
46278,1.2450707713648895e-8,1.989145338455499e-8,7.325773467563091e-8,2.2466429836880267e-7,4.3562548342527795e-7,2.6872726173150413e-7,2.2856332927172507e-8,6.342439280406407e-9,0
46279,1.240342078427053e-8,1.9758974617541057e-8,7.21665794742261e-8,2.2262609257234147e-7,4.350673925163914e-7,2.68063422266561e-7,2.2358278192330345e-8,6.207757257572806e-9,0
46280,1.2356133854892167e-8,1.962649585052712e-8,7.107542427282127e-8,2.205878867758803e-7,4.3450930160750494e-7,2.673995828016179e-7,2.1860223457488183e-8,6.073075234739205e-9,0
46281,1.2308846925513802e-8,1.9494017083513185e-8,6.998426907141644e-8,2.185496809794191e-7,4.3395121069861847e-7,2.6673574333667477e-7,2.136216872264602e-8,5.938393211905604e-9,0
46282,1.2261559996135438e-8,1.936153831649925e-8,6.889311387001162e-8,2.165114751829579e-7,4.33393119789732e-7,2.660719038717317e-7,2.0864113987803858e-8,5.8037111890720036e-9,0
46283,1.2214273066757072e-8,1.9229059549485316e-8,6.780195866860679e-8,2.144732693864967e-7,4.328350288808455e-7,2.654080644067886e-7,2.0366059252961695e-8,5.669029166238403e-9,0
46284,1.2166986137378708e-8,1.9096580782471382e-8,6.671080346720197e-8,2.124350635900355e-7,4.32276937971959e-7,2.6474422494184547e-7,1.9868004518119533e-8,5.534347143404803e-9,0
46285,1.2119699208000344e-8,1.8964102015457444e-8,6.561964826579715e-8,2.103968577935743e-7,4.317188470630725e-7,2.6408038547690235e-7,1.936994978327737e-8,5.399665120571202e-9,0
46286,1.207241227862198e-8,1.883162324844351e-8,6.452849306439231e-8,2.0835865199711313e-7,4.3116075615418604e-7,2.6341654601195923e-7,1.887189504843521e-8,5.264983097737601e-9,0
46287,1.2025125349243616e-8,1.8699144481429576e-8,6.34373378629875e-8,2.0632044620065193e-7,4.3060266524529956e-7,2.6275270654701617e-7,1.837384031359305e-8,5.130301074904001e-9,0
46288,1.1977838419865252e-8,1.856666571441564e-8,6.234618266158267e-8,2.0428224040419073e-7,4.300445743364131e-7,2.6208886708207305e-7,1.7875785578750887e-8,4.9956190520704e-9,0
46289,1.1930551490486886e-8,1.8434186947401707e-8,6.125502746017784e-8,2.0224403460772953e-7,4.294864834275266e-7,2.6142502761712993e-7,1.7377730843908724e-8,4.860937029236799e-9,0
46290,1.1883264561108522e-8,1.830170818038777e-8,6.016387225877302e-8,2.0020582881126833e-7,4.289283925186401e-7,2.607611881521868e-7,1.6879676109066562e-8,4.726255006403199e-9,0
46291,1.1835977631730157e-8,1.8169229413373835e-8,5.907271705736819e-8,1.9816762301480713e-7,4.283703016097536e-7,2.600973486872437e-7,1.63816213742244e-8,4.591572983569598e-9,0
46292,1.1788690702351793e-8,1.80367506463599e-8,5.7981561855963366e-8,1.9612941721834596e-7,4.2781221070086713e-7,2.5943350922230063e-7,1.5883566639382237e-8,4.456890960735998e-9,0
46293,1.191109560429545e-8,1.827789732879718e-8,5.8339064445815983e-8,1.973990360892515e-7,4.281838355161958e-7,2.594857172608503e-7,1.5919431215993008e-8,4.4886997044659075e-9,0
46294,1.1810022024113284e-8,1.8171526645946148e-8,5.838647525049604e-8,1.9729004550820256e-7,4.2672437753355997e-7,2.5813115117208384e-7,1.5800947374269025e-8,4.4471855129038195e-9,0
46295,1.1708948443931118e-8,1.8065155963095115e-8,5.843388605517609e-8,1.9718105492715362e-7,4.2526491955092414e-7,2.567765850833174e-7,1.5682463532545042e-8,4.4056713213417314e-09,0
46296,1.1607874863748952e-8,1.7958785280244083e-8,5.848129685985615e-8,1.9707206434610468e-7,4.238054615682883e-7,2.55422018994551e-7,1.556397969082106e-8,4.3641571297796434e-9,0
46297,1.1506801283566786e-8,1.7852414597393047e-8,5.8528707664536195e-8,1.9696307376505574e-7,4.223460035856525e-7,2.5406745290578455e-7,1.5445495849097077e-8,4.322642938217555e-9,0
46298,1.140572770338462e-8,1.7746043914542015e-8,5.857611846921625e-8,1.968540831840068e-7,4.2088654560301664e-7,2.527128868170181e-7,1.5327012007373094e-8,4.281128746655467e-9,0
46299,1.1304654123202454e-8,1.7639673231690983e-8,5.8623529273896304e-8,1.9674509260295788e-7,4.194270876203808e-7,2.513583207282517e-7,1.520852816564911e-8,4.239614555093379e-9,0
46300,1.1203580543020288e-8,1.753330254883995e-8,5.867094007857635e-8,1.9663610202190894e-7,4.1796762963774493e-7,2.5000375463948526e-7,1.5090044323925128e-8,4.198100363531291e-9,0
46301,1.1102506962838124e-8,1.7426931865988918e-8,5.8718350883256406e-8,1.9652711144086e-7,4.165081716551091e-7,2.486491885507188e-7,1.4971560482201145e-8,4.156586171969203e-9,0
46302,1.1001433382655958e-8,1.7320561183137886e-8,5.876576168793646e-8,1.9641812085981107e-7,4.1504871367247327e-07,2.472946224619524e-7,1.4853076640477162e-8,4.115071980407115e-9,0
46303,1.0900359802473792e-8,1.721419050028685e-8,5.8813172492616515e-8,1.9630913027876213e-7,4.1358925568983743e-7,2.4594005637318597e-7,1.473459279875318e-8,4.073557788845027e-9,0
46304,1.0799286222291626e-8,1.7107819817435818e-8,5.886058329729656e-8,1.9620013969771319e-7,4.121297977072016e-7,2.445854902844195e-7,1.4616108957029196e-8,4.032043597282939e-9,0
46305,1.0690269677851242e-8,1.7006043599729407e-8,5.8753990801287505e-8,1.9741313613081713e-7,4.1337688973817016e-7,2.4357115340690743e-7,1.4553924264774952e-8,3.9980200430728134e-9,0
46306,1.0581253133410859e-8,1.6904267382023e-8,5.8647398305278447e-8,1.986261325639211e-7,4.146239817691387e-7,2.425568165293953e-7,1.4491739572520709e-8,3.963996488862688e-9,0
46307,1.0472236588970475e-8,1.6802491164316588e-8,5.854080580926939e-8,1.9983912899702507e-7,4.1587107380010733e-7,2.4154247965188314e-7,1.4429554880266466e-8,3.929972934652562e-9,0
46308,1.0482026223229145e-8,1.6808778421826554e-8,5.868225011070281e-8,2.0080133449804674e-7,4.1683821635849945e-7,2.415995776642913e-7,1.4498305819731288e-8,3.942695809438269e-9,0
46309,1.0493081283089379e-8,1.6814241994634842e-8,5.869490729862708e-8,2.0192032062155671e-7,4.189111556288987e-7,2.420048541311667e-7,1.452351125657962e-8,3.944452342707994e-9,0
46310,1.0504136342949611e-8,1.6819705567443127e-8,5.8707564486551354e-8,2.030393067450667e-7,4.2098409489929803e-7,2.4241013059804206e-7,1.4548716693427952e-8,3.9462088759777194e-9,0
46311,1.0515191402809845e-8,1.6825169140251412e-8,5.872022167447563e-8,2.041582928685767e-7,4.230570341696973e-7,2.4281540706491747e-7,1.4573922130276281e-8,3.947965409247445e-9,0
46312,1.0624521272281966e-8,1.682419434549799e-8,5.87328788623999e-8,2.044917968003613e-7,4.2276360453368815e-7,2.428396205134007e-7,1.4520244850907596e-8,3.9384922135517976e-9,0
46313,1.0733851141754085e-8,1.6823219550744566e-8,5.874553605032417e-8,2.0482530073214588e-7,4.22470174897679e-7,2.4286383396188397e-7,1.446656757153891e-8,3.9290190178561504e-9,0
46314,1.0843181011226204e-8,1.6822244755991145e-8,5.8758193238248446e-8,2.051588046639305e-7,4.221767452616698e-7,2.428880474103672e-7,1.4412890292170222e-8,3.919545822160504e-9,0
46315,1.0952510880698325e-8,1.682126996123772e-8,5.877085042617272e-8,2.054923085957151e-7,4.2188331562566065e-7,2.429122608588505e-7,1.4359213012801536e-8,3.910072626464857e-9,0
46316,1.1061840750170444e-8,1.68202951664843e-8,5.878350761409699e-8,2.058258125274997e-7,4.215898859896515e-7,2.4293647430733373e-7,1.4305535733432849e-8,3.900599430769211e-9,0
46317,1.1171170619642564e-8,1.6819320371730874e-8,5.8796164802021264e-8,2.0615931645928431e-7,4.212964563536423e-7,2.42960687755817e-7,1.4251858454064163e-8,3.8911262350735635e-9,0
46318,1.1280500489114683e-8,1.6818345576977452e-8,5.880882198994554e-8,2.0649282039106892e-7,4.2100302671763314e-7,2.4298490120430023e-7,1.4198181174695477e-8,3.881653039377917e-9,0
46319,1.1389830358586804e-8,1.6817370782224028e-8,5.882147917786981e-8,2.0682632432285353e-7,4.20709597081624e-7,2.430091146527835e-7,1.414450389532679e-8,3.87217984368227e-9,0
46320,1.1499160228058923e-8,1.6816395987470606e-8,5.883413636579408e-8,2.0715982825463814e-7,4.2041616744561484e-7,2.4303332810126673e-7,1.4090826615958104e-8,3.862706647986623e-9,0
46321,1.1608490097531042e-8,1.681542119271718e-8,5.8846793553718356e-8,2.0749333218642274e-7,4.2012273780960564e-7,2.4305754154975e-7,1.4037149336589416e-8,3.853233452290977e-9,0
46322,1.1717819967003163e-8,1.681444639796376e-8,5.885945074164263e-8,2.0782683611820735e-7,4.198293081735965e-7,2.4308175499823324e-7,1.398347205722073e-8,3.8437602565953294e-9,0
46323,1.1827149836475282e-8,1.6813471603210335e-8,5.88721079295669e-8,2.0816034004999196e-7,4.1953587853758734e-7,2.431059684467165e-7,1.3929794777852043e-8,3.834287060899683e-9,0
46324,1.1936479705947403e-8,1.6812496808456914e-8,5.8884765117491175e-8,2.0849384398177654e-7,4.1924244890157814e-7,2.4313018189519974e-7,1.3876117498483357e-8,3.824813865204036e-9,0
46325,1.2045809575419522e-8,1.681152201370349e-8,5.889742230541545e-8,2.0882734791356115e-7,4.18949019265569e-7,2.43154395343683e-7,1.3822440219114671e-8,3.81534066950839e-9,0
46326,1.2155139444891643e-8,1.6810547218950068e-8,5.891007949333972e-8,2.0916085184534576e-7,4.1865558962955984e-7,2.4317860879216625e-7,1.3768762939745983e-8,3.8058674738127425e-9,0
46327,1.2170213295259134e-8,1.685056102573158e-8,5.890084985362891e-8,2.1149543236705943e-7,4.1936893982035876e-7,2.432356598940363e-7,1.3742890463414443e-8,3.8058674738127425e-9,0
46328,1.2122184653538887e-8,1.6820938058802644e-8,5.900931272571968e-8,2.1361199450267898e-7,4.205031858104332e-7,2.431577255767464e-7,1.3629627857980327e-8,3.7700873863328915e-9,0
46329,1.2121591283665381e-8,1.676671720876363e-8,5.8975097741227664e-8,2.1316360707837023e-7,4.2041897984653315e-7,2.432371239456365e-7,1.3492675845973168e-8,3.736063832122767e-9,0
46330,1.2184100405879614e-8,1.672065023013266e-8,5.863387105833373e-8,2.1112494162090687e-7,4.2032536323432157e-7,2.4344071230774094e-7,1.3498754912024485e-8,3.745673391840037e-9,0
46331,1.2246609528093846e-8,1.667458325150169e-8,5.82926443754398e-8,2.090862761634435e-7,4.2023174662211e-7,2.436443006698453e-7,1.3504833978075802e-8,3.755282951557308e-9,0
46332,1.230911865030808e-8,1.6628516272870722e-8,5.7951417692545875e-8,2.0704761070598013e-7,4.201381300098984e-7,2.438478890319497e-7,1.3510913044127119e-8,3.764892511274578e-9,0
46333,1.2371627772522313e-8,1.658244929423975e-8,5.761019100965194e-8,2.0500894524851676e-7,4.2004451339768685e-7,2.4405147739405405e-7,1.3516992110178438e-8,3.774502070991849e-9,0
46334,1.2434136894736545e-8,1.653638231560878e-8,5.726896432675801e-8,2.029702797910534e-7,4.1995089678547527e-7,2.4425506575615847e-7,1.3523071176229755e-8,3.784111630709119e-9,0
46335,1.2496646016950778e-8,1.6490315336977813e-8,5.692773764386408e-8,2.0093161433359002e-7,4.198572801732637e-7,2.4445865411826284e-7,1.3529150242281072e-8,3.79372119042639e-9,0
46336,1.255915513916501e-8,1.6444248358346842e-8,5.6586510960970147e-8,1.9889294887612665e-7,4.197636635610521e-7,2.446622424803672e-7,1.3535229308332391e-8,3.80333075014366e-9,0
46337,1.2621664261379243e-8,1.639818137971587e-8,5.624528427807622e-8,1.9685428341866328e-7,4.1967004694884054e-7,2.448658308424716e-7,1.3541308374383708e-8,3.812940309860931e-9,0
46338,1.2684173383593477e-8,1.63521144010849e-8,5.590405759518229e-8,1.9481561796119992e-7,4.1957643033662897e-7,2.4506941920457595e-7,1.3547387440435025e-8,3.8225498695782014e-09,0
46339,1.2746682505807709e-8,1.6306047422453933e-8,5.556283091228836e-8,1.9277695250373655e-7,4.1948281372441734e-7,2.4527300756668037e-7,1.3553466506486342e-8,3.832159429295472e-9,0
46340,1.2809191628021942e-8,1.6259980443822962e-8,5.5221604229394425e-8,1.9073828704627318e-7,4.1938919711220576e-7,2.4547659592878474e-7,1.3559545572537661e-8,3.841768989012743e-9,0
46341,1.2871700750236174e-8,1.621391346519199e-8,5.48803775465005e-8,1.886996215888098e-7,4.192955804999942e-7,2.456801842908891e-7,1.3565624638588978e-8,3.851378548730014e-9,0
46342,1.2934209872450407e-8,1.616784648656102e-8,5.453915086360657e-8,1.8666095613134644e-7,4.192019638877826e-7,2.458837726529935e-7,1.3571703704640295e-8,3.860988108447284e-9,0
46343,1.2996718994664639e-8,1.6121779507930053e-8,5.4197924180712635e-8,1.8462229067388307e-7,4.1910834727557104e-7,2.460873610150979e-7,1.3577782770691614e-8,3.870597668164555e-9,0
46344,1.3059228116878873e-8,1.6075712529299082e-8,5.38566974978187e-8,1.825836252164197e-7,4.1901473066335946e-7,2.4629094937720227e-7,1.3583861836742931e-8,3.8802072278818254e-9,0
46345,1.3121737239093106e-8,1.602964555066811e-8,5.351547081492478e-8,1.8054495975895633e-7,4.189211140511479e-7,2.4649453773930663e-7,1.3589940902794248e-8,3.889816787599096e-9,0
46346,1.3184246361307338e-8,1.598357857203714e-8,5.3174244132030846e-8,1.7850629430149297e-7,4.188274974389363e-7,2.46698126101411e-7,1.3596019968845565e-8,3.8994263473163665e-9,0
46347,1.324675548352157e-8,1.5937511593406173e-8,5.2833017449136914e-8,1.764676288440296e-7,4.1873388082672473e-7,2.4690171446351537e-7,1.3602099034896884e-8,3.909035907033637e-9,0
46348,1.3309264605735803e-8,1.5891444614775202e-8,5.249179076624298e-8,1.7442896338656623e-7,4.1864026421451316e-7,2.471053028256198e-7,1.3608178100948201e-8,3.9186454667509075e-9,0
46349,1.3308460847634352e-8,1.5831284150291685e-8,5.219786868201747e-8,1.7243573005870465e-7,4.201838958927567e-7,2.4711872084815725e-7,1.3638291345270288e-8,3.919649200047893e-9,0
46350,1.33076570895329e-8,1.577112368580817e-8,5.190394659779195e-8,1.7044249673084307e-7,4.217275275710002e-7,2.471321388706947e-7,1.3668404589592374e-8,3.920652933344879e-9,0
46351,1.3258750518477013e-8,1.5765070513958713e-8,5.195255909581788e-8,1.6982889547698942e-7,4.2221882817431606e-7,2.471067986179417e-7,1.3656810629358741e-8,3.8963503946233606e-9,0
46352,1.3243169594944822e-8,1.57663929517776e-8,5.193942699923683e-8,1.6971360255510116e-7,4.201147008685948e-7,2.449525053610029e-7,1.3684960204093611e-8,3.900467442988783e-9,0
46353,1.3227588671412632e-8,1.5767715389596488e-8,5.192629490265579e-8,1.6959830963321292e-7,4.180105735628735e-7,2.427982121040641e-7,1.3713109778828481e-8,3.904584491354205e-9,0
46354,1.3212007747880442e-8,1.576903782741538e-8,5.191316280607474e-8,1.6948301671132468e-7,4.1590644625715226e-7,2.4064391884712526e-7,1.3741259353563351e-8,3.908701539719627e-9,0
46355,1.3196426824348251e-8,1.5770360265234266e-8,5.190003070949369e-8,1.6936772378943644e-7,4.13802318951431e-7,2.384896255901865e-7,1.3769408928298221e-8,3.912818588085049e-9,0
46356,1.3180845900816061e-8,1.5771682703053154e-8,5.188689861291264e-8,1.6925243086754818e-7,4.116981916457097e-7,2.3633533233324766e-7,1.3797558503033091e-8,3.916935636450471e-9,0
46357,1.316526497728387e-8,1.577300514087204e-8,5.187376651633159e-8,1.6913713794565994e-7,4.095940643399884e-7,2.3418103907630886e-7,1.3825708077767961e-8,3.921052684815893e-9,0
46358,1.3149684053751679e-8,1.5774327578690932e-8,5.1860634419750545e-8,1.690218450237717e-7,4.074899370342672e-7,2.3202674581937006e-7,1.385385765250283e-8,3.925169733181315e-9,0
46359,1.3134103130219489e-8,1.577565001650982e-8,5.1847502323169495e-8,1.6890655210188343e-7,4.053858097285459e-7,2.2987245256243123e-7,1.38820072272377e-8,3.929286781546737e-9,0
46360,1.3118522206687298e-8,1.5776972454328707e-8,5.1834370226588445e-8,1.687912591799952e-7,4.032816824228246e-7,2.2771815930549243e-7,1.391015680197257e-8,3.933403829912159e-9,0
46361,1.3102941283155108e-8,1.5778294892147595e-8,5.1821238130007396e-8,1.6867596625810696e-7,4.0117755511710333e-7,2.2556386604855363e-7,1.393830637670744e-8,3.937520878277581e-9,0
46362,1.3089318286474652e-8,1.5783002914697172e-8,5.177912264636442e-8,1.6873068394125223e-7,3.976181975372028e-7,2.234678951656063e-7,1.4117481384322619e-8,3.948487219793563e-9,0
46363,1.3075695289794194e-8,1.578771093724675e-8,5.173700716272144e-8,1.6878540162439747e-7,3.9405883995730223e-7,2.2137192428265902e-7,1.4296656391937797e-8,3.959453561309545e-9,0
46364,1.3062072293113738e-8,1.5792418959796327e-8,5.1694891679078466e-8,1.6884011930754274e-7,3.9049948237740165e-7,2.192759533997117e-7,1.4475831399552976e-8,3.9704199028255265e-9,0
46365,1.3048449296433281e-8,1.5797126982345904e-8,5.165277619543549e-8,1.68894836990688e-7,3.869401247975011e-7,2.1717998251676438e-7,1.4655006407168154e-8,3.981386244341508e-9,0
46366,1.3049603465183563e-8,1.5767980057053184e-8,5.116579156918811e-8,1.6896198721182656e-7,3.862777760480942e-7,2.167486250188535e-7,1.4800656622339112e-8,3.9583228045847926e-9,0
46367,1.3049603465183563e-8,1.5744493237582475e-8,5.114360236577298e-8,1.6891571204173693e-7,3.862953249396165e-7,2.1631726752094258e-7,1.494630683751007e-8,3.96779600028044e-9,0
46368,1.3049603465183563e-8,1.5721006418111766e-8,5.1121413162357854e-8,1.6886943687164732e-7,3.863128738311388e-7,2.1588591002303167e-7,1.509195705268103e-8,3.977269195976087e-9,0
46369,1.3049603465183563e-8,1.5697519598641056e-8,5.1099223958942723e-08,1.688231617015577e-7,3.8633042272266113e-7,2.1545455252512076e-7,1.5237607267851986e-8,3.986742391671733e-9,0
46370,1.3111551788521019e-8,1.5679866706525086e-8,5.1294045464518454e-8,1.689919319449165e-7,3.8767928995943846e-7,2.1506343252391685e-7,1.5250982306360312e-8,3.98936629421682e-9,0
46371,1.3139333620616234e-8,1.5659954134483594e-8,5.125764710756351e-8,1.6897600813510275e-7,3.8759902679858496e-7,2.14598625892372e-7,1.5264357344868642e-8,4.0088270063817505e-9,0
46372,1.316711545271145e-8,1.5640041562442102e-8,5.122124875060856e-8,1.6896008432528901e-7,3.8751876363773145e-7,2.141338192608271e-7,1.527773238337697e-8,4.02828771854668e-9,0
46373,1.3194897284806663e-8,1.562012899040061e-8,5.1184850393653616e-8,1.6894416051547525e-7,3.8743850047687795e-7,2.1366901262928221e-7,1.52911074218853e-8,4.04774843071161e-9,0
46374,1.3222679116901878e-8,1.560021641835912e-8,5.114845203669867e-8,1.689282367056615e-7,3.8735823731602445e-7,2.1320420599773732e-7,1.5304482460393625e-8,4.06720914287654e-9,0
46375,1.3250460948997093e-8,1.5580303846317626e-8,5.1112053679743723e-8,1.6891231289584776e-7,3.8727797415517095e-7,2.1273939936619246e-7,1.5317857498901952e-8,4.08666985504147e-9,0
46376,1.3278242781092307e-8,1.5560391274276135e-8,5.107565532278878e-8,1.6889638908603402e-7,3.8719771099431745e-7,2.1227459273464757e-7,1.5331232537410282e-8,4.1061305672064e-9,0
46377,1.3306024613187522e-8,1.5540478702234643e-8,5.103925696583383e-8,1.6888046527622026e-7,3.8711744783346395e-7,2.1180978610310268e-7,1.534460757591861e-8,4.12559127937133e-9,0
46378,1.3333806445282735e-8,1.552056613019315e-8,5.1002858608878885e-8,1.6886454146640652e-7,3.8703718467261045e-7,2.1134497947155782e-7,1.535798261442694e-8,4.14505199153626e-9,0
46379,1.336158827737795e-8,1.5500653558151655e-8,5.096646025192394e-8,1.6884861765659278e-7,3.8695692151175694e-7,2.1088017284001293e-7,1.5371357652935265e-8,4.1645127037011904e-9,0
46380,1.3389370109473166e-8,1.5480740986110163e-8,5.093006189496899e-8,1.6883269384677903e-7,3.8687665835090344e-7,2.1041536620846804e-7,1.5384732691443592e-8,4.18397341586612e-9,0
46381,1.341715194156838e-8,1.546082841406867e-8,5.089366353801405e-8,1.6881677003696527e-7,3.8679639519004994e-7,2.0995055957692318e-7,1.5398107729951922e-8,4.20343412803105e-9,0
46382,1.3444933773663594e-8,1.544091584202718e-8,5.08572651810591e-8,1.6880084622715153e-7,3.8671613202919644e-7,2.094857529453783e-7,1.5411482768460248e-8,4.22289484019598e-9,0
46383,1.347271560575881e-8,1.5421003269985688e-8,5.0820866824104155e-8,1.6878492241733779e-7,3.8663586886834294e-7,2.090209463138334e-7,1.5424857806968575e-8,4.24235555236091e-9,0
46384,1.3500497437854023e-8,1.5401090697944196e-8,5.0784468467149216e-8,1.6876899860752405e-07,3.8655560570748944e-7,2.0855613968228854e-7,1.5438232845476905e-8,4.26181626452584e-9,0
46385,1.3507174976510677e-8,1.5402752908513354e-8,5.1138092444592024e-8,1.6852509996127013e-7,3.8631693986083466e-7,2.080497759702881e-7,1.5406563389028548e-8,4.262569064498579e-9,0
46386,1.3515810442019064e-8,1.5392596154321288e-8,5.149171642203484e-8,1.6827884246911928e-7,3.8619224045065855e-7,2.0720792995412922e-7,1.538552172946102e-8,4.26394141395372e-9,0
46387,1.3531391365551254e-8,1.545269545521243e-8,5.1769773991920206e-8,1.6816483643890106e-7,3.8604631581229953e-7,2.0689540639723798e-7,1.5416302013266317e-8,4.270917730532046e-9,0
46388,1.3527170506863542e-8,1.5551939455221426e-8,5.208989394244274e-8,1.682549386094302e-7,3.859088607574209e-7,2.0698561769703872e-7,1.547194296222222e-8,4.2778940471103716e-9,0
46389,1.352294964817583e-8,1.565118345523042e-8,5.2410013892965266e-8,1.6834504077995935e-7,3.8577140570254237e-7,2.0707582899683944e-7,1.552758391117812e-8,4.284870363688698e-9,0
46390,1.3518728789488117e-8,1.5750427455239415e-8,5.273013384348779e-8,1.6843514295048852e-7,3.8563395064766376e-7,2.0716604029664015e-7,1.5583224860134026e-8,4.291846680267024e-9,0
46391,1.3514507930800405e-8,1.584967145524841e-8,5.305025379401032e-8,1.6852524512101766e-7,3.854964955927852e-7,2.0725625159644087e-7,1.563886580908993e-8,4.29882299684535e-9,0
46392,1.3510287072112693e-8,1.5948915455257404e-8,5.337037374453285e-8,1.686153472915468e-7,3.853590405379066e-7,2.0734646289624158e-7,1.5694506758045834e-8,4.305799313423676e-9,0
46393,1.350606621342498e-8,1.60481594552664e-8,5.369049369505538e-8,1.6870544946207594e-7,3.8522158548302804e-7,2.074366741960423e-7,1.5750147707001734e-8,4.312775630002002e-9,0
46394,1.3501845354737269e-8,1.6147403455275393e-8,5.4010613645577905e-8,1.6879555163260508e-7,3.8508413042814943e-7,2.07526885495843e-7,1.5805788655957638e-8,4.319751946580328e-9,0
46395,1.3497624496049556e-8,1.6246647455284388e-8,5.433073359610043e-8,1.6888565380313423e-7,3.849466753732709e-7,2.0761709679564373e-7,1.5861429604913542e-8,4.326728263158653e-9,0
46396,1.3493403637361843e-8,1.6345891455293382e-8,5.4650853546622965e-8,1.689757559736634e-7,3.8480922031839227e-7,2.0770730809544444e-7,1.5917070553869446e-8,4.3337045797369795e-9,0
46397,1.348918277867413e-8,1.6445135455302377e-8,5.497097349714549e-8,1.6906585814419254e-7,3.846717652635137e-7,2.0779751939524516e-7,1.597271150282535e-8,4.3406808963153056e-9,0
46398,1.3484961919986418e-8,1.654437945531137e-8,5.529109344766802e-8,1.6915596031472168e-7,3.845343102086351e-7,2.0788773069504587e-7,1.602835245178125e-8,4.347657212893632e-9,0
46399,1.3480741061298706e-8,1.6643623455320366e-8,5.561121339819055e-8,1.6924606248525082e-7,3.8439685515375655e-7,2.0797794199484658e-7,1.6083993400737155e-8,4.354633529471958e-9,0
46400,1.3476520202610994e-8,1.674286745532936e-8,5.593133334871308e-8,1.6933616465577996e-7,3.8425940009887794e-7,2.0806815329464733e-7,1.613963434969306e-8,4.361609846050284e-9,0
46401,1.3472299343923282e-8,1.6842111455338355e-8,5.6251453299235605e-8,1.694262668263091e-7,3.841219450439994e-7,2.0815836459444804e-7,1.6195275298648963e-8,4.36858616262861e-9,0
46402,1.346807848523557e-8,1.694135545534735e-8,5.657157324975813e-8,1.6951636899683827e-7,3.8398448998912077e-7,2.0824857589424876e-7,1.6250916247604864e-8,4.375562479206935e-9,0
46403,1.3463857626547857e-8,1.7040599455356344e-8,5.6891693200280665e-8,1.6960647116736742e-7,3.838470349342422e-7,2.0833878719404947e-7,1.6306557196560768e-8,4.382538795785261e-9,0
46404,1.3459636767860145e-8,1.713984345536534e-8,5.721181315080319e-8,1.6969657333789656e-7,3.837095798793636e-7,2.0842899849385018e-7,1.6362198145516672e-8,4.3895151123635874e-9,0
46405,1.3455415909172433e-8,1.7239087455374337e-8,5.753193310132572e-8,1.697866755084257e-7,3.8357212482448505e-7,2.085192097936509e-7,1.6417839094472576e-8,4.3964914289419135e-9,0
46406,1.3441524993124825e-8,1.7262762937543573e-8,5.766157444673794e-8,1.7052022223396808e-7,3.835590647110176e-7,2.0847784549267414e-7,1.646670259501234e-8,4.421435311864835e-9,0
46407,1.3422452797772186e-8,1.7270176099858704e-8,5.76771472058992e-8,1.7203298416627403e-7,3.837546888157692e-7,2.0834179861880657e-7,1.6508817257029005e-8,4.429917228388639e-9,0
46408,1.3402688101169378e-8,1.727062943001393e-8,5.7688064068213834e-8,1.7199535994286226e-7,3.83969856824512e-7,2.07977097830028e-7,1.650954971526401e-8,4.428668788829979e-9,0
46409,1.3400767259934737e-8,1.724740727799992e-8,5.73032945724485e-8,1.7104181562857687e-7,3.843012546599505e-7,2.0745031698094383e-7,1.6509487029500787e-8,4.418938432747514e-9,0
46410,1.3398846418700097e-8,1.7224185125985902e-8,5.6918525076683156e-8,1.7008827131429148e-7,3.846326524953889e-7,2.0692353613185962e-7,1.6509424343737566e-8,4.409208076665049e-9,0
46411,1.3383005895848248e-8,1.7191652615962496e-8,5.630382518736919e-8,1.699480398024835e-7,3.8312420461149183e-7,2.0522933714226971e-7,1.6461732101775362e-8,4.385525087425932e-9,0
46412,1.3367165372996399e-8,1.7159120105939086e-8,5.568912529805523e-8,1.6980780829067553e-7,3.816157567275947e-7,2.035351381526798e-7,1.641403985981316e-8,4.361842098186815e-9,0
46413,1.335132485014455e-8,1.712658759591568e-8,5.507442540874127e-8,1.6966757677886755e-7,3.801073088436976e-7,2.018409391630899e-7,1.6366347617850955e-8,4.338159108947698e-9,0
46414,1.33354843272927e-8,1.709405508589227e-8,5.4459725519427306e-8,1.6952734526705958e-7,3.7859886095980046e-7,2.001467401735e-7,1.6318655375888755e-8,4.314476119708581e-9,0
46415,1.3319643804440852e-8,1.706152257586886e-8,5.384502563011334e-8,1.6938711375525157e-7,3.770904130759034e-7,1.9845254118391008e-7,1.6270963133926552e-8,4.290793130469464e-9,0
46416,1.3303803281589002e-8,1.7028990065845453e-8,5.323032574079938e-8,1.692468822434436e-7,3.755819651920063e-7,1.9675834219432017e-7,1.622327089196435e-8,4.267110141230347e-9,0
46417,1.3287962758737152e-8,1.6996457555822043e-8,5.261562585148542e-8,1.6910665073163562e-7,3.7407351730810915e-7,1.9506414320473027e-7,1.6175578650002145e-8,4.24342715199123e-9,0
46418,1.3272122235885302e-8,1.6963925045798636e-8,5.2000925962171455e-8,1.6896641921982765e-7,3.7256506942421206e-7,1.9336994421514036e-7,1.612788640803994e-8,4.219744162752113e-9,0
46419,1.3312401661480294e-8,1.697008390473785e-8,5.1417371591180014e-8,1.7033720865741492e-7,3.732424084256714e-7,1.9222747983437069e-7,1.6199581485391302e-8,4.2659980656933104e-9,0
46420,1.3352681087075286e-8,1.6976242763677067e-8,5.083381722018858e-8,1.717079980950022e-7,3.739197474271308e-7,1.9108501545360104e-7,1.6271276562742663e-8,4.312251968634507e-9,0
46421,1.3345525240823537e-8,1.7016256570458582e-8,5.0870215577143525e-8,1.7274642720084617e-7,3.7606495024515336e-7,1.9168303747906731e-7,1.6327538903353648e-8,4.350634163940444e-9,0
46422,1.3381546722113722e-8,1.7037899487512206e-8,5.035941283439922e-8,1.712941856053482e-7,3.7848368440614405e-7,1.9198817916463282e-7,1.642755184180588e-8,4.420447146224278e-9,0
46423,1.3417568203403907e-8,1.705954240456583e-8,4.9848610091654914e-8,1.6984194400985023e-7,3.8090241856713473e-7,1.9229332085019835e-7,1.652756478025811e-8,4.4902601285081125e-9,0
46424,1.3453589684694092e-8,1.7081185321619454e-8,4.933780734891061e-8,1.6838970241435226e-7,3.8332115272812537e-7,1.9259846253576385e-7,1.6627577718710343e-8,4.560073110791946e-9,0
46425,1.3489611165984277e-8,1.7102828238673075e-8,4.882700460616631e-8,1.669374608188543e-7,3.8573988688911605e-7,1.9290360422132935e-7,1.6727590657162575e-8,4.62988609307578e-9,0
46426,1.3525632647274462e-8,1.71244711557267e-8,4.8316201863422004e-8,1.6548521922335632e-7,3.8815862105010674e-7,1.9320874590689488e-7,1.6827603595614807e-8,4.699699075359615e-9,0
46427,1.3526188931530873e-8,1.6995090594505767e-8,4.798221761754436e-8,1.6638495123479957e-7,3.8692217137177776e-7,1.9256950498236288e-7,1.6867441159228145e-8,4.7696359675399286e-09,0
46428,1.347058818172335e-8,1.68247214317499e-8,4.7606170991029565e-8,1.65952333154558e-7,3.8435317737795257e-7,1.912964767428071e-7,1.6799034991461046e-8,4.7696359675399286e-09,0
46429,1.3414987431915828e-8,1.6654352268994028e-8,4.7230124364514766e-8,1.655197150743164e-7,3.817841833841274e-7,1.9002344850325133e-7,1.6730628823693947e-8,4.7696359675399286e-09,0
46430,1.3359386682108305e-8,1.648398310623816e-8,4.6854077737999966e-8,1.6508709699407483e-7,3.7921518939030224e-7,1.8875042026369553e-7,1.666222265592685e-8,4.7696359675399286e-09,0
46431,1.3303785932300782e-8,1.6313613943482288e-8,4.647803111148517e-8,1.6465447891383325e-7,3.7664619539647705e-7,1.8747739202413975e-7,1.6593816488159752e-8,4.7696359675399286e-09,0
46432,1.3248185182493258e-8,1.614324478072642e-8,4.610198448497037e-8,1.6422186083359167e-7,3.7407720140265186e-7,1.8620436378458395e-7,1.6525410320392653e-8,4.7696359675399286e-09,0
46433,1.3192584432685735e-8,1.597287561797055e-8,4.5725937858455575e-8,1.637892427533501e-7,3.715082074088267e-7,1.8493133554502817e-7,1.6457004152625554e-8,4.7696359675399286e-09,0
46434,1.3136983682878212e-8,1.580250645521468e-8,4.5349891231940776e-8,1.633566246731085e-7,3.6893921341500154e-7,1.8365830730547237e-7,1.638859798485846e-8,4.7696359675399286e-09,0
46435,1.3081382933070689e-8,1.563213729245881e-8,4.497384460542598e-8,1.6292400659286693e-7,3.6637021942117635e-7,1.823852790659166e-7,1.632019181709136e-8,4.7696359675399286e-09,0
46436,1.3025782183263165e-8,1.546176812970294e-8,4.459779797891118e-8,1.6249138851262535e-7,3.6380122542735116e-7,1.8111225082636078e-7,1.625178564932426e-8,4.7696359675399286e-09,0
46437,1.2970181433455642e-8,1.5291398966947073e-8,4.422175135239638e-8,1.6205877043238374e-7,3.61232231433526e-7,1.79839222586805e-7,1.618337948155716e-8,4.7696359675399286e-09,0
46438,1.2914580683648119e-8,1.51210298041912e-8,4.3845704725881586e-8,1.6162615235214216e-7,3.5866323743970084e-7,1.785661943472492e-7,1.6114973313790066e-8,4.7696359675399286e-09,0
46439,1.2858979933840596e-8,1.4950660641435333e-8,4.3469658099366787e-8,1.6119353427190058e-7,3.5609424344587565e-7,1.7729316610769343e-7,1.6046567146022967e-8,4.7696359675399286e-09,0
46440,1.2803379184033072e-8,1.4780291478679462e-8,4.309361147285199e-8,1.60760916191659e-7,3.5352524945205046e-7,1.7602013786813765e-7,1.5978160978255868e-8,4.7696359675399286e-09,0
46441,1.2747778434225549e-8,1.4609922315923594e-8,4.271756484633719e-8,1.6032829811141742e-7,3.5095625545822527e-7,1.7474710962858185e-7,1.590975481048877e-8,4.7696359675399286e-09,0
46442,1.2692177684418026e-8,1.4439553153167724e-8,4.234151821982239e-8,1.5989568003117584e-7,3.4838726146440014e-7,1.7347408138902607e-7,1.5841348642721673e-8,4.7696359675399286e-09,0
46443,1.2679774707674548e-8,1.4418091927962027e-8,4.219801257905506e-8,1.6059380504533807e-7,3.494566315468585e-7,1.73180927750268e-7,1.5781028125432665e-8,4.7559031323946645e-9,0
46444,1.266116417982202e-8,1.4402154539692394e-8,4.208268117910934e-8,1.5971734041859946e-7,3.4867498174890077e-7,1.730472306411645e-7,1.5900885587970396e-8,4.769121646766292e-9,0
46445,1.261816847493843e-8,1.4421016312222296e-8,4.214326375194824e-8,1.5947720475166288e-7,3.469949055642497e-7,1.7043247599694338e-7,1.6102182218074405e-8,4.808414800785593e-9,0
46446,1.2575172770054838e-8,1.4439878084752197e-8,4.220384632478714e-8,1.5923706908472632e-7,3.4531482937959856e-7,1.6781772135272228e-7,1.630347884817841e-8,4.847707954804894e-9,0
46447,1.2532177065171247e-8,1.4458739857282099e-8,4.2264428897626044e-8,1.5899693341778976e-7,3.436347531949475e-7,1.652029667085012e-7,1.650477547828242e-8,4.8870011088241946e-9,0
46448,1.2489181360287656e-8,1.4477601629812e-8,4.2325011470464946e-8,1.587567977508532e-7,3.419546770102964e-7,1.625882120642801e-7,1.6706072108386426e-8,4.926294262843495e-9,0
46449,1.2446185655404065e-8,1.4496463402341902e-8,4.238559404330385e-8,1.5851666208391665e-7,3.4027460082564534e-7,1.5997345742005898e-7,1.6907368738490435e-8,4.965587416862796e-9,0
46450,1.2403189950520474e-8,1.4515325174871804e-8,4.244617661614275e-8,1.5827652641698006e-7,3.3859452464099426e-7,1.5735870277583787e-7,1.710866536859444e-8,5.004880570882097e-9,0
46451,1.2360194245636883e-8,1.4534186947401705e-8,4.250675918898166e-8,1.580363907500435e-7,3.3691444845634314e-7,1.5474394813161677e-7,1.730996199869845e-8,5.0441737249013975e-9,0
46452,1.2317198540753292e-8,1.4553048719931607e-8,4.256734176182056e-8,1.5779625508310695e-7,3.3523437227169206e-7,1.5212919348739566e-7,1.7511258628802456e-8,5.083466878920698e-9,0
46453,1.2274202835869701e-8,1.4571910492461509e-8,4.262792433465946e-8,1.575561194161704e-7,3.33554296087041e-7,1.4951443884317455e-7,1.7712555258906465e-8,5.122760032939999e-9,0
46454,1.223120713098611e-8,1.459077226499141e-8,4.268850690749836e-8,1.5731598374923383e-7,3.318742199023899e-7,1.4689968419895344e-7,1.791385188901047e-8,5.1620531869593e-9,0
46455,1.2188211426102519e-8,1.4609634037521312e-8,4.274908948033726e-8,1.5707584808229725e-7,3.3019414371773884e-07,1.4428492955473234e-7,1.811514851911448e-8,5.2013463409786004e-9,0
46456,1.2145215721218928e-8,1.4628495810051213e-8,4.2809672053176165e-8,1.568357124153607e-7,3.285140675330877e-7,1.4167017491051126e-7,1.831644514921849e-8,5.240639494997901e-9,0
46457,1.2102220016335337e-8,1.4647357582581115e-8,4.2870254626015066e-8,1.5659557674842413e-7,3.2683399134843663e-7,1.3905542026629015e-7,1.8517741779322494e-8,5.279932649017202e-9,0
46458,1.2059224311451746e-8,1.4666219355111017e-8,4.293083719885397e-8,1.5635544108148757e-7,3.2515391516378556e-7,1.3644066562206904e-7,1.8719038409426503e-8,5.319225803036503e-9,0
46459,1.2016228606568155e-8,1.4685081127640918e-8,4.299141977169287e-8,1.56115305414551e-7,3.234738389791345e-7,1.3382591097784794e-7,1.892033503953051e-8,5.358518957055803e-9,0
46460,1.1973232901684564e-8,1.470394290017082e-8,4.305200234453178e-8,1.5587516974761443e-7,3.217937627944834e-7,1.3121115633362683e-7,1.9121631669634518e-8,5.397812111075104e-9,0
46461,1.1930237196800973e-8,1.4722804672700722e-8,4.311258491737068e-8,1.5563503408067787e-7,3.201136866098323e-7,1.2859640168940572e-7,1.9322928299738524e-8,5.437105265094405e-9,0
46462,1.1887241491917382e-8,1.4741666445230623e-8,4.317316749020958e-8,1.553948984137413e-7,3.184336104251812e-7,1.2598164704518461e-7,1.9524224929842533e-8,5.4763984191137056e-9,0
46463,1.184040410456451e-8,1.4740495117463476e-8,4.3169121759008e-8,1.5711706781163798e-7,3.1736965444497844e-7,1.2321475612930998e-7,1.952767055383485e-8,5.466305673935658e-9,0
46464,1.179356671721164e-8,1.473932378969633e-8,4.316507602780642e-8,1.5883923720953464e-7,3.163056984647756e-7,1.2044786521343537e-7,1.953111617782717e-8,5.456212928757609e-9,0
46465,1.1689088161917832e-8,1.4690317585639296e-8,4.332817891773427e-8,1.599832503126581e-7,3.1787876118669045e-7,1.1983013555547578e-7,1.9511134710257278e-8,5.4297759000143534e-9,0
46466,1.1584609606624025e-8,1.464131138158226e-8,4.349128180766212e-8,1.6112726341578154e-7,3.194518239086052e-7,1.1921240589751623e-7,1.9491153242687388e-8,5.403338871271098e-9,0
46467,1.1480131051330218e-8,1.4592305177525225e-8,4.365438469758996e-8,1.62271276518905e-7,3.2102488663052e-7,1.1859467623955668e-7,1.94711717751175e-8,5.376901842527842e-9,0
46468,1.137565249603641e-8,1.454329897346819e-8,4.381748758751781e-8,1.634152896220284e-7,3.2259794935243475e-7,1.1797694658159711e-7,1.9451190307547606e-8,5.350464813784586e-9,0
46469,1.1271173940742602e-8,1.4494292769411155e-8,4.3980590477445655e-8,1.6455930272515186e-7,3.241710120743495e-7,1.1735921692363755e-7,1.9431208839977716e-8,5.3240277850413295e-9,0
46470,1.1166695385448795e-8,1.4445286565354119e-8,4.414369336737351e-8,1.657033158282753e-7,3.2574407479626435e-7,1.1674148726567799e-7,1.9411227372407826e-8,5.297590756298074e-9,0
46471,1.1062216830154988e-8,1.4396280361297085e-8,4.4306796257301354e-8,1.6684732893139874e-7,3.273171375181791e-7,1.1612375760771843e-7,1.9391245904837937e-8,5.271153727554818e-9,0
46472,1.095773827486118e-8,1.434727415724005e-8,4.44698991472292e-8,1.6799134203452219e-7,3.288902002400939e-7,1.1550602794975887e-7,1.9371264437268044e-8,5.244716698811562e-9,0
46473,1.0853259719567372e-8,1.4298267953183014e-8,4.4633002037157046e-8,1.6913535513764564e-7,3.3046326296200865e-7,1.1488829829179932e-7,1.9351282969698154e-8,5.218279670068306e-9,0
46474,1.0748781164273565e-8,1.424926174912598e-8,4.479610492708489e-8,1.7027936824076909e-7,3.320363256839234e-7,1.1427056863383976e-7,1.9331301502128264e-8,5.19184264132505e-9,0
46475,1.0628758771064661e-8,1.4127747680375403e-8,4.461435179448323e-8,1.6872721131602468e-7,3.2984237638224525e-7,1.1341802288092994e-7,1.926334570666167e-8,5.138342807293565e-9,0
46476,1.0508736377855757e-8,1.4006233611624827e-8,4.4432598661881566e-8,1.671750543912803e-7,3.276484270805671e-7,1.1256547712802012e-7,1.9195389911195073e-8,5.08484297326208e-9,0
46477,1.0388713984646852e-8,1.3884719542874252e-8,4.4250845529279896e-8,1.656228974665359e-7,3.254544777788889e-7,1.1171293137511032e-7,1.912743411572848e-8,5.031343139230595e-9,0
46478,1.0352849165872536e-8,1.3877041713102423e-8,4.437158886930675e-8,1.6565125474840234e-7,3.2554913450947e-7,1.1278314237047687e-7,1.9169517434863533e-8,5.035711120920263e-9,0
46479,1.0316984347098219e-8,1.3869363883330594e-8,4.44923322093336e-8,1.6567961203026876e-7,3.256437912400512e-7,1.1385335336584341e-7,1.921160075399859e-8,5.040079102609932e-9,0
46480,1.0281119528323903e-8,1.3861686053558766e-8,4.461307554936045e-8,1.657079693121352e-7,3.257384479706323e-7,1.1492356436120996e-7,1.9253684073133642e-8,5.0444470842996006e-9,0
46481,1.0245254709549585e-8,1.3854008223786937e-8,4.47338188893873e-8,1.6573632659400161e-7,3.258331047012134e-7,1.159937753565765e-7,1.9295767392268695e-8,5.048815065989269e-9,0
46482,1.020938989077527e-8,1.384633039401511e-8,4.485456222941414e-8,1.6576468387586806e-7,3.259277614317945e-7,1.1706398635194305e-7,1.933785071140375e-8,5.053183047678937e-9,0
46483,1.0173525072000952e-8,1.3838652564243281e-8,4.497530556944099e-8,1.6579304115773447e-7,3.260224181623757e-7,1.181341973473096e-7,1.9379934030538804e-8,5.057551029368606e-9,0
46484,1.0138352754476804e-8,1.3838652564243281e-8,4.546915070620026e-8,1.6961780480179075e-7,3.256708444366359e-7,1.1982511441546325e-7,1.9383721693240272e-8,5.070524837478559e-9,0
46485,1.0018206978941999e-8,1.3728140746402851e-8,4.590845401379103e-8,1.735267935147209e-7,3.254421129515524e-7,1.2172801672824618e-7,1.9339115998626145e-8,5.064552254197218e-9,0
46486,9.898061203407193e-9,1.361762892856242e-8,4.63477573213818e-8,1.7743578222765107e-7,3.252133814664689e-7,1.236309190410291e-7,1.929451030401202e-8,5.058579670915879e-9,0
46487,9.777915427872388e-9,1.350711711072199e-8,4.6787060628972573e-8,1.8134477094058125e-7,3.2498464998138536e-7,1.2553382135381202e-7,1.9249904609397893e-8,5.0526070876345385e-9,0
46488,9.657769652337582e-9,1.3396605292881559e-8,4.7226363936563346e-8,1.852537596535114e-7,3.247559184963019e-7,1.2743672366659495e-7,1.9205298914783766e-8,5.046634504353198e-9,0
46489,9.537623876802779e-9,1.328609347504113e-8,4.766566724415412e-8,1.891627483664416e-7,3.245271870112184e-7,1.2933962597937788e-7,1.9160693220169638e-8,5.040661921071858e-9,0
46490,9.417478101267973e-9,1.3175581657200698e-8,4.810497055174489e-8,1.9307173707937175e-7,3.2429845552613485e-7,1.3124252829216082e-7,1.911608752555551e-8,5.0346893377905175e-9,0
46491,9.297332325733168e-9,1.3065069839360268e-8,4.854427385933566e-8,1.969807257923019e-7,3.2406972404105137e-7,1.3314543060494375e-7,1.9071481830941383e-8,5.028716754509177e-9,0
46492,9.177186550198362e-9,1.2954558021519837e-8,4.8983577166926435e-8,2.008897145052321e-7,3.238409925559679e-7,1.3504833291772668e-7,1.9026876136327255e-8,5.022744171227837e-9,0
46493,9.057040774663557e-9,1.2844046203679406e-8,4.942288047451721e-8,2.0479870321816224e-7,3.2361226107088434e-7,1.369512352305096e-7,1.898227044171313e-8,5.0167715879464965e-9,0
46494,8.936894999128751e-9,1.2733534385838976e-8,4.986218378210798e-8,2.0870769193109243e-7,3.2338352958580086e-7,1.3885413754329255e-7,1.8937664747099004e-8,5.010799004665156e-9,0
46495,8.816749223593947e-9,1.2623022567998545e-8,5.030148708969875e-8,2.1261668064402258e-7,3.2315479810071737e-7,1.4075703985607548e-7,1.8893059052484876e-8,5.004826421383817e-9,0
46496,8.696603448059142e-9,1.2512510750158115e-8,5.0740790397289525e-8,2.1652566935695274e-7,3.2292606661563383e-7,1.426599421688584e-7,1.884845335787075e-8,4.998853838102476e-9,0
46497,8.595529867876976e-9,1.2406223042915851e-8,5.095295684943965e-8,2.1794929313720525e-7,3.2275934523153775e-7,1.4257404343853917e-7,1.8863886094611128e-8,4.996747369862311e-9,0
46498,8.49445628769481e-9,1.2299935335673587e-8,5.116512330158978e-8,2.1937291691745773e-7,3.225926238474416e-7,1.4248814470821994e-7,1.8879318831351504e-8,4.9946409016221466e-9,0
46499,8.415735786457787e-9,1.2181073113411389e-8,5.107412740920241e-8,2.2040112903957667e-7,3.223889632514114e-7,1.425675430771101e-7,1.8886535080110202e-8,4.986911785071082e-9,0
46500,8.337015285220763e-9,1.206221089114919e-8,5.098313151681505e-8,2.2142934116169558e-7,3.221853026553812e-7,1.4264694144600024e-7,1.8893751328868897e-8,4.979182668520016e-9,0
46501,8.25829478398374e-9,1.1943348668886991e-8,5.089213562442768e-8,2.2245755328381452e-7,3.2198164205935097e-7,1.427263398148904e-7,1.890096757762759e-8,4.9714535519689506e-09,0
46502,8.300412559531691e-9,1.1924002984405679e-8,5.087967741709867e-8,2.2351781308724345e-7,3.2185076332741614e-7,1.429437644332709e-7,1.893678377342166e-8,4.979306578416497e-9,0
46503,8.340609493845003e-9,1.191756461684397e-8,5.087393644595021e-8,2.2444886884937796e-7,3.21874076100488e-7,1.431155931676014e-7,1.8988605716794483e-8,4.9905238532567245e-9,0
46504,8.380806428158314e-9,1.1911126249282262e-8,5.0868195474801746e-8,2.2537992461151248e-7,3.2189738887355984e-7,1.432874219019319e-7,1.9040427660167306e-8,5.001741128096953e-9,0
46505,8.421003362471625e-9,1.1904687881720552e-8,5.086245450365329e-8,2.2631098037364699e-7,3.2192070164663164e-7,1.4345925063626242e-7,1.9092249603540128e-8,5.012958402937181e-9,0
46506,8.461200296784937e-9,1.1898249514158844e-8,5.0856713532504826e-8,2.272420361357815e-7,3.219440144197035e-7,1.4363107937059292e-7,1.9144071546912953e-8,5.02417567777741e-9,0
46507,8.50139723109825e-9,1.1891811146597135e-8,5.085097256135636e-8,2.2817309189791602e-7,3.219673271927753e-7,1.4380290810492342e-7,1.9195893490285776e-8,5.0353929526176375e-9,0
46508,8.54159416541156e-9,1.1885372779035427e-8,5.08452315902079e-8,2.2910414766005052e-7,3.2199063996584713e-7,1.4397473683925394e-7,1.9247715433658598e-8,5.046610227457866e-9,0
46509,8.581791099724871e-9,1.1878934411473717e-8,5.0839490619059436e-8,2.3003520342218505e-7,3.22013952738919e-7,1.4414656557358444e-7,1.929953737703142e-8,5.057827502298094e-9,0
46510,8.621988034038183e-9,1.1872496043912007e-8,5.083374964791097e-8,2.3096625918431955e-7,3.220372655119908e-7,1.4431839430791493e-7,1.9351359320404242e-8,5.069044777138323e-9,0
46511,8.662184968351495e-9,1.18660576763503e-8,5.0828008676762516e-8,2.3189731494645405e-7,3.2206057828506263e-7,1.4449022304224546e-7,1.9403181263777064e-8,5.080262051978551e-9,0
46512,8.702381902664807e-9,1.185961930878859e-8,5.082226770561405e-8,2.3282837070858858e-7,3.2208389105813443e-7,1.4466205177657595e-7,1.9455003207149887e-8,5.091479326818779e-9,0
46513,8.742578836978117e-9,1.1853180941226882e-8,5.081652673446559e-8,2.3375942647072308e-7,3.221072038312063e-7,1.4483388051090645e-7,1.9506825150522712e-8,5.102696601659008e-9,0
46514,8.78277577129143e-9,1.1846742573665172e-8,5.0810785763317126e-8,2.346904822328576e-7,3.2213051660427813e-7,1.4500570924523697e-7,1.9558647093895534e-8,5.113913876499236e-9,0
46515,8.822972705604741e-9,1.1840304206103463e-8,5.080504479216866e-8,2.356215379949921e-7,3.221538293773499e-7,1.4517753797956747e-7,1.9610469037268357e-8,5.125131151339464e-9,0
46516,8.863169639918053e-9,1.1833865838541755e-8,5.07993038210202e-8,2.3655259375712661e-7,3.221771421504218e-7,1.4534936671389797e-7,1.966229098064118e-8,5.136348426179692e-9,0
46517,8.903366574231363e-9,1.1827427470980045e-8,5.0793562849871736e-8,2.3748364951926114e-7,3.2220045492349357e-7,1.455211954482285e-7,1.9714112924014e-8,5.147565701019921e-9,0
46518,8.943563508544675e-9,1.1820989103418337e-8,5.078782187872328e-8,2.3841470528139564e-7,3.222237676965654e-7,1.45693024182559e-7,1.9765934867386823e-8,5.158782975860149e-9,0
46519,8.983760442857987e-9,1.1814550735856628e-8,5.0782080907574816e-8,2.3934576104353015e-7,3.2224708046963727e-7,1.4586485291688948e-7,1.981775681075965e-8,5.170000250700377e-9,0
46520,9.102677878408322e-9,1.1842942110890639e-8,5.077821291576617e-8,2.3917324736691155e-7,3.2235923886984955e-7,1.4582982747155506e-7,1.9813704100058767e-8,5.1724971298176976e-9,0
46521,9.096350750400499e-9,1.1853786280898442e-8,5.073149463828238e-8,2.3914411218655074e-7,3.2311371258187246e-7,1.459152108778517e-7,1.9770172902388797e-8,5.1724971298176976e-9,0
46522,9.07631813443054e-9,1.1828659962339564e-8,5.076074333280466e-8,2.3911497700618993e-7,3.237737054086423e-7,1.4547666335403446e-7,1.978115977591387e-8,5.173860138678981e-9,0
46523,9.05628551846058e-9,1.1803533643780686e-8,5.0789992027326935e-8,2.390858418258291e-7,3.244336982354122e-7,1.4503811583021725e-7,1.9792146649438944e-8,5.175223147540264e-9,0
46524,9.036252902490621e-9,1.1778407325221808e-8,5.081924072184921e-8,2.390567066454683e-7,3.2509369106218207e-7,1.4459956830640004e-7,1.9803133522964016e-8,5.176586156401547e-9,0
46525,9.016220286520662e-9,1.1753281006662931e-8,5.084848941637149e-8,2.390275714651075e-7,3.257536838889519e-7,1.4416102078258283e-7,1.9814120396489088e-8,5.17794916526283e-9,0
46526,8.996187670550703e-9,1.1728154688104053e-8,5.087773811089377e-8,2.389984362847467e-7,3.264136767157218e-7,1.4372247325876562e-7,1.982510727001416e-8,5.179312174124113e-9,0
46527,8.976155054580744e-9,1.1703028369545175e-8,5.090698680541605e-8,2.3896930110438583e-7,3.270736695424916e-7,1.4328392573494838e-7,1.9836094143539232e-8,5.180675182985396e-9,0
46528,8.956122438610784e-9,1.1677902050986297e-8,5.0936235499938326e-8,2.38940165924025e-7,3.277336623692615e-7,1.4284537821113117e-7,1.9847081017064308e-8,5.182038191846679e-9,0
46529,8.936089822640825e-9,1.1652775732427419e-8,5.09654841944606e-8,2.389110307436642e-7,3.283936551960314e-7,1.4240683068731396e-7,1.985806789058938e-8,5.183401200707962e-9,0
46530,8.916057206670866e-9,1.162764941386854e-8,5.0994732888982884e-8,2.388818955633034e-7,3.290536480228012e-7,1.4196828316349675e-7,1.986905476411445e-8,5.1847642095692454e-9,0
46531,8.896024590700907e-9,1.1602523095309664e-8,5.102398158350516e-8,2.388527603829426e-7,3.297136408495711e-7,1.415297356396795e-7,1.9880041637639524e-8,5.186127218430528e-9,0
46532,8.875991974730948e-9,1.1577396776750786e-8,5.1053230278027436e-8,2.388236252025818e-7,3.3037363367634094e-7,1.410911881158623e-7,1.9891028511164596e-8,5.187490227291811e-9,0
46533,8.858148119362778e-9,1.1541728508287588e-8,5.10484204862483e-8,2.388236252025818e-7,3.314028166926505e-7,1.408143815369015e-7,1.9917679093559273e-8,5.180752389912588e-9,0
46534,8.840304263994609e-9,1.150606023982439e-8,5.104361069446916e-8,2.388236252025818e-7,3.3243199970896003e-7,1.4053757495794072e-7,1.994432967595395e-8,5.174014552533365e-9,0
46535,8.76136124905502e-9,1.1365381278975837e-8,5.0987705259679227e-8,2.390636882896446e-7,3.326861065518618e-7,1.4066686474242727e-7,1.985969836043682e-8,5.162797277693136e-9,0
46536,8.682418234115434e-9,1.1224702318127282e-8,5.0931799824889284e-8,2.393037513767074e-7,3.3294021339476356e-7,1.4079615452691383e-7,1.9775067044919687e-8,5.151580002852908e-9,0
46537,8.603475219175845e-9,1.1084023357278726e-8,5.087589439009934e-8,2.3954381446377024e-7,3.3319432023766536e-7,1.4092544431140038e-7,1.9690435729402556e-8,5.14036272801268e-9,0
46538,8.524532204236257e-9,1.0943344396430171e-8,5.08199889553094e-8,2.39783877550833e-7,3.334484270805671e-7,1.4105473409588694e-7,1.9605804413885425e-8,5.129145453172452e-9,0
46539,8.44558918929667e-9,1.0802665435581616e-8,5.076408352051946e-8,2.4002394063789585e-7,3.337025339234689e-7,1.4118402388037347e-7,1.9521173098368294e-8,5.117928178332223e-9,0
46540,8.366646174357081e-9,1.0661986474733062e-8,5.070817808572952e-8,2.4026400372495864e-7,3.3395664076637063e-7,1.4131331366486002e-7,1.9436541782851163e-8,5.106710903491995e-9,0
46541,8.30132615609795e-9,1.0536723437555942e-8,5.0692504534641575e-8,2.426649305194381e-7,3.352865304245516e-7,1.4107207772785922e-7,1.9448468942824575e-8,5.112333551802896e-9,0
46542,8.316869994013046e-9,1.0529105871911891e-8,5.0724512302210234e-8,2.449138557889791e-7,3.348429741889009e-7,1.4094949765518594e-7,1.9560409041250216e-8,5.128048945291845e-9,0
46543,8.332413831928144e-9,1.0521488306267841e-8,5.07565200697789e-8,2.471627810585201e-7,3.343994179532501e-7,1.4082691758251267e-7,1.967234913967586e-8,5.143764338780794e-9,0
46544,8.34795766984324e-9,1.051387074062379e-8,5.078852783734756e-8,2.494117063280611e-7,3.339558617175994e-7,1.407043375098394e-7,1.9784289238101504e-8,5.1594797322697425e-9,0
46545,8.363501507758337e-9,1.050625317497974e-8,5.082053560491622e-8,2.516606315976021e-7,3.335123054819487e-7,1.4058175743716612e-7,1.9896229336527145e-8,5.175195125758691e-9,0
46546,8.379045345673432e-9,1.049863560933569e-8,5.0852543372484885e-8,2.5390955686714305e-7,3.3306874924629793e-7,1.4045917736449282e-7,2.000816943495279e-8,5.19091051924764e-9,0
46547,8.394589183588528e-9,1.0491018043691639e-8,5.0884551140053544e-8,2.5615848213668405e-7,3.326251930106472e-7,1.4033659729181954e-7,2.0120109533378433e-8,5.2066259127365885e-9,0
46548,8.410133021503625e-9,1.0483400478047588e-8,5.091655890762221e-8,2.5840740740622505e-7,3.321816367749965e-7,1.4021401721914627e-7,2.0232049631804074e-8,5.2223413062255375e-9,0
46549,8.425676859418721e-9,1.0475782912403538e-8,5.094856667519087e-8,2.6065633267576605e-7,3.3173808053934574e-7,1.40091437146473e-7,2.0343989730229718e-8,5.238056699714486e-9,0
46550,8.441220697333818e-9,1.0468165346759487e-8,5.0980574442759535e-8,2.6290525794530705e-7,3.3129452430369503e-7,1.3996885707379972e-7,2.045592982865536e-8,5.2537720932034345e-9,0
46551,8.456764535248914e-9,1.0460547781115437e-8,5.1012582210328194e-8,2.6515418321484805e-7,3.308509680680443e-7,1.3984627700112644e-7,2.0567869927081002e-8,5.2694874866923834e-9,0
46552,8.472308373164011e-9,1.0452930215471386e-8,5.104458997789686e-8,2.6740310848438905e-7,3.3040741183239355e-7,1.3972369692845314e-7,2.0679810025506646e-8,5.285202880181332e-9,0
46553,8.487852211079107e-9,1.0445312649827337e-8,5.107659774546552e-8,2.6965203375393005e-7,3.2996385559674284e-7,1.3960111685577986e-7,2.0791750123932287e-8,5.300918273670281e-9,0
46554,8.503396048994204e-9,1.0437695084183287e-8,5.1108605513034186e-8,2.7190095902347105e-7,3.2952029936109213e-7,1.394785367831066e-7,2.090369022235793e-8,5.31663366715923e-9,0
46555,8.50335896337711e-9,1.0439206184700704e-8,5.110519118867999e-8,2.719598854052346e-7,3.269940361192868e-7,1.398323294188094e-7,2.0919447959872367e-8,5.322246974876273e-9,0
46556,8.503321877760015e-9,1.044071728521812e-8,5.110177686432579e-8,2.7201881178699816e-7,3.244677728774815e-7,1.4018612205451224e-7,2.0935205697386804e-8,5.327860282593316e-9,0
46557,8.515403209424266e-9,1.0417381575799153e-8,5.1315041614637014e-8,2.7212572733782427e-7,3.2216012169434825e-7,1.4076596398052886e-7,2.09953810722257e-8,5.350294832273772e-9,0
46558,8.491619722314198e-9,1.0377065548914154e-8,5.1506804274644414e-8,2.7140356167616513e-7,3.201830912092445e-7,1.396831704960428e-7,2.088082456967615e-8,5.312144889104367e-9,0
46559,8.497827273423247e-9,1.0330091909972734e-8,5.171676611312929e-8,2.7121117882667164e-7,3.2027083566685613e-7,1.3868469849611616e-7,2.0960374325376378e-8,5.335453035122757e-9,0
46560,8.504034824532295e-9,1.0283118271031316e-8,5.192672795161416e-8,2.710187959771782e-7,3.203585801244677e-7,1.376862264961895e-7,2.1039924081076605e-8,5.3587611811411475e-9,0
46561,8.510242375641343e-9,1.0236144632089896e-8,5.213668979009903e-8,2.7082641312768477e-7,3.2044632458207934e-7,1.3668775449626283e-7,2.1119473836776835e-8,5.382069327159538e-9,0
46562,8.516449926750392e-9,1.0189170993148476e-8,5.23466516285839e-8,2.706340302781913e-7,3.205340690396909e-7,1.3568928249633617e-7,2.119902359247706e-8,5.405377473177928e-9,0
46563,8.52265747785944e-9,1.0142197354207055e-8,5.2556613467068775e-8,2.7044164742869785e-7,3.2062181349730255e-7,1.346908104964095e-7,2.1278573348177288e-8,5.4286856191963185e-9,0
46564,8.528865028968489e-9,1.0095223715265635e-8,5.276657530555365e-8,2.702492645792044e-7,3.2070955795491413e-7,1.3369233849648287e-7,2.1358123103877515e-8,5.451993765214709e-9,0
46565,8.535072580077539e-9,1.0048250076324215e-8,5.297653714403852e-8,2.7005688172971093e-7,3.2079730241252577e-7,1.326938664965562e-7,2.143767285957774e-8,5.475301911233099e-9,0
46566,8.541280131186587e-9,1.0001276437382795e-8,5.3186498982523395e-8,2.698644988802175e-7,3.2088504687013735e-07,1.3169539449662954e-7,2.1517222615277968e-8,5.498610057251489e-9,0
46567,8.547487682295635e-9,9.954302798441375e-9,5.339646082100827e-8,2.69672116030724e-7,3.20972791327749e-7,1.3069692249670288e-7,2.1596772370978198e-8,5.521918203269879e-9,0
46568,8.553695233404684e-9,9.907329159499955e-9,5.360642265949314e-8,2.6947973318123057e-7,3.2106053578536056e-7,1.2969845049677621e-07,2.1676322126678424e-8,5.545226349288269e-9,0
46569,8.559902784513732e-9,9.860355520558535e-9,5.381638449797801e-8,2.6928735033173714e-7,3.211482802429722e-7,1.2869997849684955e-7,2.175587188237865e-8,5.56853449530666e-9,0
46570,8.56611033562278e-9,9.813381881617115e-9,5.402634633646288e-8,2.6909496748224365e-7,3.2123602470058377e-7,1.277015064969229e-7,2.1835421638078878e-8,5.59184264132505e-9,0
46571,8.572317886731829e-9,9.766408242675694e-9,5.4236308174947756e-8,2.689025846327502e-7,3.213237691581954e-7,1.2670303449699625e-7,2.1914971393779104e-8,5.61515078734344e-9,0
46572,8.578525437840877e-9,9.719434603734274e-9,5.444627001343263e-8,2.687102017832568e-7,3.21411513615807e-7,1.2570456249706958e-7,2.199452114947933e-8,5.638458933361831e-9,0
46573,8.584732988949926e-9,9.672460964792854e-9,5.46562318519175e-8,2.685178189337633e-7,3.214992580734186e-7,1.2470609049714292e-7,2.207407090517956e-8,5.661767079380221e-9,0
46574,8.590940540058974e-9,9.625487325851434e-9,5.4866193690402376e-8,2.6832543608426986e-7,3.215870025310302e-7,1.2370761849721626e-7,2.2153620660879788e-8,5.6850752253986114e-9,0
46575,8.597148091168022e-9,9.578513686910014e-9,5.507615552888725e-8,2.681330532347764e-7,3.2167474698864183e-07,1.2270914649728962e-7,2.2233170416580014e-8,5.708383371417001e-9,0
46576,8.60335564227707e-9,9.531540047968594e-9,5.528611736737212e-8,2.6794067038528294e-7,3.217624914462534e-7,1.2171067449736296e-7,2.231272017228024e-8,5.731691517435391e-9,0
46577,8.609563193386119e-9,9.484566409027174e-9,5.5496079205856996e-8,2.677482875357895e-7,3.2185023590386504e-7,1.207122024974363e-7,2.2392269927980467e-8,5.754999663453782e-9,0
46578,8.603652327213824e-9,9.484566409027174e-9,5.5574616890915345e-8,2.6727629400916696e-7,3.215839332205373e-7,1.1913388857149301e-7,2.239153746974546e-8,5.754748730129535e-9,0
46579,8.584856371275827e-9,9.464729841743849e-9,5.598254644104294e-8,2.67445588121462e-7,3.210013961007578e-7,1.1908740790833853e-7,2.239649365803592e-8,5.7536273139986415e-9,0
46580,8.590952665533593e-9,9.457838144026915e-9,5.6658913977497634e-8,2.6769138221637316e-7,3.1951626751105087e-7,1.1911911922448528e-7,2.2399221128739755e-8,5.754373886908809e-9,0
46581,8.597048959791359e-9,9.45094644630998e-9,5.733528151395233e-8,2.679371763112843e-7,3.180311389213439e-7,1.1915083054063204e-7,2.2401948599443587e-8,5.755120459818976e-9,0
46582,8.603145254049125e-9,9.444054748593047e-9,5.8011649050407024e-8,2.681829704061955e-7,3.165460103316369e-7,1.191825418567788e-7,2.240467607014742e-8,5.755867032729144e-9,0
46583,8.609241548306892e-9,9.437163050876114e-9,5.868801658686172e-8,2.6842876450110664e-7,3.150608817419299e-7,1.1921425317292555e-7,2.2407403540851252e-8,5.756613605639311e-9,0
46584,8.615337842564658e-9,9.430271353159178e-9,5.9364384123316415e-8,2.686745585960178e-7,3.1357575315222297e-7,1.192459644890723e-7,2.2410131011555087e-8,5.7573601785494784e-9,0
46585,8.621434136822424e-9,9.423379655442245e-9,6.004075165977111e-8,2.6892035269092897e-7,3.12090624562516e-7,1.1927767580521906e-7,2.2412858482258918e-8,5.7581067514596465e-9,0
46586,8.62753043108019e-9,9.41648795772531e-9,6.07171191962258e-8,2.6916614678584013e-7,3.10605495972809e-7,1.1930938712136582e-7,2.2415585952962752e-8,5.758853324369814e-9,0
46587,8.633626725337957e-9,9.409596260008377e-9,6.13934867326805e-8,2.694119408807513e-7,3.09120367383102e-7,1.1934109843751258e-7,2.2418313423666584e-8,5.759599897279981e-9,0
46588,8.639723019595723e-9,9.402704562291443e-9,6.206985426913519e-8,2.6965773497566245e-7,3.0763523879339507e-7,1.1937280975365933e-7,2.2421040894370418e-8,5.760346470190149e-9,0
46589,8.645633885768018e-9,9.394248470779915e-9,6.21100861528372e-8,2.697342349582786e-7,3.0609838885332185e-7,1.1941102096420548e-7,2.2417176240959206e-8,5.770076826272614e-9,0
46590,8.657492703729704e-9,9.381500134227248e-9,6.21113940521947e-8,2.697474835528219e-7,3.0465795184844904e-7,1.1944273228035224e-7,2.241198634755095e-8,5.770200736169094e-9,0
46591,8.669351521691388e-9,9.368751797674582e-9,6.211270195155223e-8,2.697607321473652e-7,3.0321751484357617e-7,1.19474443596499e-7,2.240679645414269e-8,5.770324646065575e-9,0
46592,8.669351521691388e-9,9.368577976141848e-9,6.197002409496944e-8,2.697692742242324e-7,3.031110389233677e-7,1.1950863257435608e-7,2.2403709906794616e-8,5.769701983051887e-9,0
46593,8.669351521691388e-9,9.368404154609115e-9,6.182734623838665e-8,2.697778163010996e-7,3.030045630031592e-7,1.1954282155221316e-7,2.2400623359446543e-8,5.7690793200381996e-9,0
46594,8.669351521691388e-9,9.368230333076382e-9,6.168466838180386e-8,2.6978635837796686e-7,3.0289808708295067e-7,1.1957701053007025e-7,2.2397536812098467e-8,5.768456657024513e-9,0
46595,8.669351521691388e-9,9.368056511543651e-9,6.154199052522107e-8,2.6979490045483406e-7,3.027916111627422e-7,1.1961119950792734e-7,2.239445026475039e-8,5.767833994010825e-9,0
46596,8.669351521691388e-9,9.367882690010918e-9,6.139931266863828e-8,2.6980344253170125e-7,3.026851352425337e-7,1.1964538848578442e-7,2.2391363717402315e-8,5.7672113309971384e-9,0
46597,8.669351521691388e-9,9.367708868478185e-9,6.125663481205548e-8,2.6981198460856845e-7,3.025786593223252e-7,1.196795774636415e-7,2.238827717005424e-8,5.766588667983451e-9,0
46598,8.66358899798747e-9,9.367708868478185e-9,6.111171787674583e-8,2.70874282218224e-7,3.035898419158864e-7,1.1975965126125195e-7,2.2404282917632992e-8,5.774066851210269e-9,0
46599,8.669685292245236e-9,9.358451803745967e-9,6.111103076363453e-8,2.719274934019592e-7,3.009589100031075e-7,1.1982234921913867e-7,2.2314037213311565e-8,5.7507369104728785e-9,0
46600,8.675781586503e-9,9.34919473901375e-9,6.111034365052323e-8,2.729807045856944e-7,2.983279780903285e-7,1.198850471770254e-7,2.2223791508990142e-8,5.727406969735487e-9,0
46601,8.681877880760767e-9,9.33993767428153e-9,6.110965653741193e-8,2.740339157694296e-7,2.956970461775496e-7,1.199477451349121e-7,2.2133545804668716e-8,5.704077028998095e-9,0
46602,8.687974175018533e-9,9.330680609549312e-9,6.110896942430062e-8,2.7508712695316476e-7,2.930661142647707e-7,1.2001044309279883e-7,2.204330010034729e-8,5.680747088260704e-9,0
46603,8.6940704692763e-9,9.321423544817094e-9,6.110828231118931e-8,2.7614033813689994e-7,2.904351823519918e-7,1.2007314105068555e-7,2.1953054396025863e-8,5.6574171475233125e-9,0
46604,8.700166763534066e-9,9.312166480084877e-9,6.110759519807801e-8,2.7719354932063513e-7,2.878042504392129e-7,1.2013583900857227e-7,2.186280869170444e-8,5.634087206785921e-9,0
46605,8.706263057791832e-9,9.302909415352657e-9,6.11069080849667e-8,2.782467605043703e-7,2.8517331852643397e-7,1.20198536966459e-7,2.1772562987383013e-8,5.61075726604853e-9,0
46606,8.712359352049598e-9,9.29365235062044e-9,6.11062209718554e-8,2.792999716881055e-7,2.82542386613655e-7,1.2026123492434572e-7,2.1682317283061586e-8,5.587427325311138e-9,0
46607,8.718455646307364e-9,9.284395285888222e-9,6.11055338587441e-8,2.803531828718407e-7,2.799114547008761e-7,1.2032393288223244e-7,2.159207157874016e-8,5.5640973845737465e-9,0
46608,8.72455194056513e-9,9.275138221156004e-9,6.11048467456328e-8,2.8140639405557587e-7,2.772805227880972e-7,1.2038663084011916e-7,2.1501825874418737e-8,5.5407674438363556e-09,0
46609,8.730648234822897e-9,9.265881156423785e-9,6.110415963252148e-8,2.824596052393111e-7,2.7464959087531827e-7,1.2044932879800588e-7,2.141158017009731e-8,5.517437503098964e-9,0
46610,8.736744529080663e-9,9.256624091691567e-9,6.110347251941018e-8,2.835128164230463e-7,2.7201865896253936e-7,1.205120267558926e-7,2.1321334465775884e-8,5.494107562361572e-9,0
46611,8.74284082333843e-9,9.24736702695935e-9,6.110278540629888e-8,2.845660276067815e-7,2.6938772704976045e-7,1.2057472471377932e-7,2.1231088761454457e-8,5.4707776216241805e-9,0
46612,8.772580582285377e-9,9.26894180957e-9,6.114993350677667e-8,2.847413169965414e-7,2.6558879864939074e-7,1.205796961410757e-7,2.112307600220325e-8,5.439346834646283e-9,0
46613,8.777798947207503e-9,9.24454832978884e-9,6.117987191766837e-8,2.845982744157146e-7,2.656660036306257e-7,1.2037979229730024e-7,2.1126832322023107e-8,5.4558088010453996e-9,0
46614,8.755346736885698e-9,9.24454832978884e-9,6.165684441325191e-8,2.848231487977003e-7,2.672037335843707e-7,1.2091661028908293e-7,2.116360037622346e-8,5.4558088010453996e-9,0
46615,8.753582558166927e-9,9.251371893062801e-9,6.21619115989327e-8,2.849810451022327e-7,2.684806313984469e-7,1.215967802429179e-7,2.1212432533881615e-8,5.457314400990878e-9,0
46616,8.751818379448155e-9,9.258195456336762e-9,6.26669787846135e-8,2.851389414067651e-7,2.6975752921252304e-7,1.222769501967529e-7,2.1261264691539766e-8,5.458820000936357e-9,0
46617,8.750054200729383e-9,9.265019019610724e-9,6.31720459702943e-8,2.852968377112975e-7,2.710344270265992e-7,1.2295712015058787e-7,2.131009684919792e-8,5.460325600881835e-9,0
46618,8.748290022010612e-9,9.271842582884685e-9,6.36771131559751e-8,2.8545473401582996e-7,2.723113248406754e-7,1.2363729010442283e-7,2.1358929006856073e-8,5.461831200827314e-9,0
46619,8.74652584329184e-9,9.278666146158646e-9,6.41821803416559e-8,2.8561263032036235e-7,2.7358822265475156e-7,1.2431746005825783e-7,2.140776116451423e-8,5.463336800772792e-9,0
46620,8.744761664573069e-9,9.285489709432608e-9,6.46872475273367e-8,2.857705266248948e-7,2.748651204688277e-7,1.249976300120928e-7,2.1456593322172384e-8,5.464842400718271e-9,0
46621,8.742997485854297e-9,9.292313272706569e-9,6.51923147130175e-8,2.859284229294272e-7,2.761420182829039e-7,1.256777999659278e-7,2.1505425479830535e-8,5.46634800066375e-9,0
46622,8.741233307135527e-9,9.299136835980529e-9,6.56973818986983e-8,2.8608631923395964e-7,2.774189160969801e-7,1.2635796991976276e-7,2.155425763748869e-8,5.467853600609229e-9,0
46623,8.739469128416755e-9,9.30596039925449e-9,6.62024490843791e-8,2.8624421553849203e-7,2.7869581391105623e-7,1.2703813987359776e-7,2.1603089795146846e-8,5.469359200554707e-9,0
46624,8.737704949697983e-9,9.312783962528451e-9,6.670751627005991e-8,2.864021118430245e-7,2.7997271172513244e-7,1.2771830982743273e-7,2.1651921952804998e-8,5.470864800500186e-9,0
46625,8.735940770979211e-9,9.319607525802413e-9,6.721258345574071e-8,2.8656000814755687e-7,2.812496095392086e-7,1.283984797812677e-7,2.1700754110463153e-8,5.472370400445664e-9,0
46626,8.73417659226044e-9,9.326431089076374e-9,6.771765064142151e-8,2.867179044520893e-7,2.8252650735328475e-7,1.290786497351027e-7,2.1749586268121308e-8,5.473876000391143e-9,0
46627,8.732412413541669e-9,9.333254652350335e-9,6.822271782710231e-8,2.868758007566217e-7,2.8380340516736096e-7,1.2975881968893766e-7,2.179841842577946e-8,5.4753816003366214e-9,0
46628,8.730648234822897e-9,9.340078215624297e-9,6.872778501278311e-8,2.8703369706115415e-7,2.850803029814371e-7,1.3043898964277265e-7,2.1847250583437615e-8,5.4768872002821005e-9,0
46629,8.728884056104125e-9,9.346901778898258e-9,6.923285219846391e-8,2.8719159336568654e-7,2.8635720079551327e-7,1.3111915959660762e-7,2.189608274109577e-8,5.478392800227579e-9,0
46630,8.727119877385353e-9,9.35372534217222e-9,6.973791938414471e-8,2.87349489670219e-7,2.876340986095894e-7,1.317993295504426e-7,2.1944914898753922e-8,5.479898400173058e-9,0
46631,8.725355698666583e-9,9.36054890544618e-9,7.024298656982551e-8,2.875073859747514e-7,2.8891099642366563e-7,1.3247949950427759e-7,2.1993747056412077e-8,5.481404000118536e-9,0
46632,8.723591519947811e-9,9.36737246872014e-9,7.074805375550631e-8,2.8766528227928383e-7,2.901878942377418e-7,1.3315966945811255e-7,2.204257921407023e-8,5.482909600064014e-9,0
46633,8.721827341229039e-9,9.374196031994102e-9,7.125312094118711e-8,2.878231785838162e-7,2.9146479205181794e-7,1.3383983941194755e-7,2.2091411371728384e-8,5.484415200009493e-9,0
46634,8.724090273065017e-9,9.397833961516554e-9,7.122663131971123e-8,2.8755355227503035e-7,2.9115870200192014e-7,1.3382584258394402e-7,2.2091380028846774e-8,5.481797524526978e-9,0
46635,8.723941930596642e-9,9.421471891039006e-9,7.131701704645353e-8,2.877526078026122e-7,2.9245086766530904e-7,1.3376929070222086e-7,2.2095042320021796e-8,5.474319341300159e-9,0
46636,8.726823192448601e-9,9.44359872004404e-9,7.144922108757498e-8,2.8805127903394635e-7,2.937430333286979e-7,1.3371973700098458e-7,2.2098003495843427e-8,5.472445125196526e-9,0
46637,8.700360511667028e-9,9.420633365171528e-9,7.155699684655445e-8,2.8746550745678536e-7,2.9541607052830484e-7,1.337087000169032e-7,2.2012203654737308e-8,5.444397267799026e-9,0
46638,8.673897830885456e-9,9.397668010299017e-9,7.166477260553392e-8,2.8687973587962437e-7,2.9708910772791175e-7,1.3369766303282182e-7,2.192640381363119e-8,5.4163494104015266e-9,0
46639,8.647435150103884e-9,9.374702655426503e-9,7.177254836451338e-8,2.862939643024634e-7,2.987621449275187e-7,1.3368662604874046e-7,2.1840603972525067e-8,5.388301553004027e-9,0
46640,8.62097246932231e-9,9.351737300553992e-9,7.188032412349285e-8,2.8570819272530234e-7,3.004351821271256e-7,1.3367558906465908e-7,2.1754804131418947e-8,5.360253695606527e-9,0
46641,8.594509788540739e-9,9.32877194568148e-9,7.198809988247231e-8,2.8512242114814135e-7,3.021082193267326e-7,1.336645520805777e-7,2.1669004290312828e-08,5.332205838209028e-9,0
46642,8.568047107759165e-9,9.305806590808968e-9,7.209587564145179e-8,2.8453664957098036e-7,3.037812565263395e-7,1.3365351509649632e-7,2.158320444920671e-8,5.304157980811529e-9,0
46643,8.541584426977594e-9,9.282841235936455e-9,7.220365140043125e-8,2.8395087799381937e-7,3.0545429372594644e-7,1.3364247811241494e-7,2.1497404608100587e-8,5.276110123414029e-9,0
46644,8.515121746196022e-9,9.259875881063943e-9,7.231142715941072e-8,2.833651064166583e-7,3.0712733092555335e-7,1.3363144112833356e-7,2.1411604766994468e-8,5.2480622660165295e-9,0
46645,8.488659065414448e-9,9.236910526191432e-9,7.241920291839019e-8,2.8277933483949733e-7,3.088003681251603e-7,1.3362040414425218e-7,2.132580492588835e-8,5.2200144086190295e-9,0
46646,8.459315122780917e-9,9.248283131648033e-9,7.303917168102269e-8,2.828860159068228e-7,3.0878178563638676e-7,1.3376882368982536e-7,2.1238275120312808e-8,5.1924684178700235e-9,0
46647,8.429971180147385e-9,9.259655737104635e-9,7.36591404436552e-8,2.8299269697414825e-7,3.0876320314761316e-7,1.3391724323539856e-7,2.115074531473727e-8,5.164922427121017e-9,0
46648,8.400627237513852e-9,9.271028342561237e-9,7.42791092062877e-8,2.8309937804147365e-7,3.087446206588396e-7,1.3406566278097173e-7,2.1063215509161732e-8,5.13737643637201e-9,0
46649,8.371283294880321e-9,9.282400948017838e-9,7.489907796892021e-8,2.832060591087991e-7,3.0872603817006607e-7,1.3421408232654493e-7,2.097568570358619e-8,5.109830445623003e-9,0
46650,8.363229073770821e-9,9.338865737351988e-9,7.547356200921829e-8,2.8340527934218595e-7,3.080568854207401e-7,1.3427217971330623e-7,2.0973830367590328e-8,5.110704041960937e-9,0
46651,8.355174852661321e-9,9.395330526686137e-9,7.604804604951638e-8,2.836044995755728e-7,3.0738773267141415e-7,1.3433027710006753e-7,2.0971975031594464e-8,5.111577638298871e-9,0
46652,8.34712063155182e-9,9.451795316020285e-9,7.662253008981448e-8,2.8380371980895964e-7,3.067185799220882e-7,1.3438837448682883e-7,2.09701196955986e-8,5.112451234636804e-9,0
46653,8.33906641044232e-9,9.508260105354434e-9,7.719701413011256e-8,2.840029400423465e-7,3.060494271727622e-7,1.3444647187359013e-7,2.0968264359602737e-8,5.113324830974738e-9,0
46654,8.33101218933282e-9,9.564724894688584e-9,7.777149817041065e-8,2.8420216027573333e-7,3.0538027442343626e-7,1.3450456926035143e-7,2.0966409023606873e-8,5.1141984273126716e-9,0
46655,8.306119939137058e-9,9.532086697575415e-9,7.715640031990616e-8,2.830885087729442e-7,3.0621908924391434e-7,1.3460224481897515e-7,2.0861890269164684e-8,5.098616284314061e-9,0
46656,8.281227688941295e-9,9.499448500462247e-9,7.654130246940167e-8,2.819748572701551e-7,3.0705790406439247e-7,1.3469992037759888e-7,2.0757371514722498e-8,5.08303414131545e-9,0
46657,8.256335438745531e-9,9.466810303349078e-9,7.59262046188972e-8,2.8086120576736597e-7,3.078967188848706e-7,1.3479759593622263e-7,2.065285276028031e-8,5.067451998316839e-9,0
46658,8.231443188549767e-9,9.43417210623591e-9,7.531110676839271e-8,2.7974755426457685e-7,3.087355337053487e-7,1.3489527149484636e-7,2.0548334005838122e-8,5.051869855318228e-9,0
46659,8.206550938354005e-9,9.40153390912274e-9,7.469600891788822e-8,2.7863390276178773e-7,3.095743485258268e-7,1.3499294705347008e-7,2.0443815251395936e-8,5.036287712319617e-9,0
46660,8.181658688158242e-9,9.368895712009573e-9,7.408091106738373e-8,2.775202512589986e-7,3.104131633463049e-7,1.350906226120938e-7,2.0339296496953746e-8,5.020705569321006e-9,0
46661,8.156766437962478e-9,9.336257514896404e-9,7.346581321687924e-8,2.764065997562095e-7,3.11251978166783e-7,1.3518829817071753e-7,2.023477774251156e-8,5.0051234263223955e-9,0
46662,8.131874187766714e-9,9.303619317783236e-9,7.285071536637475e-8,2.7529294825342037e-7,3.1209079298726116e-7,1.3528597372934126e-7,2.013025898806937e-8,4.989541283323785e-9,0
46663,8.10698193757095e-9,9.270981120670067e-9,7.223561751587026e-8,2.7417929675063125e-7,3.1292960780773924e-7,1.3538364928796498e-7,2.0025740233627185e-8,4.973959140325174e-9,0
46664,8.082089687375189e-9,9.2383429235569e-9,7.162051966536579e-8,2.7306564524784213e-7,3.1376842262821737e-7,1.3548132484658874e-7,1.9921221479185e-8,4.958376997326563e-9,0
46665,8.057197437179425e-9,9.20570472644373e-9,7.10054218148613e-8,2.71951993745053e-7,3.1460723744869545e-7,1.3557900040521246e-7,1.981670272474281e-8,4.942794854327952e-9,0
46666,8.032305186983661e-9,9.173066529330562e-9,7.039032396435681e-8,2.7083834224226395e-7,3.154460522691736e-7,1.356766759638362e-7,1.9712183970300623e-8,4.927212711329341e-9,0
46667,8.007412936787898e-9,9.140428332217395e-9,6.977522611385232e-8,2.697246907394748e-7,3.162848670896517e-7,1.357743515224599e-7,1.9607665215858434e-8,4.91163056833073e-9,0
46668,7.982520686592136e-9,9.107790135104226e-9,6.916012826334783e-8,2.686110392366857e-7,3.171236819101298e-7,1.3587202708108364e-7,1.9503146461416248e-8,4.896048425332119e-9,0
46669,7.963539302568667e-9,9.066627712036556e-9,6.852483622189705e-8,2.673350035853687e-7,3.165974002293003e-7,1.3611252317386133e-7,1.9418515145899117e-8,4.8788461130854075e-9,0
46670,7.9445579185452e-9,9.025465288968887e-9,6.788954418044626e-8,2.6605896793405166e-7,3.160711185484708e-7,1.3635301926663903e-7,1.9333883830381986e-8,4.8616438008386955e-9,0
46671,7.996011980899198e-9,9.126553191394969e-9,6.846476843686147e-8,2.6425423630055647e-7,3.160982566320266e-7,1.3638588866074756e-7,1.946901731525204e-8,4.878232790665578e-9,0
46672,8.004288715711263e-9,9.167541792929905e-9,6.863308168301708e-8,2.62277624663249e-7,3.1630212264328337e-7,1.367325391151415e-7,1.946406112696158e-8,4.88919913218156e-9,0
46673,7.982269407319968e-9,9.129266201475717e-9,6.87262158622046e-8,2.6224237602961353e-7,3.163297391295699e-7,1.3716100071760342e-7,1.943764151669613e-8,4.9004164070217886e-9,0
46674,7.960250098928672e-9,9.090990610021532e-9,6.881935004139215e-8,2.622071273959781e-7,3.163573556158565e-7,1.3758946232006533e-7,1.9411221906430678e-8,4.9116336818620164e-9,0
46675,7.938230790537377e-9,9.052715018567345e-9,6.891248422057967e-8,2.6217187876234263e-7,3.16384972102143e-7,1.3801792392252724e-7,1.938480229616523e-8,4.922850956702245e-9,0
46676,7.916211482146082e-9,9.014439427113157e-9,6.90056183997672e-8,2.6213663012870723e-7,3.1641258858842953e-7,1.3844638552498913e-7,1.9358382685899778e-8,4.934068231542473e-9,0
46677,7.894192173754786e-9,8.97616383565897e-9,6.909875257895474e-8,2.621013814950718e-7,3.164402050747161e-7,1.3887484712745104e-7,1.9331963075634327e-8,4.945285506382702e-9,0
46678,7.872172865363491e-9,8.937888244204783e-9,6.919188675814226e-8,2.6206613286143633e-7,3.1646782156100264e-7,1.3930330872991295e-7,1.9305543465368875e-8,4.9565027812229294e-9,0
46679,7.850153556972195e-9,8.899612652750597e-9,6.92850209373298e-8,2.620308842278009e-7,3.1649543804728914e-7,1.3973177033237484e-7,1.9279123855103424e-8,4.967720056063158e-9,0
46680,7.8281342485809e-9,8.86133706129641e-9,6.937815511651733e-8,2.6199563559416543e-7,3.165230545335757e-7,1.4016023193483675e-7,1.9252704244837972e-8,4.978937330903386e-9,0
46681,7.806114940189605e-9,8.823061469842223e-9,6.947128929570486e-8,2.6196038696053e-7,3.1655067101986225e-7,1.4058869353729866e-7,1.922628463457252e-8,4.990154605743615e-9,0
46682,7.78409563179831e-9,8.784785878388036e-9,6.95644234748924e-8,2.6192513832689453e-7,3.1657828750614875e-7,1.4101715513976057e-7,1.919986502430707e-8,5.0013718805838424e-9,0
46683,7.762076323407012e-9,8.746510286933848e-9,6.965755765407992e-8,2.618898896932591e-7,3.166059039924353e-7,1.4144561674222246e-7,1.917344541404162e-8,5.012589155424071e-9,0
46684,7.740057015015717e-9,8.708234695479661e-9,6.975069183326745e-8,2.6185464105962363e-7,3.1663352047872185e-7,1.4187407834468437e-7,1.914702580377617e-8,5.023806430264299e-9,0
46685,7.718037706624422e-9,8.669959104025476e-9,6.984382601245499e-8,2.6181939242598824e-7,3.166611369650084e-7,1.4230253994714628e-7,1.9120606193510718e-8,5.035023705104528e-9,0
46686,7.696018398233126e-9,8.631683512571288e-9,6.993696019164251e-8,2.617841437923528e-7,3.166887534512949e-7,1.4273100154960817e-7,1.9094186583245267e-8,5.0462409799447555e-9,0
46687,7.673999089841831e-9,8.593407921117101e-9,7.003009437083004e-8,2.6174889515871734e-7,3.1671636993758146e-7,1.4315946315207008e-7,1.9067766972979815e-8,5.057458254784984e-9,0
46688,7.651979781450536e-9,8.555132329662914e-9,7.012322855001758e-8,2.617136465250819e-7,3.16743986423868e-7,1.43587924754532e-7,1.9041347362714364e-8,5.068675529625213e-9,0
46689,7.62996047305924e-9,8.516856738208727e-9,7.021636272920511e-8,2.6167839789144644e-7,3.167716029101545e-7,1.4401638635699388e-7,1.9014927752448912e-8,5.079892804465441e-9,0
46690,7.587842697511289e-9,8.441106528521044e-9,7.006887508084318e-8,2.6209574444667866e-7,3.166603920958917e-7,1.4427412945848965e-7,1.8984814508126828e-8,5.07976889456896e-9,0
46691,7.561268759878435e-9,8.371099400264138e-9,6.98737167344258e-8,2.6204767339174334e-7,3.1745115920427046e-7,1.4449840685544604e-7,1.89635391434415e-8,5.082265773686281e-9,0
46692,7.53469482224558e-9,8.301092272007234e-9,6.967855838800844e-8,2.61999602336808e-7,3.182419263126492e-7,1.447226842524024e-7,1.894226377875618e-8,5.084762652803602e-9,0
46693,7.508120884612724e-9,8.231085143750329e-9,6.948340004159106e-8,2.619515312818727e-7,3.1903269342102794e-7,1.449469616493588e-7,1.8920988414070853e-8,5.0872595319209225e-9,0
46694,7.392438926990307e-9,7.998522951395328e-9,6.902698783634086e-8,2.6033747406865965e-7,3.189372104197844e-7,1.4513423515941733e-7,1.889396171709684e-8,5.052464496550343e-9,0
46695,7.388218068302595e-9,8.00593611371046e-9,6.870805375204683e-8,2.603144858293322e-7,3.198985196129872e-7,1.4531301329557794e-7,1.887825236039911e-8,5.049478204909672e-9,0
46696,7.383997209614883e-9,8.013349276025592e-9,6.838911966775282e-8,2.602914975900047e-7,3.208598288061899e-7,1.4549179143173854e-7,1.8862543003701377e-8,5.0464919132690025e-9,0
46697,7.379776350927171e-9,8.020762438340725e-9,6.80701855834588e-8,2.6026850935067723e-7,3.218211379993927e-7,1.4567056956789912e-7,1.884683364700364e-8,5.043505621628332e-9,0
46698,7.3755554922394584e-9,8.028175600655856e-9,6.77512514991648e-8,2.602455211113498e-7,3.227824471925954e-7,1.4584934770405973e-7,1.883112429030591e-8,5.040519329987662e-9,0
46699,7.371334633551745e-9,8.035588762970988e-9,6.743231741487077e-8,2.6022253287202233e-7,3.237437563857982e-7,1.4602812584022033e-7,1.8815414933608175e-8,5.037533038346992e-9,0
46700,7.367113774864033e-9,8.043001925286119e-9,6.711338333057675e-8,2.6019954463269486e-7,3.247050655790009e-7,1.4620690397638094e-7,1.8799705576910443e-8,5.034546746706322e-9,0
46701,7.362892916176321e-9,8.050415087601252e-9,6.679444924628274e-8,2.601765563933674e-7,3.2566637477220363e-7,1.4638568211254154e-7,1.8783996220212708e-8,5.031560455065652e-9,0
46702,7.358672057488609e-9,8.057828249916383e-9,6.647551516198872e-8,2.601535681540399e-7,3.266276839654064e-7,1.4656446024870215e-7,1.8768286863514976e-8,5.0285741634249815e-9,0
46703,7.4110244947003586e-9,8.185992959872781e-9,6.675626266722854e-8,2.6177915716064527e-7,3.269867251586361e-7,1.466221863122628e-7,1.874453477117871e-8,5.024835071811572e-9,0
46704,7.463376931912108e-9,8.314157669829181e-9,6.703701017246835e-8,2.634047461672506e-7,3.273457663518659e-7,1.4667991237582348e-7,1.872078267884244e-8,5.021095980198163e-9,0
46705,7.515729369123858e-9,8.44232237978558e-9,6.731775767770816e-8,2.65030335173856e-7,3.277048075450956e-7,1.4673763843938416e-7,1.869703058650617e-8,5.017356888584754e-9,0
46706,7.576024770593826e-9,8.565892624597355e-9,6.775250848363709e-8,2.6533393716630846e-7,3.253572987247209e-7,1.464551352916905e-7,1.8616979344700164e-8,5.006127159619381e-9,0
46707,7.636320172063792e-9,8.68946286940913e-9,6.818725928956601e-8,2.6563753915876093e-7,3.230097899043462e-7,1.4617263214399685e-7,1.8536928102894157e-8,4.99489743065401e-9,0
46708,7.69661557353376e-9,8.813033114220906e-9,6.862201009549494e-8,2.6594114115121335e-7,3.206622810839716e-7,1.4589012899630321e-7,1.845687686108815e-8,4.983667701688638e-9,0
46709,7.756910975003728e-9,8.936603359032681e-9,6.905676090142387e-8,2.662447431436658e-7,3.183147722635969e-7,1.4560762584860957e-7,1.8376825619282143e-8,4.972437972723266e-9,0
46710,7.817206376473694e-9,9.060173603844458e-9,6.949151170735279e-8,2.665483451361183e-7,3.1596726344322223e-7,1.4532512270091593e-7,1.8296774377476136e-8,4.961208243757894e-9,0
46711,7.877501777943662e-9,9.183743848656233e-9,6.992626251328171e-8,2.668519471285707e-7,3.1361975462284755e-7,1.450426195532223e-7,1.821672313567013e-8,4.9499785147925224e-9,0
46712,7.881223883514168e-9,9.178280275847947e-9,6.979011613614348e-8,2.655249362933089e-7,3.1232069242711954e-7,1.4463575020374104e-7,1.8135643044748095e-8,4.936880796786089e-9,0
46713,7.786671179472787e-9,9.17925507060137e-9,6.965396975900524e-8,2.649834076497724e-7,3.1338799913780005e-7,1.446099438726519e-7,1.813344567004308e-8,4.935012807745027e-9,0
46714,7.692118475431406e-9,9.180229865354793e-9,6.9517823381867e-8,2.6444187900623595e-7,3.144553058484805e-7,1.445841375415628e-7,1.8131248295338066e-8,4.933144818703965e-9,0
46715,7.597565771390025e-9,9.181204660108216e-9,6.938167700472876e-8,2.639003503626995e-7,3.1552261255916097e-7,1.445583312104737e-7,1.8129050920633052e-8,4.931276829662904e-9,0
46716,7.503013067348644e-9,9.182179454861639e-9,6.924553062759052e-8,2.63358821719163e-7,3.1658991926984143e-7,1.4453252487938458e-7,1.8126853545928038e-8,4.929408840621842e-9,0
46717,7.408460363307263e-9,9.183154249615062e-9,6.910938425045228e-8,2.6281729307562654e-7,3.176572259805219e-7,1.4450671854829549e-7,1.8124656171223023e-8,4.92754085158078e-9,0
46718,7.313907659265882e-9,9.184129044368485e-9,6.897323787331404e-8,2.6227576443209006e-7,3.1872453269120235e-7,1.4448091221720636e-7,1.812245879651801e-8,4.925672862539718e-9,0
46719,7.219354955224501e-9,9.185103839121908e-9,6.88370914961758e-8,2.617342357885536e-7,3.197918394018828e-7,1.4445510588611726e-7,1.8120261421812994e-8,4.923804873498657e-9,0
46720,7.12480225118312e-9,9.186078633875331e-9,6.870094511903756e-8,2.6119270714501707e-7,3.208591461125633e-7,1.4442929955502813e-7,1.811806404710798e-8,4.921936884457595e-9,0
46721,7.030249547141739e-9,9.187053428628754e-9,6.856479874189932e-8,2.606511785014806e-7,3.219264528232438e-7,1.4440349322393903e-7,1.8115866672402966e-8,4.920068895416533e-9,0
46722,6.935696843100358e-9,9.188028223382177e-9,6.842865236476109e-8,2.601096498579441e-7,3.2299375953392424e-7,1.443776868928499e-7,1.811366929769795e-8,4.918200906375471e-9,0
46723,6.8411441390589775e-9,9.1890030181356e-9,6.829250598762285e-8,2.5956812121440765e-7,3.240610662446047e-7,1.443518805617608e-7,1.8111471922992937e-8,4.9163329173344095e-9,0
46724,6.7465914350175965e-9,9.189977812889024e-9,6.815635961048461e-8,2.590265925708712e-7,3.2512837295528516e-7,1.4432607423067168e-7,1.8109274548287922e-8,4.9144649282933476e-9,0
46725,6.6520387309762154e-9,9.190952607642447e-9,6.802021323334637e-8,2.584850639273347e-7,3.261956796659656e-7,1.4430026789958258e-7,1.8107077173582908e-8,4.9125969392522856e-9,0
46726,6.5574860269348344e-9,9.19192740239587e-9,6.788406685620813e-8,2.5794353528379823e-7,3.2726298637664613e-7,1.4427446156849348e-7,1.8104879798877893e-8,4.910728950211224e-9,0
46727,6.453263265533559e-9,9.19836576995758e-9,6.771795020637471e-8,2.573864996976924e-7,3.271602996759047e-7,1.443516072629035e-7,1.8118767895449946e-8,4.911481750183963e-9,0
46728,6.4381894151660665e-9,9.16149559193105e-9,6.758145636779366e-8,2.549151612580525e-7,3.261990488354675e-7,1.442930437978061e-7,1.809764924517268e-8,4.900264475343735e-9,0
46729,6.423115564798575e-9,9.12462541390452e-9,6.744496252921262e-8,2.524438228184125e-7,3.2523779799503027e-7,1.4423448033270868e-7,1.807653059489541e-8,4.889047200503507e-9,0
46730,6.3606064425843425e-9,9.112353118988067e-9,6.745114654721436e-8,2.5253743393870083e-7,3.2549499910856746e-7,1.440185841814312e-7,1.8079101351191184e-8,4.8760733923935535e-9,0
46731,6.298097320370109e-9,9.100080824071617e-9,6.745733056521611e-8,2.526310450589892e-7,3.257522002221046e-7,1.438026880301537e-7,1.8081672107486963e-8,4.8630995842836e-9,0
46732,6.235588198155877e-9,9.087808529155167e-9,6.746351458321785e-8,2.5272465617927755e-7,3.2600940133564177e-7,1.435867918788762e-7,1.808424286378274e-8,4.8501257761736464e-9,0
46733,6.173079075941644e-9,9.075536234238715e-9,6.74696986012196e-8,2.528182672995659e-7,3.2626660244917896e-7,1.4337089572759872e-7,1.8086813620078514e-8,4.837151968063693e-9,0
46734,6.110569953727411e-9,9.063263939322265e-9,6.747588261922134e-8,2.529118784198542e-7,3.265238035627161e-7,1.4315499957632123e-7,1.808938437637429e-8,4.82417815995374e-9,0
46735,6.0480608315131785e-9,9.050991644405813e-9,6.74820666372231e-8,2.5300548954014254e-7,3.2678100467625327e-7,1.4293910342504374e-7,1.809195513267007e-8,4.811204351843787e-9,0
46736,5.985551709298946e-9,9.038719349489363e-9,6.748825065522483e-8,2.530991006604309e-7,3.2703820578979046e-7,1.4272320727376625e-7,1.8094525888965844e-8,4.798230543733833e-9,0
46737,5.923042587084713e-9,9.026447054572911e-9,6.749443467322659e-8,2.531927117807192e-7,3.272954069033276e-7,1.4250731112248876e-7,1.809709664526162e-8,4.78525673562388e-9,0
46738,5.86053346487048e-9,9.014174759656461e-9,6.750061869122832e-8,2.532863229010076e-7,3.2755260801686477e-7,1.4229141497121127e-7,1.8099667401557396e-8,4.772282927513927e-9,0
46739,5.798024342656248e-9,9.001902464740009e-9,6.750680270923008e-8,2.533799340212959e-7,3.2780980913040196e-7,1.4207551881993378e-7,1.8102238157853175e-8,4.759309119403974e-9,0
46740,5.7355152204420146e-9,8.989630169823559e-9,6.751298672723182e-8,2.5347354514158426e-7,3.280670102439391e-7,1.4185962266865629e-7,1.810480891414895e-8,4.74633531129402e-9,0
46741,5.673006098227782e-9,8.977357874907107e-9,6.751917074523357e-8,2.535671562618726e-7,3.2832421135747627e-7,1.416437265173788e-7,1.8107379670444726e-8,4.733361503184067e-9,0
46742,5.61049697601355e-9,8.965085579990657e-9,6.752535476323531e-8,2.536607673821609e-7,3.2858141247101346e-7,1.414278303661013e-7,1.8109950426740505e-8,4.7203876950741136e-9,0
46743,5.547987853799316e-9,8.952813285074205e-9,6.753153878123706e-8,2.5375437850244926e-7,3.288386135845506e-7,1.4121193421482381e-7,1.811252118303628e-8,4.7074138869641604e-9,0
46744,5.485478731585084e-9,8.940540990157755e-9,6.75377227992388e-8,2.5384798962273764e-7,3.2909581469808777e-7,1.4099603806354632e-7,1.8115091939332056e-8,4.6944400788542065e-9,0
46745,5.4229696093708515e-9,8.928268695241303e-9,6.754390681724055e-8,2.5394160074302597e-7,3.2935301581162496e-7,1.4078014191226883e-7,1.811766269562783e-8,4.681466270744253e-9,0
46746,5.360460487156618e-9,8.915996400324853e-9,6.755009083524229e-8,2.540352118633143e-7,3.296102169251621e-7,1.4056424576099134e-7,1.812023345192361e-8,4.6684924626343e-9,0
46747,5.297951364942386e-9,8.903724105408401e-9,6.755627485324404e-8,2.5412882298360264e-7,3.298674180386993e-7,1.4034834960971385e-7,1.8122804208219386e-8,4.655518654524347e-9,0
46748,5.235442242728153e-9,8.89145181049195e-9,6.75624588712458e-8,2.5422243410389097e-7,3.3012461915223646e-7,1.4013245345843636e-7,1.8125374964515162e-8,4.642544846414394e-9,0
46749,5.17293312051392e-9,8.879179515575499e-9,6.756864288924753e-8,2.543160452241793e-7,3.303818202657736e-7,1.3991655730715887e-7,1.8127945720810937e-8,4.62957103830444e-9,0
46750,5.173736878615372e-9,8.881000706511594e-9,6.752752230858087e-8,2.543642242148659e-7,3.290017730888557e-7,1.398908314954483e-7,1.8106482298835945e-8,4.625203056614772e-9,0
46751,5.1745406367168235e-9,8.88282189744769e-9,6.74864017279142e-8,2.5441240320555244e-7,3.276217259119377e-7,1.3986510568373773e-7,1.8085018876860953e-8,4.620835074925103e-9,0
46752,5.175344394818275e-9,8.884643088383785e-9,6.744528114724754e-8,2.54460582196239e-7,3.2624167873501976e-7,1.3983937987202713e-7,1.806355545488596e-8,4.616467093235435e-9,0
46753,5.176148152919727e-9,8.886464279319881e-9,6.740416056658087e-8,2.545087611869256e-7,3.2486163155810186e-7,1.3981365406031655e-7,1.804209203291097e-8,4.612099111545767e-9,0
46754,5.17810607977146e-9,8.885141841500992e-9,6.736035786033408e-8,2.5446575024303606e-7,3.241322767440549e-7,1.3979396159763959e-7,1.8020816668225643e-8,4.608855659518278e-9,0
46755,5.180064006623194e-9,8.883819403682104e-9,6.731655515408728e-8,2.544227392991466e-7,3.23402921930008e-7,1.3977426913496262e-7,1.799954130354032e-8,4.60561220749079e-9,0
46756,5.1886994721315816e-9,8.954702610453274e-9,6.729115060691321e-8,2.5478731014988614e-7,3.228630702517195e-7,1.3993509262593345e-7,1.7989534898314566e-8,4.602368755463302e-9,0
46757,5.197334937639968e-9,9.025585817224443e-9,6.726574605973915e-8,2.551518810006257e-7,3.22323218573431e-7,1.400959161169043e-7,1.7979528493088816e-8,4.5991253034358136e-09,0
46758,5.205970403148355e-9,9.096469023995613e-9,6.724034151256508e-8,2.5551645185136525e-7,3.2178336689514245e-7,1.4025673960787514e-7,1.7969522087863066e-8,4.5958818514083244e-9,0
46759,5.214605868656742e-9,9.167352230766783e-9,6.721493696539102e-8,2.558810227021048e-7,3.2124351521685396e-7,1.40417563098846e-7,1.7959515682637316e-8,4.592638399380836e-9,0
46760,5.223241334165129e-9,9.238235437537951e-9,6.718953241821695e-8,2.5624559355284436e-7,3.2070366353856547e-7,1.4057838658981683e-7,1.7949509277411563e-8,4.589394947353348e-9,0
46761,5.231876799673516e-9,9.309118644309121e-9,6.716412787104289e-8,2.566101644035839e-7,3.20163811860277e-7,1.407392100807877e-7,1.7939502872185813e-8,4.58615149532586e-9,0
46762,5.240512265181903e-9,9.380001851080291e-9,6.713872332386882e-8,2.5697473525432347e-7,3.196239601819885e-7,1.4090003357175853e-7,1.7929496466960063e-8,4.582908043298371e-9,0
46763,5.2471898038385555e-9,9.447499473120772e-9,6.714230216375668e-8,2.5716929550002954e-7,3.205393387778793e-7,1.4100253468873788e-7,1.7768464628854002e-8,4.5728152981203235e-9,0
46764,5.253867342495209e-9,9.514997095161252e-9,6.714588100364456e-8,2.573638557457356e-7,3.214547173737701e-7,1.4110503580571723e-7,1.7607432790747944e-8,4.562722552942275e-9,0
46765,5.260544881151862e-9,9.582494717201732e-9,6.714945984353242e-8,2.5755841599144164e-7,3.223700959696609e-7,1.4120753692269656e-7,1.7446400952641883e-8,4.552629807764227e-9,0
46766,5.2672224198085155e-9,9.649992339242212e-9,6.715303868342029e-8,2.577529762371477e-7,3.2328547456555164e-7,1.4131003803967591e-7,1.7285369114535822e-8,4.5425370625861786e-9,0
46767,5.273899958465168e-9,9.717489961282692e-9,6.715661752330815e-8,2.5794753648285374e-7,3.2420085316144244e-7,1.4141253915665527e-7,1.7124337276429765e-8,4.532444317408131e-9,0
46768,5.280577497121821e-9,9.784987583323173e-9,6.716019636319601e-8,2.581420967285598e-7,3.2511623175733325e-7,1.4151504027363462e-7,1.6963305438323704e-8,4.522351572230082e-9,0
46769,5.278656655887182e-9,9.780279560773595e-9,6.71415090522025e-8,2.579720861235263e-7,3.2556167664376463e-7,1.4143437063262306e-7,1.678598576670439e-8,4.511385230714101e-9,0
46770,5.282609595207744e-9,9.781035111032304e-9,6.713623236910965e-8,2.5776102329713525e-7,3.2527258029086867e-7,1.4136263023609408e-7,1.6606810759089212e-8,4.501912035018454e-9,0
46771,5.238838897792303e-9,9.788864050855874e-9,6.692931875559193e-8,2.581524430622124e-7,3.2419075138702366e-7,1.412644085467854e-7,1.6573548281655827e-8,4.497544053328785e-9,0
46772,5.229234691619105e-9,9.79895267060497e-9,6.69536250046049e-8,2.5872855688046205e-7,3.245380528808095e-7,1.412398734878177e-7,1.6540285804222442e-8,4.476339262019274e-9,0
46773,5.219630485445906e-9,9.809041290354064e-9,6.697793125361787e-8,2.5930467069871176e-7,3.248853543745953e-7,1.4121533842885005e-7,1.6507023326789057e-8,4.455134470709763e-9,0
46774,5.210026279272708e-9,9.819129910103158e-9,6.700223750263084e-8,2.598807845169614e-7,3.2523265586838115e-7,1.4119080336988236e-7,1.6473760849355672e-8,4.433929679400251e-9,0
46775,5.200422073099509e-9,9.829218529852252e-9,6.702654375164381e-8,2.6045689833521113e-7,3.2557995736216697e-7,1.4116626831091467e-7,1.6440498371922288e-8,4.4127248880907395e-9,0
46776,5.1908178669263105e-9,9.839307149601346e-9,6.705085000065678e-8,2.610330121534608e-7,3.259272588559528e-7,1.4114173325194698e-7,1.6407235894488903e-8,4.391520096781228e-9,0
46777,5.181213660753112e-9,9.84939576935044e-9,6.707515624966974e-8,2.616091259717105e-7,3.2627456034973863e-7,1.411171981929793e-7,1.6373973417055518e-8,4.370315305471717e-9,0
46778,5.171609454579913e-9,9.859484389099534e-9,6.709946249868271e-8,2.6218523978996017e-7,3.2662186184352445e-7,1.410926631340116e-7,1.6340710939622133e-8,4.349110514162205e-9,0
46779,5.1620052484067155e-9,9.869573008848629e-9,6.712376874769568e-8,2.627613536082099e-7,3.269691633373103e-7,1.410681280750439e-7,1.6307448462188748e-8,4.327905722852694e-9,0
46780,5.152401042233517e-9,9.879661628597723e-9,6.714807499670865e-8,2.6333746742645954e-7,3.273164648310961e-7,1.4104359301607622e-7,1.6274185984755366e-8,4.306700931543183e-9,0
46781,5.142796836060318e-9,9.889750248346819e-9,6.717238124572162e-8,2.6391358124470925e-7,3.2766376632488194e-7,1.4101905795710853e-7,1.624092350732198e-8,4.2854961402336706e-9,0
46782,5.12863800064556e-9,9.880644293666341e-9,6.716958770761364e-8,2.637442871324142e-7,3.280261248559663e-7,1.4104294979510734e-7,1.6195879012365294e-8,4.2772651570341125e-9,0
46783,5.098667407948555e-9,9.877825596495833e-9,6.718269856299235e-8,2.635057296107021e-7,3.278070750953363e-7,1.4106684163310615e-7,1.6159110958164942e-8,4.257184895386781e-9,0
46784,5.075023943259373e-9,9.876918936185382e-9,6.720170688771014e-8,2.634609506999641e-7,3.2767438641577284e-7,1.410373029390907e-7,1.6125848480731557e-8,4.237724183221852e-9,0
46785,5.051380478570191e-9,9.876012275874931e-9,6.722071521242792e-8,2.6341617178922606e-7,3.275416977362093e-7,1.4100776424507522e-7,1.6092586003298172e-8,4.218263471056921e-9,0
46786,5.04884130731957e-9,9.853530832953831e-9,6.684970120274796e-8,2.6359936771492824e-7,3.2756741174244714e-7,1.4101978263151532e-7,1.6104368020821474e-8,4.217510671084182e-9,0
46787,5.04630213606895e-9,9.83104939003273e-9,6.647868719306799e-8,2.6378256364063037e-7,3.275931257486849e-7,1.410318010179554e-7,1.6116150038344773e-8,4.216757871111443e-9,0
46788,5.036817506794525e-9,9.738311892028417e-9,6.618323959094546e-8,2.6383350810439985e-7,3.276400649831056e-7,1.4051449694512784e-7,1.607611011249525e-8,4.210401104015518e-9,0
46789,5.027332877520101e-9,9.645574394024104e-9,6.588779198882294e-8,2.6388445256816933e-7,3.2768700421752635e-7,1.3999719287230027e-7,1.6036070186645726e-8,4.204044336919594e-9,0
46790,5.017848248245677e-9,9.552836896019791e-9,6.559234438670041e-8,2.639353970319388e-7,3.27733943451947e-7,1.394798887994727e-7,1.5996030260796206e-8,4.197687569823669e-9,0
46791,5.008363618971252e-9,9.460099398015478e-9,6.529689678457787e-8,2.639863414957083e-7,3.2778088268636775e-7,1.3896258472664513e-7,1.5955990334946683e-8,4.191330802727744e-9,0
46792,4.998878989696828e-9,9.367361900011165e-9,6.500144918245535e-8,2.6403728595947776e-7,3.278278219207885e-7,1.3844528065381754e-7,1.591595040909716e-8,4.18497403563182e-9,0
46793,4.989394360422403e-9,9.274624402006852e-9,6.470600158033282e-8,2.6408823042324724e-7,3.2787476115520915e-7,1.3792797658098997e-7,1.5875910483247636e-8,4.178617268535895e-9,0
46794,4.979909731147979e-9,9.18188690400254e-9,6.441055397821029e-8,2.6413917488701677e-7,3.279217003896299e-7,1.374106725081624e-7,1.5835870557398113e-8,4.1722605014399705e-9,0
46795,4.970425101873555e-9,9.089149405998225e-9,6.411510637608777e-8,2.6419011935078625e-7,3.279686396240506e-7,1.3689336843533483e-7,1.5795830631548593e-8,4.165903734344046e-9,0
46796,4.96094047259913e-9,8.996411907993912e-9,6.381965877396523e-8,2.642410638145557e-7,3.2801557885847133e-7,1.3637606436250725e-7,1.575579070569907e-8,4.159546967248121e-9,0
46797,4.951455843324706e-9,8.903674409989599e-9,6.35242111718427e-8,2.642920082783252e-7,3.28062518092892e-7,1.3585876028967968e-7,1.5715750779849546e-8,4.1531902001521965e-9,0
46798,4.941971214050281e-9,8.810936911985286e-9,6.322876356972017e-8,2.643429527420947e-7,3.2810945732731273e-7,1.3534145621685211e-7,1.5675710854000023e-8,4.146833433056272e-9,0
46799,4.932486584775857e-9,8.718199413980973e-9,6.293331596759765e-8,2.6439389720586416e-7,3.2815639656173345e-7,1.3482415214402454e-7,1.56356709281505e-8,4.140476665960347e-9,0
46800,4.923001955501432e-9,8.62546191597666e-9,6.263786836547512e-8,2.6444484166963364e-7,3.2820333579615413e-7,1.3430684807119697e-7,1.559563100230098e-8,4.134119898864423e-9,0
46801,4.913517326227008e-9,8.532724417972348e-9,6.234242076335258e-8,2.644957861334031e-7,3.2825027503057485e-7,1.337895439983694e-7,1.5555591076451456e-8,4.127763131768498e-9,0
46802,4.904032696952584e-9,8.439986919968035e-9,6.204697316123006e-8,2.645467305971726e-7,3.282972142649956e-7,1.332722399255418e-7,1.5515551150601933e-8,4.121406364672573e-9,0
46803,4.894548067678159e-9,8.347249421963722e-9,6.175152555910753e-8,2.6459767506094207e-7,3.283441534994163e-7,1.3275493585271424e-7,1.547551122475241e-8,4.115049597576649e-9,0
46804,4.885063438403735e-9,8.254511923959409e-9,6.1456077956985e-8,2.6464861952471155e-7,3.28391092733837e-7,1.3223763177988667e-7,1.5435471298902886e-8,4.108692830480724e-9,0
46805,4.870212101738808e-9,8.156938004834768e-9,6.120818964039007e-8,2.645117973988512e-7,3.291701516240326e-7,1.3184696222017287e-7,1.5391925796286395e-8,4.103088863357539e-9,0
46806,4.855434936308069e-9,8.064200506830455e-9,6.088925555609605e-8,2.645224517299375e-7,3.2950323078366286e-7,1.313121212688645e-7,1.5336051142212695e-8,4.094988017117033e-9,0
46807,4.850327828237225e-9,8.047031526665898e-9,6.076080007691235e-8,2.6388966150601066e-7,3.2971191500188197e-7,1.3090885591833364e-7,1.5286953936555133e-8,4.0689196045319314e-9,0
46808,4.850401999471413e-9,8.0461248663554475e-09,6.074641318397959e-8,2.6247765607532015e-7,3.2971191500188197e-7,1.3060027314069358e-7,1.524460556942067e-8,4.059313158345947e-9,0
46809,4.8511686719557705e-9,8.052178038204905e-9,6.0736682187893475e-08,2.6261603680034743e-7,3.296923710978908e-7,1.305203442779645e-7,1.5243639406067868e-8,4.0594370682424275e-9,0
46810,4.851935344440128e-9,8.058231210054361e-9,6.072695119180736e-8,2.627544175253747e-7,3.2967282719389966e-7,1.3044041541523542e-7,1.5242673242715065e-8,4.059560978138908e-9,0
46811,4.852702016924486e-9,8.064284381903818e-9,6.071722019572123e-8,2.62892798250402e-7,3.296532832899085e-7,1.3036048655250636e-7,1.524170707936226e-8,4.0596848880353876e-9,0
46812,4.853468689408843e-9,8.070337553753274e-9,6.070748919963512e-8,2.6303117897542925e-7,3.2963373938591735e-7,1.3028055768977727e-7,1.5240740916009458e-8,4.059808797931868e-9,0
46813,4.854235361893201e-9,8.076390725602732e-9,6.0697758203549e-8,2.631695597004565e-7,3.296141954819262e-7,1.302006288270482e-7,1.5239774752656656e-8,4.0599327078283485e-9,0
46814,4.8550020343775585e-9,8.082443897452188e-9,6.068802720746288e-8,2.633079404254838e-7,3.2959465157793504e-7,1.3012069996431914e-7,1.5238808589303853e-8,4.060056617724829e-9,0
46815,4.855768706861916e-9,8.088497069301644e-9,6.067829621137677e-8,2.6344632115051107e-7,3.295751076739439e-7,1.3004077110159004e-7,1.523784242595105e-8,4.060180527621309e-9,0
46816,4.856535379346274e-9,8.0945502411511e-9,6.066856521529065e-8,2.6358470187553835e-7,3.2955556376995273e-7,1.2996084223886098e-7,1.523687626259825e-8,4.060304437517789e-9,0
46817,4.857302051830631e-9,8.100603413000558e-9,6.065883421920454e-8,2.637230826005656e-7,3.295360198659616e-7,1.298809133761319e-7,1.5235910099245444e-8,4.0604283474142695e-9,0
46818,4.858068724314989e-9,8.106656584850014e-9,6.064910322311841e-8,2.638614633255929e-7,3.295164759619705e-7,1.2980098451340282e-7,1.523494393589264e-8,4.06055225731075e-9,0
46819,4.858835396799346e-9,8.11270975669947e-9,6.06393722270323e-8,2.6399984405062017e-7,3.294969320579793e-7,1.2972105565067373e-7,1.523397777253984e-8,4.06067616720723e-9,0
46820,4.803482120836862e-9,8.080071559586303e-9,6.059849571262365e-8,2.626272038262522e-7,3.272916012686317e-7,1.290893921791244e-7,1.5113624289873473e-8,3.990863184923396e-9,0
46821,4.74812884487438e-9,8.047433362473133e-9,6.0557619198215e-8,2.612545636018842e-7,3.2508627047928404e-7,1.2845772870757508e-7,1.4993270807207107e-8,3.921050202639562e-9,0
46822,4.692775568911896e-9,8.014795165359966e-9,6.051674268380637e-8,2.5988192337751624e-7,3.228809396899364e-7,1.2782606523602575e-7,1.4872917324540742e-8,3.851237220355728e-9,0
46823,4.637422292949413e-9,7.982156968246796e-9,6.047586616939772e-8,2.5850928315314826e-7,3.2067560890058876e-7,1.2719440176447642e-7,1.4752563841874375e-8,3.781424238071894e-9,0
46824,4.5820690169869295e-9,7.949518771133629e-9,6.043498965498907e-8,2.571366429287803e-7,3.184702781112411e-7,1.265627382929271e-7,1.4632210359208009e-8,3.71161125578806e-9,0
46825,4.53182284909529e-9,7.912648593107099e-9,6.041170215341285e-8,2.558814181205781e-7,3.160828820837265e-7,1.2593985913097903e-7,1.451288572565767e-8,3.642922803166406e-9,0
46826,4.481576681203651e-9,7.875778415080569e-9,6.038841465183662e-8,2.5462619331237596e-7,3.1369548605621185e-7,1.2531697996903093e-7,1.439356109210733e-8,3.5742343505447523e-9,0
46827,4.431330513312011e-9,7.834940923597375e-9,6.03492227567737e-8,2.53100064609717e-7,3.1120059164211186e-7,1.246807310961725e-7,1.4274173772793765e-8,3.5087893499505868e-9,0
46828,4.381084345420372e-9,7.79410343211418e-9,6.031003086171078e-8,2.5157393590705805e-7,3.087056972280118e-7,1.2404448222331407e-7,1.4154786453480203e-8,3.443344349356421e-9,0
46829,4.3869952115926674e-9,7.794254542165922e-9,6.031290134728501e-8,2.513801572960839e-7,3.0754334712940803e-7,1.2404202066547944e-7,1.4143642865547073e-8,3.44783624094257e-9,0
46830,4.392906077764962e-9,7.794405652217664e-9,6.031577183285924e-8,2.511863786851098e-7,3.0638099703080424e-7,1.2403955910764482e-7,1.4132499277613944e-8,3.4523281325287184e-9,0
46831,4.398816943937258e-9,7.794556762269406e-9,6.031864231843347e-8,2.5099260007413567e-7,3.052186469322004e-7,1.240370975498102e-7,1.4121355689680815e-8,3.456820024114867e-9,0
46832,4.404727810109554e-9,7.794707872321146e-9,6.03215128040077e-8,2.5079882146316154e-7,3.040562968335966e-7,1.240346359919756e-7,1.4110212101747685e-8,3.461311915701016e-9,0
46833,4.4106386762818495e-9,7.794858982372888e-9,6.032438328958192e-8,2.506050428521874e-7,3.0289394673499283e-7,1.2403217443414097e-7,1.4099068513814558e-8,3.465803807287165e-9,0
46834,4.416549542454145e-9,7.79501009242463e-9,6.032725377515615e-8,2.504112642412133e-7,3.01731596636389e-7,1.2402971287630635e-7,1.4087924925881429e-8,3.4702956988733136e-9,0
46835,4.42246040862644e-9,7.795161202476372e-9,6.033012426073038e-8,2.5021748563023916e-7,3.005692465377852e-7,1.2402725131847172e-7,1.40767813379483e-8,3.4747875904594624e-9,0
46836,4.428371274798736e-9,7.795312312528114e-9,6.033299474630462e-8,2.5002370701926504e-7,2.994068964391814e-7,1.240247897606371e-7,1.406563775001517e-8,3.4792794820456108e-09,0
46837,4.434282140971032e-9,7.795463422579855e-9,6.033586523187885e-8,2.498299284082909e-7,2.982445463405776e-7,1.2402232820280247e-7,1.405449416208204e-8,3.4837713736317596e-9,0
46838,4.440193007143327e-9,7.795614532631597e-9,6.033873571745308e-8,2.496361497973168e-7,2.970821962419738e-7,1.2401986664496785e-7,1.4043350574148913e-8,3.4882632652179084e-9,0
46839,4.44092259401059e-9,7.79658932738502e-9,6.038588381793089e-8,2.4944237118634266e-7,2.95838939865332e-7,1.2401846700887047e-7,1.403529353356386e-8,3.489511704776569e-9,0
46840,4.441652180877854e-9,7.797564122138443e-9,6.04330319184087e-8,2.4924859257536853e-7,2.9459568348869017e-7,1.2401706737277308e-7,1.4027236492978806e-8,3.490760144335229e-9,0
46841,4.442381767745117e-9,7.798538916891866e-9,6.04801800188865e-8,2.490548139643944e-7,2.9335242711204836e-7,1.240156677366757e-7,1.4019179452393753e-8,3.4920085838938896e-9,0
46842,4.443111354612381e-9,7.79951371164529e-9,6.05273281193643e-8,2.488610353534203e-7,2.9210917073540654e-7,1.2401426810057831e-7,1.40111224118087e-8,3.49325702345255e-9,0
46843,4.443840941479644e-9,7.800488506398712e-9,6.057447621984211e-8,2.4866725674244615e-7,2.908659143587648e-7,1.2401286846448093e-7,1.4003065371223646e-8,3.4945054630112106e-9,0
46844,4.432452111065564e-9,7.786281463141212e-9,6.058585737021235e-8,2.47061898874025e-7,2.8895125949457266e-7,1.240113561012536e-7,1.3977115904182363e-8,3.4720709133307537e-9,0
46845,4.427270831760532e-9,7.766550582947647e-9,6.056906427976098e-8,2.4703113064650476e-7,2.8888762451079676e-7,1.238503872083717e-7,1.3770988457314343e-8,3.4226850141334048e-9,0
46846,4.422089552455499e-9,7.746819702754082e-9,6.055227118930962e-8,2.470003624189845e-7,2.8882398952702086e-7,1.236894183154898e-7,1.3564861010446321e-8,3.373299114936056e-9,0
46847,4.416215771900298e-9,7.726114027807093e-9,6.048745452527504e-8,2.469756062128085e-7,2.88835614432296e-7,1.2368859701782878e-7,1.335491455799522e-8,3.322788686076527e-9,0
46848,4.410341991345096e-9,7.705408352860106e-9,6.042263786124046e-8,2.4695085000663257e-7,2.8884723933757115e-7,1.2368777572016776e-7,1.3144968105544118e-8,3.272278257216998e-9,0
46849,4.404468210789895e-9,7.684702677913118e-9,6.035782119720587e-8,2.469260938004566e-7,2.8885886424284627e-7,1.2368695442250674e-7,1.2935021653093018e-8,3.221767828357469e-9,0
46850,4.398594430234694e-9,7.66399700296613e-9,6.029300453317129e-8,2.4690133759428065e-7,2.888704891481214e-7,1.2368613312484571e-7,1.2725075200641916e-8,3.17125739949794e-9,0
46851,4.392720649679492e-9,7.643291328019143e-9,6.022818786913671e-8,2.4687658138810466e-7,2.8888211405339656e-7,1.2368531182718466e-7,1.2515128748190814e-8,3.120746970638411e-9,0
46852,4.386846869124291e-9,7.622585653072155e-9,6.016337120510214e-8,2.468518251819287e-7,2.8889373895867167e-7,1.2368449052952364e-7,1.2305182295739712e-8,3.070236541778882e-9,0
46853,4.3809730885690896e-9,7.601879978125166e-9,6.009855454106756e-8,2.4682706897575273e-7,2.889053638639468e-7,1.2368366923186262e-7,1.209523584328861e-8,3.0197261129193525e-9,0
46854,4.375099308013888e-9,7.58117430317818e-9,6.003373787703298e-8,2.4680231276957674e-7,2.8891698876922196e-7,1.236828479342016e-7,1.1885289390837509e-8,2.9692156840598235e-9,0
46855,4.3692255274586865e-9,7.560468628231191e-9,5.99689212129984e-8,2.467775565634008e-7,2.889286136744971e-7,1.2368202663654057e-7,1.1675342938386407e-8,2.9187052552002945e-09,0
46856,4.363351746903485e-9,7.539762953284203e-9,5.990410454896382e-8,2.467528003572248e-7,2.889402385797722e-7,1.2368120533887952e-7,1.1465396485935307e-8,2.8681948263407656e-9,0
46857,4.357477966348283e-9,7.519057278337216e-9,5.983928788492923e-8,2.467280441510489e-7,2.889518634850473e-7,1.236803840412185e-7,1.1255450033484205e-8,2.8176843974812366e-9,0
46858,4.351604185793082e-9,7.498351603390228e-9,5.977447122089466e-8,2.467032879448729e-7,2.889634883903225e-7,1.2367956274355748e-7,1.1045503581033103e-8,2.7671739686217076e-9,0
46859,4.34573040523788e-9,7.477645928443241e-9,5.970965455686008e-8,2.4667853173869696e-7,2.889751132955976e-7,1.2367874144589645e-7,1.0835557128582001e-8,2.7166635397621786e-9,0
46860,4.339856624682679e-9,7.456940253496253e-9,5.96448378928255e-8,2.4665377553252097e-7,2.889867382008727e-7,1.236779201482354e-7,1.06256106761309e-8,2.666153110902649e-9,0
46861,4.333982844127478e-9,7.436234578549264e-9,5.958002122879092e-8,2.46629019326345e-7,2.889983631061479e-7,1.2367709885057438e-7,1.0415664223679798e-8,2.6156426820431202e-9,0
46862,4.330029904806916e-9,7.416201478252216e-9,5.955038259042118e-8,2.4727975722461106e-7,2.889830868243546e-7,1.2352496257892085e-7,1.0205749114110308e-8,2.5662567828457713e-9,0
46863,4.3248486255018836e-9,7.445257557620972e-9,5.9515069307768064e-8,2.473467902039993e-7,2.8930215558617413e-7,1.2336399368603895e-7,9.996597805657433e-9,2.5156224440897623e-9,0
46864,4.323509028666131e-9,7.45384204770325e-9,5.951694228710788e-8,2.453511868561229e-7,2.886537135712835e-7,1.2338088687652118e-7,9.984268654200224e-9,2.5143740045311017e-9,0
46865,4.322169431830378e-9,7.462426537785529e-9,5.9518815266447696e-8,2.433555835082465e-7,2.8800527155639286e-7,1.2339778006700338e-7,9.971939502743012e-9,2.5131255649724412e-9,0
46866,4.307318095165451e-9,7.398503163174267e-9,5.901863482001228e-8,2.4047503766469835e-7,2.83804446072762e-7,1.2176999576138055e-7,9.881616807711845e-9,2.4815708680980633e-9,0
46867,4.2924667585005244e-9,7.334579788563004e-9,5.8518454373576874e-8,2.3759449182115017e-7,2.7960362058913115e-7,1.2014221145575769e-07,9.791294112680678e-9,2.450016171223686e-9,0
46868,4.277615421835597e-9,7.270656413951741e-9,5.801827392714146e-8,2.34713945977602e-7,2.7540279510550025e-7,1.1851442715013484e-7,9.700971417649511e-9,2.418461474349308e-9,0
46869,4.26276408517067e-9,7.206733039340479e-9,5.7518093480706046e-8,2.3183340013405382e-7,2.712019696218694e-7,1.16886642844512e-7,9.610648722618344e-9,2.38690677747493e-9,0
46870,4.247912748505743e-9,7.142809664729216e-9,5.701791303427063e-8,2.2895285429050567e-7,2.6700114413823855e-7,1.1525885853888915e-7,9.520326027587176e-9,2.355352080600552e-9,0
46871,4.233061411840815e-9,7.078886290117953e-9,5.651773258783522e-8,2.260723084469575e-7,2.6280031865460764e-7,1.136310742332663e-7,9.43000333255601e-9,2.323797383726174e-9,0
46872,4.218210075175889e-9,7.014962915506691e-9,5.6017552141399804e-8,2.2319176260340932e-7,2.585994931709768e-7,1.1200328992764345e-7,9.339680637524842e-9,2.2922426868517966e-9,0
46873,4.203358738510962e-9,6.951039540895428e-9,5.551737169496439e-8,2.2031121675986117e-7,2.5439866768734594e-7,1.103755056220206e-7,9.249357942493675e-9,2.2606879899774187e-9,0
46874,4.188507401846034e-9,6.887116166284165e-9,5.5017191248528976e-8,2.17430670916313e-7,2.5019784220371503e-7,1.0874772131639776e-7,9.159035247462508e-9,2.229133293103041e-9,0
46875,4.173656065181107e-9,6.823192791672903e-9,5.451701080209356e-8,2.1455012507276484e-7,2.459970167200842e-7,1.0711993701077491e-7,9.06871255243134e-9,2.197578596228663e-9,0
46876,4.174348566431276e-9,6.831777281755181e-9,5.4361686378187664e-8,2.143657492570845e-7,2.4556320326004627e-7,1.0572696880010231e-7,9.026364185296877e-9,2.193086704642514e-9,0
46877,4.1750410676814455e-9,6.84036177183746e-9,5.4206361954281766e-8,2.1418137344140418e-7,2.4512938980000836e-7,1.0433400058942971e-7,8.984015818162413e-9,2.1885948130563653e-9,0
46878,4.175733568931615e-9,6.848946261919738e-9,5.405103753037586e-8,2.1399699762572383e-7,2.4469557633997044e-7,1.0294103237875713e-7,8.94166745102795e-9,2.184102921470217e-9,0
46879,4.176426070181784e-9,6.857530752002016e-9,5.389571310646996e-8,2.138126218100435e-7,2.4426176287993253e-7,1.0154806416808453e-7,8.899319083893486e-9,2.179611029884068e-9,0
46880,4.177118571431953e-9,6.8661152420842955e-9,5.374038868256406e-8,2.1362824599436319e-7,2.438279494198946e-7,1.0015509595741193e-7,8.856970716759023e-9,2.1751191382979193e-9,0
46881,4.177811072682123e-9,6.874699732166574e-9,5.358506425865816e-8,2.1344387017868284e-7,2.433941359598567e-7,9.876212774673933e-8,8.81462234962456e-9,2.1706272467117705e-9,0
46882,4.1785035739322925e-9,6.883284222248852e-9,5.342973983475226e-8,2.1325949436300252e-7,2.429603224998188e-7,9.736915953606673e-8,8.772273982490097e-9,2.1661353551256217e-9,0
46883,4.178235654565142e-9,6.882611647598913e-9,5.327658816270812e-8,2.1309206684730814e-7,2.425036024874062e-7,9.594893704658053e-8,8.736081672116694e-9,2.1617673734359533e-9,0
46884,4.193779492480238e-9,6.8860574964573795e-9,5.3119390759462406e-8,2.1292959057284897e-7,2.4204379742387024e-7,9.452871455709432e-8,8.696024708332078e-9,2.157650325070531e-9,0
46885,4.2179421558087376e-09,6.883389909338612e-9,5.258909155948427e-8,2.0908046060592334e-7,2.420302228166552e-7,9.24928379414959e-8,8.6919719976312e-9,2.144676516960578e-9,0
46886,4.2421048191372374e-9,6.8807223222198444e-9,5.205879235950613e-8,2.0523133063899768e-7,2.4201664820944013e-7,9.045696132589749e-8,8.687919286930322e-9,2.1317027088506245e-9,0
46887,4.266267482465738e-9,6.878054735101077e-9,5.152849315952799e-8,2.0138220067207203e-7,2.4200307360222507e-7,8.842108471029907e-8,8.683866576229444e-9,2.1187289007406714e-9,0
46888,4.290430145794238e-9,6.875387147982309e-9,5.099819395954986e-8,1.975330707051464e-7,2.4198949899501e-7,8.638520809470067e-8,8.679813865528564e-9,2.105755092630718e-9,0
46889,4.314592809122738e-9,6.872719560863542e-9,5.0467894759571725e-8,1.9368394073822074e-7,2.4197592438779496e-7,8.434933147910226e-8,8.675761154827686e-9,2.0927812845207648e-9,0
