time,channel1,channel2,channel3,channel4,channel5,channel6,channel7,channel8,class
41625,2.597024089845413e-9,3.190614052834922e-9,7.688530654854755e-9,2.3681617889388718e-8,4.86649311830945e-7,1.19476867010024e-7,1.18998158261211e-8,6.667168309871322e-9,0
41626,2.5914429507598506e-9,3.1902923468355255e-9,7.667260467172641e-9,2.387764997926538e-8,4.905485500346997e-7,1.1976065491218677e-7,1.1850980365731075e-8,6.598481111232657e-9,0
41627,2.585861811674288e-9,3.1899706408361293e-9,7.64599027949053e-9,2.407368206914204e-8,4.944477882384545e-7,1.2004444281434957e-7,1.1802144905341053e-8,6.529793912593992e-9,0
41628,2.5802806725887254e-9,3.1896489348367327e-9,7.624720091808416e-9,2.4269714159018706e-8,4.983470264422092e-7,1.2032823071651237e-7,1.175330944495103e-8,6.461106713955327e-9,0
41629,2.574699533503163e-9,3.1893272288373365e-9,7.603449904126304e-9,2.4465746248895368e-8,5.02246264645964e-7,1.2061201861867517e-7,1.1704473984561007e-8,6.392419515316661e-9,0
41630,2.5691183944176002e-9,3.18900552283794e-9,7.58217971644419e-9,2.4661778338772033e-8,5.061455028497187e-7,1.2089580652083798e-7,1.1655638524170984e-8,6.323732316677996e-9,0
41631,2.5635372553320376e-9,3.1886838168385433e-9,7.560909528762079e-9,2.4857810428648695e-8,5.100447410534735e-7,1.2117959442300075e-7,1.1606803063780962e-8,6.255045118039331e-9,0
41632,2.5726236543156367e-9,3.207001120352672e-9,7.555733618546543e-9,2.4972486276466918e-8,5.105384218207126e-7,1.211740043410424e-7,1.1578058454668836e-8,6.203287128796796e-9,0
41633,2.5817100532992357e-9,3.2253184238668007e-9,7.550557708331008e-9,2.508716212428514e-8,5.110321025879518e-7,1.2116841425908404e-7,1.1549313845556711e-8,6.1515291395542605e-9,0
41634,2.576128914213673e-9,3.2261631741605723e-9,7.54538179811547e-9,2.5126452279799624e-8,5.124576581626878e-7,1.2181613529803812e-7,1.1516031267643046e-8,6.085185092299883e-9,0
41635,2.5705477751281105e-9,3.2270079244543443e-9,7.540205887899935e-9,2.5165742435314103e-8,5.13883213737424e-7,1.2246385633699217e-7,1.1482748689729378e-8,6.0188410450455056e-9,0
41636,2.564966636042548e-9,3.2278526747481163e-9,7.5350299776844e-9,2.5205032590828582e-8,5.153087693121601e-7,1.2311157737594625e-7,1.1449466111815713e-8,5.952496997791129e-9,0
41637,2.5658657904612794e-9,3.2298557842760002e-9,7.552708612681492e-9,2.5104523163640855e-8,5.16680662486181e-7,1.236412408157758e-7,1.1450302354509254e-8,5.9473304558284045e-9,0
41638,2.5667649448800104e-9,3.231858893803884e-9,7.570387247678585e-9,2.5004013736453128e-8,5.18052555660202e-7,1.2417090425560532e-7,1.1451138597202797e-8,5.94216391386568e-9,0
41639,2.5676640992987418e-9,3.2338620033317686e-9,7.588065882675676e-9,2.49035043092654e-8,5.194244488342229e-7,1.2470056769543485e-7,1.1451974839896338e-8,5.9369973719029564e-9,0
41640,2.568563253717473e-9,3.2358651128596526e-9,7.605744517672768e-9,2.480299488207767e-8,5.207963420082439e-7,1.2523023113526437e-7,1.145281108258988e-8,5.931830829940232e-9,0
41641,2.5694624081362046e-9,3.2378682223875365e-9,7.62342315266986e-9,2.4702485454889943e-8,5.221682351822648e-7,1.257598945750939e-7,1.1453647325283422e-8,5.926664287977508e-9,0
41642,2.570361562554936e-9,3.239871331915421e-9,7.641101787666952e-9,2.4601976027702216e-8,5.235401283562857e-7,1.2628955801492344e-7,1.1454483567976965e-8,5.921497746014784e-9,0
41643,2.571260716973667e-9,3.241874441443305e-9,7.658780422664043e-9,2.4501466600514485e-8,5.249120215303066e-7,1.2681922145475296e-7,1.1455319810670506e-8,5.9163312040520596e-9,0
41644,2.5721598713923985e-9,3.243877550971189e-9,7.676459057661135e-9,2.4400957173326758e-8,5.262839147043276e-7,1.2734888489458248e-7,1.1456156053364047e-8,5.911164662089335e-9,0
41645,2.57305902581113e-9,3.245880660499073e-9,7.694137692658226e-9,2.430044774613903e-8,5.276558078783485e-7,1.27878548334412e-7,1.145699229605759e-8,5.9059981201266115e-9,0
41646,2.5679696458039804e-9,3.2442154510886975e-9,7.708010620865903e-9,2.4366573716889603e-8,5.291328405233461e-7,1.2852277548001767e-7,1.1441882130301343e-8,5.901659956273495e-9,0
41647,2.562880265796831e-9,3.242550241678322e-9,7.721883549073579e-9,2.4432699687640178e-8,5.306098731683436e-7,1.2916700262562331e-7,1.1426771964545097e-8,5.897321792420379e-9,0
41648,2.557790885789682e-9,3.240885032267947e-9,7.735756477281254e-9,2.449882565839075e-8,5.320869058133413e-7,1.2981122977122896e-7,1.141166179878885e-8,5.892983628567263e-9,0
41649,2.5527015057825324e-9,3.239219822857572e-9,7.74962940548893e-9,2.4564951629141325e-8,5.335639384583389e-7,1.304554569168346e-7,1.1396551633032605e-8,5.888645464714148e-9,0
41650,2.547612125775383e-9,3.2375546134471965e-9,7.763502333696605e-9,2.46310775998919e-8,5.350409711033364e-7,1.3109968406244025e-7,1.1381441467276357e-8,5.884307300861032e-9,0
41651,2.542522745768234e-9,3.235889404036821e-9,7.777375261904281e-9,2.469720357064247e-8,5.36518003748334e-7,1.3174391120804592e-7,1.1366331301520112e-8,5.8799691370079155e-9,0
41652,2.5374333657610843e-9,3.234224194626446e-9,7.791248190111957e-9,2.4763329541393047e-8,5.379950363933316e-7,1.3238813835365156e-7,1.1351221135763865e-8,5.8756309731548e-9,0
41653,2.532343985753935e-9,3.2325589852160705e-9,7.805121118319632e-9,2.4829455512143618e-8,5.394720690383292e-7,1.330323654992572e-7,1.133611097000762e-8,5.871292809301684e-9,0
41654,2.5287473680790096e-9,3.235527212742144e-9,7.835188604858458e-9,2.5151634771534265e-8,5.397222229937425e-7,1.33180434469383e-7,1.130265216605849e-8,5.864837415366901e-9,0
41655,2.5251507504040843e-9,3.2384954402682173e-9,7.865256091397282e-9,2.5473814030924912e-8,5.399723769491559e-7,1.333285034395088e-7,1.1269193362109361e-8,5.858382021432117e-9,0
41656,2.5200613703969352e-9,3.2351569243884104e-9,7.861450384607866e-9,2.5500649846161008e-8,5.408982449902418e-7,1.333056417370302e-7,1.1237083245271817e-8,5.851700706194713e-9,0
41657,2.5149719903897857e-9,3.2318184085086036e-9,7.85764467781845e-9,2.55274856613971e-8,5.418241130313278e-7,1.3328278003455155e-7,1.120497312843427e-8,5.8450193909573095e-9,0
41658,2.5098826103826362e-9,3.2284798926287967e-9,7.853838971029033e-9,2.5554321476633193e-8,5.427499810724137e-7,1.3325991833207292e-7,1.1172863011596726e-8,5.838338075719906e-9,0
41659,2.504793230375487e-9,3.22514137674899e-9,7.850033264239617e-9,2.5581157291869286e-8,5.436758491134997e-7,1.3323705662959428e-7,1.1140752894759181e-8,5.831656760482502e-9,0
41660,2.4992120912899246e-9,3.2211594488703905e-9,7.851303186801165e-9,2.5610390019598328e-8,5.416466862470182e-7,1.3220769876594768e-7,1.113930582615424e-8,5.821079241331375e-9,0
41661,2.4999110450578934e-9,3.221489251928843e-9,7.851303186801165e-9,2.5620551160966105e-8,5.412135964453901e-7,1.3213523529582712e-7,1.1140654513265824e-8,5.820157042197834e-9,0
41662,2.5006099988258627e-9,3.2218190549872957e-9,7.851303186801165e-9,2.5630712302333882e-8,5.407805066437622e-7,1.320627718257066e-7,1.1142003200377407e-8,5.8192348430642935e-9,0
41663,2.501308952593832e-9,3.222148858045748e-9,7.851303186801165e-9,2.5640873443701656e-8,5.403474168421342e-7,1.3199030835558603e-7,1.1143351887488991e-8,5.818312643930753e-9,0
41664,2.502007906361801e-9,3.222478661104201e-9,7.851303186801165e-9,2.5651034585069433e-8,5.399143270405062e-7,1.319178448854655e-7,1.1144700574600576e-8,5.817390444797212e-9,0
41665,2.50270686012977e-9,3.2228084641626534e-9,7.851303186801165e-9,2.5661195726437207e-8,5.394812372388782e-7,1.3184538141534497e-7,1.114604926171216e-8,5.816468245663672e-9,0
41666,2.5034058138977395e-9,3.223138267221106e-9,7.851303186801165e-9,2.5671356867804984e-8,5.390481474372503e-7,1.317729179452244e-7,1.1147397948823743e-8,5.815546046530132e-9,0
41667,2.5041047676657083e-9,3.2234680702795586e-9,7.851303186801165e-9,2.568151800917276e-8,5.386150576356222e-7,1.3170045447510388e-7,1.1148746635935328e-8,5.814623847396591e-9,0
41668,2.5048037214336776e-9,3.2254711798074426e-9,7.868981821798257e-9,2.5826640678628204e-8,5.376725632012992e-7,1.3173709652628234e-7,1.1150341276780308e-8,5.813353509347591e-9,0
41669,2.505502675201647e-9,3.2274742893353266e-9,7.886660456795348e-9,2.597176334808365e-8,5.367300687669763e-7,1.317737385774608e-7,1.1151935917625286e-8,5.81208317129859e-9,0
41670,2.5062016289696158e-9,3.229477398863211e-9,7.90433909179244e-9,2.6116886017539096e-8,5.357875743326533e-7,1.3181038062863926e-7,1.1153530558470265e-8,5.810812833249589e-9,0
41671,2.506900582737585e-9,3.231480508391095e-9,7.922017726789532e-9,2.626200868699454e-8,5.348450798983303e-7,1.3184702267981771e-7,1.1155125199315243e-8,5.809542495200589e-9,0
41672,2.5075995365055543e-9,3.233483617918979e-9,7.939696361786624e-9,2.6407131356449985e-8,5.339025854640073e-7,1.3188366473099617e-7,1.1156719840160223e-8,5.808272157151588e-9,0
41673,2.508298490273523e-9,3.2354867274468633e-9,7.957374996783715e-9,2.6552254025905427e-8,5.329600910296844e-7,1.3192030678217463e-7,1.1158314481005201e-8,5.807001819102588e-9,0
41674,2.5089974440414925e-9,3.2374898369747472e-9,7.975053631780808e-9,2.6697376695360873e-8,5.320175965953614e-7,1.319569488333531e-7,1.115990912185018e-8,5.805731481053587e-9,0
41675,2.5090957958571754e-9,3.2374898369747472e-9,7.975053631780808e-9,2.6705490967468652e-8,5.307029177253666e-7,1.3190385317236274e-7,1.1167095274128211e-8,5.8061080165579544e-9,0
41676,2.509194147672858e-9,3.2374898369747472e-9,7.975053631780808e-9,2.671360523957643e-8,5.293882388553717e-7,1.3185075751137242e-7,1.1174281426406242e-8,5.806484552062322e-9,0
41677,2.5092924994885407e-9,3.2374898369747472e-9,7.975053631780808e-9,2.6721719511684208e-8,5.280735599853769e-7,1.3179766185038208e-7,1.1181467578684273e-8,5.8068610875666895e-9,0
41678,2.509390851304223e-9,3.2374898369747472e-9,7.975053631780808e-9,2.6729833783791987e-8,5.267588811153821e-7,1.3174456618939176e-7,1.1188653730962304e-8,5.8072376230710565e-9,0
41679,2.5094892031199056e-9,3.2374898369747472e-9,7.975053631780808e-9,2.6737948055899765e-8,5.254442022453873e-7,1.316914705284014e-7,1.1195839883240336e-8,5.8076141585754245e-9,0
41680,2.5095875549355885e-9,3.2374898369747472e-9,7.975053631780808e-9,2.6746062328007543e-8,5.241295233753924e-7,1.316383748674111e-7,1.1203026035518367e-8,5.8079906940797916e-9,0
41681,2.509685906751271e-9,3.2374898369747472e-9,7.975053631780808e-9,2.675417660011532e-8,5.228148445053976e-7,1.3158527920642077e-7,1.1210212187796398e-8,5.8083672295841595e-9,0
41682,2.5075925424667603e-9,3.230853290510414e-9,7.964986410362548e-9,2.67622908722231e-8,5.228066317281395e-7,1.3161933868651636e-7,1.1185070923298915e-8,5.740978765583402e-9,0
41683,2.50549917818225e-9,3.2242167440460814e-9,7.95491918894429e-9,2.6770405144330878e-8,5.227984189508814e-7,1.3165339816661197e-7,1.1159929658801434e-8,5.673590301582644e-9,0
41684,2.486040812572384e-9,3.208900056294251e-9,7.901468568119474e-9,2.67290681195564e-8,5.227912208533391e-7,1.3110601006665736e-7,1.1106527575814443e-8,5.657959826824422e-9,0
41685,2.466582446962518e-9,3.1935833685424205e-9,7.84801794729466e-9,2.6687731094781922e-8,5.227840227557968e-7,1.3055862196670274e-7,1.105312549282745e-8,5.6423293520662e-9,0
41686,2.4471240813526518e-9,3.17826668079059e-9,7.794567326469845e-9,2.6646394070007444e-8,5.227768246582545e-7,1.3001123386674813e-7,1.099972340984046e-8,5.626698877307978e-9,0
41687,2.4276657157427856e-9,3.1629499930387595e-9,7.74111670564503e-9,2.6605057045232966e-8,5.227696265607121e-7,1.2946384576679354e-7,1.094632132685347e-8,5.611068402549755e-9,0
41688,2.4082073501329195e-9,3.1476333052869286e-9,7.687666084820215e-9,2.6563720020458488e-8,5.227624284631699e-7,1.2891645766683892e-7,1.0892919243866479e-8,5.595437927791534e-9,0
41689,2.3887489845230534e-9,3.132316617535098e-9,7.6342154639954e-9,2.652238299568401e-8,5.227552303656275e-7,1.283690695668843e-7,1.0839517160879489e-8,5.579807453033311e-9,0
41690,2.3692906189131873e-9,3.1169999297832677e-9,7.5823492007011e-9,2.6483092840169528e-8,5.236254949722745e-7,1.2797895320220365e-7,1.0778879734867788e-8,5.562530104721721e-9,0
41691,2.349832253303321e-9,3.1016832420314372e-9,7.5304829374068e-9,2.644380268465505e-8,5.244957595789214e-7,1.27588836837523e-7,1.0718242308856087e-8,5.545252756410132e-9,0
41692,2.3300753352270105e-9,3.0863665542796068e-9,7.474945145039036e-9,2.6373470867966332e-8,5.244563878741017e-7,1.2700799180825908e-7,1.065900276070265e-8,5.528323547014001e-9,0
41693,2.3103184171506994e-9,3.0710498665277763e-9,7.419407352671274e-9,2.6303139051277616e-8,5.24417016169282e-7,1.2642714677899516e-7,1.0599763212549211e-8,5.511394337617871e-9,0
41694,2.2905614990743887e-9,3.0557331787759454e-9,7.363869560303512e-9,2.62328072345889e-8,5.243776444644622e-7,1.2584630174973124e-7,1.0540523664395774e-8,5.494465128221741e-9,0
41695,2.2708045809980776e-9,3.040416491024115e-9,7.308331767935749e-9,2.6162475417900184e-8,5.243382727596425e-7,1.2526545672046732e-7,1.0481284116242336e-8,5.477535918825611e-9,0
41696,2.251047662921767e-9,3.0250998032722845e-9,7.252793975567987e-9,2.6092143601211465e-8,5.242989010548228e-7,1.246846116912034e-7,1.0422044568088899e-8,5.460606709429481e-9,0
41697,2.2312907448454557e-9,3.009783115520454e-9,7.197256183200224e-9,2.602181178452275e-8,5.242595293500031e-7,1.2410376666193948e-7,1.036280501993546e-8,5.443677500033351e-9,0
41698,2.211533826769145e-9,2.9944664277686236e-9,7.1417183908324614e-9,2.5951479967834032e-8,5.242201576451834e-7,1.2352292163267556e-7,1.0303565471782023e-8,5.426748290637221e-9,0
41699,2.191776908692834e-9,2.979149740016793e-9,7.086180598464699e-9,2.5881148151145316e-8,5.241807859403637e-7,1.2294207660341163e-7,1.0244325923628585e-8,5.409819081241091e-9,0
41700,2.1720199906165232e-9,2.9638330522649626e-9,7.030642806096936e-9,2.58108163344566e-8,5.24141414235544e-7,1.2236123157414771e-7,1.0185086375475148e-8,5.392889871844961e-9,0
41701,2.152263072540212e-9,2.9485163645131317e-9,6.975105013729174e-9,2.5740484517767884e-8,5.241020425307243e-7,1.2178038654488382e-7,1.012584682732171e-8,5.375960662448831e-9,0
41702,2.1325061544639014e-9,2.9331996767613013e-9,6.919567221361411e-9,2.5670152701079168e-8,5.240626708259046e-7,1.211995415156199e-7,1.0066607279168273e-8,5.359031453052701e-9,0
41703,2.1127492363875903e-9,2.917882989009471e-9,6.864029428993649e-9,2.5599820884390452e-8,5.240232991210848e-7,1.2061869648635598e-7,1.0007367731014834e-8,5.3421022436565705e-09,0
41704,2.1062689428832967e-9,2.905100552138956e-9,6.83382776473887e-9,2.547723209781315e-8,5.235360642904946e-7,1.2028339274499532e-7,9.986764435318893e-9,5.3345925503095586e-9,0
41705,2.1059703904168517e-9,2.905100552138956e-9,6.831740593195922e-9,2.5453381174117766e-8,5.203075414329717e-7,1.2024006192948298e-7,9.987712750806629e-9,5.3350159963258925e-09,0
41706,2.105671837950407e-9,2.905100552138956e-9,6.829653421652975e-9,2.5429530250422385e-8,5.170790185754489e-7,1.2019673111397064e-7,9.988661066294364e-9,5.3354394423422255e-9,0
41707,2.105373285483962e-9,2.905100552138956e-9,6.8275662501100265e-9,2.5405679326727e-8,5.13850495717926e-7,1.201534002984583e-7,9.989609381782098e-9,5.335862888358559e-9,0
41708,2.105074733017517e-9,2.905100552138956e-9,6.825479078567079e-9,2.5381828403031617e-8,5.106219728604032e-7,1.2011006948294597e-7,9.990557697269834e-9,5.3362863343748925e-9,0
41709,2.1047761805510725e-9,2.905100552138956e-9,6.823391907024131e-9,2.5357977479336233e-8,5.073934500028803e-7,1.200667386674336e-7,9.99150601275757e-9,5.336709780391226e-9,0
41710,2.1044776280846275e-9,2.905100552138956e-9,6.8213047354811835e-9,2.5334126555640853e-8,5.041649271453574e-7,1.2002340785192126e-7,9.992454328245303e-9,5.3371332264075594e-9,0
41711,2.104179075618183e-9,2.905100552138956e-9,6.819217563938235e-9,2.531027563194547e-8,5.009364042878346e-7,1.1998007703640892e-7,9.993402643733039e-9,5.337556672423893e-9,0
41712,2.103880523151738e-9,2.905100552138956e-9,6.817130392395288e-9,2.5286424708250085e-8,4.977078814303117e-7,1.1993674622089659e-7,9.994350959220774e-9,5.337980118440226e-9,0
41713,2.10467782873539e-9,2.9054303551974087e-9,6.81586046983374e-9,2.5266779630492845e-8,4.966231312542613e-7,1.2013687287532186e-7,9.995299274708508e-9,5.3380554255411005e-9,0
41714,2.104579476919707e-9,2.9054303551974087e-9,6.822662756221624e-9,2.529034762207151e-8,4.933847812429812e-7,1.2012461164272986e-7,9.998038994027938e-9,5.340822022941722e-9,0
41715,2.1044811251040247e-9,2.9054303551974087e-9,6.829465042609509e-9,2.531391561365017e-8,4.901464312317013e-7,1.2011235041013786e-7,1.0000778713347368e-8,5.343588620342343e-9,0
41716,2.104382773288342e-9,2.9054303551974087e-9,6.836267328997393e-9,2.5337483605228833e-8,4.869080812204213e-7,1.2010008917754586e-7,1.0003518432666797e-8,5.346355217742965e-9,0
41717,2.1042844214726594e-9,2.9054303551974087e-9,6.843069615385277e-9,2.5361051596807498e-8,4.836697312091412e-7,1.2008782794495386e-7,1.0006258151986227e-8,5.349121815143586e-9,0
41718,2.1041860696569765e-9,2.9054303551974087e-9,6.849871901773161e-9,2.538461958838616e-8,4.804313811978613e-7,1.2007556671236187e-7,1.0008997871305657e-8,5.351888412544208e-9,0
41719,2.1043862703077386e-9,2.905261405138654e-9,6.8587152801669335e-9,2.5252911396304133e-8,4.797874313406677e-7,1.176487906828025e-7,9.978679158299807e-9,5.353309364794955e-9,0
41720,2.1034906129084044e-9,2.9049316020802016e-9,6.867604738097765e-9,2.5154612802585722e-8,4.785035020194363e-7,1.1757364870851394e-7,9.92275592712511e-9,5.350711895519139e-9,0
41721,2.101298896808211e-9,2.9037732428460896e-9,6.876494196028597e-9,2.5139836288093147e-8,4.771468223884069e-7,1.175882999090229e-7,9.920711723909603e-9,5.2667608749607705e-9,0
41722,2.099107180708018e-9,2.902614883611977e-9,6.885383653959429e-9,2.5125059773600575e-8,4.757901427573776e-7,1.1760295110953185e-7,9.918667520694096e-9,5.182809854402402e-9,0
41723,2.0969154646078248e-9,2.901456524377865e-9,6.894273111890261e-9,2.5110283259108e-8,4.7443346312634826e-7,1.1761760231004081e-7,9.916623317478589e-9,5.098858833844033e-9,0
41724,2.0947237485076313e-9,2.900298165143753e-9,6.9031625698210925e-9,2.5095506744615427e-8,4.7307678349531896e-7,1.1763225351054975e-7,9.914579114263083e-9,5.014907813285665e-9,0
41725,2.092532032407438e-9,2.8991398059096404e-9,6.912052027751925e-9,2.5080730230122855e-8,4.717201038642896e-7,1.1764690471105871e-7,9.912534911047576e-9,4.9309567927272964e-9,0
41726,2.090340316307245e-9,2.8979814466755284e-9,6.920941485682757e-9,2.506595371563028e-8,4.703634242332603e-7,1.1766155591156766e-7,9.910490707832069e-9,4.847005772168927e-9,0
41727,2.0881486002070516e-9,2.896823087441416e-9,6.929830943613589e-9,2.5051177201137708e-8,4.6900674460223093e-7,1.1767620711207662e-7,9.908446504616561e-9,4.763054751610559e-9,0
41728,2.0859568841068585e-9,2.895664728207304e-9,6.93872040154442e-9,2.5036400686645133e-8,4.6765006497120163e-7,1.1769085831258556e-7,9.906402301401056e-9,4.67910373105219e-9,0
41729,2.0837651680066655e-9,2.8945063689731917e-9,6.947609859475252e-9,2.502162417215256e-8,4.6629338534017227e-7,1.1770550951309452e-7,9.904358098185548e-9,4.5951527104938215e-9,0
41730,2.081573451906472e-9,2.8933480097390797e-9,6.9564993174060844e-9,2.5006847657659986e-8,4.649367057091429e-7,1.1772016071360347e-7,9.902313894970041e-9,4.511201689935453e-9,0
41731,2.079381735806279e-9,2.8921896505049673e-9,6.9653887753369166e-9,2.4992071143167414e-8,4.635800260781136e-7,1.1773481191411242e-7,9.900269691754534e-9,4.427250669377084e-9,0
41732,2.077190019706086e-9,2.8910312912708553e-9,6.974278233267748e-9,2.4977294628674842e-8,4.6222334644708425e-7,1.1774946311462138e-7,9.898225488539028e-9,4.343299648818716e-9,0
41733,2.0749983036058923e-9,2.889872932036743e-9,6.98316769119858e-9,2.4962518114182267e-8,4.6086666681605494e-7,1.1776411431513032e-7,9.896181285323521e-9,4.259348628260347e-9,0
41734,2.0728065875056992e-9,2.888714572802631e-9,6.992057149129412e-9,2.4947741599689695e-8,4.595099871850256e-7,1.1777876551563928e-7,9.894137082108014e-9,4.175397607701978e-9,0
41735,2.070414670754744e-9,2.888714572802631e-9,6.991830812339338e-9,2.4940103965884805e-8,4.5816313470775337e-7,1.1783123576908712e-7,9.893694365387904e-9,4.089329357061942e-9,0
41736,2.0689219084225198e-9,2.8933884950343603e-9,6.997723690671703e-9,2.4927932557723138e-8,4.5805475737273245e-7,1.1781481738667573e-7,9.893694365387904e-9,4.003957384252826e-9,0
41737,2.0674291460902956e-9,2.8980624172660897e-9,7.003616569004066e-9,2.491576114956147e-8,4.579463800377115e-7,1.1779839900426435e-7,9.893694365387904e-9,3.91858541144371e-9,0
41738,2.0659363837580718e-9,2.9027363394978196e-9,7.00950944733643e-9,2.4903589741399803e-8,4.5783800270269057e-7,1.1778198062185295e-7,9.893694365387904e-9,3.8332134386345935e-9,0
41739,2.0644436214258476e-9,2.907410261729549e-9,7.0154023256687945e-9,2.4891418333238136e-8,4.577296253676696e-7,1.1776556223944157e-7,9.893694365387904e-9,3.747841465825478e-9,0
41740,2.0629508590936238e-9,2.9120841839612784e-9,7.021295204001158e-9,2.4879246925076468e-8,4.576212480326487e-7,1.1774914385703018e-7,9.893694365387904e-9,3.6624694930163613e-9,0
41741,2.0636498128615926e-9,2.916758106193008e-9,7.02333223511182e-9,2.491989149054757e-8,4.5884044950335556e-7,1.1763235468669086e-7,9.891692507268657e-9,3.6638151381662354e-9,0
41742,2.064348766629562e-9,2.9214320284247376e-9,7.025369266222482e-9,2.4960536056018675e-8,4.6005965097406243e-7,1.1751556551635154e-7,9.889690649149413e-9,3.6651607833161095e-9,0
41743,2.0587676275439993e-9,2.917804194781759e-9,7.019107751593638e-9,2.4997845686716113e-8,4.5979978798203935e-7,1.1750147639617244e-7,9.887688791030167e-9,3.664784247811742e-9,0
41744,2.0531864884584367e-9,2.9141763611387803e-9,7.012846236964795e-9,2.5035155317413552e-8,4.595399249900163e-7,1.1748738727599334e-7,9.88568693291092e-9,3.6644077123073745e-9,0
41745,2.047605349372874e-9,2.9105485274958016e-9,7.006584722335951e-9,2.5072464948110994e-8,4.5928006199799315e-7,1.1747329815581423e-7,9.883685074791676e-9,3.6640311768030074e-9,0
41746,2.0420242102873116e-9,2.906920693852823e-9,7.000323207707108e-9,2.5109774578808432e-8,4.5902019900597007e-7,1.1745920903563514e-7,9.88168321667243e-9,3.66365464129864e-9,0
41747,2.036443071201749e-9,2.9032928602098443e-9,6.994061693078265e-9,2.514708420950587e-8,4.58760336013947e-7,1.1744511991545603e-7,9.879681358553185e-9,3.6632781057942724e-9,0
41748,2.0308619321161864e-9,2.8996650265668656e-9,6.987800178449422e-9,2.5184393840203313e-8,4.585004730219239e-7,1.1743103079527692e-7,9.877679500433939e-9,3.6629015702899053e-9,0
41749,2.0243816386118928e-9,2.8945166423950977e-9,7.031874770911876e-9,2.5184393840203313e-8,4.570222203029666e-7,1.1745039860440713e-7,9.870444157409229e-9,3.661602835651997e-9,0
41750,2.0179013451075987e-9,2.8893682582233294e-9,7.07594936337433e-9,2.5184393840203313e-8,4.5554396758400926e-7,1.1746976641353734e-7,9.86320881438452e-9,3.6603041010140894e-9,0
41751,2.0117196040697497e-9,2.8802379461729618e-9,7.0658821419560704e-9,2.519255996910226e-8,4.540492938660589e-7,1.1750889698724587e-7,9.856423033730336e-9,3.659231287678802e-9,0
41752,2.0055378630319007e-9,2.871107634122594e-9,7.055814920537811e-9,2.5200726098001206e-8,4.5255462014810846e-07,1.1754802756095442e-7,9.849637253076154e-9,3.6581584743435144e-9,0
41753,1.9993561219940513e-9,2.861977322072226e-9,7.045747699119552e-9,2.5208892226900155e-8,4.510599464301581e-7,1.1758715813466295e-7,9.842851472421972e-9,3.6570856610082272e-9,0
41754,1.9931743809562023e-9,2.8528470100218585e-9,7.035680477701292e-9,2.5217058355799103e-8,4.4956527271220767e-7,1.1762628870837149e-7,9.83606569176779e-9,3.6560128476729397e-9,0
41755,1.9869926399183533e-9,2.843716697971491e-9,7.025613256283033e-9,2.5225224484698052e-8,4.480705989942573e-7,1.1766541928208004e-7,9.829279911113608e-9,3.654940034337652e-9,0
41756,1.9808108988805043e-9,2.834586385921123e-9,7.015546034864773e-9,2.5233390613597e-8,4.465759252763069e-7,1.1770454985578857e-7,9.822494130459426e-9,3.6538672210023646e-9,0
41757,1.9746291578426553e-9,2.8254560738707552e-9,7.005478813446513e-9,2.5241556742495945e-8,4.450812515583565e-7,1.1774368042949711e-7,9.815708349805244e-9,3.6527944076670775e-9,0
41758,1.968447416804806e-9,2.8163257618203876e-9,6.995411592028254e-9,2.5249722871394894e-8,4.435865778404061e-7,1.1778281100320564e-7,9.808922569151062e-9,3.65172159433179e-9,0
41759,1.962265675766957e-9,2.8071954497700196e-9,6.985344370609995e-9,2.5257889000293842e-8,4.420919041224557e-7,1.1782194157691419e-7,9.80213678849688e-9,3.6506487809965024e-9,0
41760,1.956083934729108e-9,2.798065137719652e-9,6.975277149191735e-9,2.526605512919279e-8,4.405972304045053e-7,1.1786107215062272e-7,9.795351007842698e-9,3.649575967661215e-9,0
41761,1.949902193691259e-9,2.7889348256692843e-9,6.9652099277734755e-9,2.527422125809174e-8,4.391025566865549e-7,1.1790020272433126e-7,9.788565227188516e-9,3.6485031543259277e-9,0
41762,1.94372045265341e-9,2.7798045136189163e-9,6.955142706355216e-9,2.5282387386990684e-8,4.376078829686045e-7,1.1793933329803979e-7,9.781779446534334e-9,3.64743034099064e-9,0
41763,1.941922143815947e-9,2.7743020352115273e-9,6.9565047879908835e-9,2.509639670390112e-8,4.372099627998691e-7,1.1708676899603917e-7,9.748721014209054e-9,3.6433934055410182e-9,0
41764,1.911505197705115e-9,2.724628061785808e-9,6.8146244441235745e-9,2.511073394923019e-8,4.350231872956046e-7,1.1712180574714098e-7,9.634991612185028e-9,3.6294752287711887e-9,0
41765,1.8810882515942827e-9,2.6749540883600888e-9,6.672744100256266e-9,2.5125071194559254e-8,4.328364117913401e-7,1.1715684249824277e-7,9.521262210161e-9,3.615557052001359e-9,0
41766,1.8506713054834506e-9,2.6252801149343695e-9,6.530863756388957e-9,2.5139408439888322e-8,4.3064963628707557e-7,1.1719187924934456e-7,9.407532808136973e-9,3.60163887523153e-9,0
41767,1.8202543593726184e-9,2.57560614150865e-9,6.388983412521648e-9,2.515374568521739e-8,4.284628607828111e-7,1.1722691600044637e-7,9.293803406112945e-9,3.5877206984617004e-9,0
41768,1.7898374132617863e-9,2.525932168082931e-9,6.24710306865434e-9,2.516808293054646e-8,4.262760852785466e-7,1.1726195275154816e-7,9.180074004088918e-9,3.5738025216918712e-9,0
41769,1.7594204671509542e-9,2.4762581946572116e-9,6.105222724787031e-9,2.5182420175875527e-8,4.2408930977428204e-7,1.1729698950264995e-7,9.06634460206489e-9,3.5598843449220417e-9,0
41770,1.7290035210401218e-9,2.4265842212314923e-9,5.963342380919722e-9,2.5196757421204592e-8,4.2190253427001755e-7,1.1733202625375174e-7,8.952615200040863e-9,3.545966168152212e-9,0
41771,1.6985865749292897e-9,2.376910247805773e-9,5.821462037052414e-9,2.521109466653366e-8,4.1971575876575306e-7,1.1736706300485355e-7,8.838885798016835e-9,3.532047991382383e-9,0
41772,1.6678710763520127e-9,2.3269064713216013e-9,5.681166050715619e-9,2.520455139205627e-8,4.175584394868434e-7,1.1740646712264088e-7,8.727896115312237e-9,3.5174804472935993e-9,0
41773,1.6382514358248323e-9,2.277232497895882e-9,5.543321811323027e-9,2.5200375288094978e-8,4.154732112380691e-7,1.1742782994423992e-7,8.615115028775946e-9,3.5029882103056898e-9,0
41774,1.608631795297652e-9,2.2275585244701627e-9,5.4054775719304335e-9,2.5196199184133687e-8,4.133879829892948e-7,1.1744919276583895e-7,8.502333942239653e-9,3.48849597331778e-9,0
41775,1.5790121547704715e-9,2.1778845510444435e-9,5.26763333253784e-9,2.5192023080172392e-8,4.113027547405205e-7,1.1747055558743799e-7,8.38955285570336e-9,3.47400373632987e-9,0
41776,1.5493925142432913e-9,2.128210577618724e-9,5.129789093145248e-9,2.51878469762111e-8,4.092175264917462e-7,1.1749191840903703e-7,8.276771769167068e-9,3.45951149934196e-9,0
41777,1.519772873716111e-9,2.078536604193005e-9,4.9919448537526545e-9,2.518367087224981e-8,4.0713229824297187e-7,1.1751328123063606e-7,8.163990682630775e-9,3.4450192623540503e-9,0
41778,1.5205701792997627e-9,2.0788664072514573e-9,4.994396600696856e-9,2.518367087224981e-8,4.066319903321452e-7,1.1746627440472129e-7,8.16533936974236e-9,3.442327972054302e-9,0
41779,1.5213674848834144e-9,2.07919621030991e-9,4.996848347641057e-9,2.518367087224981e-8,4.061316824213185e-7,1.1741926757880653e-7,8.166688056853944e-9,3.4396366817545543e-9,0
41780,1.5186700216272206e-9,2.0758576944301032e-9,4.983205817118681e-9,2.5078173147216735e-8,4.0611029562015786e-7,1.1732425117768664e-7,8.149688105772645e-9,3.407622661229375e-9,0
41781,1.5159725583710265e-9,2.0725191785502964e-09,4.969563286596305e-9,2.497267542218366e-8,4.060889088189973e-7,1.1722923477656674e-7,8.132688154691346e-9,3.375608640704196e-9,0
41782,1.5132750951148327e-9,2.06918066267049e-9,4.955920756073929e-9,2.4867177697150587e-8,4.0606752201783665e-7,1.1713421837544684e-7,8.115688203610049e-9,3.343594620179017e-9,0
41783,1.5105776318586386e-9,2.065842146790683e-9,4.942278225551553e-9,2.4761679972117513e-8,4.06046135216676e-7,1.1703920197432695e-7,8.09868825252875e-9,3.3115805996538378e-9,0
41784,1.5078801686024445e-9,2.062503630910876e-9,4.928635695029177e-9,2.4656182247084435e-8,4.060247484155154e-7,1.1694418557320705e-7,8.081688301447451e-9,3.279566579128659e-9,0
41785,1.504385399762599e-9,2.0588353119726168e-9,4.910818821420905e-9,2.4567523160128997e-8,4.0589437547150436e-7,1.1680891705924688e-7,8.063290472507889e-9,3.2474772515026062e-9,0
41786,1.5008906309227532e-9,2.0551669930343575e-9,4.8930019478126335e-9,2.4478864073173555e-8,4.0576400252749333e-7,1.1667364854528673e-7,8.044892643568328e-9,3.2153879238765536e-9,0
41787,1.4973958620829074e-9,2.0514986740960978e-9,4.875185074204362e-9,2.4390204986218117e-8,4.056336295834823e-7,1.1653838003132657e-7,8.026494814628766e-9,3.183298596250501e-9,0
41788,1.4939010932430616e-9,2.0478303551578384e-9,4.85736820059609e-9,2.4301545899262675e-8,4.0550325663947126e-7,1.1640311151736642e-7,8.008096985689204e-9,3.1512092686244485e-9,0
41789,1.4904063244032158e-9,2.044162036219579e-9,4.839551326987819e-9,2.4212886812307237e-8,4.053728836954602e-7,1.1626784300340627e-7,7.989699156749642e-9,3.119119940998396e-9,0
41790,1.4869115555633702e-9,2.04049371728132e-9,4.821734453379547e-9,2.4124227725351795e-8,4.052425107514492e-7,1.161325744894461e-7,7.971301327810081e-9,3.0870306133723433e-9,0
41791,1.4834167867235244e-9,2.03682539834306e-9,4.8039175797712755e-9,2.4035568638396357e-8,4.0511213780743816e-7,1.1599730597548595e-7,7.952903498870519e-9,3.0549412857462907e-9,0
41792,1.4799220178836786e-9,2.033157079404801e-9,4.786100706163004e-9,2.3946909551440915e-8,4.049817648634271e-7,1.1586203746152579e-7,7.934505669930957e-9,3.022851958120238e-9,0
41793,1.4764272490438328e-9,2.0294887604665415e-9,4.768283832554732e-9,2.3858250464485477e-8,4.048513919194161e-7,1.1572676894756564e-7,7.916107840991394e-9,2.9907626304941855e-9,0
41794,1.472932480203987e-9,2.025820441528282e-9,4.750466958946461e-9,2.3769591377530035e-8,4.0472101897540505e-7,1.1559150043360549e-7,7.897710012051834e-9,2.958673302868133e-9,0
41795,1.4694377113641414e-9,2.0221521225900225e-9,4.732650085338189e-9,2.3680932290574597e-8,4.04590646031394e-7,1.1545623191964533e-7,7.879312183112272e-9,2.9265839752420803e-9,0
41796,1.4659429425242956e-9,2.018483803651763e-9,4.7148332117299175e-9,2.3592273203619155e-8,4.04460273087383e-7,1.1532096340568517e-7,7.86091435417271e-9,2.8944946476160277e-9,0
41797,1.4624481736844498e-9,2.014815484713504e-9,4.697016338121646e-9,2.3503614116663717e-8,4.0432990014337195e-7,1.1518569489172501e-7,7.842516525233149e-9,2.862405319989975e-9,0
41798,1.458953404844604e-9,2.0111471657752445e-9,4.679199464513374e-9,2.3414955029708275e-8,4.041995271993609e-7,1.1505042637776486e-7,7.824118696293587e-9,2.8303159923639225e-9,0
41799,1.4580542504258728e-9,2.0114688717746407e-9,4.679153384976314e-9,2.3400774121425994e-8,4.031465149672619e-7,1.150873772004226e-7,7.81977749047876e-9,2.8319628659172904e-9,0
41800,1.4571550960071413e-9,2.0117905777740374e-9,4.679107305439254e-9,2.338659321314371e-8,4.020935027351629e-7,1.1512432802308034e-7,7.815436284663933e-9,2.8336097394706584e-9,0
41801,1.4533617747008507e-9,2.007116655542308e-9,4.677158372507486e-9,2.3387933135448548e-8,4.020090529318096e-7,1.148615941710373e-7,7.815436284663933e-9,2.8218939825492185e-9,0
41802,1.4495684533945601e-9,2.002442733310578e-9,4.675209439575718e-9,2.3389273057753383e-8,4.0192460312845637e-7,1.1459886031899426e-7,7.815436284663933e-9,2.8101782256277786e-9,0
41803,1.4457751320882695e-9,1.9977688110788488e-9,4.6732605066439505e-9,2.3390612980058217e-8,4.0184015332510313e-7,1.1433612646695122e-7,7.815436284663933e-9,2.798462468706339e-9,0
41804,1.4419818107819791e-9,1.9930948888471194e-9,4.671311573712182e-9,2.3391952902363055e-8,4.017557035217499e-7,1.1407339261490818e-7,7.815436284663933e-9,2.786746711784899e-9,0
41805,1.4381884894756885e-9,1.9884209666153895e-9,4.669362640780414e-9,2.339329282466789e-8,4.016712537183966e-7,1.1381065876286514e-7,7.815436284663933e-9,2.7750309548634593e-9,0
41806,1.434395168169398e-9,1.98374704438366e-9,4.667413707848646e-9,2.3394632746972724e-8,4.015868039150434e-7,1.135479249108221e-7,7.815436284663933e-9,2.7633151979420198e-9,0
41807,1.4306018468631073e-9,1.9790731221519307e-9,4.665464774916878e-9,2.3395972669277562e-8,4.0150235411169014e-7,1.1328519105877907e-7,7.815436284663933e-9,2.75159944102058e-9,0
41808,1.4271070780232615e-9,1.9735706437445414e-9,4.6632895051950365e-9,2.3397312591582396e-8,4.0412822513538247e-7,1.1304631117239312e-7,7.817831668756611e-9,2.7385849494612322e-9,0
41809,1.423513957367733e-9,1.9677383622787e-9,4.661340572263269e-9,2.340189822273034e-8,4.0572903337224314e-7,1.1277231359399249e-7,7.817979240996649e-9,2.725147011885551e-9,0
41810,1.4199208367122048e-9,1.961906080812858e-9,4.659391639331501e-9,2.340648385387829e-8,4.073298416091038e-7,1.1249831601559187e-7,7.818126813236685e-9,2.71170907430987e-9,0
41811,1.4163277160566764e-9,1.9560737993470164e-9,4.657442706399732e-9,2.3411069485026235e-8,4.0893064984596454e-7,1.1222431843719124e-7,7.818274385476721e-9,2.6982711367341885e-9,0
41812,1.4127345954011479e-9,1.9502415178811746e-9,4.655493773467965e-9,2.3415655116174184e-8,4.105314580828252e-7,1.1195032085879061e-7,7.818421957716759e-9,2.6848331991585074e-9,0
41813,1.4091414747456196e-9,1.944409236415333e-9,4.653544840536196e-9,2.342024074732213e-8,4.121322663196859e-7,1.1167632328038999e-7,7.818569529956795e-9,2.6713952615828263e-9,0
41814,1.4055483540900912e-9,1.9385769549494914e-9,4.651595907604429e-9,2.3424826378470077e-8,4.137330745565466e-7,1.1140232570198936e-7,7.818717102196832e-9,2.6579573240071452e-9,0
41815,1.4019552334345627e-9,1.9327446734836497e-9,4.6496469746726605e-9,2.3429412009618023e-8,4.153338827934073e-7,1.1112832812358874e-7,7.818864674436869e-9,2.644519386431464e-9,0
41816,1.3983621127790343e-9,1.926912392017808e-9,4.647698041740892e-9,2.343399764076597e-8,4.1693469103026797e-7,1.108543305451881e-7,7.819012246676906e-9,2.631081448855783e-9,0
41817,1.394768992123506e-9,1.921080110551966e-9,4.645749108809125e-9,2.3438583271913916e-8,4.185354992671287e-7,1.1058033296678747e-7,7.819159818916942e-9,2.6176435112801015e-9,0
41818,1.3911758714679775e-9,1.9152478290861243e-9,4.643800175877356e-9,2.3443168903061865e-8,4.2013630750398937e-7,1.1030633538838685e-7,7.819307391156978e-9,2.6042055737044204e-9,0
41819,1.387582750812449e-9,1.909415547620283e-9,4.641851242945589e-9,2.344775453420981e-8,4.2173711574085004e-7,1.1003233780998622e-7,7.819454963397016e-9,2.5907676361287393e-9,0
41820,1.3839896301569208e-9,1.903583266154441e-9,4.63990231001382e-9,2.345234016535776e-8,4.2333792397771077e-7,1.097583402315856e-7,7.819602535637052e-9,2.577329698553058e-9,0
41821,1.3803965095013924e-9,1.8977509846885993e-9,4.637953377082053e-9,2.3456925796505704e-8,4.2493873221457144e-7,1.0948434265318497e-7,7.81975010787709e-9,2.563891760977377e-9,0
41822,1.3741164166478607e-9,1.8911144382242666e-9,4.63409752986035e-9,2.3461511427653652e-8,4.265380522545156e-7,1.0948434265318497e-7,7.806726490432611e-9,2.5559586216140316e-9,0
41823,1.3683280828727421e-9,1.8794579723516392e-9,4.622265693658562e-9,2.3455712469270804e-8,4.2812767236889633e-7,1.0934594259545199e-7,7.805679793451518e-9,2.54252068403835e-9,0
41824,1.3625397490976236e-9,1.867801506479012e-9,4.610433857456775e-9,2.3449913510887955e-8,4.2971729248327707e-7,1.0920754253771903e-7,7.804633096470425e-9,2.529082746462669e-9,0
41825,1.356751415322505e-9,1.8561450406063847e-9,4.5986020212549866e-9,2.3444114552505107e-8,4.313069125976578e-7,1.0906914247998605e-7,7.803586399489332e-9,2.515644808886988e-9,0
41826,1.3509630815473866e-9,1.8444885747337573e-9,4.586770185053199e-9,2.3438315594122262e-8,4.3289653271203854e-7,1.0893074242225309e-7,7.80253970250824e-9,2.5022068713113068e-9,0
41827,1.345174747772268e-9,1.8328321088611301e-9,4.5749383488514116e-9,2.3432516635739414e-8,4.344861528264193e-7,1.0879234236452011e-7,7.801493005527146e-9,2.4887689337356257e-9,0
41828,1.3393864139971495e-9,1.8211756429885028e-9,4.563106512649623e-9,2.3426717677356566e-8,4.3607577294079996e-7,1.0865394230678714e-7,7.800446308546053e-9,2.4753309961599446e-9,0
41829,1.3335980802220312e-9,1.8095191771158754e-9,4.551274676447836e-9,2.3420918718973717e-8,4.376653930551807e-7,1.0851554224905417e-7,7.799399611564962e-9,2.461893058584263e-9,0
41830,1.3279080982625953e-9,1.800348379770227e-9,4.5483322981768795e-9,2.341511976059087e-8,4.375759557206554e-7,1.083553210870614e-7,7.798205342343831e-9,2.4485304281094556e-9,0
41831,1.3219195638367145e-9,1.789850273131712e-9,4.545389919905924e-9,2.3410251197326205e-8,4.3751630828253373e-7,1.0819092254002103e-7,7.797959388610436e-9,2.435515936550108e-9,0
41832,1.3159310294108338e-9,1.7793521664931968e-9,4.542447541634968e-9,2.3405382634061537e-8,4.37456660844412e-7,1.0802652399298065e-7,7.797713434877043e-9,2.4225014449907604e-9,0
41833,1.3099424949849531e-9,1.7688540598546818e-9,4.539505163364012e-9,2.340051407079687e-8,4.3739701340629037e-7,1.0786212544594027e-7,7.797467481143647e-9,2.4094869534314128e-9,0
41834,1.3039539605590724e-9,1.7583559532161666e-9,4.536562785093056e-9,2.3395645507532202e-8,4.3733736596816866e-7,1.0769772689889989e-7,7.797221527410252e-9,2.3964724618720647e-9,0
41835,1.302858102508976e-9,1.7583559532161666e-9,4.544634994042488e-9,2.340234511905638e-8,4.3700850540837946e-7,1.075257582496046e-7,7.798619405268515e-9,2.395173727234157e-9,0
41836,1.3017622444588794e-9,1.7583559532161666e-9,4.552707202991919e-9,2.3409044730580557e-8,4.3667964484859027e-7,1.073537896003093e-7,7.800017283126779e-9,2.3938749925962493e-9,0
41837,1.3006663864087826e-9,1.7583559532161666e-9,4.560779411941351e-9,2.3415744342104736e-8,4.36350784288801e-7,1.0718182095101399e-7,7.801415160985042e-9,2.392576257958341e-9,0
41838,1.299570528358686e-9,1.7583559532161666e-9,4.568851620890782e-9,2.3422443953628912e-8,4.360219237290118e-7,1.0700985230171869e-7,7.802813038843305e-9,2.3912775233204334e-9,0
41839,1.2984746703085895e-9,1.7583559532161666e-9,4.576923829840214e-9,2.342914356515309e-8,4.356930631692226e-7,1.0683788365242339e-7,7.804210916701568e-9,2.3899787886825257e-9,0
41840,1.2973788122584928e-9,1.7583559532161666e-9,4.584996038789645e-9,2.3435843176677267e-8,4.3536420260943343e-7,1.0666591500312809e-7,7.805608794559832e-9,2.3886800540446176e-9,0
41841,1.2962829542083962e-9,1.7583559532161666e-9,4.593068247739077e-9,2.3442542788201447e-8,4.350353420496442e-7,1.0649394635383278e-7,7.807006672418095e-9,2.38738131940671e-9,0
41842,1.2666493256036284e-9,1.7117624779618822e-9,4.492692815254972e-9,2.3447277129233647e-8,4.3120610032957956e-7,1.0536513615211214e-7,7.574959437628064e-9,2.336489987528539e-9,0
41843,1.2370156969988603e-9,1.6651690027075977e-9,4.392317382770867e-9,2.3452011470265847e-8,4.273768586095149e-7,1.042363259503915e-7,7.342912202838033e-9,2.285598655650368e-9,0
41844,1.2073820683940925e-9,1.618575527453313e-9,4.291941950286762e-9,2.3456745811298048e-8,4.235476168894503e-7,1.0310751574867086e-7,7.110864968048002e-9,2.234707323772197e-9,0
41845,1.1777484397893246e-9,1.5719820521990287e-9,4.191566517802657e-9,2.3461480152330248e-8,4.1971837516938566e-7,1.0197870554695021e-7,6.878817733257972e-9,2.1838159918940258e-9,0
41846,1.1481148111845568e-9,1.5253885769447442e-9,4.091191085318552e-9,2.346621449336245e-8,4.15889133449321e-7,1.0084989534522957e-7,6.646770498467941e-9,2.1329246600158548e-9,0
41847,1.1184811825797887e-9,1.4787951016904598e-9,3.990815652834447e-9,2.347094883439465e-8,4.120598917292564e-7,9.972108514350893e-8,6.4147232636779105e-9,2.082033328137684e-9,0
41848,1.0888475539750208e-9,1.4322016264361752e-9,3.890440220350342e-9,2.347568317542685e-8,4.082306500091917e-7,9.859227494178829e-8,6.182676028887879e-9,2.031141996259513e-9,0
41849,1.059213925370253e-9,1.3856081511818907e-9,3.790064787866237e-9,2.348041751645905e-8,4.044014082891271e-7,9.746346474006765e-8,5.9506287940978486e-9,1.980250664381342e-9,0
41850,1.02987884923193e-9,1.3386929699282097e-9,3.6926317336530876e-9,2.3490020420755917e-8,4.010768588073661e-7,9.633554824691233e-8,5.71778081606012e-9,1.929359332503171e-9,0
41851,1.0002452206271619e-9,1.290941135439813e-9,3.584184092219551e-9,2.348805515026394e-8,3.9717633780093875e-7,9.520704943819895e-8,5.484335703411826e-9,1.8780445546086666e-9,0
41852,9.70611592022394e-10,1.2431893009514164e-9,3.4757364507860147e-9,2.3486089879771963e-8,3.932758167945114e-7,9.407855062948556e-8,5.2508905907635326e-9,1.8267297767141621e-9,0
41853,9.409779634176262e-10,1.1954374664630198e-9,3.3672888093524778e-9,2.3484124609279984e-8,3.8937529578808405e-7,9.295005182077218e-8,5.017445478115239e-9,1.7754149988196576e-9,0
41854,9.113443348128582e-10,1.147685631974623e-9,3.2588411679189413e-9,2.348215933878801e-8,3.854747747816567e-7,9.182155301205879e-8,4.784000365466945e-9,1.7241002209251531e-9,0
41855,8.817107062080903e-10,1.0999337974862264e-9,3.150393526485405e-9,2.348019406829603e-8,3.8157425377522935e-7,9.06930542033454e-8,4.550555252818651e-9,1.6727854430306487e-9,0
41856,8.520770776033224e-10,1.0521819629978297e-9,3.0419458850518684e-9,2.3478228797804054e-8,3.77673732768802e-7,8.956455539463202e-8,4.3171101401703574e-9,1.6214706651361444e-9,0
41857,8.224434489985545e-10,1.004430128509433e-9,2.9334982436183315e-9,2.3476263527312075e-8,3.7377321176237464e-7,8.843605658591863e-8,4.083665027522064e-9,1.5701558872416399e-9,0
41858,8.224434489985545e-10,1.0035934752747173e-9,2.9323665596679638e-9,2.344146977701499e-8,3.727498162821758e-7,8.843547427036056e-8,4.083665027522064e-9,1.5688102420917658e-9,0
41859,8.182567204295334e-10,9.94133360165897e-10,2.927060532631701e-9,2.341027177879397e-8,3.716328465825381e-7,8.757668997279873e-8,4.016621655528777e-9,1.5578092769243048e-9,0
41860,8.140699918605122e-10,9.846732450570764e-10,2.9217545055954376e-9,2.337907378057295e-8,3.7051587688290043e-7,8.671790567523691e-8,3.9495782835354896e-9,1.5468083117568438e-9,0
41861,8.098832632914911e-10,9.752131299482562e-10,2.9164484785591743e-9,2.3347875782351928e-8,3.6939890718326274e-7,8.58591213776751e-8,3.882534911542203e-9,1.5358073465893828e-9,0
41862,8.056965347224699e-10,9.657530148394358e-10,2.911142451522911e-9,2.3316677784130907e-8,3.6828193748362505e-7,8.500033708011326e-8,3.815491539548916e-9,1.5248063814219219e-9,0
41863,8.015098061534488e-10,9.562928997306155e-10,2.905836424486648e-9,2.3285479785909885e-8,3.6716496778398736e-7,8.414155278255144e-8,3.74844816755563e-9,1.5138054162544609e-9,0
41864,7.973230775844276e-10,9.46832784621795e-10,2.9005303974503847e-09,2.3254281787688864e-8,3.660479980843496e-7,8.328276848498961e-8,3.681404795562343e-9,1.502804451087e-9,0
41865,7.952332103193139e-10,9.375416195717291e-10,2.8941807846426477e-9,2.3226701656358225e-8,3.6493315868780954e-7,8.242595896466839e-8,3.614410614315735e-9,1.4918787930204124e-9,0
41866,7.913450342167376e-10,9.289181576976245e-10,2.8887825985322644e-9,2.3195503658137203e-8,3.639359275901763e-7,8.158126378728567e-8,3.5521580105078028e-9,1.4809531349538249e-9,0
41867,7.874568581141612e-10,9.202946958235198e-10,2.8833844124218815e-9,2.3164305659916182e-8,3.62938696492543e-7,8.073656860990295e-8,3.48990540669987e-9,1.4700274768872373e-9,0
41868,7.835686820115849e-10,9.116712339494152e-10,2.8779862263114985e-9,2.313310766169516e-8,3.6194146539490973e-7,7.989187343252022e-8,3.4276528028919375e-9,1.4591018188206498e-9,0
41869,7.796805059090086e-10,9.030477720753105e-10,2.8725880402011156e-9,2.310190966347414e-8,3.609442342972765e-7,7.90471782551375e-8,3.3654001990840046e-9,1.4481761607540623e-9,0
41870,7.757923298064323e-10,8.94424310201206e-10,2.8671898540907322e-9,2.3070711665253118e-8,3.599470031996432e-7,7.820248307775479e-8,3.303147595276072e-9,1.4372505026874748e-9,0
41871,7.71904153703856e-10,8.858008483271013e-10,2.8617916679803493e-9,2.3039513667032097e-8,3.5894977210200997e-7,7.735778790037206e-8,3.2408949914681394e-9,1.4263248446208873e-9,0
41872,7.680159776012796e-10,8.771773864529967e-10,2.8563934818699664e-9,2.3008315668811075e-8,3.579525410043767e-7,7.651309272298933e-8,3.178642387660207e-9,1.4153991865543e-9,0
41873,7.641278014987033e-10,8.68553924578892e-10,2.8509952957595834e-9,2.2977117670590057e-8,3.569553099067434e-7,7.566839754560661e-8,3.116389783852274e-9,1.4044735284877124e-9,0
41874,7.602396253961269e-10,8.599304627047875e-10,2.8455971096492e-9,2.2945919672369036e-8,3.5595807880911015e-7,7.482370236822388e-8,3.0541371800443417e-09,1.393547870421125e-9,0
41875,7.563514492935506e-10,8.513070008306828e-10,2.840198923538817e-9,2.2914721674148014e-8,3.5496084771147686e-7,7.397900719084117e-8,2.991884576236409e-9,1.3826222123545374e-9,0
41876,7.524632731909742e-10,8.426835389565782e-10,2.834800737428434e-9,2.2883523675926993e-8,3.539636166138436e-7,7.313431201345845e-8,2.9296319724284764e-9,1.3716965542879499e-9,0
41877,7.48575097088398e-10,8.340600770824736e-10,2.8294025513180513e-9,2.2852325677705972e-8,3.5296638551621034e-7,7.228961683607572e-8,2.8673793686205435e-9,1.3607708962213624e-9,0
41878,7.446869209858216e-10,8.25436615208369e-10,2.824004365207668e-9,2.282112767948495e-8,3.5196915441857705e-7,7.1444921658693e-8,2.805126764812611e-9,1.3498452381547749e-9,0
41879,7.42888612148359e-10,8.226049495048252e-10,2.8128976189131606e-9,2.2732870492553633e-8,3.495919607227286e-7,7.133114524228515e-8,2.8021410917597867e-9,1.342815784001911e-9,0
41880,7.42888612148359e-10,8.168050562752082e-10,2.8074994328027777e-9,2.2727101276147635e-8,3.483438259670894e-7,7.096096138859252e-8,2.806931859945141e-9,1.3428910911027844e-9,0
41881,7.42888612148359e-10,8.11005163045591e-10,2.8021012466923947e-9,2.272133205974164e-8,3.470956912114502e-7,7.05907775348999e-8,2.811722628130495e-9,1.3429663982036578e-9,0
41882,7.42888612148359e-10,8.052052698159739e-10,2.7967030605820118e-9,2.271556284333564e-8,3.4584755645581095e-7,7.022059368120728e-8,2.8165133963158493e-9,1.3430417053045315e-9,0
41883,7.42888612148359e-10,7.994053765863569e-10,2.7913048744716284e-9,2.2709793626929646e-8,3.4459942170017175e-7,6.985040982751466e-8,2.821304164501203e-9,1.343117012405405e-9,0
41884,7.42888612148359e-10,7.936054833567397e-10,2.7859066883612455e-9,2.2704024410523647e-8,3.4335128694453255e-7,6.948022597382203e-8,2.8260949326865573e-9,1.3431923195062784e-9,0
41885,7.42888612148359e-10,7.878055901271226e-10,2.7805085022508626e-9,2.2698255194117652e-8,3.421031521888933e-7,6.911004212012941e-8,2.8308857008719114e-9,1.3432676266071519e-9,0
41886,7.42888612148359e-10,7.820056968975055e-10,2.775110316140479e-9,2.2692485977711653e-8,3.408550174332541e-7,6.873985826643679e-8,2.8356764690572656e-9,1.3433429337080253e-9,0
41887,7.434892141006455e-10,7.753691504331726e-10,2.7689870401228157e-9,2.2686873098352442e-8,3.396313811632373e-7,6.843305652908589e-8,2.8361260314277937e-9,1.3433429337080253e-9,0
41888,7.440898160529319e-10,7.687326039688398e-10,2.762863764105152e-9,2.268126021899323e-8,3.3840774489322054e-7,6.8126254791735e-8,2.8365755937983217e-9,1.3433429337080253e-9,0
41889,7.439914642372494e-10,7.624258605629596e-10,2.756786567624549e-9,2.2675491002587233e-8,3.370420018386745e-7,6.775112649885472e-8,2.8370251561688497e-9,1.3434182408088988e-9,0
41890,7.438931124215667e-10,7.561191171570793e-10,2.750709371143945e-9,2.2669721786181238e-8,3.3567625878412845e-7,6.737599820597446e-8,2.8374747185393778e-9,1.3434935479097723e-9,0
41891,7.43794760605884e-10,7.498123737511991e-10,2.7446321746633414e-9,2.266395256977524e-8,3.343105157295824e-7,6.700086991309418e-8,2.837924280909906e-9,1.3435688550106457e-9,0
41892,7.439949612566462e-10,7.498123737511991e-10,2.7427293212686332e-9,2.2660334702884857e-8,3.3376357843351443e-7,6.677558301529811e-8,2.835184561590476e-9,1.3429947947925653e-9,0
41893,7.441951619074084e-10,7.498123737511991e-10,2.740826467873925e-9,2.2656716835994475e-8,3.332166411374464e-7,6.655029611750204e-8,2.8324448422710465e-9,1.342420734574485e-9,0
41894,7.443953625581706e-10,7.498123737511991e-10,2.738923614479217e-9,2.265309896910409e-8,3.3266970384137843e-7,6.632500921970597e-8,2.829705122951617e-9,1.3418466743564043e-9,0
41895,7.445955632089327e-10,7.498123737511991e-10,2.737020761084509e-9,2.2649481102213707e-8,3.321227665453104e-7,6.60997223219099e-8,2.8269654036321873e-9,1.341272614138324e-9,0
41896,7.447957638596949e-10,7.498123737511991e-10,2.735117907689801e-9,2.264586323532332e-8,3.3157582924924243e-7,6.587443542411383e-8,2.824225684312758e-9,1.3406985539202435e-9,0
41897,7.449959645104571e-10,7.498123737511991e-10,2.733215054295093e-9,2.264224536843294e-8,3.310288919531744e-7,6.564914852631775e-8,2.8214859649933284e-9,1.340124493702163e-9,0
41898,7.451961651612192e-10,7.498123737511991e-10,2.731312200900385e-9,2.2638627501542557e-8,3.3048195465710643e-7,6.542386162852168e-8,2.818746245673899e-9,1.3395504334840825e-9,0
41899,7.247542813945267e-10,7.406820617008312e-10,2.715440199328655e-9,2.256497600440524e-8,3.265294599245228e-7,6.495732511165094e-8,2.786819200522234e-9,1.3113659410289638e-9,0
41900,7.043123976278341e-10,7.315517496504635e-10,2.6995681977569255e-9,2.2491324507267922e-8,3.2257696519193917e-7,6.44907885947802e-8,2.7548921553705694e-9,1.2831814485738448e-9,0
41901,6.838705138611416e-10,7.224214376000958e-10,2.683696196185196e-9,2.2417673010130608e-8,3.1862447045935554e-7,6.402425207790945e-8,2.722965110218905e-9,1.254996956118726e-9,0
41902,6.634286300944492e-10,7.13291125549728e-10,2.667824194613466e-9,2.234402151299329e-8,3.1467197572677197e-7,6.355771556103871e-8,2.6910380650672405e-9,1.2268124636636072e-9,0
41903,6.429867463277567e-10,7.041608134993602e-10,2.6519521930417364e-9,2.2270370015855973e-8,3.1071948099418834e-7,6.309117904416796e-8,2.659111019915576e-9,1.1986279712084884e-9,0
41904,6.225448625610641e-10,6.950305014489925e-10,2.6360801914700067e-9,2.219671851871866e-8,3.067669862616047e-7,6.262464252729722e-8,2.6271839747639115e-9,1.1704434787533695e-9,0
41905,6.021029787943716e-10,6.859001893986247e-10,2.620208189898277e-9,2.212306702158134e-8,3.028144915290211e-7,6.215810601042647e-8,2.595256929612247e-9,1.1422589862982507e-9,0
41906,5.816610950276791e-10,6.76769877348257e-10,2.6043361883265474e-9,2.2049415524444027e-8,2.9886199679643745e-7,6.169156949355573e-8,2.563329884460582e-9,1.1140744938431318e-9,0
41907,5.612192112609865e-10,6.676395652978892e-10,2.5884641867548177e-9,2.197576402730671e-8,2.949095020638539e-7,6.122503297668499e-8,2.531402839308918e-9,1.085890001388013e-9,0
41908,5.40777327494294e-10,6.585092532475214e-10,2.572592185183088e-9,2.1902112530169392e-8,2.9095700733127025e-7,6.075849645981424e-8,2.4994757941572532e-9,1.0577055089328943e-9,0
41909,5.204337955432841e-10,6.490491381387011e-10,2.5567201836113583e-9,2.1829644618290128e-8,2.8703848283801285e-7,6.037489985005336e-8,2.472332671540525e-9,1.0295210164777754e-9,0
41910,5.000902635922743e-10,6.39757973088635e-10,2.5405757657124953e-9,2.175680454836359e-8,2.831638314455882e-7,5.9917401594977e-8,2.4404056263888608e-9,1.0012612169217832e-9,0
41911,4.797467316412644e-10,6.304668080385691e-10,2.524431347813632e-9,2.168396447843705e-8,2.7928918005316365e-7,5.9459903339900653e-08,2.408478581237196e-9,9.730014173657908e-10,0
41912,4.594031996902545e-10,6.211756429885031e-10,2.508286929914769e-9,2.161112440851051e-8,2.754145286607391e-7,5.9002405084824296e-8,2.3765515360855314e-9,9.447416178097986e-10,0
41913,4.390596677392446e-10,6.118844779384372e-10,2.4921425120159056e-9,2.1538284338583972e-8,2.715398772683145e-7,5.8544906829747945e-8,2.344624490933867e-9,9.164818182538062e-10,0
41914,4.1871613578823475e-10,6.025933128883711e-10,2.4759980941170426e-9,2.1465444268657437e-8,2.676652258758899e-7,5.808740857467159e-8,2.3126974457822024e-9,8.882220186978139e-10,0
41915,4.1791883020458296e-10,6.016039037130134e-10,2.4738228243952012e-9,2.1466255695868212e-8,2.6699291122941804e-7,5.797772598087048e-8,2.3131470081527305e-9,8.875726513788599e-10,0
41916,4.1712152462093117e-10,6.006144945376555e-10,2.4716475546733594e-9,2.146706712307899e-8,2.663205965829462e-7,5.7868043387069363e-8,2.3135965705232585e-9,8.86923284059906e-10,0
41917,4.109397835830821e-10,5.941468981320771e-10,2.4625317599524542e-9,2.146669496503172e-8,2.6550100080970004e-7,5.766686114225298e-8,2.2871066189141917e-9,8.815592173834687e-10,0
41918,4.04758042545233e-10,5.876793017264986e-10,2.4534159652315486e-9,2.1466322806984447e-8,2.646814050364539e-7,5.7465678897436586e-8,2.2606166673051252e-9,8.761951507070315e-10,0
41919,3.9857630150738394e-10,5.812117053209201e-10,2.444300170510643e-9,2.1465950648937176e-8,2.6386180926320774e-7,5.72644966526202e-8,2.2341267156960584e-9,8.708310840305943e-10,0
41920,3.923945604695349e-10,5.747441089153417e-10,2.435184375789738e-9,2.14655784908899e-8,2.630422134899616e-7,5.7063314407803814e-8,2.207636764086992e-9,8.654670173541571e-10,0
41921,3.8621281943168577e-10,5.682765125097632e-10,2.4260685810688323e-9,2.146520633284263e-8,2.622226177167155e-7,5.686213216298743e-8,2.181146812477925e-9,8.601029506777199e-10,0
41922,3.800310783938367e-10,5.618089161041847e-10,2.4169527863479267e-9,2.1464834174795357e-8,2.6140302194346934e-7,5.666094991817104e-8,2.1546568608688587e-9,8.547388840012827e-10,0
41923,3.738493373559876e-10,5.5534131969860615e-10,2.4078369916270215e-9,2.1464462016748086e-8,2.605834261702232e-7,5.645976767335466e-8,2.128166909259792e-9,8.493748173248455e-10,0
41924,3.6846490190179033e-10,5.49034576292726e-10,2.398721196906116e-9,2.146343476853682e-8,2.596847063513678e-7,5.627735330841017e-8,2.101227395280197e-9,8.444341966647417e-10,0
41925,3.621848090482586e-10,5.427278328868457e-10,2.391780671907052e-9,2.1464774690841655e-8,2.5879132490821465e-7,5.614070019735141e-8,2.074885015911167e-9,8.39493576004638e-10,0
41926,3.559047161947269e-10,5.364210894809655e-10,2.384840146907988e-9,2.1466114613146493e-8,2.5789794346506154e-7,5.6004047086292654e-8,2.0485426365421375e-9,8.345529553445344e-10,0
41927,3.4962462334119517e-10,5.301143460750853e-10,2.377899621908924e-9,2.1467454535451327e-8,2.570045620219084e-7,5.5867393975233895e-8,2.0222002571731076e-9,8.296123346844307e-10,0
41928,3.4334453048766344e-10,5.23807602669205e-10,2.3709590969098604e-9,2.146879445775616e-8,2.561111805787553e-7,5.5730740864175135e-8,1.9958578778040777e-9,8.246717140243269e-10,0
41929,3.370644376341317e-10,5.175008592633248e-10,2.3640185719107962e-9,2.1470134380061e-8,2.552177991356022e-7,5.559408775311638e-8,1.9695154984350477e-9,8.197310933642232e-10,0
41930,3.307843447806e-10,5.111941158574445e-10,2.3570780469117324e-9,2.1471474302365834e-8,2.54324417692449e-7,5.545743464205762e-8,1.943173119066018e-9,8.147904727041195e-10,0
41931,3.245042519270683e-10,5.048873724515643e-10,2.3501375219126687e-9,2.147281422467067e-8,2.534310362492959e-7,5.532078153099886e-8,1.916830739696988e-9,8.098498520440158e-10,0
41932,3.1822415907353655e-10,4.98580629045684e-10,2.3431969969136045e-9,2.1474154146975503e-8,2.5253765480614277e-7,5.518412841994011e-8,1.890488360327958e-9,8.049092313839121e-10,0
41933,3.1194406622000483e-10,4.922738856398038e-10,2.3362564719145407e-9,2.147549406928034e-8,2.5164427336298965e-7,5.504747530888135e-8,1.864145980958928e-9,7.999686107238084e-10,0
41934,3.056639733664731e-10,4.859671422339235e-10,2.329315946915477e-9,2.1476833991585175e-8,2.507508919198365e-7,5.491082219782259e-8,1.8378036015898983e-9,7.950279900637046e-10,0
41935,2.993838805129414e-10,4.796603988280433e-10,2.3223754219164127e-9,2.147817391389001e-8,2.4985751047668336e-7,5.477416908676384e-8,1.8114612222208684e-9,7.900873694036009e-10,0
41936,2.931037876594097e-10,4.73353655422163e-10,2.315434896917349e-9,2.1479513836194848e-8,2.4896412903353025e-7,5.463751597570508e-8,1.7851188428518385e-9,7.851467487434973e-10,0
41937,2.86823694805878e-10,4.670469120162828e-10,2.308494371918285e-9,2.1480853758499682e-8,2.4807074759037713e-7,5.450086286464632e-8,1.7587764634828088e-9,7.802061280833935e-10,0
41938,2.832305741503496e-10,4.6154443360889366e-10,2.2906774983100136e-9,2.1471809091273723e-8,2.475479144773923e-7,5.452598788061662e-8,1.7565286516301684e-9,7.75943271331151e-10,0
41939,2.834307748011117e-10,4.6154443360889366e-10,2.2918091822603813e-9,2.1445181469875585e-8,2.4721417293423133e-7,5.460901135016735e-8,1.7570765954940544e-9,7.750210721976106e-10,0
41940,2.836309754518739e-10,4.6154443360889366e-10,2.2929408662107486e-9,2.1418553848477447e-8,2.4688043139107037e-7,5.4692034819718076e-8,1.7576245393579403e-9,7.740988730640701e-10,0
41941,2.838311761026361e-10,4.6154443360889366e-10,2.2940725501611163e-9,2.139192622707931e-8,2.465466898479094e-7,5.477505828926881e-8,1.7581724832218261e-9,7.731766739305296e-10,0
41942,2.8403137675339824e-10,4.6154443360889366e-10,2.295204234111484e-9,2.136529860568117e-8,2.4621294830474846e-7,5.485808175881954e-8,1.7587204270857122e-9,7.722544747969892e-10,0
41943,2.8423157740416043e-10,4.6154443360889366e-10,2.2963359180618517e-9,2.1338670984283033e-8,2.458792067615875e-7,5.4941105228370266e-8,1.759268370949598e-9,7.713322756634487e-10,0
41944,2.8443177805492257e-10,4.6154443360889366e-10,2.2974676020122194e-9,2.1312043362884895e-8,2.455454652184265e-7,5.5024128697921e-8,1.7598163148134839e-9,7.704100765299081e-10,0
41945,2.8463197870568476e-10,4.6154443360889366e-10,2.298599285962587e-9,2.1285415741486757e-8,2.4521172367526553e-7,5.510715216747173e-8,1.76036425867737e-9,7.694878773963677e-10,0
41946,2.855311331244161e-10,4.623729897845532e-10,2.298599285962587e-9,2.125642094957252e-8,2.4487179415875493e-7,5.5113719520436286e-8,1.761712945788954e-9,7.682175393473672e-10,0
41947,2.855311331244161e-10,4.623729897845532e-10,2.2978281165182467e-9,2.1227612236681915e-8,2.445316490883429e-7,5.512317559443499e-8,1.7633075866339328e-9,7.672953402138267e-10,0
41948,2.855311331244161e-10,4.623729897845532e-10,2.2970569470739063e-9,2.1198803523791315e-8,2.441915040179309e-7,5.513263166843371e-8,1.7649022274789117e-9,7.663731410802862e-10,0
41949,2.855311331244161e-10,4.623729897845532e-10,2.296285777629566e-9,2.1169994810900714e-8,2.438513589475189e-7,5.5142087742432415e-8,1.7664968683238905e-9,7.654509419467457e-10,0
41950,2.855311331244161e-10,4.623729897845532e-10,2.2955146081852254e-9,2.114118609801011e-8,2.435112138771069e-7,5.515154381643113e-8,1.7680915091688693e-9,7.645287428132052e-10,0
41951,2.831392163734607e-10,4.532426777341855e-10,2.253342869117479e-9,2.091429842598285e-8,2.419575267647808e-7,5.514427011501119e-8,1.756114588705484e-9,7.643028215105848e-10,0
41952,2.8074729962250533e-10,4.441123656838177e-10,2.211171130049733e-9,2.0687410753955584e-8,2.404038396524547e-7,5.5136996413591264e-8,1.7441376682420988e-9,7.640769002079643e-10,0
41953,2.783553828715499e-10,4.3498205363344995e-10,2.168999390981987e-9,2.0460523081928323e-8,2.3885015254012863e-7,5.512972271217133e-8,1.7321607477787136e-9,7.638509789053439e-10,0
41954,2.7596346612059453e-10,4.2585174158308217e-10,2.126827651914241e-9,2.0233635409901058e-8,2.3729646542780252e-7,5.512244901075139e-8,1.7201838273153283e-9,7.636250576027235e-10,0
41955,2.7357154936963915e-10,4.1672142953271445e-10,2.084655912846495e-9,2.0006747737873797e-8,2.3574277831547643e-7,5.511517530933146e-8,1.708206906851943e-9,7.633991363001031e-10,0
41956,2.711796326186838e-10,4.0759111748234667e-10,2.0424841737787487e-9,1.9779860065846532e-8,2.3418909120315034e-7,5.510790160791153e-8,1.6962299863885578e-9,7.631732149974826e-10,0
41957,2.6878771586772835e-10,3.984608054319789e-10,2.000312434711003e-9,1.955297239381927e-8,2.3263540409082422e-7,5.510062790649159e-8,1.6842530659251725e-9,7.629472936948622e-10,0
41958,2.666908545638209e-10,3.979539552557158e-10,1.9966869851746002e-9,1.9540444081935394e-8,2.3047540072834362e-7,5.509568346730395e-8,1.6844990196585672e-9,7.633707397111957e-10,0
41959,2.6459399325991347e-10,3.9744710507945265e-10,1.9930615356381976e-9,1.952791577005152e-8,2.2831539736586302e-7,5.50907390281163e-8,1.6847449733919618e-9,7.637941857275292e-10,0
41960,2.62497131956006e-10,3.969402549031895e-10,1.989436086101795e-9,1.9515387458167643e-8,2.2615539400338242e-7,5.508579458892865e-8,1.6849909271253565e-9,7.642176317438626e-10,0
41961,2.6040027065209854e-10,3.964334047269264e-10,1.9858106365653924e-9,1.950285914628377e-8,2.2399539064090182e-7,5.5080850149741e-8,1.6852368808587512e-9,7.646410777601962e-10,0
41962,2.583034093481911e-10,3.9592655455066324e-10,1.98218518702899e-9,1.949033083439989e-8,2.2183538727842121e-7,5.507590571055335e-8,1.6854828345921457e-9,7.650645237765297e-10,0
41963,2.562065480442836e-10,3.9541970437440014e-10,1.9785597374925876e-9,1.9477802522516014e-8,2.196753839159406e-7,5.50709612713657e-8,1.6857287883255405e-9,7.654879697928632e-10,0
41964,2.541096867403762e-10,3.94912854198137e-10,1.974934287956185e-9,1.946527421063214e-8,2.1751538055346e-7,5.506601683217805e-8,1.6859747420589352e-9,7.659114158091967e-10,0
41965,2.5201282543646874e-10,3.9440600402187384e-10,1.9713088384197824e-9,1.9452745898748263e-8,2.153553771909794e-7,5.50610723929904e-8,1.6862206957923297e-9,7.663348618255302e-10,0
41966,2.4991596413256125e-10,3.9389915384561074e-10,1.9676833888833798e-9,1.9440217586864386e-8,2.131953738284988e-7,5.505612795380276e-8,1.6864666495257245e-9,7.667583078418637e-10,0
41967,2.478191028286538e-10,3.933923036693476e-10,1.964057939346977e-9,1.9427689274980512e-8,2.110353704660182e-7,5.505118351461511e-8,1.6867126032591192e-9,7.671817538581972e-10,0
41968,2.457222415247463e-10,3.9288545349308444e-10,1.9604324898105746e-9,1.9415160963096635e-8,2.088753671035376e-7,5.504623907542746e-8,1.6869585569925137e-9,7.676051998745307e-10,0
41969,2.436253802208389e-10,3.9237860331682134e-10,1.956807040274172e-9,1.940229023514234e-8,2.067156469402728e-7,5.5456614336275674e-8,1.6855606791342507e-9,7.680286458908643e-10,0
41970,2.4152851891693144e-10,3.927003093162178e-10,1.9539527601821098e-9,1.938941950718804e-8,2.0456441819795876e-7,5.547359479901691e-8,1.6841628012759877e-9,7.681039529917377e-10,0
41971,2.3943165761302395e-10,3.930220153156142e-10,1.951098480090048e-9,1.9376548779233744e-8,2.0241318945564472e-7,5.5490575261758146e-8,1.6827649234177245e-9,7.681792600926112e-10,0
41972,2.373347963091165e-10,3.9334372131501067e-10,1.948244199997986e-9,1.9363678051279445e-8,2.0026196071333069e-7,5.5507555724499385e-8,1.6813670455594615e-9,7.682545671934846e-10,0
41973,2.352379350052091e-10,3.9366542731440714e-10,1.9453899199059236e-9,1.935080732332515e-8,1.9811073197101665e-7,5.5524536187240624e-8,1.6799691677011985e-9,7.683298742943581e-10,0
41974,2.3433878058647776e-10,3.939871333138036e-10,1.944258235955556e-9,1.9339239148536302e-8,1.978490516665514e-7,5.5505396208676804e-8,1.6795196053306704e-9,7.679817353788981e-10,0
41975,2.3343962616774644e-10,3.9430883931320006e-10,1.943126552005188e-9,1.9327670973747458e-8,1.9758737136208615e-7,5.548625623011299e-8,1.6790700429601422e-9,7.676335964634381e-10,0
41976,2.3134276486383895e-10,3.934640890194282e-10,1.932111964784801e-9,1.8932390060454593e-8,1.9701995890368498e-7,5.505067501238159e-8,1.6510975233002899e-9,7.503562481518481e-10,0
41977,2.292459035599315e-10,3.926193387256563e-10,1.9210973775644132e-9,1.853710914716173e-8,1.964525464452838e-7,5.461509379465019e-8,1.6231250036404376e-9,7.33078899840258e-10,0
41978,2.2714904225602405e-10,3.917745884318844e-10,1.910082790344026e-9,1.814182823386887e-8,1.9588513398688263e-7,5.417951257691878e-8,1.5951524839805853e-9,7.15801551528668e-10,0
41979,2.2505218095211658e-10,3.909298381381125e-10,1.8990682031236383e-9,1.7746547320576005e-8,1.9531772152848145e-7,5.374393135918738e-8,1.567179964320733e-9,6.985242032170778e-10,0
41980,2.2295531964820912e-10,3.9008508784434064e-10,1.888053615903251e-9,1.7351266407283143e-8,1.9475030907008028e-7,5.330835014145598e-8,1.5392074446608808e-9,6.812468549054877e-10,0
41981,2.2085845834430168e-10,3.892403375505687e-10,1.8770390286828633e-9,1.6955985493990278e-8,1.941828966116791e-7,5.287276892372458e-8,1.5112349250010285e-9,6.639695065938977e-10,0
41982,2.1906014950683902e-10,3.8740617808143905e-10,1.8649808556910024e-9,1.6561516007908195e-8,1.93627213438273e-7,5.240670043863091e-8,1.4832624053411762e-9,6.466168511814342e-10,0
41983,2.1726184066937638e-10,3.8573287161200755e-10,1.8531490194892145e-9,1.616704652182611e-8,1.9305337221670428e-7,5.193934328952379e-8,1.455289885681324e-9,6.292641957689706e-10,0
41984,2.1546353183191374e-10,3.8405956514257605e-10,1.8413171832874265e-9,1.5772577035744022e-8,1.9247953099513555e-7,5.147198614041667e-8,1.4273173660214716e-9,6.119115403565071e-10,0
41985,2.136652229944511e-10,3.823862586731446e-10,1.8294853470856388e-9,1.537810754966194e-8,1.9190568977356682e-7,5.100462899130955e-8,1.3993448463616193e-9,5.945588849440436e-10,0
41986,2.1186691415698844e-10,3.807129522037131e-10,1.817653510883851e-9,1.4983638063579852e-8,1.913318485519981e-7,5.0537271842202426e-8,1.371372326701767e-9,5.7720622953158e-10,0
41987,2.100686053195258e-10,3.7903964573428165e-10,1.8058216746820632e-9,1.4589168577497767e-8,1.9075800733042937e-7,5.006991469309531e-8,1.3433998070419148e-9,5.598535741191164e-10,0
41988,2.0827029648206317e-10,3.7736633926485015e-10,1.7939898384802753e-9,1.4194699091415682e-8,1.9018416610886065e-7,4.960255754398819e-8,1.3154272873820625e-9,5.42500918706653e-10,0
41989,2.0647198764460053e-10,3.756930327954187e-10,1.7821580022784876e-9,1.3800229605333598e-8,1.8961032488729192e-7,4.913520039488107e-8,1.2874547677222102e-9,5.251482632941894e-10,0
41990,2.0467367880713786e-10,3.740197263259872e-10,1.7703261660766996e-9,1.3405760119251511e-8,1.890364836657232e-7,4.866784324577395e-8,1.259482248062358e-9,5.077956078817258e-10,0
41991,2.0287536996967523e-10,3.7234641985655575e-10,1.758494329874912e-9,1.3011290633169426e-8,1.8846264244415447e-7,4.8200486096666825e-8,1.2315097284025056e-9,4.904429524692623e-10,0
41992,2.010770611322126e-10,3.7067311338712425e-10,1.746662493673124e-9,1.2616821147087341e-8,1.8788880122258574e-7,4.7733128947559707e-8,1.2035372087426534e-9,4.730902970567988e-10,0
41993,1.9927875229474995e-10,3.689998069176928e-10,1.7348306574713363e-9,1.2222351661005255e-8,1.8731496000101702e-7,4.726577179845259e-8,1.175564689082801e-9,4.5573764164433523e-10,0
41994,1.974804434572873e-10,3.673265004482613e-10,1.7229988212695484e-9,1.182788217492317e-8,1.867411187794483e-7,4.679841464934547e-8,1.1475921694229488e-9,4.3838498623187166e-10,0
41995,1.9568213461982465e-10,3.6565319397882986e-10,1.7111669850677607e-9,1.1433412688841085e-8,1.8616727755787956e-7,4.633105750023835e-8,1.1196196497630965e-9,4.2103233081940815e-10,0
41996,1.957804864355073e-10,3.6397988750939836e-10,1.7111669850677607e-9,1.1403026117830842e-8,1.8614972831754643e-7,4.632295341746573e-8,1.1191700873925683e-9,4.2103233081940815e-10,0
41997,1.9398217759804465e-10,3.623065810399669e-10,1.7111669850677607e-9,1.1402653959783569e-8,1.8604280938800238e-7,4.504066701771051e-8,1.1163251409293633e-9,4.1101035796330236e-10,0
41998,1.9218386876058201e-10,3.606332745705354e-10,1.7111669850677607e-9,1.1402281801736297e-8,1.859358904584583e-7,4.375838061795529e-8,1.1134801944661582e-9,4.009883851071966e-10,0
41999,1.9038555992311938e-10,3.5895996810110396e-10,1.7111669850677607e-9,1.1401909643689024e-8,1.8582897152891426e-7,4.2476094218200074e-8,1.110635248002953e-9,3.9096641225109085e-10,0
42000,1.885872510856567e-10,3.5728666163167246e-10,1.7111669850677607e-9,1.1401537485641753e-8,1.857220525993702e-7,4.119380781844486e-8,1.107790301539748e-9,3.8094443939498506e-10,0
42001,1.8678894224819407e-10,3.5561335516224096e-10,1.7111669850677607e-9,1.1401165327594481e-8,1.8561513366982613e-7,3.991152141868964e-8,1.1049453550765428e-9,3.709224665388793e-10,0
42002,1.8499063341073144e-10,3.539400486928095e-10,1.7111669850677607e-9,1.1400793169547208e-8,1.8550821474028208e-7,3.8629235018934416e-8,1.1021004086133377e-9,3.609004936827735e-10,0
42003,1.831923245732688e-10,3.52266742223378e-10,1.7111669850677607e-9,1.1400421011499936e-8,1.85401295810738e-7,3.73469486191792e-8,1.0992554621501326e-9,3.5087852082666777e-10,0
42004,1.8199461768809265e-10,3.504325827542483e-10,1.7131159179995286e-9,1.1400048853452663e-8,1.8529615633976136e-7,3.613083188065876e-8,1.0964597064336066e-9,3.412799939868955e-10,0
42005,1.8019630885063002e-10,3.4926612646108e-10,1.713933166980929e-9,1.1399021605241399e-8,1.8519295685389742e-7,3.487711867670987e-8,1.0940643223409295e-9,3.316814671471232e-10,0
42006,1.7839800001316735e-10,3.4809967016791166e-10,1.7147504159623293e-9,1.1397994357030135e-8,1.8508975736803345e-7,3.3623405472760973e-8,1.0916689382482524e-9,3.2208294030735096e-10,0
42007,1.7659969117570472e-10,3.469332138747433e-10,1.7155676649437297e-9,1.1396967108818869e-8,1.849865578821695e-7,3.2369692268812086e-8,1.0892735541555753e-9,3.124844134675787e-10,0
42008,1.7480138233824208e-10,3.4576675758157497e-10,1.71638491392513e-9,1.1395939860607605e-8,1.8488335839630554e-7,3.111597906486319e-8,1.0868781700628984e-9,3.0288588662780645e-10,0
42009,1.7300307350077944e-10,3.446003012884066e-10,1.7172021629065304e-9,1.139491261239634e-8,1.847801589104416e-7,2.98622658609143e-8,1.0844827859702213e-9,2.932873597880342e-10,0
42010,1.7300307350077944e-10,3.429512859961436e-10,1.709129953957099e-9,1.1324580795707623e-8,1.8379857947742665e-7,2.9750692052313444e-8,1.0776970053160391e-9,2.936354987034942e-10,0
42011,1.7300307350077944e-10,3.413022707038806e-10,1.7010577450076672e-9,1.1254248979018907e-8,1.8281700004441173e-7,2.9639118243712587e-8,1.0709112246618572e-9,2.9398363761895423e-10,0
42012,1.7300307350077944e-10,3.396532554116175e-10,1.6929855360582358e-9,1.1183917162330191e-8,1.8183542061139677e-7,2.952754443511173e-8,1.0641254440076753e-9,2.9433177653441425e-10,0
42013,1.7300307350077944e-10,3.380042401193545e-10,1.684913327108804e-9,1.1113585345641475e-8,1.8085384117838185e-7,2.941597062651087e-8,1.0573396633534931e-9,2.9467991544987427e-10,0
42014,1.7300307350077944e-10,3.363552248270915e-10,1.6768411181593726e-9,1.1043253528952759e-8,1.798722617453669e-7,2.9304396817910015e-8,1.0505538826993112e-9,2.9502805436533434e-10,0
42015,1.7300307350077944e-10,3.3470620953482847e-10,1.6687689092099411e-9,1.0972921712264041e-8,1.7889068231235194e-7,2.919282300930916e-8,1.043768102045129e-9,2.9537619328079435e-10,0
42016,1.7300307350077944e-10,3.3305719424256545e-10,1.6606967002605094e-9,1.0902589895575325e-8,1.7790910287933702e-7,2.90812492007083e-8,1.036982321390947e-9,2.9572433219625437e-10,0
42017,1.7240247154849292e-10,3.3305719424256545e-10,1.6578424201684474e-9,1.0675516144524426e-8,1.739603275904335e-7,2.879187121658714e-8,1.03458693729827e-9,2.9572433219625437e-10,0
42018,1.718018695962064e-10,3.3305719424256545e-10,1.6549881400763852e-9,1.0448442393473527e-8,1.7001155230152998e-7,2.8502493232465983e-8,1.0321915532055929e-9,2.9572433219625437e-10,0
42019,1.7120126764391991e-10,3.3305719424256545e-10,1.652133859984323e-9,1.0221368642422629e-8,1.660627770126265e-7,2.821311524834483e-8,1.029796169112916e-9,2.9572433219625437e-10,0
42020,1.706006656916334e-10,3.3305719424256545e-10,1.6492795798922609e-9,9.99429489137173e-9,1.6211400172372297e-7,2.792373726422367e-8,1.027400785020239e-9,2.9572433219625437e-10,0
42021,1.7000006373934688e-10,3.3305719424256545e-10,1.6464252998001989e-9,9.767221140320831e-9,1.5816522643481945e-7,2.7634359280102513e-8,1.0250054009275618e-9,2.9572433219625437e-10,0
42022,1.6939946178706039e-10,3.3305719424256545e-10,1.6435710197081367e-9,9.540147389269933e-9,1.5421645114591593e-7,2.7344981295981355e-8,1.0226100168348847e-9,2.9572433219625437e-10,0
42023,1.6879885983477387e-10,3.3305719424256545e-10,1.6407167396160745e-9,9.313073638219034e-9,1.5026767585701244e-7,2.7055603311860197e-8,1.0202146327422076e-9,2.9572433219625437e-10,0
42024,1.6819825788248735e-10,3.3305719424256545e-10,1.6378624595240125e-9,9.085999887168134e-9,1.4631890056810892e-7,2.676622532773904e-8,1.0178192486495307e-9,2.9572433219625437e-10,0
42025,1.6759765593020086e-10,3.3305719424256545e-10,1.6350081794319503e-9,8.858926136117235e-9,1.423701252792054e-7,2.647684734361788e-8,1.0154238645568536e-9,2.9572433219625437e-10,0
42026,1.6699705397791434e-10,3.3305719424256545e-10,1.6321538993398882e-9,8.631852385066336e-9,1.384213499903019e-7,2.6187469359496723e-8,1.0130284804641766e-9,2.9572433219625437e-10,0
42027,1.6639645202562782e-10,3.333789002419619e-10,1.6282560334763523e-9,8.404778634015437e-9,1.3446650940071927e-7,2.5909770292409496e-8,1.0102327247476503e-9,2.9537619328079435e-10,0
42028,1.654972976068965e-10,3.333789002419619e-10,1.6243581676128162e-9,8.177704882964539e-9,1.3051195201035242e-7,2.559252546093739e-8,1.0074369690311243e-9,2.9502805436533434e-10,0
42029,1.6459814318816518e-10,3.333789002419619e-10,1.62046030174928e-9,7.95063113191364e-9,1.265573946199856e-7,2.5275280629465285e-8,1.004641213314598e-9,2.9467991544987427e-10,0
42030,1.6369898876943387e-10,3.333789002419619e-10,1.6165624358857442e-9,7.723557380862741e-9,1.2260283722961877e-7,2.495803579799318e-8,1.0018454575980719e-9,2.9433177653441425e-10,0
42031,1.6279983435070255e-10,3.333789002419619e-10,1.6126645700222081e-9,7.496483629811842e-9,1.1864827983925193e-7,2.4640790966521074e-8,9.990497018815458e-10,2.9398363761895423e-10,0
42032,1.6190067993197123e-10,3.333789002419619e-10,1.608766704158672e-9,7.269409878760943e-9,1.1469372244888509e-7,2.4323546135048965e-8,9.962539461650196e-10,2.936354987034942e-10,0
42033,1.4633398744407836e-10,3.147398907284369e-10,1.588774560828559e-9,7.123692369768484e-9,1.1414472249503388e-7,2.4295679287698018e-8,9.73367339170595e-10,2.7635815039190416e-10,0
42034,1.3076729495618548e-10,2.961008812149118e-10,1.5687824174984458e-9,6.977974860776025e-9,1.1359572254118267e-7,2.426781244034707e-8,9.504807321761703e-10,2.590808020803141e-10,0
42035,1.2986814053745417e-10,2.949344249217435e-10,1.5487902741683326e-9,6.907643044087308e-9,1.1211484777983446e-7,2.3586634472083682e-8,9.321320939832876e-10,2.563895117805661e-10,0
42036,1.2896898611872285e-10,2.9376796862857514e-10,1.5287981308382196e-9,6.837311227398592e-9,1.1063397301848625e-7,2.2905456503820298e-8,9.137834557904047e-10,2.536982214808181e-10,0
42037,1.2806983169999153e-10,2.926015123354068e-10,1.5088059875081064e-9,6.766979410709876e-9,1.0915309825713804e-7,2.222427853555691e-8,8.954348175975219e-10,2.5100693118107016e-10,0
42038,1.271706772812602e-10,2.9143505604223845e-10,1.4888138441779932e-9,6.696647594021159e-9,1.0767222349578981e-7,2.1543100567293522e-8,8.770861794046391e-10,2.4831564088132216e-10,0
42039,1.262715228625289e-10,2.902685997490701e-10,1.46882170084788e-9,6.626315777332443e-9,1.061913487344416e-7,2.0861922599030138e-8,8.587375412117562e-10,2.4562435058157416e-10,0
42040,1.2557256909455974e-10,2.884344402799404e-10,1.4490558943078405e-9,6.555827623596941e-9,1.047112559254264e-7,2.0226877983344408e-8,8.407892746427225e-10,2.4293306028182616e-10,0
42041,1.2557256909455974e-10,2.8726798398677204e-10,1.4300151776750813e-9,6.486150897072217e-9,1.032303811640782e-7,1.954680131898452e-8,8.223914457031607e-10,2.4058990889753824e-10,0
42042,1.2557256909455974e-10,2.861015276936037e-10,1.4109744610423222e-9,6.416474170547493e-9,1.0174950640272998e-7,1.8866724654624633e-8,8.03993616763599e-10,2.3824675751325025e-10,0
42043,1.2557256909455974e-10,2.8493507140043535e-10,1.3919337444095632e-9,6.346797444022769e-9,1.0026863164138177e-7,1.8186647990264746e-8,7.855957878240372e-10,2.359036061289623e-10,0
42044,1.2557256909455974e-10,2.83768615107267e-10,1.372893027776804e-9,6.277120717498046e-9,9.878775688003356e-8,1.7506571325904858e-8,7.671979588844755e-10,2.3356045474467434e-10,0
42045,1.2557256909455974e-10,2.826021588140987e-10,1.353852311144045e-9,6.207443990973321e-9,9.730688211868534e-8,1.682649466154497e-8,7.488001299449137e-10,2.3121730336038642e-10,0
42046,1.2557256909455974e-10,2.8143570252093035e-10,1.3348115945112858e-9,6.137767264448597e-9,9.582600735733713e-8,1.6146417997185083e-8,7.30402301005352e-10,2.2887415197609846e-10,0
42047,1.2557256909455974e-10,2.80269246227762e-10,1.3157708778785267e-9,6.068090537923874e-9,9.434513259598892e-8,1.54663413328252e-8,7.120044720657902e-10,2.265310005918105e-10,0
42048,1.2557256909455974e-10,2.7910278993459366e-10,1.2967301612457677e-9,5.998413811399149e-9,9.28642578346407e-8,1.478626466846531e-8,6.936066431262284e-10,2.2418784920752255e-10,0
42049,1.2557256909455974e-10,2.779363336414253e-10,1.2776894446130086e-9,5.928737084874425e-9,9.13833830732925e-8,1.4106188004105424e-8,6.752088141866667e-10,2.2184469782323457e-10,0
42050,1.2557256909455974e-10,2.7676987734825696e-10,1.2586487279802494e-9,5.859060358349702e-9,8.990250831194428e-8,1.3426111339745537e-8,6.568109852471049e-10,2.1950154643894662e-10,0
42051,1.2557256909455974e-10,2.756034210550886e-10,1.2396080113474903e-9,5.789383631824977e-9,8.842163355059607e-8,1.274603467538565e-8,6.384131563075432e-10,2.1715839505465866e-10,0
42052,1.2557256909455974e-10,2.7443696476192027e-10,1.2205672947147312e-9,5.719706905300253e-9,8.694075878924786e-8,1.2065958011025764e-8,6.200153273679814e-10,2.148152436703707e-10,0
42053,1.2557256909455974e-10,2.732705084687519e-10,1.2015265780819722e-9,5.65003017877553e-9,8.545988402789965e-8,1.1385881346665876e-8,6.016174984284197e-10,2.1247209228608275e-10,0
42054,1.2557256909455974e-10,2.7210405217558357e-10,1.182485861449213e-9,5.580353452250806e-9,8.397900926655144e-8,1.0705804682305989e-8,5.832196694888579e-10,2.101289409017948e-10,0
42055,1.2407980676233565e-10,2.6630415894596647e-10,1.147250586485305e-9,5.254623437086008e-9,8.372501319478747e-8,1.0521886193425942e-8,5.83170478742179e-10,2.0990301959917436e-10,0
42056,1.225870444301116e-10,2.605042657163494e-10,1.1120153115213965e-9,4.928893421921211e-9,8.347101712302348e-8,1.0337967704545894e-8,5.831212879955e-10,2.0967709829655393e-10,0
42057,1.225870444301116e-10,2.610111158926125e-10,1.1106532298857293e-9,4.898506850910967e-9,8.254130696558688e-8,1.0324979888270291e-8,5.817234101372369e-10,2.0967709829655393e-10,0
42058,1.225870444301116e-10,2.6151796606887563e-10,1.1092911482500621e-9,4.868120279900724e-9,8.161159680815026e-8,1.0311992071994688e-8,5.803255322789738e-10,2.0967709829655393e-10,0
42059,1.225870444301116e-10,2.620248162451388e-10,1.1079290666143947e-9,4.8377337088904805e-9,8.068188665071366e-8,1.0299004255719084e-8,5.789276544207107e-10,2.0967709829655393e-10,0
42060,1.225870444301116e-10,2.625316664214019e-10,1.1065669849787275e-9,4.807347137880237e-9,7.975217649327706e-8,1.0286016439443483e-8,5.775297765624477e-10,2.0967709829655393e-10,0
42061,1.225870444301116e-10,2.6303851659766503e-10,1.1052049033430604e-9,4.776960566869994e-9,7.882246633584045e-8,1.027302862316788e-8,5.761318987041846e-10,2.0967709829655393e-10,0
42062,1.225870444301116e-10,2.635453667739282e-10,1.103842821707393e-9,4.74657399585975e-9,7.789275617840385e-8,1.0260040806892276e-8,5.747340208459215e-10,2.0967709829655393e-10,0
42063,1.227837480614769e-10,2.633845137742299e-10,1.1017556501644451e-9,4.715532334685514e-9,7.696510867875046e-8,1.0271638783013322e-8,5.737857053581865e-10,2.0925365228022042e-10,0
42064,1.2218314610919038e-10,2.632236607745317e-10,1.0996684786214976e-9,4.685517921722544e-9,7.603533087599947e-8,1.025754966283422e-8,5.724370182466023e-10,2.1017585141376092e-10,0
42065,1.2158254415690386e-10,2.6306280777483346e-10,1.0975813070785498e-9,4.655503508759572e-9,7.510555307324848e-8,1.0243460542655116e-8,5.710883311350182e-10,2.110980505473014e-10,0
42066,1.2098194220461737e-10,2.6290195477513526e-10,1.095494135535602e-9,4.625489095796601e-9,7.417577527049749e-8,1.0229371422476014e-8,5.69739644023434e-10,2.1202024968084188e-10,0
42067,1.2038134025233085e-10,2.62741101775437e-10,1.0934069639926542e-9,4.59547468283363e-9,7.324599746774649e-8,1.021528230229691e-8,5.683909569118499e-10,2.1294244881438238e-10,0
42068,1.1978073830004433e-10,2.625802487757388e-10,1.0913197924497064e-9,4.5654602698706586e-9,7.23162196649955e-8,1.0201193182117808e-8,5.670422698002657e-10,2.1386464794792287e-10,0
42069,1.1918013634775784e-10,2.607460893066091e-10,1.0715539859096668e-9,4.400484328820019e-9,7.18958464949395e-8,1.0077998540639705e-8,5.654476289552868e-10,2.1513498599692339e-10,0
42070,1.1857953439547132e-10,2.589119298374794e-10,1.051788179369627e-9,4.235508387769379e-9,7.14754733248835e-8,9.954803899161602e-9,5.638529881103081e-10,2.164053240459239e-10,0
42071,1.179789324431848e-10,2.570777703683497e-10,1.0320223728295875e-9,4.070532446718739e-9,7.105510015482751e-8,9.831609257683499e-9,5.622583472653293e-10,2.176756620949244e-10,0
42072,1.1737833049089831e-10,2.5524361089921997e-10,1.012256566289548e-9,3.9055565056680984e-9,7.063472698477151e-8,9.708414616205398e-9,5.606637064203505e-10,2.1894600014392492e-10,0
42073,1.167777285386118e-10,2.5340945143009027e-10,9.924907597495082e-10,3.740580564617458e-9,7.021435381471551e-8,9.585219974727295e-9,5.590690655753716e-10,2.2021633819292544e-10,0
42074,1.1617712658632529e-10,2.5157529196096056e-10,9.727249532094687e-10,3.5756046235668184e-9,6.979398064465952e-8,9.462025333249192e-9,5.574744247303928e-10,2.2148667624192595e-10,0
42075,1.1557652463403877e-10,2.4974113249183085e-10,9.52959146669429e-10,3.410628682516178e-9,6.937360747460352e-8,9.338830691771089e-9,5.558797838854141e-10,2.2275701429092646e-10,0
42076,1.1557652463403877e-10,2.4991008255058527e-10,9.508719751264813e-10,3.3826611388132044e-9,6.932541874021935e-8,9.305373762461779e-9,5.486936316073829e-10,2.2238047878655906e-10,0
42077,1.1557652463403877e-10,2.5007903260933964e-10,9.487848035835335e-10,3.354693595110231e-9,6.927723000583519e-8,9.271916833152468e-9,5.415074793293517e-10,2.2200394328219167e-10,0
42078,1.1557652463403877e-10,2.50247982668094e-10,9.466976320405857e-10,3.3267260514072573e-9,6.922904127145102e-8,9.238459903843156e-9,5.343213270513206e-10,2.2162740777782427e-10,0
42079,1.1557652463403877e-10,2.5041693272684837e-10,9.44610460497638e-10,3.298758507704284e-9,6.918085253706686e-8,9.205002974533845e-9,5.271351747732895e-10,2.2125087227345689e-10,0
42080,1.1557652463403877e-10,2.5058588278560274e-10,9.425232889546901e-10,3.27079096400131e-9,6.91326638026827e-8,9.171546045224535e-9,5.199490224952583e-10,2.208743367690895e-10,0
42081,1.1557652463403877e-10,2.5075483284435716e-10,9.404361174117423e-10,3.242823420298337e-9,6.908447506829853e-8,9.138089115915224e-9,5.127628702172271e-10,2.204978012647221e-10,0
42082,1.1557652463403877e-10,2.509237829031115e-10,9.383489458687945e-10,3.214855876595363e-9,6.903628633391438e-8,9.104632186605912e-9,5.05576717939196e-10,2.2012126576035472e-10,0
42083,1.1557652463403877e-10,2.510927329618659e-10,9.362617743258467e-10,3.1868883328923898e-9,6.898809759953021e-8,9.071175257296603e-9,4.983905656611649e-10,2.197447302559873e-10,0
42084,1.1557652463403877e-10,2.5126168302062026e-10,9.341746027828992e-10,3.158920789189416e-9,6.893990886514605e-8,9.037718327987291e-9,4.912044133831337e-10,2.1936819475161993e-10,0
42085,1.1557652463403877e-10,2.514306330793746e-10,9.3208743123995135e-10,3.1309532454864427e-9,6.8891720130761885e-08,9.00426139867798e-9,4.840182611051026e-10,2.1899165924725255e-10,0
42086,1.1557652463403877e-10,2.5159958313812904e-10,9.300002596970035e-10,3.102985701783469e-9,6.884353139637772e-8,8.970804469368668e-9,4.768321088270714e-10,2.1861512374288514e-10,0
42087,1.1557652463403877e-10,2.517685331968834e-10,9.279591676911157e-10,3.074176988892867e-9,6.879619225964094e-8,8.9370361470521e-9,4.695967658023613e-10,2.1731638910497727e-10,0
42088,1.1557652463403877e-10,2.519374832556378e-10,9.259180756852278e-10,3.0453682760022646e-9,6.874885312290417e-8,8.903267824735532e-9,4.6236142277765126e-10,2.160176544670694e-10,0
42089,1.1557652463403877e-10,2.5210643331439214e-10,9.238769836793399e-10,3.0165595631116627e-9,6.87015139861674e-8,8.869499502418964e-9,4.551260797529412e-10,2.1471891982916152e-10,0
42090,1.1557652463403877e-10,2.522753833731465e-10,9.218358916734521e-10,2.9877508502210603e-9,6.865417484943063e-8,8.835731180102396e-9,4.478907367282311e-10,2.1342018519125364e-10,0
42091,1.1557652463403877e-10,2.5244433343190093e-10,9.182104421370495e-10,2.956895268070461e-9,6.772937300850465e-8,8.644691122511879e-9,4.478907367282311e-10,2.1376832410671366e-10,0
42092,1.1557652463403877e-10,2.526132834906553e-10,9.14584992600647e-10,2.9260396859198613e-9,6.680457116757867e-8,8.45365106492136e-9,4.478907367282311e-10,2.1411646302217367e-10,0
42093,1.1587507710048359e-10,2.5278223354940966e-10,9.146310721377069e-10,2.926225764943497e-9,6.67894056381193e-8,8.453339671914103e-9,4.4649285886996804e-10,2.1411646302217367e-10,0
42094,1.161736295669284e-10,2.5295118360816403e-10,9.146771516747669e-10,2.9264118439671334e-9,6.677424010865992e-8,8.453028278906847e-9,4.4509498101170493e-10,2.1411646302217367e-10,0
42095,1.1647218203337321e-10,2.5312013366691845e-10,9.147232312118268e-10,2.9265979229907696e-9,6.675907457920056e-8,8.452716885899589e-9,4.4369710315344187e-10,2.1411646302217367e-10,0
42096,1.1677073449981804e-10,2.532890837256728e-10,9.147693107488867e-10,2.9267840020144058e-9,6.674390904974118e-8,8.452405492892332e-9,4.4229922529517875e-10,2.1411646302217367e-10,0
42097,1.1706928696626284e-10,2.534580337844272e-10,9.148153902859466e-10,2.926970081038042e-9,6.672874352028182e-8,8.452094099885075e-9,4.409013474369157e-10,2.1411646302217367e-10,0
42098,1.1736783943270764e-10,2.5362698384318155e-10,9.148614698230065e-10,2.9271561600616782e-9,6.671357799082244e-8,8.451782706877819e-9,4.3950346957865263e-10,2.1411646302217367e-10,0
42099,1.1756804008346983e-10,2.5362698384318155e-10,9.15586559730287e-10,2.9281834082729426e-9,6.670652780186716e-8,8.509369767450991e-9,4.3950346957865263e-10,2.1376832410671366e-10,0
42100,1.199599568344252e-10,2.5395678690163417e-10,9.153602229402135e-10,2.9292106564842075e-9,6.669136227240778e-8,8.52578814986238e-9,4.3855515409091756e-10,2.1334487809038015e-10,0
42101,1.223518735853806e-10,2.5428658996008674e-10,9.1513388615014e-10,2.930237904695472e-9,6.667619674294842e-8,8.542206532273766e-9,4.3760683860318253e-10,2.1292143207404665e-10,0
42102,1.2474379033633598e-10,2.5461639301853937e-10,9.149075493600664e-10,2.9312651529067367e-9,6.666103121348904e-8,8.558624914685153e-9,4.366585231154475e-10,2.1249798605771314e-10,0
42103,1.2713570708729138e-10,2.54946196076992e-10,9.146812125699929e-10,2.9322924011180016e-9,6.664586568402968e-8,8.575043297096541e-9,4.357102076277125e-10,2.1207454004137964e-10,0
42104,1.2952762383824676e-10,2.5527599913544456e-10,9.144548757799193e-10,2.933319649329266e-9,6.66307001545703e-8,8.591461679507928e-9,4.3476189213997745e-10,2.1165109402504614e-10,0
42105,1.3191954058920213e-10,2.556058021938972e-10,9.142285389898459e-10,2.934346897540531e-9,6.661553462511093e-8,8.607880061919316e-9,4.3381357665224243e-10,2.1122764800871263e-10,0
42106,1.3431145734015754e-10,2.559356052523498e-10,9.140022021997723e-10,2.9353741457517956e-9,6.660036909565156e-8,8.624298444330703e-9,4.328652611645074e-10,2.1080420199237913e-10,0
42107,1.367033740911129e-10,2.562654083108024e-10,9.137758654096987e-10,2.93640139396306e-9,6.658520356619219e-8,8.64071682674209e-9,4.3191694567677233e-10,2.1038075597604562e-10,0
42108,1.390952908420683e-10,2.56595211369255e-10,9.135495286196253e-10,2.937428642174325e-9,6.657003803673281e-8,8.657135209153478e-9,4.309686301890373e-10,2.0995730995971212e-10,0
42109,1.4148720759302369e-10,2.569250144277076e-10,9.133231918295517e-10,2.9384558903855897e-9,6.655487250727345e-8,8.673553591564864e-9,4.300203147013023e-10,2.0953386394337861e-10,0
42110,1.4387912434397909e-10,2.572548174861602e-10,9.130968550394782e-10,2.939483138596854e-9,6.653970697781407e-8,8.689971973976252e-9,4.2907199921356725e-10,2.091104179270451e-10,0
42111,1.4627104109493446e-10,2.5758462054461283e-10,9.128705182494047e-10,2.940510386808119e-9,6.652454144835471e-8,8.706390356387639e-9,4.281236837258322e-10,2.086869719107116e-10,0
42112,1.4866295784588986e-10,2.579144236030654e-10,9.126441814593311e-10,2.941537635019384e-9,6.650937591889533e-8,8.722808738799026e-9,4.271753682380972e-10,2.082635258943781e-10,0
42113,1.5105487459684524e-10,2.58244226661518e-10,9.124178446692576e-10,2.9425648832306482e-9,6.649421038943596e-8,8.739227121210414e-9,4.262270527503621e-10,2.078400798780446e-10,0
42114,1.5235093329770402e-10,2.58244226661518e-10,9.113742588977837e-10,2.9393862855037704e-9,6.433527217850415e-8,8.512188033684173e-9,4.252787372626271e-10,2.077647727771711e-10,0
42115,1.5454264939789723e-10,2.5857402971997065e-10,9.022584641768783e-10,2.892994618440989e-9,6.432993380280191e-8,8.49753683317522e-9,4.225390179431975e-10,2.0499817537654965e-10,0
42116,1.5673436549809044e-10,2.589038327784232e-10,8.931426694559728e-10,2.846602951378208e-9,6.432459542709965e-8,8.482885632666268e-9,4.19799298623768e-10,2.022315779759282e-10,0
42117,1.5892608159828368e-10,2.5923363583687585e-10,8.840268747350673e-10,2.8002112843154266e-9,6.431925705139739e-8,8.468234432157315e-9,4.170595793043384e-10,1.9946498057530673e-10,0
42118,1.611177976984769e-10,2.5956343889532847e-10,8.749110800141619e-10,2.7538196172526456e-9,6.431391867569515e-8,8.453583231648364e-9,4.1431985998490883e-10,1.9669838317468528e-10,0
42119,1.633095137986701e-10,2.5989324195378104e-10,8.657952852932564e-10,2.7074279501898642e-9,6.430858029999289e-8,8.438932031139411e-9,4.1158014066547925e-10,1.9393178577406382e-10,0
42120,1.655012298988633e-10,2.6022304501223367e-10,8.56679490572351e-10,2.6610362831270832e-9,6.430324192429064e-8,8.424280830630458e-9,4.088404213460497e-10,1.9116518837344236e-10,0
42121,1.6769294599905655e-10,2.6055284807068624e-10,8.475636958514456e-10,2.614644616064302e-9,6.429790354858838e-8,8.409629630121507e-9,4.061007020266201e-10,1.883985909728209e-10,0
42122,1.683918997670257e-10,2.6088265112913886e-10,8.386742379206137e-10,2.567225700790256e-9,6.429171557523874e-8,8.37824865419391e-9,4.029114203366625e-10,1.8735417422644082e-10,0
42123,1.6909085353499483e-10,2.612124541875915e-10,8.297847799897817e-10,2.51980678551621e-9,6.42855276018891e-8,8.346867678266314e-9,3.9972213864670487e-10,1.8630975748006074e-10,0
42124,1.6978980730296399e-10,2.6154225724604406e-10,8.208953220589498e-10,2.4723878702421644e-9,6.427933962853945e-8,8.315486702338716e-9,3.965328569567472e-10,1.8526534073368066e-10,0
42125,1.7048876107093314e-10,2.618720603044967e-10,8.120058641281179e-10,2.4249689549681185e-9,6.427315165518979e-8,8.28410572641112e-9,3.933435752667896e-10,1.8422092398730058e-10,0
42126,1.711877148389023e-10,2.622018633629493e-10,8.03116406197286e-10,2.3775500396940727e-9,6.426696368184015e-8,8.252724750483522e-9,3.90154293576832e-10,1.831765072409205e-10,0
42127,1.7188666860687145e-10,2.625316664214019e-10,7.94226948266454e-10,2.330131124420027e-9,6.42607757084905e-8,8.221343774555926e-9,3.8696501188687436e-10,1.8213209049454042e-10,0
42128,1.725856223748406e-10,2.628614694798545e-10,7.853374903356221e-10,2.2827122091459807e-9,6.425458773514086e-8,8.189962798628328e-9,3.8377573019691675e-10,1.8108767374816035e-10,0
42129,1.7328457614280976e-10,2.6319127253830713e-10,7.764480324047902e-10,2.235293293871935e-9,6.424839976179122e-8,8.158581822700732e-9,3.8058644850695914e-10,1.8004325700178027e-10,0
42130,1.7398352991077891e-10,2.635210755967597e-10,7.675585744739583e-10,2.187874378597889e-9,6.424221178844157e-8,8.127200846773136e-9,3.7739716681700147e-10,1.789988402554002e-10,0
42131,1.7468248367874807e-10,2.638508786552123e-10,7.586691165431263e-10,2.1404554633238432e-9,6.423602381509193e-8,8.095819870845539e-9,3.7420788512704386e-10,1.779544235090201e-10,0
42132,1.7538143744671722e-10,2.641806817136649e-10,7.497796586122944e-10,2.0930365480497974e-9,6.422983584174228e-8,8.064438894917943e-9,3.7101860343708625e-10,1.7691000676264003e-10,0
42133,1.7608039121468635e-10,2.645104847721175e-10,7.408902006814625e-10,2.0456176327757516e-9,6.422364786839264e-8,8.033057918990345e-9,3.6782932174712863e-10,1.7586559001625998e-10,0
42134,1.767793449826555e-10,2.6484028783057014e-10,7.320007427506306e-10,1.9981987175017058e-9,6.4217459895043e-8,8.001676943062749e-9,3.64640040057171e-10,1.748211732698799e-10,0
42135,1.7657914433189334e-10,2.6599864706468233e-10,7.23928533801199e-10,1.9509658812512957e-9,6.421198622871197e-8,8.039495996001637e-9,3.6145075836721335e-10,1.734002210191324e-10,0
42136,1.7657914433189334e-10,2.6599864706468233e-10,7.249721195726729e-10,1.896594164313203e-9,6.419668540862382e-8,8.039495996001637e-9,3.5665999018185927e-10,1.7409649885005247e-10,0
42137,1.7567998991316203e-10,2.613247248329528e-10,7.198964902217094e-10,1.8467562217318873e-9,6.294290944628439e-8,8.108384631860865e-9,3.514265052763948e-10,1.7409649885005247e-10,0
42138,1.747808354944307e-10,2.566508026012233e-10,7.148208608707458e-10,1.7969182791505716e-9,6.168913348394497e-8,8.177273267720094e-9,3.461930203709303e-10,1.7409649885005247e-10,0
42139,1.738816810756994e-10,2.5197688036949377e-10,7.097452315197821e-10,1.7470803365692558e-9,6.043535752160553e-8,8.246161903579322e-9,3.4095953546546583e-10,1.7409649885005247e-10,0
42140,1.7298252665696807e-10,2.473029581377642e-10,7.046696021688185e-10,1.69724239398794e-9,5.918158155926611e-8,8.31505053943855e-9,3.3572605056000135e-10,1.7409649885005247e-10,0
42141,1.7208337223823672e-10,2.426290359060347e-10,6.995939728178549e-10,1.6474044514066244e-9,5.7927805596926685e-8,8.38393917529778e-9,3.304925656545368e-10,1.7409649885005247e-10,0
42142,1.711842178195054e-10,2.379551136743052e-10,6.945183434668914e-10,1.5975665088253087e-9,5.667402963458726e-8,8.452827811157006e-9,3.2525908074907233e-10,1.7409649885005247e-10,0
42143,1.7048526405153625e-10,2.329594854431792e-10,6.886254651345275e-10,1.5475424872203569e-9,5.541960701054361e-8,8.463321861846575e-9,3.200747865902868e-10,1.7275085370017847e-10,0
42144,1.6978631028356712e-10,2.2796385721205323e-10,6.827325868021635e-10,1.497518465615405e-9,5.416518438649995e-8,8.473815912536143e-9,3.1489049243150123e-10,1.7140520855030447e-10,0
42145,1.6908735651559797e-10,2.2296822898092727e-10,6.768397084697996e-10,1.4474944440104531e-9,5.2910761762456294e-8,8.484309963225712e-9,3.0970619827271566e-10,1.700595634004305e-10,0
42146,1.683884027476288e-10,2.179726007498013e-10,6.709468301374356e-10,1.3974704224055013e-9,5.1656339138412636e-8,8.49480401391528e-9,3.0452190411393013e-10,1.687139182505565e-10,0
42147,1.6768944897965966e-10,2.129769725186753e-10,6.650539518050717e-10,1.3474464008005494e-9,5.0401916514368986e-8,8.505298064604849e-9,2.9933760995514455e-10,1.673682731006825e-10,0
42148,1.669904952116905e-10,2.0798134428754935e-10,6.591610734727077e-10,1.2974223791955976e-9,4.914749389032533e-8,8.515792115294416e-9,2.9415331579635903e-10,1.6602262795080853e-10,0
42149,1.6629154144372135e-10,2.0298571605642336e-10,6.532681951403438e-10,1.2473983575906458e-9,4.789307126628167e-8,8.526286165983984e-9,2.8896902163757345e-10,1.6467698280093453e-10,0
42150,1.664917420944835e-10,1.995106383540868e-10,5.970392097166823e-10,1.2346839666831336e-9,4.7857038369172244e-8,8.503323287364241e-9,2.890182123842524e-10,1.6425353678460103e-10,0
42151,1.666919427452457e-10,1.960355606517502e-10,5.408102242930209e-10,1.2219695757756213e-9,4.782100547206282e-8,8.4803604087445e-9,2.890674031309313e-10,1.6383009076826752e-10,0
42152,1.6659359092956304e-10,1.9654241082801333e-10,5.387230527500731e-10,1.2010890559691615e-9,4.780139357394647e-8,8.437634765546427e-9,2.886670315070822e-10,1.6318072344931358e-10,0
42153,1.664952391138804e-10,1.9704926100427646e-10,5.366358812071253e-10,1.1802085361627014e-9,4.778178167583013e-8,8.394909122348355e-9,2.882666598832331e-10,1.6253135613035965e-10,0
42154,1.6639688729819777e-10,1.975561111805396e-10,5.345487096641776e-10,1.1593280163562415e-9,4.776216977771379e-8,8.352183479150282e-9,2.87866288259384e-10,1.618819888114057e-10,0
42155,1.6629853548251513e-10,1.9806296135680274e-10,5.324615381212298e-10,1.1384474965497814e-9,4.774255787959744e-8,8.30945783595221e-9,2.8746591663553484e-10,1.6123262149245177e-10,0
42156,1.6620018366683247e-10,1.9856981153306586e-10,5.30374366578282e-10,1.1175669767433214e-9,4.77229459814811e-8,8.266732192754137e-9,2.870655450116857e-10,1.6058325417349783e-10,0
42157,1.6610183185114983e-10,1.9907666170932902e-10,5.282871950353342e-10,1.0966864569368615e-9,4.770333408336476e-8,8.224006549556066e-9,2.8666517338783663e-10,1.599338868545439e-10,0
42158,1.695966006909956e-10,1.9891580870963078e-10,5.26925113399667e-10,1.0758059371304014e-9,4.7683654539934026e-8,8.253498932211898e-9,2.8621561101730855e-10,1.5970796555192346e-10,0
42159,1.6949824887531294e-10,1.994226588858939e-10,5.248379418567192e-10,1.0559526655352062e-9,4.7664042641817685e-8,8.199572889868879e-9,2.857660486467805e-10,1.5905859823296952e-10,0
42160,1.693998970596303e-10,1.9992950906215704e-10,5.227507703137714e-10,1.0360993939400107e-9,4.764443074370134e-8,8.145646847525861e-9,2.853164862762525e-10,1.5840923091401558e-10,0
42161,1.6930154524394767e-10,2.0043635923842016e-10,5.206635987708236e-10,1.0162461223448155e-9,4.7624818845585e-8,8.091720805182842e-9,2.848669239057244e-10,1.5775986359506162e-10,0
42162,1.6920319342826503e-10,2.0094320941468331e-10,5.185764272278759e-10,9.9639285074962e-10,4.7605206947468656e-8,8.037794762839822e-9,2.8441736153519636e-10,1.5711049627610768e-10,0
42163,1.6910484161258237e-10,2.0145005959094644e-10,5.164892556849281e-10,9.765395791544248e-10,4.758559504935231e-8,7.983868720496804e-9,2.839677991646683e-10,1.5646112895715374e-10,0
42164,1.6900648979689973e-10,2.0195690976720956e-10,5.144020841419803e-10,9.566863075592295e-10,4.756598315123597e-8,7.929942678153785e-9,2.8351823679414024e-10,1.558117616381998e-10,0
42165,1.689081379812171e-10,2.024637599434727e-10,5.123149125990325e-10,9.36833035964034e-10,4.754637125311963e-8,7.876016635810765e-9,2.830686744236122e-10,1.5516239431924587e-10,0
42166,1.6880978616553446e-10,2.0297061011973584e-10,5.102277410560848e-10,9.169797643688388e-10,4.752675935500328e-8,7.822090593467748e-9,2.8261911205308417e-10,1.5451302700029193e-10,0
42167,1.687114343498518e-10,2.0347746029599897e-10,5.08140569513137e-10,8.971264927736435e-10,4.750714745688694e-8,7.768164551124728e-9,2.8216954968255613e-10,1.53863659681338e-10,0
42168,1.6861308253416916e-10,2.039843104722621e-10,5.060533979701892e-10,8.772732211784482e-10,4.74875355587706e-8,7.71423850878171e-9,2.8171998731202805e-10,1.5321429236238405e-10,0
42169,1.6851473071848652e-10,2.0449116064852525e-10,5.039662264272414e-10,8.574199495832529e-10,4.746792366065425e-8,7.660312466438691e-9,2.812704249415e-10,1.5256492504343012e-10,0
42170,1.6841637890280388e-10,2.0499801082478837e-10,5.018790548842937e-10,8.375666779880575e-10,4.744831176253791e-8,7.606386424095671e-9,2.80820862570972e-10,1.5191555772447618e-10,0
42171,1.6831802708712122e-10,2.055048610010515e-10,4.997918833413459e-10,8.177134063928622e-10,4.742869986442157e-8,7.552460381752654e-9,2.803713002004439e-10,1.5126619040552224e-10,0
42172,1.6821967527143858e-10,2.0601171117731462e-10,4.977047117983981e-10,7.978601347976669e-10,4.740908796630522e-8,7.498534339409634e-9,2.7992173782991586e-10,1.506168230865683e-10,0
42173,1.6841987592220075e-10,2.0684836441203037e-10,4.940331827249356e-10,7.988873830089315e-10,4.7360019842834024e-8,7.440240930381082e-9,2.7673245613995824e-10,1.506168230865683e-10,0
42174,1.6752421852286632e-10,2.073552145882935e-10,4.879099067072721e-10,7.975474607040961e-10,4.723886068922747e-8,7.399988817540823e-9,2.7533457828169513e-10,1.5054151598569482e-10,0
42175,1.666285611235319e-10,2.0786206476455663e-10,4.817866306896085e-10,7.962075383992605e-10,4.711770153562092e-8,7.3597367047005645e-9,2.7393670042343207e-10,1.5046620888482136e-10,0
42176,1.6573290372419744e-10,2.0836891494081978e-10,4.75663354671945e-10,7.94867616094425e-10,4.699654238201437e-8,7.319484591860306e-9,2.7253882256516896e-10,1.5039090178394787e-10,0
42177,1.64837246324863e-10,2.088757651170829e-10,4.695400786542814e-10,7.935276937895894e-10,4.6875383228407815e-8,7.279232479020047e-9,2.711409447069059e-10,1.5031559468307438e-10,0
42178,1.6394158892552855e-10,2.0938261529334603e-10,4.6341680263661783e-10,7.92187771484754e-10,4.675422407480126e-8,7.238980366179788e-9,2.6974306684864284e-10,1.5024028758220092e-10,0
42179,1.6304593152619412e-10,2.0988946546960915e-10,4.572935266189543e-10,7.908478491799184e-10,4.663306492119471e-8,7.198728253339529e-9,2.683451889903797e-10,1.5016498048132744e-10,0
42180,1.6224862594254233e-10,2.103963156458723e-10,4.5189534050857125e-10,7.919422085074164e-10,4.651183812227377e-8,7.212402182842289e-9,2.675444457426815e-10,1.5051311939678745e-10,0
42181,1.613529685432079e-10,2.1023546264617408e-10,4.4577206449090766e-10,7.895750379913162e-10,4.6394250503760304e-8,7.2896455887967284e-9,2.69335849574376e-10,1.5051311939678745e-10,0
42182,1.6045731114387345e-10,2.1007460964647584e-10,4.396487884732441e-10,7.872078674752159e-10,4.6276662885246835e-8,7.3668889947511685e-9,2.7112725340607057e-10,1.5051311939678745e-10,0
42183,1.5956165374453902e-10,2.099137566467776e-10,4.335255124555806e-10,7.848406969591157e-10,4.6159075266733366e-8,7.444132400705609e-9,2.729186572377651e-10,1.5051311939678745e-10,0
42184,1.5866599634520457e-10,2.0975290364707938e-10,4.27402236437917e-10,7.824735264430155e-10,4.6041487648219897e-8,7.521375806660049e-9,2.747100610694597e-10,1.5051311939678745e-10,0
42185,1.5777033894587014e-10,2.0959205064738115e-10,4.2127896042025344e-10,7.801063559269153e-10,4.5923900029706434e-8,7.598619212614488e-9,2.765014649011542e-10,1.5051311939678745e-10,0
42186,1.576719871301875e-10,2.0976100070613554e-10,4.1933002748848545e-10,7.609005473331806e-10,4.5915298554043384e-8,7.716114731409186e-9,2.796907465911118e-10,1.5058842649766094e-10,0
42187,1.5757363531450484e-10,2.099299507648899e-10,4.173810945567174e-10,7.416947387394458e-10,4.590669707838034e-8,7.833610250203885e-9,2.8288002828106946e-10,1.5066373359853443e-10,0
42188,1.574752834988222e-10,2.100989008236443e-10,4.154321616249494e-10,7.224889301457111e-10,4.58980956027173e-8,7.951105768998584e-9,2.8606930997102707e-10,1.507390406994079e-10,0
42189,1.5737693168313956e-10,2.1026785088239867e-10,4.134832286931814e-10,7.032831215519763e-10,4.5889494127054254e-8,8.068601287793282e-9,2.892585916609847e-10,1.5081434780028137e-10,0
42190,1.5727857986745693e-10,2.1043680094115303e-10,4.1153429576141337e-10,6.840773129582416e-10,4.5880892651391204e-8,8.186096806587981e-9,2.924478733509423e-10,1.5088965490115486e-10,0
42191,1.571802280517743e-10,2.1060575099990743e-10,4.095853628296454e-10,6.648715043645069e-10,4.587229117572816e-8,8.303592325382679e-9,2.956371550408999e-10,1.5096496200202832e-10,0
42192,1.5708187623609163e-10,2.107747010586618e-10,4.076364298978774e-10,6.456656957707721e-10,4.586368970006512e-8,8.421087844177379e-9,2.988264367308576e-10,1.510402691029018e-10,0
42193,1.56983524420409e-10,2.1094365111741619e-10,4.0568749696610934e-10,6.264598871770374e-10,4.5855088224402074e-8,8.538583362972076e-9,3.020157184208152e-10,1.511155762037753e-10,0
42194,1.5688517260472635e-10,2.1111260117617055e-10,4.0373856403434135e-10,6.072540785833027e-10,4.5846486748739024e-8,8.656078881766776e-9,3.052050001107728e-10,1.5119088330464875e-10,0
42195,1.5678682078904372e-10,2.1128155123492495e-10,4.0178963110257336e-10,5.880482699895679e-10,4.583788527307598e-8,8.773574400561473e-9,3.083942818007304e-10,1.5126619040552224e-10,0
42196,1.5668846897336105e-10,2.114505012936793e-10,3.9984069817080537e-10,5.688424613958331e-10,4.582928379741294e-8,8.891069919356173e-9,3.1158356349068803e-10,1.5134149750639573e-10,0
42197,1.5659011715767842e-10,2.1161945135243368e-10,3.978917652390373e-10,5.496366528020985e-10,4.5820682321749894e-8,9.00856543815087e-9,3.147728451806457e-10,1.514168046072692e-10,0
42198,1.5649176534199578e-10,2.1178840141118807e-10,3.9594283230726933e-10,5.304308442083637e-10,4.5812080846086844e-8,9.12606095694557e-9,3.179621268706033e-10,1.5149211170814267e-10,0
42199,1.5639341352631314e-10,2.1195735146994244e-10,3.9399389937550134e-10,5.112250356146289e-10,4.58034793704238e-8,9.243556475740267e-9,3.211514085605609e-10,1.5156741880901616e-10,0
42200,1.565936141770753e-10,2.1096794229458462e-10,3.9399389937550134e-10,5.088578650985287e-10,4.57718297521801e-8,9.323394823421851e-9,3.238911278799905e-10,1.4992054525564824e-10,0
42201,1.5679381482783747e-10,2.0997853311922682e-10,3.9399389937550134e-10,5.064906945824285e-10,4.5740180133936406e-8,9.403233171103433e-9,3.266308471994201e-10,1.4827367170228035e-10,0
42202,1.5679381482783747e-10,2.088201738851146e-10,3.948111483569017e-10,5.041235240663283e-10,4.5705740932932625e-8,9.384465291231539e-9,3.2623047557557095e-10,1.4662679814891243e-10,0
42203,1.5699401547859964e-10,2.0799161770945505e-10,3.948572278939616e-10,5.019424325738642e-10,4.567258243737906e-8,9.347514468573802e-9,3.28625859668248e-10,1.4532806351100455e-10,0
42204,1.571942161293618e-10,2.0716306153379546e-10,3.949033074310215e-10,4.997613410814001e-10,4.563942394182549e-8,9.310563645916064e-9,3.3102124376092503e-10,1.4402932887309668e-10,0
42205,1.57394416780124e-10,2.0633450535813587e-10,3.9494938696808143e-10,4.97580249588936e-10,4.560626544627193e-8,9.273612823258327e-9,3.334166278536021e-10,1.427305942351888e-10,0
42206,1.5759461743088615e-10,2.0550594918247628e-10,3.9499546650514135e-10,4.953991580964721e-10,4.557310695071836e-8,9.23666200060059e-9,3.3581201194627917e-10,1.4143185959728093e-10,0
42207,1.5779481808164832e-10,2.046773930068167e-10,3.9504154604220127e-10,4.93218066604008e-10,4.5539948455164794e-8,9.19971117794285e-9,3.382073960389562e-10,1.4013312495937305e-10,0
42208,1.5799501873241048e-10,2.038488368311571e-10,3.9508762557926124e-10,4.910369751115439e-10,4.5506789959611223e-8,9.162760355285113e-9,3.4060278013163325e-10,1.3883439032146517e-10,0
42209,1.5789666691672784e-10,2.038488368311571e-10,3.9536004190639467e-10,4.888558836190798e-10,4.276331063701208e-8,9.101955566970283e-9,3.4060278013163325e-10,1.3883439032146517e-10,0
42210,1.5789666691672784e-10,2.041786398896097e-10,3.954061214434546e-10,4.834290832835044e-10,4.1044894101244565e-8,9.076268470670133e-9,3.428505919842735e-10,1.3925783633779868e-10,0
42211,1.5789666691672784e-10,2.045084429480623e-10,3.954522009805145e-10,4.78002282947929e-10,3.932647756547706e-8,9.050581374369986e-9,3.4509840383691375e-10,1.3968128235413218e-10,0
42212,1.5789666691672784e-10,2.0483824600651492e-10,3.954982805175744e-10,4.725754826123537e-10,3.7608061029709546e-8,9.024894278069836e-9,3.47346215689554e-10,1.4010472837046569e-10,0
42213,1.5789666691672784e-10,2.0516804906496752e-10,3.9554436005463434e-10,4.671486822767783e-10,3.588964449394204e-8,8.999207181769689e-9,3.4959402754219426e-10,1.405281743867992e-10,0
42214,1.5789666691672784e-10,2.0549785212342012e-10,3.9559043959169426e-10,4.6172188194120294e-10,3.417122795817453e-8,8.97352008546954e-9,3.518418393948345e-10,1.409516204031327e-10,0
42215,1.5789666691672784e-10,2.0582765518187272e-10,3.956365191287542e-10,4.562950816056276e-10,3.245281142240702e-8,8.947832989169392e-9,3.5408965124747476e-10,1.413750664194662e-10,0
42216,1.5789666691672784e-10,2.0615745824032534e-10,3.9568259866581415e-10,4.5086828127005224e-10,3.073439488663951e-8,8.922145892869242e-9,3.56337463100115e-10,1.417985124357997e-10,0
42217,1.5789666691672784e-10,2.0615745824032534e-10,3.964998476472145e-10,4.4946124784898346e-10,2.9013915693088786e-8,8.957263584883925e-9,3.56337463100115e-10,1.417985124357997e-10,0
42218,1.58595620684697e-10,2.0648726129877794e-10,3.96273510857141e-10,4.4369203144298653e-10,2.7293436499538063e-8,8.962646071504116e-9,3.5574032848955013e-10,1.417985124357997e-10,0
42219,1.5929457445266615e-10,2.0681706435723054e-10,3.960471740670674e-10,4.379228150369896e-10,2.5572957305987336e-8,8.968028558124308e-9,3.5514319387898533e-10,1.417985124357997e-10,0
42220,1.599935282206353e-10,2.0714686741568316e-10,3.958208372769939e-10,4.321535986309927e-10,2.3852478112436614e-8,8.973411044744498e-9,3.545460592684205e-10,1.417985124357997e-10,0
42221,1.6069248198860446e-10,2.0747667047413576e-10,3.9559450048692035e-10,4.263843822249957e-10,2.2131998918885887e-8,8.97879353136469e-9,3.5394892465785563e-10,1.417985124357997e-10,0
42222,1.6139143575657362e-10,2.0780647353258836e-10,3.9536816369684684e-10,4.2061516581899877e-10,2.0411519725335164e-8,8.984176017984881e-9,3.533517900472908e-10,1.417985124357997e-10,0
42223,1.6209038952454277e-10,2.0813627659104096e-10,3.9514182690677333e-10,4.1484594941300185e-10,1.8691040531784438e-8,8.989558504605071e-9,3.5275465543672593e-10,1.417985124357997e-10,0
42224,1.627893432925119e-10,2.0846607964949358e-10,3.9491549011669976e-10,4.090767330070049e-10,1.6970561338233715e-8,8.994940991225263e-9,3.521575208261611e-10,1.417985124357997e-10,0
42225,1.6348829706048106e-10,2.0879588270794618e-10,3.9468915332662625e-10,4.03307516601008e-10,1.525008214468299e-8,9.000323477845455e-9,3.5156038621559623e-10,1.417985124357997e-10,0
42226,1.641872508284502e-10,2.0912568576639878e-10,3.944628165365527e-10,3.9753830019501107e-10,1.3529602951132266e-8,9.005705964465645e-9,3.509632516050314e-10,1.417985124357997e-10,0
42227,1.6488620459641937e-10,2.0945548882485137e-10,3.942364797464792e-10,3.9176908378901414e-10,1.1809123757581541e-8,9.011088451085836e-9,3.503661169944665e-10,1.417985124357997e-10,0
42228,1.6558515836438852e-10,2.09785291883304e-10,3.9401014295640567e-10,3.859998673830172e-10,1.0088644564030816e-8,9.016470937706028e-9,3.497689823839017e-10,1.417985124357997e-10,0
42229,1.6628411213235768e-10,2.101150949417566e-10,3.937838061663321e-10,3.802306509770203e-10,8.368165370480092e-9,9.021853424326218e-9,3.491718477733368e-10,1.417985124357997e-10,0
42230,1.6698306590032683e-10,2.104448980002092e-10,3.935574693762586e-10,3.7446143457102336e-10,6.647686176929368e-9,9.02723591094641e-9,3.4857471316277197e-10,1.417985124357997e-10,0
42231,1.6758366785261332e-10,2.0828903253168305e-10,3.8444167465535317e-10,3.6869221816502643e-10,6.606264432284692e-9,9.0544395018264e-9,3.4812515079224394e-10,1.4172320533492622e-10,0
42232,1.6848282227134467e-10,2.0746047635602346e-10,3.753258799344477e-10,3.619926066408488e-10,6.535052791236372e-9,9.085820477753997e-9,3.467272729339809e-10,1.412997593185927e-10,0
42233,1.6938197669007599e-10,2.0663192018036387e-10,3.6621008521354224e-10,3.5529299511667116e-10,6.463841150188051e-9,9.117201453681594e-9,3.4532939507571777e-10,1.408763133022592e-10,0
42234,1.702811311088073e-10,2.0580336400470429e-10,3.570942904926368e-10,3.4859338359249353e-10,6.392629509139731e-9,9.14858242960919e-9,3.439315172174547e-10,1.404528672859257e-10,0
42235,1.7118028552753862e-10,2.049748078290447e-10,3.479784957717313e-10,3.418937720683159e-10,6.32141786809141e-9,9.179963405536788e-9,3.425336393591916e-10,1.400294212695922e-10,0
42236,1.7207943994626994e-10,2.041462516533851e-10,3.388627010508259e-10,3.3519416054413826e-10,6.25020622704309e-9,9.211344381464384e-9,3.4113576150092853e-10,1.396059752532587e-10,0
42237,1.7297859436500126e-10,2.0331769547772552e-10,3.2974690632992045e-10,3.284945490199606e-10,6.1789945859947695e-9,9.242725357391982e-9,3.397378836426654e-10,1.391825292369252e-10,0
42238,1.7387774878373258e-10,2.0248913930206593e-10,3.2063111160901497e-10,3.21794937495783e-10,6.1077829449464495e-9,9.274106333319578e-9,3.3834000578440236e-10,1.3875908322059169e-10,0
42239,1.741763012501774e-10,2.0133078006795374e-10,3.136905866099511e-10,3.1590675318238317e-10,6.037353256231133e-9,9.274106333319578e-9,3.3739169029666734e-10,1.3833563720425818e-10,0
42240,1.75272159300274e-10,2.0050222389229415e-10,3.045747918890456e-10,3.1039072691625563e-10,5.966141615182812e-9,9.273711377871456e-9,3.359938124384042e-10,1.3798749828879817e-10,0
42241,1.7636801735037062e-10,1.9967366771663456e-10,2.9545899716814017e-10,3.048747006501281e-10,5.894929974134492e-9,9.273316422423336e-9,3.3459593458014116e-10,1.3763935937333815e-10,0
42242,1.7746387540046724e-10,1.9884511154097498e-10,2.8634320244723473e-10,2.993586743840006e-10,5.823718333086172e-9,9.272921466975214e-9,3.3319805672187805e-10,1.372912204578781e-10,0
42243,1.7855973345056383e-10,1.9801655536531539e-10,2.772274077263293e-10,2.9384264811787305e-10,5.752506692037852e-9,9.272526511527092e-9,3.31800178863615e-10,1.3694308154241809e-10,0
42244,1.7965559150066045e-10,1.971879991896558e-10,2.681116130054238e-10,2.883266218517455e-10,5.681295050989532e-9,9.272131556078972e-9,3.3040230100535193e-10,1.3659494262695807e-10,0
42245,1.8075144955075704e-10,1.963594430139962e-10,2.589958182845184e-10,2.82810595585618e-10,5.610083409941211e-9,9.27173660063085e-9,3.290044231470888e-10,1.3624680371149802e-10,0
42246,1.8184730760085366e-10,1.9553088683833662e-10,2.4988002356361294e-10,2.7729456931949047e-10,5.538871768892891e-9,9.27134164518273e-9,3.2760654528882576e-10,1.35898664796038e-10,0
42247,1.8294316565095028e-10,1.9470233066267703e-10,2.4076422884270745e-10,2.7177854305336293e-10,5.46766012784457e-9,9.270946689734608e-9,3.2620866743056265e-10,1.35550525880578e-10,0
42248,1.8403902370104687e-10,1.9387377448701744e-10,2.3164843412180202e-10,2.662625167872354e-10,5.39644848679625e-9,9.270551734286486e-9,3.248107895722996e-10,1.3520238696511795e-10,0
42249,1.8513488175114349e-10,1.9304521831135785e-10,2.2253263940089656e-10,2.607464905211079e-10,5.325236845747929e-9,9.270156778838366e-9,3.234129117140365e-10,1.3485424804965793e-10,0
42250,1.8623073980124008e-10,1.9221666213569826e-10,2.1341684467999112e-10,2.5523046425498035e-10,5.254025204699609e-9,9.269761823390244e-9,3.220150338557734e-10,1.345061091341979e-10,0
42251,1.870280453848919e-10,1.9170981195943514e-10,2.0135867168812977e-10,2.448458747241859e-10,4.678121325347669e-9,9.268473159376794e-9,3.2141789924520856e-10,1.3415797021873787e-10,0
42252,1.881239034349885e-10,1.9203961501788774e-10,2.003150859166559e-10,2.46029459982236e-10,4.678188970662056e-9,9.267766810921415e-9,3.2141789924520856e-10,1.3423327731961135e-10,0
42253,1.892197614850851e-10,1.9236941807634036e-10,1.99271500145182e-10,2.472130452402861e-10,4.678256615976443e-9,9.267060462466037e-9,3.2141789924520856e-10,1.3430858442048484e-10,0
42254,1.903156195351817e-10,1.9269922113479296e-10,1.982279143737081e-10,2.483966304983362e-10,4.678324261290831e-9,9.26635411401066e-9,3.2141789924520856e-10,1.343838915213583e-10,0
42255,1.9141147758527832e-10,1.9302902419324556e-10,1.9718432860223422e-10,2.495802157563863e-10,4.678391906605217e-9,9.265647765555281e-9,3.2141789924520856e-10,1.344591986222318e-10,0
42256,1.9250733563537494e-10,1.9335882725169818e-10,1.9614074283076032e-10,2.507638010144364e-10,4.678459551919605e-9,9.264941417099903e-9,3.2141789924520856e-10,1.3453450572310527e-10,0
42257,1.9360319368547153e-10,1.9368863031015078e-10,1.9509715705928645e-10,2.519473862724865e-10,4.678527197233992e-9,9.264235068644524e-9,3.2141789924520856e-10,1.3460981282397873e-10,0
42258,1.9469905173556815e-10,1.9401843336860338e-10,1.9405357128781255e-10,2.5313097153053664e-10,4.678594842548379e-9,9.263528720189146e-9,3.2141789924520856e-10,1.3468511992485222e-10,0
42259,1.9579490978566474e-10,1.9434823642705598e-10,1.9300998551633867e-10,2.5431455678858674e-10,4.6786624878627665e-9,9.262822371733767e-9,3.2141789924520856e-10,1.347604270257257e-10,0
42260,1.9689076783576136e-10,1.946780394855086e-10,1.9196639974486477e-10,2.5549814204663683e-10,4.678730133177154e-9,9.262116023278389e-9,3.2141789924520856e-10,1.3483573412659917e-10,0
42261,1.9689076783576136e-10,1.9484698954426297e-10,1.9114915076346444e-10,2.558405581170584e-10,4.678797778491541e-9,9.264817384202596e-9,3.220150338557734e-10,1.3483573412659917e-10,0
42262,1.9798662588585798e-10,1.9600534877837515e-10,1.9241907332501185e-10,2.5618297418748e-10,4.678865423805928e-9,9.269617555264714e-9,3.234129117140365e-10,1.3483573412659917e-10,0
42263,1.9908248393595457e-10,1.9716370801248734e-10,1.9368899588655926e-10,2.565253902579015e-10,4.678933069120316e-9,9.274417726326835e-9,3.248107895722996e-10,1.3483573412659917e-10,0
42264,2.001783419860512e-10,1.9832206724659955e-10,1.9495891844810667e-10,2.568678063283231e-10,4.679000714434702e-9,9.279217897388955e-9,3.2620866743056265e-10,1.3483573412659917e-10,0
42265,2.0127420003614778e-10,1.9948042648071174e-10,1.962288410096541e-10,2.5721022239874466e-10,4.67906835974909e-9,9.284018068451075e-9,3.2760654528882576e-10,1.3483573412659917e-10,0
42266,2.0027319678233694e-10,2.0046983565606956e-10,1.9854234934267541e-10,2.5393477157878263e-10,4.677005701965875e-9,9.286843462272589e-9,3.289552324004099e-10,1.347604270257257e-10,0
42267,2.0107050236598875e-10,2.00791541655466e-10,1.9990443097834266e-10,2.542771876492042e-10,4.5573347452758415e-9,9.277554513155605e-9,3.255623420733189e-10,1.3468511992485222e-10,0
42268,2.0186780794964054e-10,2.0111324765486246e-10,2.0126651261400994e-10,2.5461960371962574e-10,4.4376637885858085e-9,9.268265564038623e-9,3.2216945174622787e-10,1.3460981282397873e-10,0
42269,2.0266511353329234e-10,2.0143495365425892e-10,2.0262859424967718e-10,2.549620197900473e-10,4.3179928318957754e-9,9.25897661492164e-9,3.1877656141913685e-10,1.3453450572310527e-10,0
42270,2.0346241911694413e-10,2.0175665965365536e-10,2.0399067588534446e-10,2.553044358604689e-10,4.198321875205742e-9,9.249687665804658e-9,3.153836710920458e-10,1.344591986222318e-10,0
42271,2.0425972470059592e-10,2.0207836565305182e-10,2.0535275752101173e-10,2.5564685193089046e-10,4.078650918515709e-9,9.240398716687674e-9,3.1199078076495485e-10,1.343838915213583e-10,0
42272,2.050570302842477e-10,2.024000716524483e-10,2.0671483915667898e-10,2.55989268001312e-10,3.958979961825676e-9,9.231109767570692e-9,3.0859789043786383e-10,1.3430858442048484e-10,0
42273,2.058543358678995e-10,2.0272177765184473e-10,2.0807692079234625e-10,2.5633168407173357e-10,3.839309005135643e-9,9.221820818453709e-9,3.052050001107728e-10,1.3423327731961135e-10,0
42274,2.0665164145155132e-10,2.030434836512412e-10,2.094390024280135e-10,2.5667410014215514e-10,3.71963804844561e-9,9.212531869336727e-9,3.018121097836818e-10,1.3415797021873787e-10,0
42275,2.063530889851065e-10,2.0587514935478485e-10,2.10662845452501e-10,2.602919670325387e-10,3.6020297495387924e-9,9.219246111954788e-9,2.9866517318998543e-10,1.340826631178644e-10,0
42276,2.063530889851065e-10,2.0536829917852172e-10,2.099838350822804e-10,2.6063438310296027e-10,3.4830054545529888e-9,9.233023839126634e-9,2.952722828628944e-10,1.3465672333594486e-10,0
42277,2.063530889851065e-10,2.048614490022586e-10,2.0930482471205983e-10,2.6097679917338185e-10,3.3639811595671856e-9,9.24680156629848e-9,2.918793925358034e-10,1.352307835540253e-10,0
42278,2.063530889851065e-10,2.0435459882599547e-10,2.0862581434183925e-10,2.6131921524380337e-10,3.244956864581382e-9,9.260579293470325e-9,2.884865022087124e-10,1.3580484377210579e-10,0
42279,2.063530889851065e-10,2.0384774864973232e-10,2.0794680397161864e-10,2.6166163131422495e-10,3.1259325695955784e-9,9.27435702064217e-9,2.850936118816214e-10,1.3637890399018624e-10,0
42280,2.063530889851065e-10,2.033408984734692e-10,2.0726779360139806e-10,2.620040473846465e-10,3.0069082746097752e-9,9.288134747814016e-9,2.8170072155453037e-10,1.369529642082667e-10,0
42281,2.063530889851065e-10,2.0283404829720607e-10,2.0658878323117747e-10,2.623464634550681e-10,2.8878839796239717e-9,9.301912474985861e-9,2.7830783122743935e-10,1.3752702442634717e-10,0
42282,2.063530889851065e-10,2.0232719812094294e-10,2.0590977286095687e-10,2.626888795254896e-10,2.7688596846381685e-9,9.315690202157707e-9,2.749149409003483e-10,1.3810108464442762e-10,0
42283,2.063530889851065e-10,2.018203479446798e-10,2.0523076249073628e-10,2.630312955959112e-10,2.649835389652365e-9,9.329467929329554e-9,2.7152205057325735e-10,1.386751448625081e-10,0
