time,channel1,channel2,channel3,channel4,channel5,channel6,channel7,channel8,class
30356,2.2847494666008086e-10,6.073440573563933e-10,1.9979939631222303e-9,3.6209589700921976e-9,1.5934565550986045e-9,3.882378510657881e-9,3.07592548814181e-10,1.7910920530510116e-10,0
30357,2.3128901901442972e-10,6.074685934249446e-10,2.004564845869861e-9,3.6823086200489835e-9,1.589435589866584e-9,3.885961025904555e-9,3.07592548814181e-10,1.7952442700743911e-10,0
30358,2.341030913687785e-10,6.075931294934959e-10,2.011135728617492e-9,3.74365827000577e-9,1.5854146246345638e-9,3.889543541151229e-9,3.07592548814181e-10,1.7993964870977706e-10,0
30359,2.369171637231274e-10,6.077176655620472e-10,2.017706611365123e-9,3.805007919962556e-9,1.5813936594025434e-9,3.893126056397903e-9,3.07592548814181e-10,1.8035487041211501e-10,0
30360,2.3973123607747624e-10,6.078422016305985e-10,2.024277494112754e-9,3.866357569919342e-9,1.577372694170523e-9,3.896708571644577e-9,3.07592548814181e-10,1.8077009211445296e-10,0
30361,2.3973123607747624e-10,6.05888701184621e-10,2.0223906712003685e-9,3.866257618193211e-9,1.5833886718713714e-9,3.9611956818386105e-9,3.07592548814181e-10,1.80853623529322e-10,0
30362,2.4140594177799025e-10,6.05888701184621e-10,2.040994920758473e-9,3.873139204594537e-9,1.5971371770926152e-9,3.9765374277217485e-9,3.1169076330827904e-10,1.8151943947626705e-10,0
30363,2.4264137647759493e-10,6.078422016305985e-10,2.0574748709588052e-9,3.875533018454442e-9,1.6131455414884728e-9,3.990972910796697e-9,3.1556664863288416e-10,1.821852554232121e-10,0
30364,2.4387681117719965e-10,6.09795702076576e-10,2.0739548211591375e-9,3.877926832314347e-9,1.6291539058843303e-9,4.005408393871646e-9,3.194425339574893e-10,1.8285107137015714e-10,0
30365,2.4511224587680433e-10,6.117492025225535e-10,2.0904347713594702e-9,3.880320646174252e-9,1.645162270280188e-9,4.019843876946594e-9,3.2331841928209436e-10,1.835168873171022e-10,0
30366,2.4634768057640906e-10,6.13702702968531e-10,2.1069147215598025e-9,3.882714460034157e-9,1.6611706346760455e-9,4.0342793600215426e-9,3.271943046066995e-10,1.8418270326404726e-10,0
30367,2.4758311527601374e-10,6.156562034145085e-10,2.123394671760135e-9,3.885108273894063e-9,1.677178999071903e-9,4.048714843096492e-9,3.310701899313046e-10,1.848485192109923e-10,0
30368,2.4881854997561847e-10,6.176097038604859e-10,2.139874621960467e-9,3.887502087753967e-9,1.6931873634677604e-9,4.06315032617144e-9,3.349460752559097e-10,1.8551433515793736e-10,0
30369,2.5005398467522314e-10,6.195632043064635e-10,2.1563545721608e-9,3.889895901613873e-9,1.709195727863618e-9,4.077585809246389e-9,3.388219605805148e-10,1.861801511048824e-10,0
30370,2.5128941937482787e-10,6.21516704752441e-10,2.172834522361132e-9,3.892289715473777e-9,1.7252040922594755e-9,4.0920212923213375e-9,3.4269784590511993e-10,1.8684596705182745e-10,0
30371,2.5252485407443255e-10,6.234702051984185e-10,2.1893144725614645e-9,3.894683529333683e-9,1.741212456655333e-9,4.106456775396287e-9,3.4657373122972505e-10,1.8751178299877252e-10,0
30372,2.537602887740373e-10,6.25423705644396e-10,2.2057944227617968e-9,3.897077343193587e-9,1.7572208210511906e-9,4.120892258471235e-9,3.504496165543301e-10,1.8817759894571757e-10,0
30373,2.54995723473642e-10,6.273772060903735e-10,2.2222743729621295e-9,3.899471157053493e-9,1.7732291854470482e-9,4.135327741546183e-9,3.5432550187893525e-10,1.8884341489266262e-10,0
30374,2.5517416982253504e-10,6.271485855431952e-10,2.230666083730708e-9,3.902964439900826e-9,1.7694111863320846e-9,4.149763224621132e-9,3.541031727094423e-10,1.8884341489266262e-10,0
30375,2.553526161714281e-10,6.269199649960169e-10,2.239057794499286e-9,3.90645772274816e-9,1.7655931872171209e-9,4.164198707696081e-9,3.5388084353994936e-10,1.8884341489266262e-10,0
30376,2.553526161714281e-10,6.269199649960169e-10,2.2514606275380228e-9,3.912742615333033e-9,1.7647986470997637e-9,4.17863419077103e-9,3.528292425273143e-10,1.8817759894571757e-10,0
30377,2.5597033352123044e-10,6.266498324259883e-10,2.26028509653237e-9,3.9201249658784505e-9,1.7628345749253002e-9,4.1903934214074925e-9,3.5255281857960023e-10,1.8809406753084853e-10,0
30378,2.565880508710328e-10,6.263796998559595e-10,2.269109565526717e-9,3.927507316423868e-9,1.7608705027508368e-9,4.202152652043956e-9,3.5227639463188624e-10,1.880105361159795e-10,0
30379,2.570273218719421e-10,6.271485855431952e-10,2.289732627780084e-9,3.9379821373986565e-9,1.7589373708707379e-9,4.202574340396965e-9,3.5222229985366514e-10,1.883422264034484e-10,0
30380,2.574665928728514e-10,6.279174712304309e-10,2.3103556900334507e-9,3.948456958373446e-9,1.757004238990639e-9,4.202996028749973e-9,3.5216820507544404e-10,1.8867391669091733e-10,0
30381,2.579058638737607e-10,6.286863569176666e-10,2.3309787522868175e-9,3.958931779348235e-9,1.75507110711054e-9,4.203417717102982e-9,3.5211411029722295e-10,1.8900560697838624e-10,0
30382,2.5834513487466997e-10,6.294552426049023e-10,2.351601814540184e-9,3.9694066003230235e-9,1.7531379752304413e-9,4.203839405455991e-9,3.5206001551900185e-10,1.8933729726585515e-10,0
30383,2.587844058755793e-10,6.30224128292138e-10,2.3722248767935507e-9,3.979881421297813e-9,1.7512048433503424e-9,4.2042610938089994e-9,3.5200592074078075e-10,1.8966898755332406e-10,0
30384,2.592236768764886e-10,6.309930139793737e-10,2.3928479390469175e-9,3.990356242272602e-9,1.7492717114702435e-9,4.204682782162008e-9,3.5195182596255965e-10,1.9000067784079297e-10,0
30385,2.5966294787739786e-10,6.317618996666094e-10,2.413471001300284e-9,4.000831063247391e-9,1.7473385795901446e-9,4.205104470515017e-9,3.5189773118433855e-10,1.903323681282619e-10,0
30386,2.601022188783072e-10,6.32530785353845e-10,2.4340940635536507e-9,4.01130588422218e-9,1.7454054477100457e-9,4.2055261588680256e-9,3.5184363640611746e-10,1.906640584157308e-10,0
30387,2.6054148987921646e-10,6.332996710410807e-10,2.4547171258070176e-9,4.021780705196969e-9,1.7434723158299468e-9,4.205947847221034e-9,3.5178954162789636e-10,1.9099574870319972e-10,0
30388,2.609807608801258e-10,6.340685567283164e-10,2.4753401880603844e-9,4.032255526171758e-9,1.7415391839498478e-9,4.206369535574042e-9,3.5173544684967526e-10,1.9132743899066863e-10,0
30389,2.6142003188103507e-10,6.348374424155521e-10,2.4959632503137508e-9,4.042730347146547e-9,1.739606052069749e-9,4.206791223927051e-9,3.5168135207145416e-10,1.9165912927813754e-10,0
30390,2.6185930288194435e-10,6.356063281027878e-10,2.5165863125671176e-9,4.053205168121336e-9,1.7376729201896502e-9,4.20721291228006e-9,3.5162725729323306e-10,1.9199081956560645e-10,0
30391,2.622985738828537e-10,6.363752137900235e-10,2.5372093748204844e-9,4.063679989096125e-9,1.7357397883095513e-9,4.207634600633068e-9,3.5157316251501197e-10,1.9232250985307538e-10,0
30392,2.6273784488376296e-10,6.371440994772592e-10,2.557832437073851e-9,4.0741548100709135e-9,1.7338066564294524e-9,4.208056288986077e-9,3.5151906773679087e-10,1.926542001405443e-10,0
30393,2.631771158846723e-10,6.379129851644949e-10,2.5784554993272176e-9,4.084629631045703e-9,1.7318735245493535e-9,4.208477977339086e-9,3.5146497295856977e-10,1.929858904280132e-10,0
30394,2.631771158846723e-10,6.417159015778229e-10,2.590209195027301e-9,4.089418264278955e-9,1.7306421119035182e-9,4.216549270640623e-9,3.511885490108557e-10,1.929858904280132e-10,0
30395,2.631771158846723e-10,6.455188179911509e-10,2.601962890727384e-9,4.094206897512208e-9,1.729410699257683e-9,4.2246205639421594e-9,3.5091212506314173e-10,1.929858904280132e-10,0
30396,2.6361638688558156e-10,6.452486854211222e-10,2.5990785615805844e-9,4.096200904467594e-9,1.7282411672005769e-9,4.22173346732717e-9,3.5091212506314173e-10,1.935681749600892e-10,0
30397,2.6405565788649084e-10,6.449785528510935e-10,2.5961942324337845e-9,4.098194911422979e-9,1.7270716351434708e-9,4.21884637071218e-9,3.5091212506314173e-10,1.9415045949216524e-10,0
30398,2.6405565788649084e-10,6.4402255863953e-10,2.5905786612555636e-9,4.100787623221701e-9,1.725809282203271e-9,4.2173359326985325e-9,3.509662198413628e-10,1.9440105373677233e-10,0
30399,2.6405565788649084e-10,6.430665644279664e-10,2.5849630900773427e-9,4.103380335020423e-9,1.7245469292630714e-9,4.215825494684885e-9,3.510203146195839e-10,1.9465164798137943e-10,0
30400,2.6405565788649084e-10,6.407599073662594e-10,2.5771994193149154e-9,4.105674197154199e-9,1.7246088098518004e-9,4.1871228367254105e-9,3.512967385672979e-10,1.9490224222598655e-10,0
30401,2.6405565788649084e-10,6.384532503045523e-10,2.569435748552488e-9,4.107968059287974e-9,1.7246706904405295e-9,4.158420178765937e-9,3.5157316251501197e-10,1.9515283647059365e-10,0
30402,2.6405565788649084e-10,6.361465932428452e-10,2.5616720777900605e-9,4.1102619214217495e-9,1.7247325710292585e-9,4.129717520806463e-9,3.51849586462726e-10,1.9540343071520075e-10,0
30403,2.6405565788649084e-10,6.338399361811381e-10,2.5539084070276333e-9,4.1125557835555245e-9,1.7247944516179876e-9,4.10101486284699e-9,3.5212601041044005e-10,1.9565402495980784e-10,0
30404,2.6405565788649084e-10,6.315332791194311e-10,2.546144736265206e-9,4.1148496456893e-9,1.7248563322067166e-9,4.072312204887516e-9,3.524024343581541e-10,1.9590461920441497e-10,0
30405,2.6405565788649084e-10,6.29226622057724e-10,2.5383810655027787e-9,4.117143507823075e-9,1.7249182127954457e-9,4.043609546928042e-9,3.5267885830586814e-10,1.9615521344902206e-10,0
30406,2.6405565788649084e-10,6.269199649960169e-10,2.5306173947403515e-9,4.11943736995685e-9,1.7249800933841747e-9,4.014906888968568e-9,3.529552822535822e-10,1.9640580769362916e-10,0
30407,2.6405565788649084e-10,6.246133079343098e-10,2.522853723977924e-9,4.121731232090625e-9,1.7250419739729038e-9,3.986204231009094e-9,3.5323170620129623e-10,1.9665640193823626e-10,0
30408,2.6405565788649084e-10,6.223066508726028e-10,2.5150900532154966e-9,4.1240250942244e-9,1.7251038545616328e-9,3.957501573049621e-9,3.535081301490103e-10,1.9690699618284338e-10,0
30409,2.6405565788649084e-10,6.199999938108957e-10,2.5073263824530693e-9,4.126318956358176e-9,1.7251657351503619e-9,3.928798915090147e-9,3.5378455409672427e-10,1.9715759042745048e-10,0
30410,2.6405565788649084e-10,6.176933367491886e-10,2.499562711690642e-9,4.128612818491951e-9,1.7252276157390907e-9,3.9000962571306735e-9,3.540609780444383e-10,1.9740818467205758e-10,0
30411,2.6449492888740017e-10,6.174647162020103e-10,2.498045355006519e-9,4.130009126117442e-9,1.723965262798891e-9,3.899885412954169e-9,3.541150728226594e-10,1.979904692041336e-10,0
30412,2.6493419988830945e-10,6.172360956548321e-10,2.4965279983223963e-9,4.131405433742933e-9,1.7227029098586913e-9,3.899674568777665e-9,3.541691676008805e-10,1.9857275373620961e-10,0
30413,2.6537347088921873e-10,6.170074751076538e-10,2.495010641638273e-9,4.132801741368424e-9,1.7214405569184917e-9,3.89946372460116e-9,3.542232623791016e-10,1.9915503826828562e-10,0
30414,2.6581274189012806e-10,6.167788545604756e-10,2.49349328495415e-9,4.134198048993915e-9,1.7201782039782919e-9,3.899252880424656e-9,3.542773571573227e-10,1.9973732280036165e-10,0
30415,2.6625201289103734e-10,6.165502340132973e-10,2.491975928270027e-9,4.135594356619406e-9,1.7189158510380922e-9,3.899042036248151e-9,3.543314519355438e-10,2.0031960733243766e-10,0
30416,2.6669128389194667e-10,6.165502340132973e-10,2.4895692549079325e-9,4.139785290522764e-9,1.7175916175091634e-9,3.900025363820539e-9,3.5505253422224374e-10,2.006512976199066e-10,0
30417,2.67309001241749e-10,6.172776076776825e-10,2.488268277336694e-9,4.138488934623403e-9,1.7163292645689638e-9,3.90542040468359e-9,3.5588180606538587e-10,2.006512976199066e-10,0
30418,2.6792671859155134e-10,6.180049813420678e-10,2.4869672997654555e-9,4.1371925787240414e-09,1.715066911628764e-9,3.910815445546642e-9,3.5671107790852795e-10,2.006512976199066e-10,0
30419,2.685444359413537e-10,6.187323550064531e-10,2.485666322194217e-9,4.135896222824681e-9,1.7138045586885643e-9,3.916210486409693e-9,3.575403497516701e-10,2.006512976199066e-10,0
30420,2.6910267117485836e-10,6.196883492180166e-10,2.4858827013071014e-9,4.13410010829467e-9,1.708675941988167e-9,3.920622199700358e-9,3.583696215948122e-10,2.0006901308783056e-10,0
30421,2.69660906408363e-10,6.206443434295801e-10,2.4860990804199856e-9,4.132303993764659e-9,1.7035473252877693e-9,3.9250339129910225e-9,3.591988934379543e-10,1.9948672855575455e-10,0
30422,2.702191416418677e-10,6.216003376411437e-10,2.4863154595328702e-9,4.130507879234648e-9,1.6984187085873718e-9,3.929445626281687e-9,3.6002816528109644e-10,1.9890444402367852e-10,0
30423,2.7077737687537237e-10,6.225563318527072e-10,2.4865318386457544e-9,4.1287117647046384e-9,1.6932900918869744e-9,3.933857339572352e-9,3.6085743712423857e-10,1.9832215949160252e-10,0
30424,2.71335612108877e-10,6.235123260642707e-10,2.486748217758639e-9,4.126915650174628e-9,1.688161475186577e-9,3.938269052863016e-9,3.6168670896738065e-10,1.9773987495952648e-10,0
30425,2.718938473423817e-10,6.244683202758342e-10,2.486964596871523e-9,4.125119535644617e-9,1.6830328584861793e-9,3.94268076615368e-9,3.625159808105228e-10,1.9715759042745048e-10,0
30426,2.7245208257588637e-10,6.254243144873978e-10,2.4871809759844078e-9,4.123323421114606e-9,1.6779042417857819e-9,3.947092479444345e-9,3.633452526536649e-10,1.9657530589537445e-10,0
30427,2.73010317809391e-10,6.263803086989613e-10,2.487397355097292e-9,4.121527306584596e-9,1.6727756250853844e-9,3.9515041927350095e-9,3.64174524496807e-10,1.9599302136329844e-10,0
30428,2.7295083569309336e-10,6.266089292461396e-10,2.4951610258597192e-9,4.12781219916947e-9,1.6668524682676296e-9,3.9553887955844135e-9,3.6783403070852773e-10,1.9665640193823626e-10,0
30429,2.7289135357679565e-10,6.268375497933179e-10,2.5029246966221465e-9,4.134097091754343e-9,1.660929311449875e-9,3.959273398433817e-9,3.7149353692024846e-10,1.973197825131741e-10,0
30430,2.72831871460498e-10,6.270661703404962e-10,2.510688367384574e-9,4.1403819843392165e-9,1.65500615463212e-9,3.9631580012832206e-9,3.751530431319692e-10,1.9798316308811192e-10,0
30431,2.727723893442003e-10,6.272947908876744e-10,2.5184520381470014e-9,4.14666687692409e-9,1.6490829978143655e-9,3.9670426041326245e-9,3.788125493436899e-10,1.9864654366304974e-10,0
30432,2.727129072279026e-10,6.275234114348527e-10,2.5262157089094286e-9,4.152951769508963e-9,1.6431598409966106e-9,3.970927206982028e-9,3.8247205555541066e-10,1.9930992423798758e-10,0
30433,2.7265342511160496e-10,6.27752031982031e-10,2.533979379671856e-9,4.159236662093837e-9,1.637236684178856e-9,3.974811809831432e-9,3.861315617671314e-10,1.999733048129254e-10,0
30434,2.7221415411069563e-10,6.279806525292093e-10,2.5402256937501603e-9,4.166021313309359e-9,1.6352726120043925e-9,3.925463608551994e-9,3.897910679788521e-10,2.0088727963247034e-10,0
30435,2.7177488310978635e-10,6.301627735223651e-10,2.542025424438606e-9,4.166021313309359e-9,1.6333394801242936e-9,3.872547070687909e-9,3.906203398219942e-10,2.004720579301324e-10,0
30436,2.7177488310978635e-10,6.323448945155208e-10,2.534391040565123e-9,4.166619012639254e-9,1.6336043268300794e-9,3.870748723733559e-9,3.8934640963986623e-10,1.9980624198318734e-10,0
30437,2.7177488310978635e-10,6.345270155086766e-10,2.5267566566916395e-9,4.167216711969148e-9,1.633869173535865e-9,3.8689503767792085e-9,3.880724794577382e-10,1.9914042603624227e-10,0
30438,2.7177488310978635e-10,6.367091365018324e-10,2.5191222728181566e-9,4.167814411299042e-9,1.6341340202416508e-9,3.867152029824858e-9,3.867985492756102e-10,1.9847461008929722e-10,0
30439,2.7177488310978635e-10,6.388912574949881e-10,2.5114878889446733e-9,4.168412110628937e-9,1.6343988669474366e-9,3.865353682870508e-9,3.855246190934822e-10,1.9780879414235218e-10,0
30440,2.7177488310978635e-10,6.410733784881439e-10,2.50385350507119e-9,4.169009809958832e-9,1.6346637136532223e-9,3.863555335916157e-9,3.842506889113542e-10,1.9714297819540713e-10,0
30441,2.7177488310978635e-10,6.432554994812997e-10,2.4962191211977068e-9,4.169607509288726e-9,1.6349285603590082e-9,3.861756988961806e-9,3.829767587292262e-10,1.9647716224846208e-10,0
30442,2.7177488310978635e-10,6.454376204744554e-10,2.488584737324224e-9,4.17020520861862e-9,1.635193407064794e-9,3.859958642007456e-9,3.817028285470982e-10,1.9581134630151704e-10,0
30443,2.7177488310978635e-10,6.476197414676112e-10,2.4809503534507406e-9,4.170802907948515e-9,1.6354582537705797e-9,3.8581602950531054e-9,3.804288983649702e-10,1.9514553035457196e-10,0
30444,2.7177488310978635e-10,6.49801862460767e-10,2.4733159695772573e-9,4.1714006072784094e-9,1.6357231004763654e-9,3.856361948098755e-9,3.791549681828422e-10,1.9447971440762692e-10,0
30445,2.7177488310978635e-10,6.519839834539227e-10,2.4656815857037744e-9,4.171998306608304e-9,1.6359879471821512e-9,3.854563601144405e-9,3.7788103800071415e-10,1.9381389846068187e-10,0
30446,2.7177488310978635e-10,6.541661044470785e-10,2.458047201830291e-9,4.172596005938199e-9,1.6362527938879369e-9,3.852765254190054e-9,3.766071078185862e-10,1.9314808251373682e-10,0
30447,2.7177488310978635e-10,6.563482254402343e-10,2.450412817956808e-9,4.1731937052680925e-9,1.6365176405937226e-9,3.850966907235703e-9,3.7533317763645815e-10,1.9248226656679177e-10,0
30448,2.7177488310978635e-10,6.5853034643339e-10,2.442778434083325e-9,4.173791404597987e-9,1.6367824872995084e-9,3.849168560281353e-9,3.740592474543302e-10,1.918164506198467e-10,0
30449,2.7177488310978635e-10,6.607124674265459e-10,2.4351440502098416e-9,4.174389103927882e-9,1.637047334005294e-9,3.847370213327002e-9,3.7278531727220215e-10,1.9115063467290166e-10,0
30450,2.7458895546413515e-10,6.647855164099026e-10,2.4528827833164085e-9,4.1749868032577765e-9,1.6372812404167153e-9,3.884628739043193e-9,3.7073621002515314e-10,1.9115063467290166e-10,0
30451,2.77403027818484e-10,6.688585653932594e-10,2.4706215164229758e-9,4.175584502587671e-9,1.6375151468281367e-9,3.921887264759384e-9,3.6868710277810413e-10,1.9115063467290166e-10,0
30452,2.77403027818484e-10,6.688585653932594e-10,2.4587807284989524e-9,4.176681960548215e-9,1.6398059462971147e-9,3.960516277622852e-9,3.6868710277810413e-10,1.9090004042829456e-10,0
30453,2.77403027818484e-10,6.688585653932594e-10,2.446939940574929e-9,4.177779418508759e-9,1.642096745766093e-9,3.999145290486322e-9,3.6868710277810413e-10,1.9064944618368746e-10,0
30454,2.77403027818484e-10,6.688585653932594e-10,2.4350991526509056e-9,4.1788768764693025e-9,1.6443875452350712e-9,4.037774303349791e-9,3.6868710277810413e-10,1.9039885193908034e-10,0
30455,2.77403027818484e-10,6.688585653932594e-10,2.423258364726882e-9,4.179974334429846e-9,1.6466783447040494e-9,4.076403316213259e-9,3.6868710277810413e-10,1.9014825769447324e-10,0
30456,2.7734354570218635e-10,6.685884328232306e-10,2.423258364726882e-9,4.179974334429846e-9,1.6489691441730276e-9,4.117146942295835e-9,3.6884938711276737e-10,1.8881662580058315e-10,0
30457,2.7728406358588864e-10,6.68318300253202e-10,2.423258364726882e-9,4.179974334429846e-9,1.6512599436420058e-9,4.157890568378411e-9,3.6901167144743067e-10,1.8748499390669303e-10,0
30458,2.759067684668631e-10,6.680896797060237e-10,2.4194847189021104e-9,4.18107179239039e-9,1.6444803661181647e-9,4.1914266279815585e-9,3.6901167144743067e-10,1.8790021560903098e-10,0
30459,2.745294733478375e-10,6.678610591588454e-10,2.415711073077339e-9,4.182169250350934e-9,1.6377007885943236e-9,4.224962687584705e-9,3.6901167144743067e-10,1.8831543731136893e-10,0
30460,2.731521782288119e-10,6.676324386116671e-10,2.4119374272525678e-9,4.183266708311478e-9,1.6309212110704828e-9,4.258498747187852e-9,3.6901167144743067e-10,1.8873065901370688e-10,0
30461,2.7177488310978635e-10,6.674038180644888e-10,2.408163781427796e-9,4.1843641662720214e-9,1.6241416335466417e-9,4.292034806790999e-9,3.6901167144743067e-10,1.8914588071604483e-10,0
30462,2.7039758799076075e-10,6.671751975173105e-10,2.4043901356030247e-9,4.185461624232565e-9,1.6173620560228006e-9,4.3255708663941455e-9,3.6901167144743067e-10,1.8956110241838278e-10,0
30463,2.690202928717352e-10,6.669465769701323e-10,2.400616489778253e-9,4.186559082193109e-9,1.6105824784989595e-9,4.359106925997293e-9,3.6901167144743067e-10,1.8997632412072073e-10,0
30464,2.676429977527096e-10,6.66717956422954e-10,2.3968428439534816e-9,4.187656540153653e-9,1.6038029009751184e-9,4.3926429856004394e-9,3.6901167144743067e-10,1.9039154582305868e-10,0
30465,2.66265702633684e-10,6.664893358757757e-10,2.3930691981287103e-9,4.188753998114197e-9,1.5970233234512776e-9,4.426179045203587e-9,3.6901167144743067e-10,1.9080676752539663e-10,0
30466,2.6488840751465846e-10,6.662607153285974e-10,2.3892955523039385e-9,4.18985145607474e-9,1.5902437459274365e-9,4.459715104806733e-9,3.6901167144743067e-10,1.9122198922773458e-10,0
30467,2.6351111239563286e-10,6.660320947814191e-10,2.3855219064791672e-9,4.190948914035284e-9,1.5834641684035954e-9,4.493251164409881e-9,3.6901167144743067e-10,1.9163721093007253e-10,0
30468,2.621338172766073e-10,6.658034742342408e-10,2.381748260654396e-9,4.192046371995828e-9,1.5766845908797543e-9,4.526787224013027e-9,3.6901167144743067e-10,1.9205243263241047e-10,0
30469,2.607565221575817e-10,6.655748536870626e-10,2.377974614829624e-9,4.193143829956372e-9,1.5699050133559132e-9,4.560323283616174e-9,3.6901167144743067e-10,1.9246765433474842e-10,0
30470,2.593792270385561e-10,6.653462331398843e-10,2.374200969004853e-9,4.194241287916916e-9,1.5631254358320721e-9,4.593859343219321e-9,3.6901167144743067e-10,1.9288287603708637e-10,0
30471,2.5800193191953057e-10,6.65117612592706e-10,2.3704273231800815e-9,4.19533874587746e-9,1.5563458583082313e-9,4.627395402822468e-9,3.6901167144743067e-10,1.932980977394243e-10,0
30472,2.5662463680050497e-10,6.648889920455278e-10,2.3666536773553098e-9,4.196436203838004e-9,1.5495662807843902e-9,4.660931462425615e-9,3.6901167144743067e-10,1.9371331944176225e-10,0
30473,2.556866126823887e-10,6.649305040683782e-10,2.363183502867363e-9,4.21918095480415e-9,1.540729810202992e-9,4.6527405683737985e-9,3.666861402526676e-10,1.941285411441002e-10,0
30474,2.543093175633631e-10,6.647018835211999e-10,2.359713328379416e-9,4.218482298234683e-9,1.5357113387365578e-9,4.643643411513794e-9,3.6530402051409744e-10,1.9454376284643815e-10,0
30475,2.5293202244433756e-10,6.644732629740216e-10,2.356243153891469e-9,4.217783641665216e-9,1.5306928672701234e-9,4.634546254653789e-9,3.639219007755272e-10,1.949589845487761e-10,0
30476,2.5155472732531196e-10,6.642446424268433e-10,2.352772979403522e-9,4.217084985095749e-9,1.525674395803689e-9,4.6254490977937845e-9,3.6253978103695705e-10,1.9537420625111405e-10,0
30477,2.501774322062864e-10,6.640160218796651e-10,2.349302804915575e-9,4.216386328526283e-9,1.5206559243372548e-9,4.61635194093378e-9,3.6115766129838683e-10,1.95789427953452e-10,0
30478,2.501179500899887e-10,6.630600276681016e-10,2.3485005804615436e-9,4.216286376800153e-9,1.518396065162641e-9,4.612347737334097e-9,3.6104947174194463e-10,1.9620464965578995e-10,0
30479,2.5005846797369104e-10,6.620210094108372e-10,2.3479147351203967e-9,4.215887575409076e-9,1.5214814047489765e-9,4.612347737334097e-9,3.619928831981375e-10,1.9620464965578995e-10,0
30480,2.499989858573933e-10,6.609819911535727e-10,2.3473288897792493e-9,4.215488774017999e-9,1.524566744335312e-9,4.612347737334097e-9,3.629362946543304e-10,1.9620464965578995e-10,0
30481,2.4993950374109566e-10,6.599429728963084e-10,2.3467430444381023e-9,4.2150899726269216e-9,1.5276520839216473e-9,4.612347737334097e-9,3.6387970611052323e-10,1.9620464965578995e-10,0
30482,2.4988002162479795e-10,6.589039546390439e-10,2.346157199096955e-9,4.214691171235845e-9,1.530737423507983e-9,4.612347737334097e-9,3.648231175667161e-10,1.9620464965578995e-10,0
30483,2.498205395085003e-10,6.578649363817796e-10,2.345571353755808e-9,4.214292369844768e-9,1.5338227630943183e-9,4.612347737334097e-9,3.65766529022909e-10,1.9620464965578995e-10,0
30484,2.497610573922026e-10,6.568259181245152e-10,2.3449855084146606e-9,4.21389356845369e-9,1.5369081026806538e-9,4.612347737334097e-9,3.667099404791019e-10,1.9620464965578995e-10,0
30485,2.497015752759049e-10,6.557868998672508e-10,2.3443996630735137e-9,4.2134947670626134e-9,1.5399934422669892e-9,4.612347737334097e-9,3.676533519352947e-10,1.9620464965578995e-10,0
30486,2.496420931596072e-10,6.547478816099864e-10,2.3438138177323663e-9,4.213095965671536e-9,1.5430787818533248e-9,4.612347737334097e-9,3.685967633914876e-10,1.9620464965578995e-10,0
30487,2.500218820442188e-10,6.539789959227507e-10,2.3515774884947935e-9,4.2412280547142715e-9,1.5430787818533248e-9,4.614237327714673e-9,3.685967633914876e-10,1.9620464965578995e-10,0
30488,2.5040167092883044e-10,6.53210110235515e-10,2.359341159257221e-9,4.269360143757007e-9,1.5430787818533248e-9,4.616126918095249e-9,3.685967633914876e-10,1.9620464965578995e-10,0
30489,2.5078145981344205e-10,6.524412245482793e-10,2.3671048300196485e-9,4.297492232799743e-9,1.5430787818533248e-9,4.618016508475824e-9,3.685967633914876e-10,1.9620464965578995e-10,0
30490,2.5116124869805367e-10,6.516723388610436e-10,2.3748685007820757e-9,4.325624321842479e-9,1.5430787818533248e-9,4.6199060988564005e-9,3.685967633914876e-10,1.9620464965578995e-10,0
30491,2.515410375826653e-10,6.509034531738079e-10,2.382632171544503e-9,4.3537564108852135e-9,1.5430787818533248e-9,4.621795689236976e-9,3.685967633914876e-10,1.9620464965578995e-10,0
30492,2.515410375826653e-10,6.509034531738079e-10,2.390179463194046e-9,4.378894975711265e-9,1.535160612566742e-9,4.623685279617552e-9,3.685967633914876e-10,1.9620464965578995e-10,0
30493,2.515410375826653e-10,6.509034531738079e-10,2.3977267548435887e-9,4.404033540537316e-9,1.5272424432801594e-9,4.6255748699981274e-9,3.685967633914876e-10,1.9620464965578995e-10,0
30494,2.5148155546636763e-10,6.750926749368457e-10,2.4015004006683604e-9,4.404033540537316e-9,1.5234244441651956e-9,4.6340394943286195e-9,3.7053768108209446e-10,1.95789427953452e-10,0
30495,2.514220733500699e-10,7.000092703642687e-10,2.4010676424425917e-9,4.4049310950456e-9,1.5226917846365675e-9,4.642504118659111e-9,3.7053768108209446e-10,1.9446023143156913e-10,0
30496,2.5136259123377225e-10,7.249258657916918e-10,2.400634884216823e-9,4.405828649553885e-9,1.5219591251079393e-9,4.650968742989603e-9,3.7053768108209446e-10,1.9313103490968624e-10,0
30497,2.5130310911747454e-10,7.498424612191148e-10,2.400202125991054e-9,4.406726204062169e-9,1.521226465579311e-9,4.659433367320095e-9,3.7053768108209446e-10,1.9180183838780335e-10,0
30498,2.512436270011769e-10,7.747590566465377e-10,2.3997693677652853e-9,4.407623758570453e-9,1.5204938060506828e-9,4.667897991650587e-9,3.7053768108209446e-10,1.904726418659205e-10,0
30499,2.5118414488487917e-10,7.996756520739607e-10,2.3993366095395165e-9,4.408521313078737e-9,1.5197611465220547e-9,4.676362615981078e-9,3.7053768108209446e-10,1.891434453440376e-10,0
30500,2.511246627685815e-10,8.245922475013837e-10,2.3989038513137477e-9,4.409418867587021e-9,1.5190284869934263e-9,4.68482724031157e-9,3.7053768108209446e-10,1.8781424882215473e-10,0
30501,2.510651806522838e-10,8.495088429288068e-10,2.398471093087979e-9,4.410316422095305e-9,1.5182958274647982e-9,4.693291864642062e-9,3.7053768108209446e-10,1.8648505230027184e-10,0
30502,2.5100569853598613e-10,8.744254383562298e-10,2.39803833486221e-9,4.4112139766035894e-9,1.51756316793617e-9,4.701756488972553e-9,3.7053768108209446e-10,1.8515585577838898e-10,0
30503,2.509462164196884e-10,8.993420337836528e-10,2.3976055766364414e-9,4.412111531111873e-9,1.5168305084075417e-9,4.710221113303045e-9,3.7053768108209446e-10,1.838266592565061e-10,0
30504,2.5088673430339076e-10,9.242586292110758e-10,2.3971728184106726e-9,4.413009085620157e-9,1.5160978488789135e-9,4.718685737633537e-9,3.7053768108209446e-10,1.8249746273462322e-10,0
30505,2.5082725218709305e-10,9.491752246384989e-10,2.396740060184904e-9,4.413906640128441e-9,1.5153651893502854e-9,4.727150361964029e-9,3.7053768108209446e-10,1.8116826621274033e-10,0
30506,2.507677700707954e-10,9.740918200659219e-10,2.396307301959135e-9,4.414804194636725e-9,1.514632529821657e-9,4.7356149862945204e-9,3.7053768108209446e-10,1.7983906969085747e-10,0
30507,2.507082879544977e-10,9.99008415493345e-10,2.3958745437333662e-9,4.415701749145009e-9,1.5138998702930289e-9,4.7440796106250124e-9,3.7053768108209446e-10,1.7850987316897458e-10,0
30508,2.506488058382e-10,1.023925010920768e-9,2.395441785507598e-9,4.416599303653293e-9,1.5131672107644007e-9,4.7525442349555045e-9,3.7053768108209446e-10,1.771806766470917e-10,0
30509,2.5120704107170466e-10,1.0258785113667453e-9,2.4005375062361098e-9,4.426074607366784e-9,1.5122006448243512e-9,4.756126750202178e-9,3.6837443422199465e-10,1.7626670182754677e-10,0
30510,2.5176527630520937e-10,1.027832011812723e-9,2.4056332269646217e-9,4.435549911080274e-9,1.5112340788843018e-9,4.759709265448853e-9,3.662111873618949e-10,1.7535272700800183e-10,0
30511,2.52145065189821e-10,1.0278735238355733e-9,2.401622104694464e-9,4.435549911080274e-9,1.5105014193556737e-9,4.759709265448853e-9,3.640479405017951e-10,1.7535272700800183e-10,0
30512,2.525248540744326e-10,1.0279150358584237e-9,2.397610982424306e-9,4.435549911080274e-9,1.5097687598270453e-9,4.759709265448853e-9,3.618846936416953e-10,1.7535272700800183e-10,0
30513,2.5290464295904417e-10,1.0279565478812742e-9,2.3935998601541483e-9,4.435549911080274e-9,1.5090361002984172e-9,4.759709265448853e-9,3.5972144678159556e-10,1.7535272700800183e-10,0
30514,2.5290464295904417e-10,1.0259200233895957e-9,2.3851421544941316e-9,4.43255638686359e-9,1.5053418623609115e-9,4.75750340880352e-9,3.5972144678159556e-10,1.7659839211501568e-10,0
30515,2.5290464295904417e-10,1.0238834988979174e-9,2.376684448834115e-9,4.429562862646905e-9,1.501647624423406e-9,4.755297552158188e-9,3.5972144678159556e-10,1.7784405722202953e-10,0
30516,2.5290464295904417e-10,1.023925010920768e-9,2.3757740348236408e-9,4.425373939770433e-9,1.4895537884329804e-9,4.742905788992212e-9,3.5972144678159556e-10,1.791732537439124e-10,0
30517,2.5290464295904417e-10,1.0239665229436183e-9,2.374863620813167e-9,4.421185016893959e-9,1.4774599524425547e-9,4.730514025826236e-9,3.5972144678159556e-10,1.8050245026579529e-10,0
30518,2.5290464295904417e-10,1.0240080349664687e-9,2.3739532068026935e-9,4.416996094017486e-9,1.465366116452129e-9,4.7181222626602596e-9,3.5972144678159556e-10,1.8183164678767815e-10,0
30519,2.5290464295904417e-10,1.024049546989319e-9,2.37304279279222e-9,4.412807171141013e-9,1.4532722804617034e-9,4.7057304994942835e-9,3.5972144678159556e-10,1.8316084330956104e-10,0
30520,2.5290464295904417e-10,1.0240910590121696e-9,2.3721323787817458e-9,4.408618248264539e-9,1.4411784444712777e-9,4.6933387363283066e-9,3.5972144678159556e-10,1.8449003983144393e-10,0
30521,2.5290464295904417e-10,1.02413257103502e-9,2.371221964771272e-9,4.404429325388066e-9,1.429084608480852e-9,4.6809469731623305e-9,3.5972144678159556e-10,1.858192363533268e-10,0
30522,2.5290464295904417e-10,1.0241740830578704e-9,2.3703115507607985e-9,4.400240402511593e-9,1.4169907724904264e-9,4.6685552099963544e-9,3.5972144678159556e-10,1.8714843287520969e-10,0
30523,2.5290464295904417e-10,1.024215595080721e-9,2.369401136750325e-9,4.39605147963512e-9,1.4048969365000007e-9,4.656163446830378e-9,3.5972144678159556e-10,1.8847762939709255e-10,0
30524,2.5290464295904417e-10,1.0242571071035713e-9,2.3684907227398508e-9,4.391862556758647e-9,1.392803100509575e-9,4.643771683664402e-9,3.5972144678159556e-10,1.8980682591897544e-10,0
30525,2.5290464295904417e-10,1.0242986191264217e-9,2.367580308729377e-9,4.3876736338821735e-9,1.3807092645191494e-9,4.631379920498425e-9,3.5972144678159556e-10,1.911360224408583e-10,0
30526,2.5290464295904417e-10,1.024340131149272e-9,2.3666698947189035e-9,4.3834847110057e-9,1.3686154285287237e-9,4.618988157332449e-9,3.5972144678159556e-10,1.924652189627412e-10,0
30527,2.5290464295904417e-10,1.0243816431721227e-9,2.36575948070843e-9,4.379295788129227e-9,1.356521592538298e-9,4.606596394166473e-9,3.5972144678159556e-10,1.9379441548462406e-10,0
30528,2.5290464295904417e-10,1.024423155194973e-9,2.3648490666979557e-9,4.3751068652527535e-9,1.3444277565478724e-9,4.594204631000497e-9,3.5972144678159556e-10,1.9512361200650695e-10,0
30529,2.5290464295904417e-10,1.0244646672178234e-9,2.363938652687482e-9,4.37091794237628e-9,1.3323339205574467e-9,4.581812867834521e-9,3.5972144678159556e-10,1.9645280852838981e-10,0
30530,2.5290464295904417e-10,1.0245061792406738e-9,2.3630282386770084e-9,4.366729019499807e-9,1.320240084567021e-9,4.569421104668545e-9,3.5972144678159556e-10,1.977820050502727e-10,0
30531,2.5290464295904417e-10,1.0245476912635244e-9,2.3621178246665344e-9,4.362540096623334e-9,1.3081462485765954e-9,4.557029341502568e-9,3.5972144678159556e-10,1.991112015721556e-10,0
30532,2.525248540744326e-10,1.024319070716346e-9,2.3669760689496602e-9,4.359748486885794e-9,1.2958185061747483e-9,4.548220093583267e-9,3.5972144678159556e-10,1.991112015721556e-10,0
30533,2.52145065189821e-10,1.0250464443807313e-9,2.3966399793102588e-9,4.599443805242881e-9,1.2958185061747483e-9,4.5837715157713315e-9,3.618846936416953e-10,1.991112015721556e-10,0
30534,2.5176527630520937e-10,1.0257738180451165e-9,2.426303889670857e-9,4.839139123599968e-9,1.2958185061747483e-9,4.619322937959397e-9,3.640479405017951e-10,1.991112015721556e-10,0
30535,2.5138548742059775e-10,1.0265011917095018e-9,2.455967800031455e-9,5.0788344419570546e-09,1.2958185061747483e-9,4.654874360147463e-9,3.662111873618949e-10,1.991112015721556e-10,0
30536,2.514449695368954e-10,1.0272285653738872e-9,2.4774352814038576e-9,5.32042482105684e-9,1.277801513366568e-9,4.638330435307471e-9,3.6837443422199465e-10,1.9869597986981765e-10,0
30537,2.515044516531931e-10,1.0279559390382724e-9,2.4989027627762597e-9,5.562015200156625e-9,1.2597845205583875e-9,4.621786510467479e-9,3.7053768108209446e-10,1.982807581674797e-10,0
30538,2.515044516531931e-10,1.0225737392276226e-9,2.525898723102943e-9,5.793032817582376e-9,1.2680603574338496e-9,4.668823433013332e-9,3.727009279421942e-10,1.9819722675261065e-10,0
30539,2.515044516531931e-10,1.0171915394169726e-9,2.5528946834296257e-9,6.024050435008127e-9,1.2763361943093115e-9,4.715860355559185e-9,3.74864174802294e-10,1.9811369533774161e-10,0
30540,2.515044516531931e-10,1.0118093396063228e-9,2.579890643756309e-9,6.255068052433878e-9,1.2846120311847736e-9,4.7628972781050385e-09,3.770274216623938e-10,1.9803016392287257e-10,0
30541,2.515044516531931e-10,1.006427139795673e-9,2.6068866040829917e-9,6.486085669859628e-9,1.2928878680602355e-9,4.809934200650891e-9,3.7919066852249355e-10,1.9794663250800356e-10,0
30542,2.515044516531931e-10,1.0010449399850232e-9,2.633882564409675e-9,6.717103287285379e-9,1.3011637049356976e-9,4.856971123196744e-9,3.813539153825933e-10,1.9786310109313452e-10,0
30543,2.515044516531931e-10,9.956627401743735e-10,2.6608785247363576e-9,6.94812090471113e-9,1.3094395418111595e-9,4.904008045742597e-9,3.835171622426931e-10,1.9777956967826548e-10,0
30544,2.52822264655921e-10,9.895946787221888e-10,2.6591869836043543e-9,6.936151835411605e-9,1.3214714972128561e-9,4.928369883721541e-9,3.8373949141218607e-10,1.9811125996573438e-10,0
30545,2.541400776586489e-10,9.83526617270004e-10,2.657495442472351e-9,6.92418276611208e-9,1.3335034526145527e-9,4.952731721700485e-9,3.83961820581679e-10,1.9844295025320332e-10,0
30546,2.554578906613768e-10,9.774585558178193e-10,2.6558039013403476e-9,6.912213696812554e-9,1.3455354080162494e-9,4.977093559679429e-9,3.8418414975117196e-10,1.9877464054067223e-10,0
30547,2.5677570366410467e-10,9.713904943656347e-10,2.6541123602083443e-9,6.900244627513029e-9,1.357567363417946e-9,5.0014553976583725e-09,3.844064789206649e-10,1.9910633082814114e-10,0
30548,2.5809351666683255e-10,9.6532243291345e-10,2.652420819076341e-9,6.888275558213504e-9,1.3695993188196426e-9,5.025817235637316e-9,3.846288080901578e-10,1.9943802111561005e-10,0
30549,2.594113296695605e-10,9.592543714612654e-10,2.6507292779443376e-9,6.876306488913979e-9,1.3816312742213392e-9,5.05017907361626e-9,3.8485113725965075e-10,1.9976971140307895e-10,0
30550,2.607291426722884e-10,9.531863100090808e-10,2.6490377368123342e-9,6.8643374196144536e-9,1.3936632296230358e-9,5.074540911595204e-9,3.850734664291437e-10,2.0010140169054786e-10,0
30551,2.6204695567501626e-10,9.524174243218452e-10,2.650230524827131e-9,6.864935118944348e-9,1.408780524611068e-9,5.074540911595204e-9,3.789261446879966e-10,2.005166233928858e-10,0
30552,2.6336476867774415e-10,9.524589363446956e-10,2.651206933729043e-9,6.866231474843709e-9,1.423835939010371e-9,5.0979194220017606e-09,3.7809687284485454e-10,2.0026602914827872e-10,0
30553,2.639230039112488e-10,9.54412436790673e-10,2.651206933729043e-9,6.885086152598329e-9,1.4351352348834395e-9,5.098235688266517e-9,3.8114348632631753e-10,1.996837446162027e-10,0
30554,2.644812391447535e-10,9.563659372366505e-10,2.651206933729043e-9,6.9039408303529495e-9,1.4464345307565078e-9,5.098551954531274e-9,3.841900998077805e-10,1.9910146008412668e-10,0
30555,2.6503947437825816e-10,9.583194376826281e-10,2.651206933729043e-9,6.92279550810757e-9,1.4577338266295763e-9,5.09886822079603e-9,3.872367132892435e-10,1.9851917555205067e-10,0
30556,2.655977096117628e-10,9.602729381286055e-10,2.651206933729043e-9,6.94165018586219e-9,1.4690331225026448e-9,5.099184487060787e-9,3.902833267707065e-10,1.9793689101997464e-10,0
30557,2.661559448452675e-10,9.62226438574583e-10,2.651206933729043e-9,6.96050486361681e-9,1.480332418375713e-9,5.099500753325543e-9,3.933299402521695e-10,1.9735460648789863e-10,0
30558,2.6671418007877216e-10,9.641799390205605e-10,2.651206933729043e-9,6.9793595413714305e-9,1.4916317142487815e-9,5.099817019590299e-9,3.963765537336325e-10,1.967723219558226e-10,0
30559,2.672724153122768e-10,9.66133439466538e-10,2.651206933729043e-9,6.998214219126051e-9,1.50293101012185e-9,5.100133285855056e-9,3.9942316721509547e-10,1.961900374237466e-10,0
30560,2.6783065054578147e-10,9.680869399125154e-10,2.651206933729043e-9,7.017068896880671e-9,1.5142303059949184e-9,5.100449552119813e-9,4.0246978069655846e-10,1.956077528916706e-10,0
30561,2.6838888577928617e-10,9.70040440358493e-10,2.651206933729043e-9,7.035923574635291e-9,1.5255296018679867e-9,5.100765818384569e-9,4.0551639417802145e-10,1.9502546835959456e-10,0
30562,2.689471210127908e-10,9.719939408044706e-10,2.651206933729043e-9,7.0547782523899115e-9,1.5368288977410552e-9,5.1010820846493255e-9,4.0856300765948444e-10,1.9444318382751855e-10,0
30563,2.6950535624629547e-10,9.73947441250448e-10,2.651206933729043e-9,7.073632930144532e-9,1.5481281936141236e-9,5.101398350914082e-9,4.1160962114094744e-10,1.9386089929544252e-10,0
30564,2.700635914798002e-10,9.759009416964256e-10,2.651206933729043e-9,7.092487607899152e-9,1.559427489487192e-9,5.101714617178838e-9,4.1465623462241043e-10,1.9327861476336652e-10,0
30565,2.7062182671330483e-10,9.77854442142403e-10,2.651206933729043e-9,7.111342285653772e-9,1.5707267853602604e-9,5.102030883443595e-9,4.177028481038734e-10,1.9269633023129048e-10,0
30566,2.711800619468095e-10,9.798079425883806e-10,2.651206933729043e-9,7.1301969634083925e-9,1.5820260812333289e-9,5.102347149708352e-9,4.207494615853364e-10,1.9211404569921448e-10,0
30567,2.717382971803142e-10,9.81761443034358e-10,2.651206933729043e-9,7.149051641163013e-9,1.5933253771063973e-9,5.102663415973108e-9,4.237960750667994e-10,1.9153176116713847e-10,0
30568,2.717382971803142e-10,9.837149434803355e-10,2.652507911300281e-9,7.1754835453480975e-09,1.6173892879097906e-9,5.1007738255925326e-9,4.268426885482624e-10,1.9261279881642147e-10,0
30569,2.717382971803142e-10,9.856684439263131e-10,2.65380888887152e-9,7.201915449533183e-9,1.6414531987131838e-9,5.098884235211956e-9,4.298893020297254e-10,1.9369383646570447e-10,0
30570,2.7449288741836533e-10,9.945419155574117e-10,2.682282714111254e-9,7.230446339966996e-9,1.6413913181244548e-9,5.1009988484310635e-9,4.2911412496480435e-10,1.9435721704064228e-10,0
30571,2.7724747765641647e-10,1.0034153871885105e-9,2.7107565393509885e-9,7.258977230400808e-9,1.6413294375357257e-9,5.103113461650171e-9,4.283389478998833e-10,1.9502059761558013e-10,0
30572,2.8006155001076533e-10,1.0122473467967587e-9,2.7400325890447543e-9,7.28621176493526e-9,1.642296003475775e-9,5.106211402441664e-9,4.283930426781044e-10,1.96349794137463e-10,0
30573,2.8287562236511414e-10,1.021079306405007e-9,2.76930863873852e-9,7.313446299469712e-9,1.6432625694158246e-9,5.109309343233159e-9,4.284471374563255e-10,1.9767899065934588e-10,0
30574,2.8563021260316534e-10,1.0240507646753227e-9,2.7923832719129177e-9,7.341578388512447e-9,1.644229135355874e-9,5.097971800949704e-9,4.284471374563255e-10,1.985929654788908e-10,0
30575,2.883848028412165e-10,1.0270222229456386e-9,2.8154579050873153e-9,7.369710477555182e-9,1.6451957012959233e-9,5.086634258666249e-9,4.284471374563255e-10,1.9950694029843574e-10,0
30576,2.9113939307926763e-10,1.0299936812159544e-9,2.838532538261713e-9,7.397842566597918e-9,1.6461622672359729e-9,5.0752967163827945e-9,4.284471374563255e-10,2.0042091511798065e-10,0
30577,2.9389398331731877e-10,1.03296513948627e-9,2.8616071714361105e-9,7.425974655640654e-9,1.6471288331760222e-9,5.06395917409934e-9,4.284471374563255e-10,2.013348899375256e-10,0
30578,2.9664857355536997e-10,1.0359365977565859e-9,2.884681804610508e-9,7.45410674468339e-9,1.6480953991160718e-9,5.052621631815886e-9,4.284471374563255e-10,2.0224886475707053e-10,0
30579,2.994031637934211e-10,1.0389080560269017e-9,2.9077564377849056e-9,7.482238833726124e-9,1.6490619650561212e-9,5.041284089532431e-9,4.284471374563255e-10,2.0316283957661545e-10,0
30580,3.0215775403147226e-10,1.0418795142972174e-9,2.9308310709593036e-9,7.51037092276886e-9,1.6500285309961707e-9,5.0299465472489765e-9,4.284471374563255e-10,2.0407681439616039e-10,0
30581,3.049123442695234e-10,1.0448509725675332e-9,2.953905704133701e-9,7.538503011811596e-9,1.65099509693622e-9,5.018609004965522e-9,4.284471374563255e-10,2.0499078921570533e-10,0
30582,3.076669345075746e-10,1.047822430837849e-9,2.9769803373080987e-9,7.56663510085433e-9,1.6519616628762694e-9,5.007271462682067e-9,4.284471374563255e-10,2.0590476403525024e-10,0
30583,3.1042152474562575e-10,1.0507938891081647e-9,3.0000549704824963e-9,7.594767189897067e-9,1.652928228816319e-9,4.995933920398612e-9,4.284471374563255e-10,2.0681873885479518e-10,0
30584,3.131761149836769e-10,1.0537653473784805e-9,3.023129603656894e-9,7.622899278939802e-9,1.6538947947563683e-9,4.984596378115158e-9,4.284471374563255e-10,2.077327136743401e-10,0
30585,3.1593070522172804e-10,1.0567368056487964e-9,3.0462042368312915e-9,7.651031367982537e-9,1.654861360696418e-9,4.973258835831703e-9,4.284471374563255e-10,2.0864668849388504e-10,0
30586,3.186852954597792e-10,1.059708263919112e-9,3.069278870005689e-9,7.679163457025274e-9,1.6558279266364673e-9,4.961921293548248e-9,4.284471374563255e-10,2.0956066331342998e-10,0
30587,3.214398856978304e-10,1.0626797221894279e-9,3.092353503180087e-9,7.707295546068008e-9,1.6567944925765168e-9,4.950583751264794e-9,4.284471374563255e-10,2.104746381329749e-10,0
30588,3.2419447593588153e-10,1.0656511804597437e-9,3.1154281363544846e-9,7.735427635110745e-9,1.6577610585165662e-9,4.93924620898134e-9,4.284471374563255e-10,2.1138861295251983e-10,0
30589,3.2694906617393267e-10,1.0686226387300593e-9,3.138502769528882e-9,7.76355972415348e-9,1.6587276244566155e-9,4.927908666697885e-9,4.284471374563255e-10,2.1230258777206475e-10,0
30590,3.2694906617393267e-10,1.0647986618838053e-9,3.132301353009514e-9,7.809946780594056e-9,1.6609256030425002e-9,4.912566920814748e-9,4.304962447033745e-10,2.1197089748459584e-10,0
30591,3.2826687917666056e-10,1.058668027975844e-9,3.1969466793599714e-9,7.92695888725265e-9,1.6611595094539216e-9,4.905689799262102e-9,4.304421499251534e-10,2.1330252937848596e-10,0
30592,3.2958469217938844e-10,1.0525373940678829e-9,3.2615920057104293e-9,8.043970993911242e-9,1.6613934158653428e-9,4.8988126777094566e-9,4.303880551469323e-10,2.1463416127237605e-10,0
30593,3.309025051821164e-10,1.0464067601599217e-9,3.3262373320608868e-9,8.160983100569835e-9,1.661627322276764e-9,4.8919355561568105e-09,4.303339603687112e-10,2.1596579316626615e-10,0
30594,3.3184052930023265e-10,1.0461781396127434e-9,3.393181142216997e-9,8.275701345094653e-9,1.6615963819823995e-9,4.9004001804873026e-9,4.2950468852556914e-10,2.1596579316626615e-10,0
30595,3.327785534183489e-10,1.0459495190655651e-9,3.460124952373107e-9,8.390419589619471e-9,1.661565441688035e-9,4.908864804817795e-9,4.28675416682427e-10,2.1596579316626615e-10,0
30596,3.337165775364652e-10,1.0457208985183868e-9,3.527068762529217e-9,8.505137834144289e-9,1.6615345013936704e-9,4.917329429148286e-9,4.2784614483928487e-10,2.1596579316626615e-10,0
30597,3.3465460165458146e-10,1.0454922779712085e-9,3.5940125726853275e-9,8.619856078669107e-9,1.661503561099306e-9,4.925794053478778e-9,4.270168729961428e-10,2.1596579316626615e-10,0
30598,3.355926257726978e-10,1.0452636574240303e-9,3.6609563828414375e-9,8.734574323193924e-9,1.6614726208049414e-9,4.93425867780927e-9,4.2618760115300066e-10,2.1596579316626615e-10,0
30599,3.3653064989081405e-10,1.045035036876852e-9,3.727900192997547e-9,8.849292567718743e-9,1.6614416805105769e-9,4.942723302139761e-9,4.2535832930985853e-10,2.1596579316626615e-10,0
30600,3.374686740089303e-10,1.0448064163296737e-9,3.794844003153658e-9,8.96401081224356e-9,1.6614107402162123e-9,4.951187926470253e-9,4.2452905746671644e-10,2.1596579316626615e-10,0
30601,3.384066981270466e-10,1.0445777957824954e-9,3.861787813309767e-9,9.078729056768379e-9,1.6613797999218478e-9,4.959652550800745e-9,4.236997856235743e-10,2.1596579316626615e-10,0
30602,3.393447222451629e-10,1.0443491752353171e-9,3.928731623465878e-9,9.193447301293196e-9,1.6613488596274833e-9,4.968117175131237e-9,4.228705137804322e-10,2.1596579316626615e-10,0
30603,3.389649333605513e-10,1.0451595729454033e-9,3.925414536093309e-9,9.190754637768344e-9,1.6701543899145169e-9,4.967920509616759e-9,4.2181891276779715e-10,2.1463416127237605e-10,0
30604,3.3858514447593967e-10,1.0459699706554895e-9,3.922097448720741e-9,9.188061974243492e-9,1.6789599202015502e-9,4.9677238441022815e-9,4.2076731175516207e-10,2.1330252937848596e-10,0
30605,3.3820535559132805e-10,1.0467803683655755e-9,3.918780361348172e-9,9.185369310718639e-9,1.6877654504885838e-9,4.9675271785878045e-9,4.19715710742527e-10,2.1197089748459584e-10,0
30606,3.3688754258860017e-10,1.0467803683655755e-9,3.878228271739029e-9,9.166514632964019e-9,1.6946378488955184e-09,4.955676704525116e-9,4.1583387536131337e-10,2.123861191869338e-10,0
30607,3.355697295858723e-10,1.0467803683655755e-9,3.837676182129884e-9,9.147659955209398e-9,1.701510247302453e-9,4.943826230462428e-9,4.119520399800997e-10,2.1280134088927174e-10,0
30608,3.3425191658314434e-10,1.0467803683655755e-9,3.79712409252074e-9,9.128805277454778e-9,1.7083826457093876e-9,4.931975756399739e-9,4.08070204598886e-10,2.132165625916097e-10,0
30609,3.3293410358041646e-10,1.0467803683655755e-9,3.7565720029115966e-9,9.109950599700158e-9,1.7152550441163222e-9,4.920125282337051e-9,4.0418836921767233e-10,2.1363178429394764e-10,0
30610,3.3161629057768857e-10,1.0467803683655755e-9,3.7160199133024524e-9,9.091095921945538e-9,1.7221274425232569e-9,4.908274808274362e-9,4.0030653383645865e-10,2.140470059962856e-10,0
30611,3.302984775749607e-10,1.0467803683655755e-9,3.6754678236933086e-9,9.072241244190917e-9,1.7289998409301915e-9,4.896424334211673e-9,3.9642469845524497e-10,2.1446222769862354e-10,0
30612,3.305958881564491e-10,1.0545943701494854e-9,3.6364330907682874e-9,9.053386566436297e-9,1.7277684282843562e-9,4.934189620253034e-9,3.9281928702174534e-10,2.1446222769862354e-10,0
30613,3.322705938569631e-10,1.0632187696434815e-9,3.637734068339526e-9,9.052090210536937e-9,1.7264441947554276e-9,4.97121695167663e-9,3.930957109694594e-10,2.140470059962856e-10,0
30614,3.339452995574771e-10,1.0718431691374776e-9,3.6390350459107644e-09,9.050793854637576e-9,1.7251199612264987e-9,5.008244283100226e-9,3.9337213491717343e-10,2.1363178429394764e-10,0
30615,3.356200052579911e-10,1.0804675686314737e-9,3.640336023482003e-9,9.049497498738214e-9,1.72379572769757e-9,5.045271614523822e-9,3.9364855886488747e-10,2.132165625916097e-10,0
30616,3.372947109585051e-10,1.0890919681254699e-9,3.6416370010532418e-9,9.048201142838852e-9,1.7224714941686412e-9,5.082298945947418e-9,3.939249828126015e-10,2.1280134088927174e-10,0
30617,3.3896941665901913e-10,1.097716367619466e-9,3.64293797862448e-9,9.046904786939492e-9,1.7211472606397125e-9,5.1193262773710135e-9,3.9420140676031556e-10,2.123861191869338e-10,0
30618,3.4064412235953314e-10,1.106340767113462e-9,3.6442389561957188e-9,9.04560843104013e-9,1.7198230271107837e-9,5.156353608794609e-9,3.944778307080296e-10,2.1197089748459584e-10,0
30619,3.4231882806004714e-10,1.1149651666074582e-9,3.6455399337669575e-9,9.04431207514077e-9,1.718498793581855e-9,5.193380940218205e-9,3.9475425465574365e-10,2.115556757822579e-10,0
30620,3.439935337605611e-10,1.1235895661014543e-9,3.6468409113381957e-9,9.043015719241408e-9,1.7171745600529261e-9,5.230408271641801e-9,3.950306786034577e-10,2.1114045407991994e-10,0
30621,3.456682394610751e-10,1.1322139655954505e-9,3.6481418889094345e-9,9.041719363342048e-9,1.7158503265239975e-9,5.2674356030653965e-9,3.953071025511717e-10,2.10725232377582e-10,0
30622,3.473429451615891e-10,1.1408383650894466e-9,3.6494428664806727e-9,9.040423007442686e-9,1.7145260929950686e-9,5.304462934488992e-9,3.9558352649888573e-10,2.1031001067524407e-10,0
30623,3.490176508621031e-10,1.1494627645834427e-9,3.6507438440519114e-9,9.039126651543324e-9,1.71320185946614e-9,5.341490265912588e-9,3.958599504465998e-10,2.0989478897290612e-10,0
30624,3.5069235656261713e-10,1.1580871640774388e-9,3.65204482162315e-9,9.037830295643963e-9,1.711877625937211e-9,5.378517597336184e-9,3.961363743943138e-10,2.0947956727056817e-10,0
30625,3.5236706226313113e-10,1.166711563571435e-9,3.6533457991943884e-9,9.036533939744603e-9,1.7105533924082824e-9,5.4155449287597795e-9,3.9641279834202787e-10,2.0906434556823022e-10,0
30626,3.5404176796364514e-10,1.175335963065431e-9,3.654646776765627e-9,9.035237583845241e-9,1.7092291588793536e-9,5.452572260183375e-9,3.966892222897419e-10,2.0864912386589227e-10,0
30627,3.544810389645544e-10,1.1751073425182528e-9,3.6535410809747708e-9,9.03852895221343e-9,1.7069383594103754e-9,5.443763012264073e-9,3.966892222897419e-10,2.0831743357842336e-10,0
30628,3.5492030996546375e-10,1.1748787219710745e-9,3.6524353851839148e-9,9.04182032058162e-9,1.7046475599413971e-9,5.434953764344771e-9,3.966892222897419e-10,2.0798574329095442e-10,0
30629,3.543025926156614e-10,1.173922727759511e-9,3.646906906229634e-9,9.047106701418637e-9,1.7197648549294294e-9,5.4242062186047485e-9,3.9646689312024896e-10,2.0840096499329237e-10,0
30630,3.53684875265859e-10,1.1729667335479475e-9,3.6413784272753534e-9,9.052393082255654e-9,1.7348821499174614e-9,5.413458672864726e-9,3.96244563950756e-10,2.0881618669563032e-10,0
30631,3.5087080291151016e-10,1.1638646413696706e-9,3.6413784272753534e-9,9.056779897557502e-9,1.744808947616367e-9,5.413458672864726e-9,3.9530115249456313e-10,2.0881618669563032e-10,0
30632,3.4805673055716135e-10,1.1547625491913936e-9,3.6413784272753534e-9,9.06116671285935e-9,1.7547357453152725e-9,5.413458672864726e-9,3.943577410383703e-10,2.0881618669563032e-10,0
30633,3.452426582028125e-10,1.1456604570131165e-9,3.6413784272753534e-9,9.065553528161198e-9,1.764662543014178e-9,5.413458672864726e-9,3.934143295821774e-10,2.0881618669563032e-10,0
30634,3.4242858584846364e-10,1.1365583648348396e-9,3.6413784272753534e-9,9.069940343463046e-9,1.7745893407130836e-9,5.413458672864726e-9,3.9247091812598453e-10,2.0881618669563032e-10,0
30635,3.3961451349411483e-10,1.1274562726565626e-9,3.6413784272753534e-9,9.074327158764895e-9,1.7845161384119891e-9,5.413458672864726e-9,3.9152750666979165e-10,2.0881618669563032e-10,0
30636,3.3680044113976597e-10,1.1183541804782857e-9,3.6413784272753534e-9,9.078713974066743e-9,1.7944429361108947e-9,5.413458672864726e-9,3.905840952135988e-10,2.0881618669563032e-10,0
30637,3.339863687854171e-10,1.1092520883000087e-9,3.6413784272753534e-9,9.083100789368592e-9,1.8043697338098002e-9,5.413458672864726e-9,3.8964068375740594e-10,2.0881618669563032e-10,0
30638,3.311722964310683e-10,1.1001499961217316e-9,3.6413784272753534e-9,9.08748760467044e-9,1.8142965315087058e-9,5.413458672864726e-9,3.8869727230121305e-10,2.0881618669563032e-10,0
30639,3.2835822407671945e-10,1.0910479039434548e-9,3.6413784272753534e-9,9.091874419972287e-9,1.8242233292076113e-9,5.413458672864726e-9,3.8775386084502017e-10,2.0881618669563032e-10,0
30640,3.255441517223706e-10,1.0819458117651777e-9,3.6413784272753534e-9,9.096261235274136e-9,1.8341501269065169e-9,5.413458672864726e-9,3.8681044938882734e-10,2.0881618669563032e-10,0
30641,3.227300793680218e-10,1.0728437195869008e-9,3.6413784272753534e-9,9.100648050575983e-9,1.8440769246054224e-9,5.413458672864726e-9,3.8586703793263445e-10,2.0881618669563032e-10,0
30642,3.1991600701367293e-10,1.0637416274086238e-9,3.6413784272753534e-9,9.105034865877833e-9,1.854003722304328e-9,5.413458672864726e-9,3.8492362647644157e-10,2.0881618669563032e-10,0
30643,3.1710193465932407e-10,1.0546395352303467e-9,3.6413784272753534e-9,9.10942168117968e-9,1.8639305200032335e-9,5.413458672864726e-9,3.839802150202487e-10,2.0881618669563032e-10,0
30644,3.142878623049752e-10,1.0455374430520699e-9,3.6413784272753534e-9,9.11380849648153e-9,1.873857317702139e-9,5.413458672864726e-9,3.8303680356405585e-10,2.0881618669563032e-10,0
30645,3.114737899506264e-10,1.0364353508737928e-9,3.6413784272753534e-9,9.118195311783377e-9,1.8837841154010446e-9,5.413458672864726e-9,3.8209339210786297e-10,2.0881618669563032e-10,0
30646,3.0865971759627755e-10,1.0273332586955158e-9,3.6413784272753534e-9,9.122582127085224e-9,1.89371091309995e-9,5.413458672864726e-9,3.811499806516701e-10,2.0881618669563032e-10,0
30647,3.058456452419287e-10,1.0191871607288024e-9,3.6400114548126764e-9,9.124076375409961e-9,1.8966242268635934e-9,5.4551856265196895e-9,3.812581702081123e-10,2.0840096499329237e-10,0
30648,3.0347084388848916e-10,1.0103552011205542e-9,3.6400114548126764e-9,9.120385200137253e-9,1.891495610163196e-9,5.454384785799752e-9,3.8059118269963344e-10,2.0840096499329237e-10,0
30649,3.0329239753959613e-10,1.0106253336905829e-9,3.6428957839594763e-9,9.122081362941134e-9,1.8925240566919743e-9,5.450907692641331e-9,3.808676066473475e-10,2.087326552807613e-10,0
30650,3.020569628399914e-10,1.0106668457134332e-9,3.6466694297842476e-9,9.122081362941134e-9,1.8872407385197543e-9,5.441915957869578e-9,3.808676066473475e-10,2.0848206103615418e-10,0
30651,3.008215281403867e-10,1.0107083577362836e-9,3.650443075609019e-9,9.122081362941134e-9,1.8819574203475342e-9,5.432924223097825e-9,3.808676066473475e-10,2.082314667915471e-10,0
30652,2.99586093440782e-10,1.0107498697591342e-9,3.6542167214337907e-9,9.122081362941134e-9,1.876674102175314e-9,5.423932488326073e-9,3.808676066473475e-10,2.0798087254694e-10,0
30653,2.983506587411773e-10,1.0107913817819846e-9,3.657990367258562e-9,9.122081362941134e-9,1.871390784003094e-9,5.41494075355432e-9,3.808676066473475e-10,2.077302783023329e-10,0
30654,2.971152240415726e-10,1.010832893804835e-9,3.6617640130833338e-9,9.122081362941134e-9,1.866107465830874e-9,5.405949018782568e-9,3.808676066473475e-10,2.0747968405772577e-10,0
30655,2.958797893419679e-10,1.0108744058276855e-9,3.665537658908105e-9,9.122081362941134e-9,1.860824147658654e-9,5.396957284010815e-9,3.808676066473475e-10,2.0722908981311867e-10,0
30656,2.946443546423632e-10,1.010915917850536e-9,3.6693113047328764e-9,9.122081362941134e-9,1.8555408294864337e-9,5.387965549239062e-9,3.808676066473475e-10,2.0697849556851158e-10,0
30657,2.934089199427585e-10,1.0109574298733863e-9,3.673084950557648e-9,9.122081362941134e-9,1.8502575113142136e-9,5.37897381446731e-9,3.808676066473475e-10,2.0672790132390448e-10,0
30658,2.9217348524315377e-10,1.0109989418962366e-9,3.6768585963824195e-9,9.122081362941134e-9,1.8449741931419936e-9,5.369982079695557e-9,3.808676066473475e-10,2.0647730707929736e-10,0
30659,2.9093805054354904e-10,1.0110404539190872e-9,3.680632242207191e-9,9.122081362941134e-9,1.8396908749697735e-9,5.3609903449238046e-9,3.808676066473475e-10,2.0622671283469026e-10,0
30660,2.8970261584394437e-10,1.0110819659419376e-9,3.6844058880319626e-9,9.122081362941134e-9,1.8344075567975535e-9,5.351998610152052e-9,3.808676066473475e-10,2.0597611859008316e-10,0
30661,2.8846718114433964e-10,1.011123477964788e-9,3.688179533856734e-9,9.122081362941134e-9,1.8291242386253332e-9,5.343006875380299e-9,3.808676066473475e-10,2.0572552434547606e-10,0
30662,2.8723174644473496e-10,1.0111649899876384e-9,3.6919531796815052e-9,9.122081362941134e-9,1.8238409204531131e-9,5.334015140608547e-9,3.808676066473475e-10,2.0547493010086894e-10,0
30663,2.8767101744564424e-10,1.0103961043004028e-9,3.6919531796815052e-9,9.118390187668424e-9,1.8157989899890725e-9,5.123062922146084e-9,3.7704581610096346e-10,2.0547493010086894e-10,0
30664,2.8811028844655357e-10,1.0096272186131672e-9,3.6919531796815052e-9,9.114699012395716e-9,1.8077570595250316e-9,4.912110703683621e-9,3.732240255545795e-10,2.0547493010086894e-10,0
30665,2.8854955944746285e-10,1.0088583329259314e-9,3.6919531796815052e-9,9.111007837123008e-9,1.7997151290609909e-9,4.701158485221158e-9,3.6940223500819546e-10,2.0547493010086894e-10,0
30666,2.889888304483721e-10,1.0080894472386958e-9,3.6919531796815052e-9,9.1073166618503e-9,1.7916731985969502e-9,4.490206266758695e-9,3.6558044446181144e-10,2.0547493010086894e-10,0
30667,2.8942810144928145e-10,1.00732056155146e-9,3.6919531796815052e-9,9.10362548657759e-9,1.7836312681329093e-9,4.279254048296232e-9,3.6175865391542746e-10,2.0547493010086894e-10,0
30668,2.894875835655791e-10,1.0062815432941957e-9,3.6905862072188286e-9,9.098536998165948e-9,1.778612796666475e-9,4.068891826377202e-9,3.5788276859082234e-10,2.0514323981340003e-10,0
30669,2.8954706568187683e-10,1.0052425250369312e-9,3.689219234756152e-9,9.093448509754305e-9,1.7735943252000406e-9,3.858529604458171e-9,3.540068832662172e-10,2.0481154952593112e-10,0
30670,2.8892934833207446e-10,1.0121624962220524e-9,3.692689409244099e-9,9.018041864897133e-9,1.7622950293269723e-9,3.859632532780837e-9,3.5373045931850317e-10,2.0472801811106208e-10,0
30671,2.883116309822721e-10,1.0190824674071736e-9,3.6961595837320458e-9,8.942635220039961e-9,1.7509957334539039e-9,3.860735461103503e-9,3.5345403537078913e-10,2.0464448669619304e-10,0
30672,2.8769391363246974e-10,1.0260024385922948e-9,3.6996297582199927e-9,8.86722857518279e-9,1.7396964375808354e-9,3.861838389426169e-9,3.5317761142307513e-10,2.0456095528132403e-10,0
30673,2.870761962826674e-10,1.032922409777416e-9,3.7030999327079396e-9,8.791821930325617e-9,1.728397141707767e-9,3.862941317748835e-9,3.529011874753611e-10,2.0447742386645499e-10,0
30674,2.8645847893286506e-10,1.0398423809625372e-9,3.7065701071958865e-9,8.716415285468444e-9,1.7170978458346987e-9,3.864044246071502e-9,3.5262476352764704e-10,2.0439389245158595e-10,0
30675,2.858407615830627e-10,1.0467623521476584e-9,3.7100402816838334e-9,8.641008640611271e-9,1.7057985499616302e-9,3.8651471743941675e-9,3.52348339579933e-10,2.043103610367169e-10,0
30676,2.8522304423326033e-10,1.0536823233327796e-9,3.7135104561717803e-9,8.5656019957541e-9,1.6944992540885617e-9,3.866250102716833e-9,3.5207191563221896e-10,2.042268296218479e-10,0
30677,2.84605326883458e-10,1.0606022945179008e-9,3.716980630659727e-9,8.490195350896927e-9,1.6831999582154935e-9,3.8673530310395e-9,3.517954916845049e-10,2.0414329820697885e-10,0
30678,2.8398760953365565e-10,1.067522265703022e-9,3.7204508051476737e-9,8.414788706039755e-9,1.671900662342425e-9,3.868455959362166e-9,3.5151906773679087e-10,2.040597667921098e-10,0
30679,2.833698921838533e-10,1.0744422368881433e-9,3.7239209796356207e-9,8.339382061182583e-9,1.6606013664693565e-9,3.869558887684832e-9,3.512426437890768e-10,2.0397623537724077e-10,0
30680,2.827521748340509e-10,1.0813622080732645e-9,3.727391154123568e-9,8.26397541632541e-9,1.649302070596288e-9,3.870661816007498e-9,3.509662198413628e-10,2.0389270396237175e-10,0
30681,2.849485298385974e-10,1.085518281102322e-9,3.738928470710766e-9,8.182283878883364e-9,1.6570345981166837e-9,3.8727480719025516e-9,3.545716312748624e-10,2.038091725475027e-10,0
30682,2.871448848431439e-10,1.0896743541313796e-9,3.750465787297965e-9,8.100592341441319e-9,1.6647671256370791e-9,3.874834327797605e-9,3.5817704270836205e-10,2.0372564113263367e-10,0
30683,2.871448848431439e-10,1.0936228670461851e-9,3.780931922112595e-9,8.043536593654347e-9,1.6524393832352323e-9,3.891216115901236e-9,3.602261499554111e-10,2.053889633139927e-10,0
30684,2.877626021929463e-10,1.0987975067425826e-9,3.802399403484998e-9,8.018998744698518e-9,1.6514109367064539e-9,3.8878728021551204e-9,3.622752572024601e-10,2.0713581691022074e-10,0
30685,2.877626021929463e-10,1.1027460196573882e-9,3.8238668848574e-9,8.030665947792769e-9,1.647359031180069e-9,3.904254590258753e-9,3.643784592277302e-10,2.0821685455950374e-10,0
30686,2.877626021929463e-10,1.1066945325721935e-9,3.845334366229802e-9,8.04233315088702e-9,1.6433071256536841e-9,3.9206363783623844e-9,3.6648166125300033e-10,2.0929789220878673e-10,0
30687,2.877626021929463e-10,1.110643045486999e-9,3.866801847602204e-9,8.05400035398127e-9,1.6392552201272992e-9,3.937018166466017e-9,3.685848632782705e-10,2.1037892985806973e-10,0
30688,2.877626021929463e-10,1.1145915584018044e-9,3.888269328974606e-9,8.065667557075521e-9,1.6352033146009142e-9,3.953399954569649e-9,3.706880653035406e-10,2.1145996750735273e-10,0
30689,2.877626021929463e-10,1.1185400713166098e-9,3.909736810347008e-9,8.077334760169772e-9,1.6311514090745294e-9,3.969781742673281e-9,3.727912673288107e-10,2.1254100515663575e-10,0
30690,2.877626021929463e-10,1.1224885842314153e-9,3.931204291719411e-9,8.089001963264023e-9,1.6270995035481444e-9,3.986163530776913e-9,3.748944693540808e-10,2.1362204280591875e-10,0
30691,2.877626021929463e-10,1.1264370971462207e-9,3.952671773091813e-9,8.100669166358273e-9,1.6230475980217595e-9,4.002545318880546e-9,3.7699767137935097e-10,2.1470308045520174e-10,0
30692,2.877626021929463e-10,1.1303856100610262e-9,3.9741392544642155e-9,8.112336369452524e-9,1.6189956924953747e-9,4.018927106984177e-9,3.791008734046211e-10,2.1578411810448474e-10,0
30693,2.877626021929463e-10,1.1343341229758316e-9,3.9956067358366176e-9,8.124003572546775e-9,1.6149437869689897e-9,4.03530889508781e-9,3.812040754298912e-10,2.1686515575376774e-10,0
30694,2.877626021929463e-10,1.138282635890637e-9,4.01707421720902e-9,8.135670775641027e-9,1.6108918814426048e-9,4.051690683191441e-9,3.8330727745516134e-10,2.1794619340305073e-10,0
30695,2.877626021929463e-10,1.1422311488054425e-9,4.038541698581422e-9,8.147337978735276e-9,1.60683997591622e-9,4.068072471295074e-9,3.8541047948043145e-10,2.1902723105233373e-10,0
30696,2.877626021929463e-10,1.1461796617202478e-9,4.060009179953825e-9,8.159005181829527e-9,1.602788070389835e-9,4.084454259398706e-9,3.8751368150570156e-10,2.2010826870161673e-10,0
30697,2.877626021929463e-10,1.1501281746350534e-9,4.081476661326227e-9,8.170672384923779e-9,1.59873616486345e-9,4.100836047502338e-9,3.8961688353097167e-10,2.2118930635089975e-10,0
30698,2.877626021929463e-10,1.1540766875498587e-9,4.102944142698629e-9,8.18233958801803e-9,1.5946842593370653e-9,4.11721783560597e-9,3.917200855562418e-10,2.2227034400018275e-10,0
30699,2.877626021929463e-10,1.1580252004646643e-9,4.124411624071031e-9,8.194006791112281e-9,1.5906323538106803e-9,4.133599623709602e-9,3.9382328758151193e-10,2.2335138164946574e-10,0
30700,2.877626021929463e-10,1.1619737133794696e-9,4.145879105443433e-9,8.20567399420653e-9,1.5865804482842953e-9,4.149981411813234e-9,3.9592648960678204e-10,2.2443241929874874e-10,0
30701,2.877626021929463e-10,1.165922226294275e-9,4.167346586815835e-9,8.217341197300782e-9,1.5825285427579106e-9,4.1663631999168665e-9,3.9802969163205215e-10,2.2551345694803174e-10,0
30702,2.877626021929463e-10,1.1698707392090805e-9,4.188814068188238e-9,8.229008400395033e-9,1.5784766372315256e-9,4.182744988020498e-9,4.001328936573223e-10,2.2659449459731473e-10,0
30703,2.872043669594416e-10,1.1686446124274881e-9,4.17981541474601e-9,8.242774589738011e-9,1.5744247317051406e-9,4.183847916343165e-9,3.9991056448782936e-10,2.2601221006523873e-10,0
30704,2.8826135531015327e-10,1.1686446124274881e-9,4.172919963329052e-9,8.229306244546538e-9,1.5743009705276825e-9,4.1876270971043156e-9,4.0073983633097144e-10,2.2534639411829368e-10,0
30705,2.880829089612602e-10,1.1687691484960395e-9,4.164507155227972e-9,8.222622550570587e-9,1.5724470435871824e-9,4.229086491934667e-9,4.0073983633097144e-10,2.246805781713486e-10,0
30706,2.885221799621695e-10,1.1708471850105684e-9,4.1611900678554034e-9,8.220829452580903e-9,1.5707168778241402e-9,4.261884596920048e-9,4.0068574155275034e-10,2.2335138164946574e-10,0
30707,2.889614509630788e-10,1.1731538420722754e-9,4.160973688742519e-9,8.228810507969658e-9,1.5726809499986036e-9,4.3033439917504e-9,4.0068574155275034e-10,2.229361599471278e-10,0
30708,2.894007219639881e-10,1.1754604991339824e-9,4.160757309629635e-9,8.236791563358411e-9,1.574645022173067e-9,4.34480338658075e-9,4.0068574155275034e-10,2.2252093824478984e-10,0
30709,2.898399929648974e-10,1.1777671561956896e-9,4.160540930516751e-9,8.244772618747166e-9,1.5766090943475303e-9,4.3862627814111016e-9,4.0068574155275034e-10,2.221057165424519e-10,0
30710,2.9027926396580667e-10,1.1800738132573966e-9,4.160324551403866e-9,8.25275367413592e-9,1.5785731665219937e-9,4.427722176241453e-9,4.0068574155275034e-10,2.2169049484011394e-10,0
30711,2.90718534966716e-10,1.1823804703191036e-9,4.160108172290982e-9,8.260734729524674e-9,1.5805372386964571e-9,4.469181571071803e-9,4.0068574155275034e-10,2.21275273137776e-10,0
30712,2.911578059676253e-10,1.1846871273808108e-9,4.1598917931780975e-9,8.268715784913428e-9,1.5825013108709206e-9,4.510640965902155e-9,4.0068574155275034e-10,2.2086005143543804e-10,0
30713,2.915970769685346e-10,1.1869937844425178e-9,4.159675414065213e-9,8.276696840302183e-9,1.584465383045384e-9,4.552100360732505e-9,4.0068574155275034e-10,2.204448297331001e-10,0
30714,2.920363479694439e-10,1.1893004415042248e-9,4.159459034952328e-9,8.284677895690936e-9,1.5864294552198475e-9,4.5935597555628565e-9,4.0068574155275034e-10,2.2002960803076214e-10,0
30715,2.9247561897035317e-10,1.191607098565932e-9,4.159242655839444e-9,8.29265895107969e-9,1.588393527394311e-9,4.635019150393207e-9,4.0068574155275034e-10,2.196143863284242e-10,0
30716,2.929148899712625e-10,1.193913755627639e-9,4.15902627672656e-9,8.300640006468445e-9,1.5903575995687741e-9,4.676478545223558e-9,4.0068574155275034e-10,2.1919916462608624e-10,0
30717,2.935326073210648e-10,1.1960958766207948e-9,4.157920580935704e-9,8.319394732496935e-9,1.599008428383985e-9,4.685139835068527e-9,4.0068574155275034e-10,2.1878394292374832e-10,0
30718,2.9415032467086717e-10,1.1982779976139505e-9,4.156814885144847e-9,8.338149458525425e-9,1.607659257199196e-9,4.693801124913496e-9,4.0068574155275034e-10,2.1836872122141037e-10,0
30719,2.9476804202066954e-10,1.2004601186071064e-9,4.155709189353991e-9,8.356904184553915e-9,1.616310086014407e-9,4.702462414758466e-9,4.0068574155275034e-10,2.1795349951907242e-10,0
30720,2.953857593704719e-10,1.2024136190530837e-9,4.1492043014977985e-9,8.36877732418108e-9,1.6188830565400405e-9,4.711123704603435e-9,3.9996465926605046e-10,2.1786996810420338e-10,0
30721,2.960034767202742e-10,1.2043671194990613e-9,4.142699413641606e-9,8.380650463808246e-9,1.621456027065674e-9,4.719784994448404e-9,3.992435769793505e-10,2.1778643668933434e-10,0
30722,2.966211940700766e-10,1.2063206199450387e-9,4.136194525785413e-9,8.39252360343541e-9,1.6240289975913075e-9,4.728446284293373e-9,3.985224946926506e-10,2.177029052744653e-10,0
30723,2.9723891141987894e-10,1.2082741203910163e-9,4.1296896379292204e-9,8.404396743062575e-9,1.6266019681169412e-9,4.737107574138343e-9,3.9780141240595065e-10,2.1761937385959628e-10,0
30724,2.978566287696813e-10,1.2102276208369939e-9,4.123184750073028e-9,8.41626988268974e-9,1.6291749386425746e-9,4.745768863983312e-9,3.970803301192507e-10,2.1753584244472724e-10,0
30725,2.9847434611948367e-10,1.2102276208369939e-9,4.118761966909603e-9,8.409288344562285e-9,1.6251539734105542e-9,4.745768863983312e-9,3.963592478325508e-10,2.20194235488493e-10,0
30726,2.990325813529883e-10,1.2104562413841722e-9,4.1166376675518305e-9,8.40230680643483e-9,1.626478206939483e-9,4.744665935660646e-9,3.963592478325508e-10,2.2285262853225875e-10,0
30727,2.99590816586493e-10,1.2106848619313504e-9,4.114513368194059e-9,8.395325268307373e-9,1.6278024404684117e-9,4.7435630073379794e-9,3.963592478325508e-10,2.255110215760245e-10,0
30728,3.0014905181999763e-10,1.2109134824785287e-9,4.112389068836286e-9,8.388343730179919e-9,1.6291266739973406e-9,4.7424600790153136e-9,3.963592478325508e-10,2.2816941461979026e-10,0
30729,3.0070728705350233e-10,1.211142103025707e-9,4.1102647694785145e-9,8.381362192052462e-9,1.6304509075262692e-9,4.741357150692648e-9,3.963592478325508e-10,2.3082780766355602e-10,0
30730,3.01265522287007e-10,1.211370723572885e-9,4.108140470120743e-9,8.374380653925008e-9,1.6317751410551981e-9,4.740254222369981e-9,3.963592478325508e-10,2.334862007073218e-10,0
30731,3.0182375752051164e-10,1.2115993441200634e-9,4.10601617076297e-9,8.367399115797553e-9,1.6330993745841268e-9,4.739151294047315e-9,3.963592478325508e-10,2.361445937510875e-10,0
30732,3.0238199275401634e-10,1.2118279646672417e-9,4.1038918714051985e-9,8.360417577670096e-9,1.6344236081130556e-9,4.738048365724649e-9,3.963592478325508e-10,2.388029867948533e-10,0
30733,3.02940227987521e-10,1.21205658521442e-9,4.101767572047426e-9,8.353436039542642e-9,1.6357478416419843e-9,4.736945437401983e-9,3.963592478325508e-10,2.4146137983861903e-10,0
30734,3.0349846322102564e-10,1.2122852057615982e-9,4.099643272689654e-9,8.346454501415187e-9,1.6370720751709131e-9,4.735842509079317e-9,3.963592478325508e-10,2.441197728823848e-10,0
30735,3.0405669845453035e-10,1.2125138263087765e-9,4.097518973331882e-9,8.33947296328773e-9,1.6383963086998418e-9,4.734739580756651e-9,3.963592478325508e-10,2.4677816592615054e-10,0
30736,3.04614933688035e-10,1.2127424468559548e-9,4.09539467397411e-9,8.332491425160276e-9,1.6397205422287705e-9,4.733636652433984e-9,3.963592478325508e-10,2.494365589699163e-10,0
30737,3.0517316892153965e-10,1.212971067403133e-9,4.0932703746163375e-9,8.32550988703282e-9,1.6410447757576993e-9,4.7325337241113184e-9,3.963592478325508e-10,2.520949520136821e-10,0
30738,3.057314041550443e-10,1.2131996879503113e-9,4.091146075258566e-9,8.318528348905365e-9,1.642369009286628e-9,4.731430795788653e-9,3.963592478325508e-10,2.5475334505744783e-10,0
30739,3.061111930396559e-10,1.2134283084974896e-9,4.08724314254485e-9,8.377778007099982e-9,1.6574863042746602e-9,4.739621689840468e-9,3.971885196756929e-10,2.5475334505744783e-10,0
30740,3.0649098192426754e-10,1.2114748080515122e-9,4.037911481500295e-9,8.377778007099982e-9,1.6574863042746602e-9,4.648110667891033e-9,3.941419061942299e-10,2.548368764723169e-10,0
30741,3.078087949269954e-10,1.2131996879503113e-9,3.994781236975108e-9,8.324812235976796e-9,1.6416672900523644e-9,4.562844234964729e-9,3.900436917001319e-10,2.549204078871859e-10,0
30742,3.0637201769167216e-10,1.2148000317805593e-9,3.9926331373909016e-9,8.276628059492766e-9,1.6396413372891719e-9,4.574603465601192e-9,3.900436917001319e-10,2.54588717599717e-10,0
30743,3.049352404563489e-10,1.2164003756108073e-9,3.990485037806696e-9,8.228443883008736e-9,1.6376153845259794e-9,4.586362696237655e-9,3.900436917001319e-10,2.542570273122481e-10,0
30744,3.0349846322102564e-10,1.2180007194410553e-9,3.988336938222489e-9,8.180259706524708e-9,1.6355894317627871e-9,4.598121926874119e-9,3.900436917001319e-10,2.539253370247792e-10,0
30745,3.020616859857024e-10,1.219601063271303e-9,3.986188838638283e-9,8.132075530040677e-9,1.6335634789995946e-9,4.609881157510582e-9,3.900436917001319e-10,2.535936467373103e-10,0
30746,3.006249087503791e-10,1.221201407101551e-9,3.984040739054076e-9,8.083891353556649e-9,1.6315375262364021e-9,4.621640388147046e-9,3.900436917001319e-10,2.532619564498413e-10,0
30747,2.9918813151505586e-10,1.222801750931799e-9,3.98189263946987e-9,8.035707177072619e-9,1.6295115734732096e-9,4.633399618783508e-9,3.900436917001319e-10,2.529302661623724e-10,0
30748,2.977513542797326e-10,1.224402094762047e-9,3.9797445398856635e-9,7.987523000588589e-9,1.6274856207100172e-9,4.645158849419972e-9,3.900436917001319e-10,2.525985758749035e-10,0
30749,2.9631457704440934e-10,1.2260024385922947e-9,3.9775964403014576e-9,7.93933882410456e-9,1.6254596679468249e-9,4.656918080056435e-9,3.900436917001319e-10,2.522668855874346e-10,0
30750,2.948777998090861e-10,1.2276027824225427e-9,3.975448340717251e-9,7.89115464762053e-9,1.6234337151836324e-9,4.6686773106928985e-9,3.900436917001319e-10,2.519351952999657e-10,0
30751,2.934410225737628e-10,1.2292031262527907e-9,3.973300241133045e-9,7.8429704711365e-9,1.62140776242044e-9,4.680436541329362e-9,3.900436917001319e-10,2.516035050124968e-10,0
30752,2.920042453384395e-10,1.2308034700830387e-9,3.971152141548838e-9,7.794786294652472e-9,1.6193818096572474e-9,4.6921957719658245e-9,3.900436917001319e-10,2.5127181472502787e-10,0
30753,2.9056746810311625e-10,1.2324038139132864e-9,3.969004041964632e-9,7.746602118168442e-9,1.617355856894055e-9,4.703955002602288e-9,3.900436917001319e-10,2.5094012443755896e-10,0
30754,2.89130690867793e-10,1.2340041577435344e-9,3.9668559423804254e-9,7.698417941684413e-9,1.6153299041308624e-9,4.715714233238751e-9,3.900436917001319e-10,2.5060843415009005e-10,0
30755,2.8769391363246974e-10,1.2356045015737824e-9,3.9647078427962195e-9,7.650233765200383e-9,1.6133039513676702e-9,4.727473463875215e-9,3.900436917001319e-10,2.5027674386262114e-10,0
30756,2.862571363971465e-10,1.2372048454040304e-9,3.962559743212013e-9,7.602049588716353e-9,1.6112779986044777e-9,4.739232694511678e-9,3.900436917001319e-10,2.4994505357515223e-10,0
30757,2.848203591618232e-10,1.2388051892342784e-9,3.960411643627806e-9,7.553865412232325e-9,1.6092520458412852e-9,4.750991925148141e-9,3.900436917001319e-10,2.4961336328768327e-10,0
30758,2.8338358192649996e-10,1.2404055330645261e-9,3.9582635440436e-9,7.505681235748295e-9,1.6072260930780927e-9,4.762751155784604e-9,3.900436917001319e-10,2.4928167300021436e-10,0
30759,2.819468046911767e-10,1.242005876894774e-9,3.956115444459393e-9,7.457497059264265e-9,1.6052001403149002e-9,4.774510386421068e-9,3.900436917001319e-10,2.4894998271274545e-10,0
30760,2.8051002745585344e-10,1.243606220725022e-9,3.953967344875187e-9,7.409312882780236e-9,1.6031741875517077e-9,4.786269617057531e-9,3.900436917001319e-10,2.4861829242527655e-10,0
30761,2.776959551015046e-10,1.2423385819205793e-9,3.945314357434788e-9,7.3626279821881545e-9,1.601849954022779e-9,4.8253203182740085e-9,3.9236922289489495e-10,2.482030707229386e-10,0
30762,2.776959551015046e-10,1.242109961373401e-9,3.946224771445262e-9,7.365320645713007e-9,1.625618077826022e-9,4.842383346347298e-9,3.92645646842609e-10,2.485347610104075e-10,0
30763,2.7602124940099057e-10,1.2399278403802454e-9,3.926644112985245e-9,7.3610317711104035e-9,1.6416536741088694e-9,4.908591738731484e-9,3.8882385629622497e-10,2.4828416676580043e-10,0
30764,2.7434654370047657e-10,1.2377457193870895e-9,3.907063454525229e-9,7.356742896507801e-9,1.657689270391717e-9,4.97480013111567e-9,3.8500206574984094e-10,2.480335725211933e-10,0
30765,2.7267183799996256e-10,1.2355635983939339e-9,3.887482796065212e-9,7.352454021905198e-9,1.6737248666745642e-9,5.041008523499856e-9,3.8118027520345697e-10,2.477829782765862e-10,0
30766,2.7099713229944855e-10,1.233381477400778e-9,3.867902137605196e-9,7.348165147302594e-9,1.6897604629574118e-9,5.107216915884041e-9,3.7735848465707294e-10,2.475323840319791e-10,0
30767,2.693224265989346e-10,1.2311993564076223e-9,3.848321479145179e-9,7.343876272699991e-9,1.705796059240259e-9,5.173425308268227e-9,3.735366941106889e-10,2.47281789787372e-10,0
30768,2.676477208984206e-10,1.2290172354144664e-9,3.828740820685163e-9,7.3395873980973885e-9,1.7218316555231066e-9,5.239633700652413e-9,3.697149035643049e-10,2.470311955427649e-10,0
30769,2.659730151979066e-10,1.2268351144213106e-9,3.8091601622251464e-9,7.335298523494786e-9,1.737867251805954e-9,5.305842093036599e-9,3.658931130179209e-10,2.467806012981578e-10,0
30770,2.642983094973926e-10,1.224652993428155e-9,3.78957950376513e-9,7.331009648892182e-9,1.7539028480888015e-9,5.372050485420785e-9,3.620713224715369e-10,2.465300070535507e-10,0
30771,2.6262360379687857e-10,1.222470872434999e-9,3.7699988453051136e-9,7.326720774289579e-9,1.7699384443716488e-9,5.438258877804971e-9,3.5824953192515286e-10,2.462794128089436e-10,0
30772,2.6094889809636456e-10,1.222470872434999e-9,3.753518895104781e-9,7.334503937252958e-9,1.7501430211551922e-9,5.423823394730022e-9,3.5520291844368987e-10,2.4561359686199853e-10,0
30773,2.5927419239585056e-10,1.222470872434999e-9,3.737038944904449e-9,7.342287100216337e-9,1.7303475979387354e-9,5.4093879116550735e-9,3.521563049622269e-10,2.4494778091505346e-10,0
30774,2.5759948669533655e-10,1.222470872434999e-9,3.7205589947041162e-9,7.3500702631797166e-9,1.7105521747222788e-9,5.394952428580124e-9,3.491096914807639e-10,2.4428196496810844e-10,0
30775,2.569817693455342e-10,1.224652993428155e-9,3.712167283935538e-9,7.356753957155667e-9,1.7105831150166433e-9,5.380516945505176e-9,3.5016129249339897e-10,2.4428196496810844e-10,0
30776,2.5636405199573187e-10,1.2268351144213106e-9,3.703775573166959e-9,7.363437651131617e-9,1.7106140553110078e-9,5.366081462430227e-9,3.5121289350603405e-10,2.4428196496810844e-10,0
30777,2.557463346459295e-10,1.2290172354144664e-9,3.6953838623983808e-9,7.370121345107568e-9,1.7106449956053724e-9,5.3516459793552786e-9,3.522644945186691e-10,2.4428196496810844e-10,0
30778,2.5512861729612714e-10,1.2311993564076223e-9,3.6869921516298024e-9,7.376805039083518e-9,1.7106759358997369e-9,5.33721049628033e-9,3.5331609553130416e-10,2.4428196496810844e-10,0
30779,2.545108999463248e-10,1.233381477400778e-9,3.6786004408612236e-9,7.383488733059469e-9,1.7107068761941014e-9,5.322775013205381e-9,3.543676965439392e-10,2.4428196496810844e-10,0
30780,2.540716289454155e-10,1.2345245801366694e-9,3.6584101368336256e-9,7.387079956606048e-9,1.7107068761941014e-9,5.3196770724138875e-9,3.551969683870813e-10,2.438667432657705e-10,0
30781,2.540716289454155e-10,1.2375586108627616e-9,3.6537260769983806e-9,7.381393768864511e-9,1.7143701738372423e-9,5.327326677362415e-9,3.551969683870813e-10,2.4345152156343254e-10,0
30782,2.540716289454155e-10,1.240592641588854e-9,3.6490420171631352e-9,7.3757075811229745e-9,1.7180334714803835e-9,5.334976282310944e-9,3.551969683870813e-10,2.430362998610946e-10,0
30783,2.540716289454155e-10,1.2436266723149465e-9,3.6443579573278903e-9,7.370021393381438e-9,1.7216967691235244e-9,5.342625887259472e-9,3.551969683870813e-10,2.4262107815875664e-10,0
30784,2.540716289454155e-10,1.2466607030410387e-9,3.639673897492645e-9,7.364335205639902e-9,1.7253600667666656e-9,5.350275492208e-9,3.551969683870813e-10,2.422058564564187e-10,0
30785,2.540716289454155e-10,1.249694733767131e-9,3.6349898376573995e-9,7.358649017898365e-9,1.7290233644098067e-9,5.357925097156529e-9,3.551969683870813e-10,2.4179063475408074e-10,0
30786,2.540716289454155e-10,1.2527287644932233e-9,3.6303057778221545e-9,7.352962830156828e-9,1.7326866620529477e-9,5.365574702105057e-9,3.551969683870813e-10,2.413754130517428e-10,0
30787,2.540716289454155e-10,1.2557627952193157e-9,3.625621717986909e-9,7.3472766424152915e-9,1.7363499596960888e-9,5.373224307053586e-9,3.551969683870813e-10,2.4096019134940484e-10,0
30788,2.540716289454155e-10,1.258796825945408e-9,3.6209376581516637e-9,7.3415904546737556e-9,1.7400132573392298e-9,5.3808739120021134e-9,3.551969683870813e-10,2.405449696470669e-10,0
30789,2.540716289454155e-10,1.2618308566715004e-9,3.6162535983164187e-9,7.335904266932219e-9,1.743676554982371e-9,5.388523516950642e-9,3.551969683870813e-10,2.4012974794472894e-10,0
30790,2.540716289454155e-10,1.2648648873975926e-9,3.6115695384811733e-9,7.330218079190682e-9,1.747339852625512e-9,5.3961731218991705e-9,3.551969683870813e-10,2.39714526242391e-10,0
30791,2.540716289454155e-10,1.267898918123685e-9,3.6068854786459284e-9,7.324531891449145e-9,1.751003150268653e-9,5.403822726847699e-9,3.551969683870813e-10,2.3929930454005304e-10,0
30792,2.540716289454155e-10,1.2709329488497772e-9,3.602201418810683e-9,7.318845703707609e-9,1.7546664479117941e-9,5.411472331796227e-9,3.551969683870813e-10,2.388840828377151e-10,0
30793,2.540716289454155e-10,1.2739669795758696e-9,3.5975173589754376e-9,7.3131595159660725e-9,1.758329745554935e-9,5.419121936744755e-9,3.551969683870813e-10,2.3846886113537714e-10,0
30794,2.540716289454155e-10,1.277001010301962e-9,3.5928332991401926e-9,7.307473328224536e-9,1.7619930431980762e-9,5.426771541693284e-9,3.551969683870813e-10,2.380536394330392e-10,0
30795,2.545108999463248e-10,1.277001010301962e-9,3.597018605858231e-9,7.307473328224536e-9,1.7649546216069535e-9,5.426771541693284e-9,3.5541929755657427e-10,2.3797010801817015e-10,0
30796,2.545703820626225e-10,1.273198093888634e-9,3.5825969601242323e-9,7.310067045536701e-9,1.7661860342527888e-9,5.463060918499115e-9,3.556416267260672e-10,2.3788657660330116e-10,0
30797,2.5419059317801087e-10,1.2734682264586627e-9,3.5828133392371165e-9,7.3154553891267324e-9,1.7673555663098949e-9,5.510308685221471e-9,3.555875319478461e-10,2.372207606563561e-10,0
30798,2.5381080429339926e-10,1.273696847005841e-9,3.5905770099995437e-9,7.31286267732801e-9,1.7702552641300433e-9,5.521267075137998e-9,3.55533437169625e-10,2.3697016641174897e-10,0
30799,2.5343101540878764e-10,1.2739254675530193e-9,3.5983406807619714e-9,7.310269965529288e-9,1.7731549619501916e-9,5.532225465054525e-9,3.554793423914039e-10,2.367195721671419e-10,0
30800,2.53051226524176e-10,1.2741540881001975e-9,3.6061043515243987e-9,7.307677253730565e-9,1.7760546597703399e-9,5.543183854971051e-9,3.554252476131828e-10,2.3646897792253477e-10,0
30801,2.526714376395644e-10,1.2743827086473758e-9,3.613868022286826e-9,7.305084541931843e-9,1.7789543575904884e-9,5.554142244887578e-9,3.553711528349617e-10,2.3621838367792765e-10,0
30802,2.522916487549528e-10,1.2746113291945541e-9,3.621631693049253e-9,7.30249183013312e-9,1.7818540554106366e-9,5.565100634804105e-9,3.553170580567406e-10,2.359677894333206e-10,0
30803,2.5191185987034117e-10,1.2748399497417324e-9,3.6293953638116804e-9,7.299899118334398e-9,1.7847537532307849e-9,5.576059024720632e-9,3.5526296327851953e-10,2.3571719518871345e-10,0
30804,2.5153207098572955e-10,1.2750685702889107e-9,3.637159034574108e-9,7.297306406535676e-9,1.7876534510509334e-9,5.587017414637158e-9,3.5520886850029843e-10,2.354666009441064e-10,0
30805,2.51152282101118e-10,1.275297190836089e-9,3.6449227053365353e-9,7.294713694736953e-9,1.7905531488710816e-9,5.597975804553685e-9,3.551547737220774e-10,2.3521600669949926e-10,0
30806,2.5077249321650637e-10,1.275525811383267e-9,3.6526863760989626e-9,7.292120982938231e-9,1.79345284669123e-9,5.608934194470212e-9,3.551006789438563e-10,2.3496541245489214e-10,0
30807,2.5039270433189475e-10,1.2757544319304453e-9,3.66045004686139e-9,7.289528271139508e-9,1.7963525445113782e-9,5.619892584386739e-9,3.550465841656352e-10,2.3471481821028507e-10,0
30808,2.5001291544728314e-10,1.2759830524776236e-9,3.668213717623817e-9,7.286935559340786e-9,1.7992522423315267e-9,5.630850974303265e-9,3.549924893874141e-10,2.3446422396567794e-10,0
30809,2.496331265626715e-10,1.2762116730248019e-9,3.6759773883862448e-9,7.284342847542064e-9,1.802151940151675e-9,5.641809364219792e-9,3.54938394609193e-10,2.342136297210708e-10,0
30810,2.492533376780599e-10,1.2764402935719802e-9,3.683741059148672e-9,7.281750135743341e-9,1.8050516379718232e-9,5.652767754136319e-9,3.548842998309719e-10,2.3396303547646375e-10,0
30811,2.488735487934483e-10,1.2766689141191584e-9,3.6915047299110993e-9,7.279157423944619e-9,1.8079513357919717e-9,5.663726144052846e-9,3.548302050527508e-10,2.337124412318566e-10,0
30812,2.4849375990883667e-10,1.2768975346663367e-9,3.6992684006735265e-9,7.276564712145896e-9,1.81085103361212e-9,5.674684533969372e-9,3.547761102745297e-10,2.3346184698724955e-10,0
30813,2.4811397102422505e-10,1.277126155213515e-9,3.7070320714359538e-9,7.273972000347174e-9,1.8137507314322682e-9,5.685642923885899e-9,3.547220154963086e-10,2.3321125274264243e-10,0
30814,2.4773418213961343e-10,1.2773547757606933e-9,3.7147957421983815e-9,7.2713792885484516e-9,1.8166504292524167e-9,5.696601313802426e-9,3.546679207180875e-10,2.329606584980353e-10,0
30815,2.473543932550018e-10,1.2775833963078716e-9,3.7225594129608087e-9,7.268786576749729e-9,1.819550127072565e-9,5.707559703718952e-9,3.546138259398664e-10,2.327100642534282e-10,0
30816,2.469746043703902e-10,1.2778120168550499e-9,3.730323083723236e-9,7.266193864951007e-9,1.8224498248927132e-9,5.718518093635479e-9,3.545597311616453e-10,2.3245947000882111e-10,0
30817,2.465948154857786e-10,1.2778120168550499e-9,3.738976071163635e-9,7.260806526874417e-9,1.8254114033015905e-9,5.7282823118031145e-9,3.5383864887494537e-10,2.3245947000882111e-10,0
30818,2.5072670084285533e-10,1.280929071626843e-9,3.7438343154467604e-9,7.261505183443884e-9,1.8306947214738108e-9,5.7259852117315566e-9,3.5383864887494537e-10,2.3237593859395207e-10,0
30819,2.50108983493053e-10,1.281012095672544e-9,3.7520307444349565e-9,7.312474936584799e-9,1.8319570744140104e-9,5.719683908060316e-9,3.5373045931850317e-10,2.32707628881421e-10,0
30820,2.4949126614325065e-10,1.2810951197182447e-9,3.760227173423153e-9,7.363444689725714e-9,1.8332194273542102e-9,5.7133826043890766e-9,3.5362226976206103e-10,2.330393191688899e-10,0
30821,2.488735487934483e-10,1.2811781437639457e-9,3.768423602411349e-9,7.414414442866629e-9,1.8344817802944098e-9,5.707081300717836e-9,3.5351408020561883e-10,2.333710094563588e-10,0
30822,2.482558314436459e-10,1.2812611678096464e-9,3.776620031399545e-9,7.465384196007544e-9,1.8357441332346097e-9,5.700779997046596e-9,3.5340589064917663e-10,2.3370269974382776e-10,0
30823,2.4763811409384356e-10,1.2813441918553474e-9,3.7848164603877414e-9,7.51635394914846e-9,1.8370064861748093e-9,5.694478693375355e-9,3.5329770109273444e-10,2.3403439003129667e-10,0
30824,2.4702039674404124e-10,1.2814272159010483e-9,3.7930128893759375e-9,7.567323702289374e-9,1.838268839115009e-9,5.688177389704115e-9,3.5318951153629224e-10,2.343660803187656e-10,0
30825,2.464026793942389e-10,1.281510239946749e-9,3.8012093183641335e-9,7.61829345543029e-9,1.8395311920552087e-9,5.681876086032875e-9,3.5308132197985005e-10,2.346977706062345e-10,0
30826,2.457849620444365e-10,1.28159326399245e-9,3.8094057473523296e-9,7.669263208571204e-9,1.8407935449954085e-9,5.675574782361635e-9,3.5297313242340785e-10,2.350294608937034e-10,0
30827,2.4516724469463415e-10,1.2816762880381508e-9,3.817602176340526e-9,7.72023296171212e-9,1.8420558979356081e-9,5.6692734786903944e-9,3.5286494286696565e-10,2.353611511811723e-10,0
30828,2.4454952734483184e-10,1.2817593120838518e-9,3.825798605328722e-9,7.771202714853034e-9,1.843318250875808e-9,5.662972175019154e-9,3.5275675331052346e-10,2.356928414686412e-10,0
30829,2.4454952734483184e-10,1.2825697097939377e-9,3.826447742667375e-9,7.814091460879064e-9,1.845375143933365e-9,5.657197981789175e-9,3.4981832938550266e-10,2.3477886664909627e-10,0
30830,2.4454952734483184e-10,1.283380107504024e-9,3.827096880006028e-9,7.856980206905096e-9,1.8474320369909217e-9,5.651423788559195e-9,3.4687990546048187e-10,2.3386489182955133e-10,0
30831,2.449887983457411e-10,1.2854581440185528e-9,3.820850565927724e-9,7.850195555689573e-9,1.919530948518008e-9,5.871473163881663e-9,3.453236012740313e-10,2.326192267225375e-10,0
30832,2.454280693466504e-10,1.2875361805330815e-9,3.814604251849419e-9,7.84341090447405e-9,1.991629860045094e-9,6.091522539204131e-9,3.4376729708758067e-10,2.3137356161552366e-10,0
30833,2.458673403475597e-10,1.2896142170476102e-9,3.808357937771115e-9,7.836626253258528e-9,2.0637287715721804e-9,6.311571914526598e-9,3.4221099290113005e-10,2.3012789650850984e-10,0
30834,2.46306611348469e-10,1.2916922535621392e-9,3.80211162369281e-9,7.829841602043004e-9,2.1358276830992663e-9,6.5316212898490656e-9,3.4065468871467947e-10,2.2888223140149599e-10,0
30835,2.4674588234937833e-10,1.2937702900766679e-9,3.795865309614506e-9,7.823056950827482e-9,2.2079265946263527e-9,6.751670665171534e-9,3.3909838452822885e-10,2.2763656629448214e-10,0
30836,2.471851533502876e-10,1.2938948261452192e-9,3.79406557892606e-9,7.823056950827482e-9,2.2799945658590743e-9,6.975288377078649e-9,3.403723147103569e-10,2.2772009770935118e-10,0
30837,2.476244243511969e-10,1.2940193622137705e-9,3.792265848237615e-9,7.823056950827482e-9,2.352062537091796e-9,7.198906088985764e-9,3.4164624489248485e-10,2.278036291242202e-10,0
30838,2.480636953521062e-10,1.2941438982823219e-9,3.7904661175491694e-9,7.823056950827482e-9,2.4241305083245175e-9,7.422523800892879e-9,3.429201750746129e-10,2.2788716053908923e-10,0
30839,2.485029663530155e-10,1.294268434350873e-9,3.788666386860724e-9,7.823056950827482e-9,2.496198479557239e-9,7.646141512799993e-9,3.4419410525674085e-10,2.2797069195395828e-10,0
30840,2.485624484693132e-10,1.292356445927746e-9,3.78556567860104e-9,7.832934072472376e-9,2.4969620793802322e-9,7.716704903826737e-9,3.431425042441058e-10,2.2838591365629622e-10,0
30841,2.4862193058561087e-10,1.290444457504619e-9,3.782464970341355e-9,7.84281119411727e-9,2.497725679203225e-9,7.787268294853479e-9,3.4209090323147074e-10,2.2880113535863417e-10,0
30842,2.4868141270190853e-10,1.288532469081492e-9,3.7793642620816716e-9,7.852688315762166e-9,2.4984892790262176e-9,7.857831685880221e-9,3.410393022188357e-10,2.2921635706097212e-10,0
30843,2.4874089481820624e-10,1.2866204806583648e-9,3.776263553821988e-9,7.86256543740706e-9,2.4992528788492102e-9,7.928395076906964e-9,3.3998770120620063e-10,2.2963157876331007e-10,0
30844,2.488003769345039e-10,1.2847084922352377e-9,3.773162845562303e-9,7.872442559051954e-9,2.500016478672203e-9,7.998958467933708e-9,3.3893610019356555e-10,2.3004680046564802e-10,0
30845,2.488598590508016e-10,1.2827965038121107e-9,3.7700621373026196e-9,7.882319680696849e-9,2.5007800784951956e-9,8.06952185896045e-9,3.3788449918093053e-10,2.3046202216798597e-10,0
30846,2.489193411670993e-10,1.2808845153889835e-9,3.766961429042935e-9,7.892196802341744e-9,2.5015436783181883e-9,8.140085249987192e-9,3.3683289816829545e-10,2.308772438703239e-10,0
30847,2.48978823283397e-10,1.2789725269658565e-9,3.763860720783251e-9,7.902073923986639e-9,2.5023072781411813e-9,8.210648641013935e-9,3.3578129715566037e-10,2.3129246557266185e-10,0
30848,2.4903830539969465e-10,1.2770605385427295e-9,3.760760012523567e-9,7.911951045631532e-9,2.503070877964174e-9,8.281212032040677e-9,3.3472969614302534e-10,2.317076872749998e-10,0
30849,2.4909778751599236e-10,1.2751485501196025e-9,3.757659304263883e-9,7.921828167276427e-9,2.5038344777871667e-9,8.35177542306742e-9,3.3367809513039026e-10,2.3212290897733775e-10,0
30850,2.4915726963229e-10,1.2732365616964753e-9,3.754558596004199e-9,7.931705288921322e-9,2.5045980776101593e-9,8.422338814094163e-9,3.326264941177552e-10,2.325381306796757e-10,0
30851,2.464026793942389e-10,1.2694336452831473e-9,3.7260847707644646e-9,7.941582410566217e-9,2.5053926177275167e-9,8.453845332450364e-9,3.323500701700412e-10,2.322875364350686e-10,0
30852,2.4364808915618773e-10,1.2656307288698192e-9,3.6976109455247303e-9,7.95145953221111e-9,2.5061871578448737e-9,8.485351850806566e-9,3.3207364622232714e-10,2.320369421904615e-10,0
30853,2.437075712724854e-10,1.2659008614398481e-9,3.6987166413155867e-9,7.960836895225357e-9,2.5049248049046743e-9,8.51548788201549e-9,3.2974811502756404e-10,2.320369421904615e-10,0
30854,2.437670533887831e-10,1.2661709940098768e-9,3.6998223371064426e-9,7.970214258239602e-9,2.5036624519644745e-9,8.545623913224413e-9,3.27422583832801e-10,2.320369421904615e-10,0
30855,2.4382653550508077e-10,1.266399614557055e-9,3.6998223371064426e-9,7.968816945100668e-9,2.5016055589069173e-9,8.53238877335242e-9,3.253193818075309e-10,2.317052519029926e-10,0
30856,2.438860176213785e-10,1.2666282351042333e-9,3.6998223371064426e-9,7.967419631961734e-9,2.4995486658493605e-9,8.519153633480426e-9,3.2321617978226077e-10,2.3137356161552366e-10,0
30857,2.438860176213785e-10,1.2668568556514116e-9,3.700928032897299e-9,7.970211241699274e-9,2.4972578663803825e-9,8.477426679825463e-9,3.2321617978226077e-10,2.309583399131857e-10,0
30858,2.438860176213785e-10,1.26708547619859e-9,3.702033728688155e-9,7.973002851436814e-9,2.494967066911404e-9,8.4356997261705e-9,3.2321617978226077e-10,2.3054311821084776e-10,0
30859,2.438860176213785e-10,1.2673140967457682e-9,3.7031394244790114e-9,7.975794461174353e-9,2.492676267442426e-9,8.393972772515536e-9,3.2321617978226077e-10,2.3012789650850984e-10,0
30860,2.438860176213785e-10,1.2675427172929465e-9,3.7042451202698673e-9,7.978586070911893e-9,2.4903854679734476e-9,8.352245818860573e-9,3.2321617978226077e-10,2.2971267480617189e-10,0
30861,2.438860176213785e-10,1.2677713378401247e-9,3.7053508160607237e-9,7.981377680649433e-9,2.4880946685044696e-9,8.31051886520561e-9,3.2321617978226077e-10,2.2929745310383394e-10,0
30862,2.438860176213785e-10,1.267999958387303e-9,3.7064565118515797e-9,7.984169290386973e-9,2.485803869035491e-9,8.268791911550647e-9,3.2321617978226077e-10,2.2888223140149599e-10,0
30863,2.438860176213785e-10,1.2682285789344811e-09,3.707562207642436e-9,7.986960900124512e-9,2.483513069566513e-9,8.227064957895685e-9,3.2321617978226077e-10,2.2846700969915804e-10,0
30864,2.438860176213785e-10,1.2684571994816594e-9,3.708667903433292e-9,7.989752509862052e-9,2.4812222700975347e-9,8.185338004240722e-9,3.2321617978226077e-10,2.2805178799682009e-10,0
30865,2.438860176213785e-10,1.2686858200288377e-9,3.709773599224148e-9,7.992544119599592e-9,2.4789314706285567e-9,8.143611050585759e-9,3.2321617978226077e-10,2.2763656629448214e-10,0
30866,2.438860176213785e-10,1.268914440576016e-9,3.7108792950150044e-9,7.995335729337133e-9,2.4766406711595783e-9,8.101884096930796e-9,3.2321617978226077e-10,2.272213445921442e-10,0
30867,2.438860176213785e-10,1.2691430611231942e-9,3.7119849908058604e-9,7.998127339074671e-9,2.4743498716906003e-9,8.060157143275833e-9,3.2321617978226077e-10,2.2680612288980624e-10,0
30868,2.438860176213785e-10,1.2693716816703725e-9,3.7130906865967168e-9,8.000918948812211e-9,2.472059072221622e-9,8.01843018962087e-9,3.2321617978226077e-10,2.263909011874683e-10,0
30869,2.438860176213785e-10,1.2696003022175508e-9,3.7141963823875727e-9,8.003710558549752e-9,2.469768272752644e-9,7.976703235965906e-9,3.2321617978226077e-10,2.2597567948513034e-10,0
30870,2.438860176213785e-10,1.269828922764729e-9,3.715302078178429e-9,8.00650216828729e-9,2.467477473283666e-9,7.934976282310943e-9,3.2321617978226077e-10,2.255604577827924e-10,0
30871,2.438860176213785e-10,1.2700575433119074e-9,3.716407773969285e-9,8.00929377802483e-9,2.4651866738146874e-9,7.893249328655982e-9,3.2321617978226077e-10,2.2514523608045444e-10,0
30872,2.438860176213785e-10,1.2702861638590856e-9,3.7175134697601415e-9,8.01208538776237e-9,2.4628958743457094e-9,7.851522375001018e-9,3.2321617978226077e-10,2.247300143781165e-10,0
30873,2.438860176213785e-10,1.270514784406264e-9,3.7186191655509974e-9,8.014876997499911e-9,2.460605074876731e-9,7.809795421346055e-9,3.2321617978226077e-10,2.2431479267577854e-10,0
30874,2.4344674662046915e-10,1.2704732723834136e-9,3.719421390005029e-9,7.996021314231847e-9,2.4603711684653098e-9,7.809795421346055e-9,3.255417109770238e-10,2.2389957097344061e-10,0
30875,2.4344674662046915e-10,1.2707018929305918e-9,3.7202236144590606e-9,8.000609038499399e-9,2.456319262938925e-9,7.810701684154244e-9,3.26923830715594e-10,2.2348434927110267e-10,0
30876,2.4344674662046915e-10,1.2709305134777701e-9,3.721025838913092e-9,8.005196762766949e-9,2.45226735741254e-9,7.811607946962433e-9,3.283059504541642e-10,2.2306912756876472e-10,0
30877,2.4344674662046915e-10,1.2711591340249484e-9,3.7218280633671237e-9,8.009784487034499e-9,2.4482154518861553e-9,7.812514209770622e-9,3.296880701927344e-10,2.2265390586642677e-10,0
30878,2.440644639702715e-10,1.273341255018104e-9,3.728029479886492e-9,8.01437221130205e-9,2.4602474072878517e-9,7.812317544256144e-9,3.289669879060345e-10,2.2223868416408882e-10,0
30879,2.454417590892971e-10,1.2742972492296676e-9,3.74411886652606e-9,8.01447216302818e-9,2.4572239482902453e-9,7.82765929013928e-9,3.289669879060345e-10,2.2315265898363373e-10,0
30880,2.4681905420832266e-10,1.2752532434412313e-9,3.760208253165627e-9,8.014572114754308e-9,2.454200489292639e-9,7.843001036022418e-9,3.289669879060345e-10,2.2406663380317867e-10,0
30881,2.4819634932734826e-10,1.2762092376527948e-9,3.776297639805195e-9,8.014672066480439e-9,2.4511770302950326e-9,7.858342781905556e-9,3.289669879060345e-10,2.249806086227236e-10,0
30882,2.495736444463738e-10,1.2771652318643583e-9,3.792387026444763e-9,8.014772018206569e-9,2.4481535712974262e-9,7.873684527788693e-9,3.289669879060345e-10,2.2589458344226853e-10,0
30883,2.509509395653994e-10,1.2781212260759218e-9,3.80847641308433e-9,8.0148719699327e-9,2.4451301122998194e-9,7.889026273671831e-9,3.289669879060345e-10,2.2680855826181347e-10,0
30884,2.52328234684425e-10,1.2790772202874853e-9,3.824565799723898e-9,8.014971921658828e-9,2.442106653302213e-9,7.904368019554967e-9,3.289669879060345e-10,2.277225330813584e-10,0
30885,2.5370552980345055e-10,1.2800332144990488e-9,3.840655186363466e-9,8.015071873384958e-9,2.4390831943046067e-9,7.919709765438105e-9,3.289669879060345e-10,2.2863650790090332e-10,0
30886,2.5508282492247615e-10,1.2809892087106123e-9,3.8567445730030324e-9,8.015171825111089e-9,2.4360597353070004e-9,7.935051511321243e-9,3.289669879060345e-10,2.2955048272044826e-10,0
30887,2.564601200415017e-10,1.281945202922176e-9,3.8728339596426e-9,8.015271776837217e-9,2.433036276309394e-9,7.95039325720438e-9,3.289669879060345e-10,2.3046445753999318e-10,0
30888,2.57398144159618e-10,1.2826310645637109e-9,3.8805738301785935e-9,7.986840838129535e-9,2.433098156898123e-9,7.963845412706942e-9,3.2991039936222733e-10,2.3137843235953812e-10,0
30889,2.583361682777343e-10,1.2833169262052455e-9,3.888313700714587e-9,7.958409899421853e-9,2.433160037486852e-9,7.977297568209503e-9,3.308538108184202e-10,2.3229240717908306e-10,0
30890,2.5927419239585056e-10,1.2840027878467803e-9,3.89605357125058e-9,7.929978960714169e-9,2.433221918075581e-9,7.990749723712065e-9,3.317972222746131e-10,2.3320638199862797e-10,0
30891,2.5889440351123894e-10,1.2837326552767517e-9,3.907113232053074e-9,7.909529077395241e-9,2.4344533307214162e-9,7.988663467817011e-9,3.3274063373080593e-10,2.341203568181729e-10,0
30892,2.585146146266273e-10,1.283462522706723e-9,3.918172892855567e-9,7.889079194076312e-9,2.4356847433672513e-9,7.986577211921959e-9,3.336840451869988e-10,2.3503433163771785e-10,0
30893,2.581348257420157e-10,1.2831923901366944e-9,3.929232553658061e-9,7.868629310757383e-9,2.436916156013087e-9,7.984490956026905e-9,3.346274566431917e-10,2.359483064572628e-10,0
30894,2.577550368574041e-10,1.2829222575666655e-9,3.940292214460555e-9,7.848179427438456e-9,2.438147568658922e-9,7.982404700131852e-9,3.355708680993846e-10,2.368622812768077e-10,0
30895,2.578145189737018e-10,1.2577770415920642e-9,3.956231216878677e-9,7.854964078653977e-9,2.4401116408333853e-9,7.973743410286883e-9,3.3435103269547765e-10,2.3819147779869057e-10,0
30896,2.5787400108999946e-10,1.2326318256174631e-9,3.972170219296798e-9,7.8617487298695e-9,2.4420757130078488e-9,7.965082120441915e-9,3.3313119729157073e-10,2.3952067432057346e-10,0
30897,2.5793348320629717e-10,1.2074866096428618e-9,3.9881092217149196e-9,7.868533381085024e-9,2.444039785182312e-9,7.956420830596945e-9,3.3191136188766385e-10,2.4084987084245635e-10,0
30898,2.5799296532259483e-10,1.1823413936682605e-9,4.004048224133041e-9,7.875318032300546e-9,2.4460038573567756e-9,7.947759540751975e-9,3.306915264837569e-10,2.421790673643392e-10,0
30899,2.5805244743889255e-10,1.1571961776936592e-9,4.0199872265511624e-9,7.88210268351607e-9,2.447967929531239e-9,7.939098250907007e-9,3.2947169107985005e-10,2.435082638862221e-10,0
30900,2.584917184398018e-10,1.1342330827122135e-9,4.016213580726391e-9,7.881205129007785e-9,2.456804400112637e-9,7.932523216957091e-9,3.275848681674643e-10,2.4525511748245013e-10,0
30901,2.589309894407111e-10,1.1112699877307681e-9,4.012439934901619e-9,7.880307574499501e-9,2.465640870694035e-9,7.925948183007175e-9,3.2569804525507856e-10,2.470019710786782e-10,0
30902,2.5937026044162043e-10,1.0883068927493227e-9,4.008666289076848e-9,7.879410019991217e-9,2.474477341275433e-9,7.919373149057258e-9,3.238112223426928e-10,2.4874882467490627e-10,0
30903,2.598095314425297e-10,1.065343797767877e-9,4.004892643252076e-9,7.878512465482932e-9,2.483313811856831e-9,7.912798115107342e-9,3.219243994303071e-10,2.504956782711343e-10,0
30904,2.6024880244343904e-10,1.0423807027864316e-9,4.001118997427305e-9,7.877614910974648e-9,2.492150282438229e-9,7.906223081157426e-9,3.200375765179213e-10,2.5224253186736235e-10,0
30905,2.606880734443483e-10,1.0194176078049862e-9,3.997345351602534e-9,7.876717356466364e-9,2.5009867530196272e-9,7.89964804720751e-9,3.181507536055356e-10,2.539893854635904e-10,0
30906,2.611273444452576e-10,9.964545128235405e-10,3.993571705777762e-9,7.87581980195808e-9,2.509823223601025e-9,7.893073013257594e-9,3.1626393069314983e-10,2.5573623905981844e-10,0
30907,2.6156661544616693e-10,9.73491417842095e-10,3.98979805995299e-9,7.874922247449796e-9,2.518659694182423e-9,7.886497979307678e-9,3.143771077807641e-10,2.574830926560465e-10,0
30908,2.620058864470762e-10,9.505283228606495e-10,3.986024414128219e-9,7.874024692941512e-9,2.5274961647638213e-9,7.879922945357763e-9,3.1249028486837835e-10,2.592299462522746e-10,0
30909,2.624451574479855e-10,9.27565227879204e-10,3.9822507683034475e-9,7.873127138433228e-9,2.536332635345219e-9,7.873347911407847e-9,3.1060346195599263e-10,2.609767998485026e-10,0
30910,2.6226671109909245e-10,9.27565227879204e-10,3.9729486435243955e-9,7.863651834719738e-9,2.5454030123380383e-9,7.871654986541748e-9,3.108798859037067e-10,2.623084317423927e-10,0
30911,2.620882647501994e-10,9.27565227879204e-10,3.963646518745343e-9,7.854176531006247e-9,2.554473389330858e-9,7.86996206167565e-9,3.111563098514207e-10,2.636400636362828e-10,0
30912,2.620882647501994e-10,9.294772163023311e-10,3.963451236964961e-9,7.854176531006247e-9,2.5633098599122557e-9,7.871851652056225e-9,3.1143273379913477e-10,2.64057720710628e-10,0
30913,2.620882647501994e-10,9.313892047254582e-10,3.963255955184578e-9,7.854176531006247e-9,2.5721463304936536e-9,7.8737412424368e-9,3.1170915774684876e-10,2.6447537778497317e-10,0
30914,2.617084758655878e-10,9.313892047254582e-10,3.963060673404196e-9,7.860759267742626e-9,2.5807971593088647e-9,7.877323757683475e-9,3.119314869163417e-10,2.632297126779593e-10,0
30915,2.613286869809762e-10,9.313892047254582e-10,3.962865391623813e-9,7.867342004479004e-9,2.5894479881240755e-9,7.88090627293015e-9,3.1215381608583465e-10,2.6198404757094547e-10,0
30916,2.6094889809636456e-10,9.313476927026077e-10,3.966876513893971e-9,7.868739317617937e-9,2.591412060298539e-9,7.88090627293015e-9,3.1320541709846973e-10,2.607383824639316e-10,0
30917,2.6056910921175294e-10,9.313061806797573e-10,3.970887636164129e-9,7.87013663075687e-9,2.5933761324730024e-9,7.88090627293015e-9,3.142570181111048e-10,2.5949271735691777e-10,0
30918,2.6018932032714133e-10,9.312646686569069e-10,3.974898758434287e-9,7.871533943895805e-9,2.595340204647466e-9,7.88090627293015e-9,3.1530861912373984e-10,2.582470522499039e-10,0
30919,2.598095314425297e-10,9.312231566340564e-10,3.9789098807044445e-9,7.872931257034739e-9,2.5973042768219292e-9,7.88090627293015e-9,3.163602201363749e-10,2.570013871428901e-10,0
30920,2.594297425579181e-10,9.311816446112061e-10,3.982921002974602e-9,7.87432857017367e-9,2.5992683489963927e-9,7.88090627293015e-9,3.1741182114900995e-10,2.5575572203587627e-10,0
30921,2.590499536733065e-10,9.311401325883556e-10,3.98693212524476e-9,7.875725883312605e-9,2.601232421170856e-9,7.88090627293015e-9,3.1846342216164503e-10,2.545100569288624e-10,0
30922,2.5867016478869486e-10,9.310986205655052e-10,3.990943247514918e-9,7.877123196451539e-9,2.603196493345319e-9,7.88090627293015e-9,3.195150231742801e-10,2.532643918218486e-10,0
30923,2.5829037590408324e-10,9.310571085426547e-10,3.9949543697850765e-9,7.878520509590471e-9,2.6051605655197826e-9,7.88090627293015e-9,3.2056662418691513e-10,2.5201872671483473e-10,0
30924,2.579105870194717e-10,9.310155965198042e-10,3.998965492055234e-9,7.879917822729405e-9,2.607124637694246e-9,7.88090627293015e-9,3.216182251995502e-10,2.507730616078209e-10,0
30925,2.5753079813486006e-10,9.309740844969539e-10,4.002976614325392e-9,7.881315135868339e-9,2.6090887098687095e-9,7.88090627293015e-9,3.226698262121853e-10,2.4952739650080703e-10,0
30926,2.5715100925024844e-10,9.309325724741034e-10,4.00698773659555e-9,7.882712449007271e-9,2.611052782043173e-9,7.88090627293015e-9,3.237214272248203e-10,2.482817313937932e-10,0
30927,2.5677122036563683e-10,9.30891060451253e-10,4.010998858865708e-9,7.884109762146205e-9,2.6130168542176363e-9,7.88090627293015e-9,3.247730282374554e-10,2.4703606628677933e-10,0
30928,2.563914314810252e-10,9.308495484284025e-10,4.0150099811358655e-9,7.885507075285139e-9,2.6149809263920998e-9,7.88090627293015e-9,3.258246292500905e-10,2.457904011797655e-10,0
30929,2.560116425964136e-10,9.308080364055522e-10,4.019021103406023e-9,7.886904388424073e-9,2.6169449985665632e-9,7.88090627293015e-9,3.268762302627255e-10,2.445447360727517e-10,0
30930,2.55631853711802e-10,9.307665243827017e-10,4.023032225676181e-9,7.888301701563005e-9,2.6189090707410266e-9,7.88090627293015e-9,3.279278312753606e-10,2.4329907096573783e-10,0
30931,2.5525206482719036e-10,9.307250123598513e-10,4.027043347946339e-9,7.889699014701939e-9,2.62087314291549e-9,7.88090627293015e-9,3.289794322879956e-10,2.42053405858724e-10,0
30932,2.5487227594257874e-10,9.306835003370008e-10,4.031054470216497e-9,7.891096327840873e-9,2.6228372150899535e-9,7.88090627293015e-9,3.300310333006307e-10,2.4080774075171013e-10,0
30933,2.5487227594257874e-10,9.309121208841791e-10,4.029296934193055e-9,7.891096327840873e-9,2.625035193675838e-9,7.877323757683475e-9,3.310826343132658e-10,2.408912721665792e-10,0
30934,2.5487227594257874e-10,9.301847472197939e-10,4.002733732092141e-9,7.648609399746247e-9,2.6149054298598757e-9,7.829380572329433e-9,3.2997098846580104e-10,2.409748035814482e-10,0
30935,2.5487227594257874e-10,9.294573735554086e-10,3.9761705299912265e-9,7.406122471651619e-9,2.6047756660439137e-9,7.781437386975392e-9,3.288593426183363e-10,2.410583349963172e-10,0
30936,2.548127938262811e-10,9.285013793438451e-10,3.951364863913754e-9,7.176604130117816e-9,2.604559083983362e-9,7.74514801016956e-9,3.2763950721442943e-10,2.4147355669865516e-10,0
30937,2.5475331170998337e-10,9.275453851322816e-10,3.926559197836281e-9,6.9470857885840135e-9,2.6043425019228104e-9,7.70885863336373e-9,3.264196718105225e-10,2.418887784009931e-10,0
30938,2.55133100594595e-10,9.26589390920718e-10,3.90229447954102e-9,6.703501402528843e-9,2.592981325461013e-9,7.66938007234018e-9,3.244787541199157e-10,2.43217974922876e-10,0
30939,2.555128894792066e-10,9.256333967091545e-10,3.8780297612457574e-9,6.459917016473673e-9,2.5816201489992153e-9,7.629901511316631e-9,3.2253783642930883e-10,2.445471714447589e-10,0
30940,2.558926783638182e-10,9.24677402497591e-10,3.853765042950496e-9,6.216332630418502e-9,2.570258972537418e-9,7.59042295029308e-9,3.20596918738702e-10,2.458763679666418e-10,0
30941,2.5627246724842984e-10,9.237214082860273e-10,3.829500324655235e-9,5.9727482443633315e-9,2.5588977960756203e-9,7.55094438926953e-9,3.1865600104809515e-10,2.4720556448852467e-10,0
30942,2.5665225613304145e-10,9.227654140744638e-10,3.805235606359972e-9,5.729163858308161e-9,2.5475366196138228e-9,7.511465828245981e-9,3.1671508335748834e-10,2.485347610104075e-10,0
30943,2.5703204501765307e-10,9.218094198629003e-10,3.780970888064711e-9,5.48557947225299e-9,2.5361754431520257e-9,7.47198726722243e-9,3.1477416566688147e-10,2.498639575322904e-10,0
30944,2.574118339022647e-10,9.208534256513368e-10,3.7567061697694495e-9,5.24199508619782e-9,2.524814266690228e-9,7.432508706198881e-9,3.1283324797627466e-10,2.511931540541733e-10,0
30945,2.5647380978414837e-10,9.205832930813081e-10,3.761128952932873e-9,5.241397386867925e-9,2.509696971702196e-9,7.41570522974224e-9,3.1283324797627466e-10,2.521071288737182e-10,0
30946,2.555357856660321e-10,9.203131605112794e-10,3.765551736096298e-9,5.240799687538031e-9,2.4945796767141637e-9,7.398901753285599e-9,3.1283324797627466e-10,2.530211036932631e-10,0
30947,2.5459776154791583e-10,9.200430279412507e-10,3.769974519259723e-9,5.240201988208137e-9,2.479462381726132e-9,7.382098276828958e-9,3.1283324797627466e-10,2.5393507851280805e-10,0
30948,2.5365973742979956e-10,9.19772895371222e-10,3.7743973024231475e-9,5.239604288878242e-9,2.4643450867380996e-9,7.365294800372318e-9,3.1283324797627466e-10,2.54849053332353e-10,0
30949,2.527217133116833e-10,9.195027628011932e-10,3.778820085586572e-9,5.239006589548347e-9,2.4492277917500678e-9,7.348491323915677e-9,3.1283324797627466e-10,2.5576302815189794e-10,0
30950,2.5178368919356697e-10,9.192326302311646e-10,3.783242868749997e-9,5.238408890218453e-9,2.4341104967620355e-9,7.3316878474590365e-9,3.1283324797627466e-10,2.566770029714429e-10,0
30951,2.508456650754507e-10,9.189624976611358e-10,3.787665651913422e-9,5.237811190888559e-9,2.4189932017740033e-9,7.314884371002395e-9,3.1283324797627466e-10,2.5759097779098777e-10,0
30952,2.4990764095733443e-10,9.186923650911072e-10,3.792088435076846e-9,5.237213491558664e-9,2.4038759067859715e-9,7.298080894545754e-9,3.1283324797627466e-10,2.585049526105327e-10,0
30953,2.4896961683921816e-10,9.184222325210784e-10,3.796511218240271e-9,5.23661579222877e-9,2.3887586117979392e-9,7.281277418089114e-9,3.1283324797627466e-10,2.5941892743007765e-10,0
30954,2.487911704903251e-10,9.162401115279226e-10,3.801910410305607e-9,5.218459771043616e-9,2.3773974353361417e-9,7.2875361857742734e-9,3.0895736265166953e-10,2.606645925370915e-10,0
30955,2.4861272414143204e-10,9.140579905347669e-10,3.807309602370944e-9,5.200303749858462e-9,2.366036258874344e-9,7.293794953459433e-9,3.0508147732706446e-10,2.6191025764410534e-10,0
30956,2.48434277792539e-10,9.128318637531746e-10,3.807309602370944e-9,5.183245186633853e-9,2.3539424228839187e-9,7.320987173405259e-9,3.0314650969306615e-10,2.618267262292363e-10,0
30957,2.482558314436459e-10,9.116057369715825e-10,3.807309602370944e-9,5.166186623409243e-9,2.341848586893493e-9,7.348179393351085e-9,3.012115420590679e-10,2.6174319481436726e-10,0
30958,2.480773850947529e-10,9.1576181000064e-10,3.895201043449748e-9,5.234517811493485e-9,2.329520844491646e-9,7.362158659294907e-9,2.981649285776049e-10,2.616596633994982e-10,0
30959,2.478989387458598e-10,9.199178830296976e-10,3.983092484528551e-9,5.302848999577726e-9,2.317193102089799e-9,7.37613792523873e-9,2.951183150961419e-10,2.615761319846292e-10,0
30960,2.4772049239696677e-10,9.240739560587551e-10,4.070983925607354e-9,5.371180187661968e-9,2.3048653596879525e-9,7.390117191182552e-9,2.920717016146789e-10,2.614926005697602e-10,0
30961,2.4754204604807373e-10,9.282300290878128e-10,4.158875366686157e-9,5.439511375746209e-9,2.2925376172861054e-9,7.404096457126374e-9,2.8902508813321593e-10,2.6140906915489115e-10,0
30962,2.4736359969918064e-10,9.323861021168703e-10,4.246766807764961e-9,5.50784256383045e-9,2.2802098748842587e-9,7.418075723070197e-9,2.8597847465175294e-10,2.613255377400221e-10,0
30963,2.471851533502876e-10,9.36542175145928e-10,4.334658248843764e-9,5.576173751914691e-9,2.2678821324824116e-9,7.432054989014019e-9,2.8293186117028995e-10,2.6124200632515307e-10,0
30964,2.470067070013946e-10,9.406982481749856e-10,4.4225496899225675e-9,5.644504939998933e-9,2.2555543900805645e-9,7.446034254957841e-9,2.7988524768882696e-10,2.6115847491028403e-10,0
30965,2.468282606525015e-10,9.448543212040432e-10,4.510441131001371e-9,5.712836128083174e-9,2.243226647678718e-9,7.460013520901664e-9,2.7683863420736397e-10,2.61074943495415e-10,0
30966,2.4664981430360845e-10,9.490103942331006e-10,4.598332572080175e-9,5.781167316167416e-9,2.230898905276871e-9,7.473992786845486e-9,2.73792020725901e-10,2.6099141208054595e-10,0
30967,2.4647136795471537e-10,9.531664672621582e-10,4.686224013158978e-9,5.849498504251657e-9,2.218571162875024e-9,7.487972052789308e-9,2.70745407244438e-10,2.609078806656769e-10,0
30968,2.4629292160582233e-10,9.573225402912159e-10,4.774115454237781e-9,5.9178296923358986e-9,2.206243420473177e-9,7.501951318733132e-9,2.67698793762975e-10,2.608243492508079e-10,0
30969,2.4667271049043395e-10,9.614786133202735e-10,4.860705917745346e-9,5.978583653989675e-9,2.1811510631410056e-9,7.518136441322286e-9,2.64652180281512e-10,2.590774956545798e-10,0
30970,2.4705249937504557e-10,9.65634686349331e-10,4.947296381252911e-9,6.039337615643451e-9,2.1560587058088338e-9,7.534321563911441e-9,2.61605566800049e-10,2.573306420583518e-10,0
30971,2.442979091369944e-10,9.587147151642097e-10,4.9673519926037e-9,6.085416772798099e-9,2.1560587058088338e-9,7.559715436902916e-9,2.6238074386497005e-10,2.560014455364689e-10,0
30972,2.415433188989432e-10,9.517947439790885e-10,4.9874076039544894e-9,6.1314959299527465e-9,2.1560587058088338e-9,7.585109309894392e-9,2.631559209298911e-10,2.5467224901458605e-10,0
30973,2.391685175455037e-10,9.550573952523592e-10,4.957828082923899e-9,6.105657703043787e-9,2.1573829393377626e-9,7.582011369102897e-9,2.631559209298911e-10,2.5334305249270316e-10,0
30974,2.3679371619206417e-10,9.583200465256297e-10,4.928248561893308e-9,6.079819476134826e-9,2.158707172866691e-9,7.578913428311403e-9,2.631559209298911e-10,2.5201385597082027e-10,0
30975,2.344189148386246e-10,9.615826977989004e-10,4.898669040862718e-9,6.0539812492258654e-9,2.16003140639562e-9,7.57581548751991e-9,2.631559209298911e-10,2.506846594489374e-10,0
30976,2.3204411348518506e-10,9.64845349072171e-10,4.8690895198321275e-9,6.028143022316906e-9,2.161355639924549e-9,7.572717546728416e-9,2.631559209298911e-10,2.4935546292705454e-10,0
30977,2.2966931213174553e-10,9.681080003454416e-10,4.839509998801537e-9,6.002304795407945e-9,2.1626798734534777e-9,7.56961960593692e-9,2.631559209298911e-10,2.4802626640517165e-10,0
30978,2.2729451077830598e-10,9.713706516187121e-10,4.809930477770947e-9,5.976466568498984e-9,2.164004106982406e-9,7.566521665145427e-9,2.631559209298911e-10,2.4669706988328876e-10,0
30979,2.2491970942486642e-10,9.746333028919829e-10,4.780350956740356e-9,5.9506283415900246e-9,2.165328340511335e-9,7.563423724353933e-9,2.631559209298911e-10,2.4536787336140587e-10,0
30980,2.225449080714269e-10,9.778959541652536e-10,4.750771435709766e-9,5.924790114681064e-9,2.166652574040264e-9,7.56032578356244e-9,2.631559209298911e-10,2.44038676839523e-10,0
30981,2.2017010671798734e-10,9.81158605438524e-10,4.721191914679176e-9,5.898951887772103e-9,2.1679768075691927e-9,7.557227842770944e-9,2.631559209298911e-10,2.4270948031764014e-10,0
30982,2.177953053645478e-10,9.844212567117948e-10,4.691612393648585e-9,5.8731136608631435e-9,2.169301041098121e-9,7.554129901979451e-9,2.631559209298911e-10,2.4138028379575725e-10,0
30983,2.1542050401110826e-10,9.876839079850653e-10,4.662032872617995e-9,5.847275433954183e-9,2.17062527462705e-9,7.551031961187957e-9,2.631559209298911e-10,2.4005108727387436e-10,0
30984,2.130457026576687e-10,9.90946559258336e-10,4.6324533515874046e-9,5.821437207045222e-9,2.171949508155979e-9,7.547934020396462e-9,2.631559209298911e-10,2.3872189075199147e-10,0
30985,2.1067090130422918e-10,9.942092105316065e-10,4.602873830556814e-9,5.7955989801362624e-9,2.1732737416849078e-9,7.544836079604968e-9,2.631559209298911e-10,2.3739269423010863e-10,0
30986,2.0829609995078962e-10,9.974718618048772e-10,4.573294309526224e-9,5.769760753227302e-9,2.1745979752138362e-9,7.541738138813475e-9,2.631559209298911e-10,2.3606349770822574e-10,0
30987,2.0592129859735007e-10,1.0007345130781477e-9,4.543714788495633e-9,5.743922526318341e-9,2.175922208742765e-9,7.538640198021981e-9,2.631559209298911e-10,2.3473430118634285e-10,0
30988,2.0354649724391054e-10,1.0039971643514184e-9,4.514135267465043e-9,5.718084299409381e-9,2.177246442271694e-9,7.535542257230486e-9,2.631559209298911e-10,2.3340510466445996e-10,0
30989,2.0117169589047098e-10,1.0072598156246889e-9,4.484555746434453e-9,5.692246072500421e-9,2.1785706758006224e-9,7.532444316438992e-9,2.631559209298911e-10,2.320759081425771e-10,0
30990,1.9879689453703146e-10,1.0105224668979596e-9,4.454976225403862e-9,5.66640784559146e-9,2.1798949093295513e-9,7.529346375647499e-9,2.631559209298911e-10,2.307467116206942e-10,0
30991,1.9917668342164305e-10,1.0205805532878e-9,4.454672754067038e-9,5.6223146512846595e-9,2.179987730212645e-9,7.530252638455688e-9,2.61106813682842e-10,2.306631802058252e-10,0
30992,1.9785887041891516e-10,1.0208091738349782e-9,4.384411856538359e-9,5.5075964067598415e-9,2.179987730212645e-9,7.523993870770527e-9,2.611609084610631e-10,2.295821425565422e-10,0
30993,1.9654105741618728e-10,1.0210377943821565e-9,4.31415095900968e-9,5.3928781622350236e-9,2.179987730212645e-9,7.517735103085369e-9,2.612150032392842e-10,2.2850110490725917e-10,0
30994,1.9578147964696404e-10,1.0219937885937202e-9,4.243196026583413e-9,5.3195544154115e-9,2.191864984142519e-9,7.509073813240399e-9,2.6204427508242635e-10,2.2683778272590017e-10,0
30995,1.9502190187774083e-10,1.0229497828052837e-9,4.172241094157144e-9,5.246230668587977e-9,2.203742238072393e-9,7.500412523395429e-9,2.628735469255685e-10,2.2517446054454114e-10,0
30996,1.942623241085176e-10,1.0239057770168472e-9,4.101286161730876e-9,5.172906921764454e-9,2.215619492002267e-9,7.49175123355046e-9,2.6370281876871057e-10,2.2351113836318214e-10,0
30997,1.9350274633929436e-10,1.0248617712284107e-9,4.030331229304609e-9,5.099583174940931e-9,2.227496745932141e-9,7.483089943705491e-9,2.645320906118527e-10,2.218478161818231e-10,0
30998,1.9274316857007113e-10,1.0258177654399742e-9,3.95937629687834e-9,5.026259428117408e-9,2.239373999862015e-9,7.474428653860523e-9,2.6536136245499483e-10,2.201844940004641e-10,0
30999,1.9198359080084792e-10,1.0267737596515377e-9,3.888421364452073e-9,4.9529356812938844e-9,2.251251253791889e-9,7.465767364015553e-9,2.661906342981369e-10,2.1852117181910508e-10,0
31000,1.912240130316247e-10,1.0277297538631012e-9,3.817466432025805e-9,4.8796119344703615e-9,2.263128507721763e-9,7.457106074170583e-9,2.6701990614127905e-10,2.1685784963774607e-10,0
31001,1.9046443526240145e-10,1.028685748074665e-9,3.746511499599536e-9,4.806288187646839e-9,2.275005761651637e-9,7.448444784325614e-9,2.678491779844212e-10,2.1519452745638705e-10,0
31002,1.8970485749317825e-10,1.0296417422862284e-9,3.6755565671732686e-9,4.732964440823316e-9,2.286883015581511e-9,7.439783494480645e-9,2.6867844982756326e-10,2.1353120527502802e-10,0
31003,1.88945279723955e-10,1.030597736497792e-9,3.6046016347470007e-9,4.659640693999793e-9,2.298760269511385e-9,7.431122204635676e-9,2.695077216707054e-10,2.1186788309366902e-10,0
31004,1.895035149574597e-10,1.030514712452091e-9,3.6039075998494112e-9,4.70372785522594e-9,2.301801052859861e-9,7.431122204635676e-9,2.7055932268334047e-10,2.115361928062001e-10,0
31005,1.9006175019096434e-10,1.0304316884063902e-9,3.6032135649518218e-9,4.747815016452087e-9,2.3048418362083372e-09,7.431122204635676e-9,2.716109236959755e-10,2.1120450251873117e-10,0
31006,1.9061998542446902e-10,1.0303486643606893e-9,3.6025195300542327e-9,4.791902177678234e-9,2.307882619556813e-9,7.431122204635676e-9,2.726625247086106e-10,2.1087281223126226e-10,0
31007,1.9117822065797367e-10,1.0302656403149885e-9,3.6018254951566432e-9,4.8359893389043806e-09,2.310923402905289e-9,7.431122204635676e-9,2.7371412572124566e-10,2.1054112194379335e-10,0
31008,1.9173645589147835e-10,1.0301826162692876e-9,3.6011314602590538e-9,4.8800765001305275e-9,2.313964186253765e-9,7.431122204635676e-9,2.747657267338807e-10,2.1020943165632445e-10,0
31009,1.9229469112498303e-10,1.0300995922235868e-9,3.6004374253614643e-9,4.924163661356675e-9,2.3170049696022413e-9,7.431122204635676e-9,2.7581732774651577e-10,2.0987774136885554e-10,0
31010,1.9285292635848768e-10,1.0300165681778859e-9,3.5997433904638753e-9,4.968250822582822e-9,2.320045752950717e-9,7.431122204635676e-9,2.7686892875915085e-10,2.0954605108138663e-10,0
31011,1.9341116159199235e-10,1.029933544132185e-9,3.599049355566286e-9,5.012337983808969e-9,2.323086536299193e-9,7.431122204635676e-9,2.779205297717859e-10,2.092143607939177e-10,0
31012,1.93969396825497e-10,1.0298505200864842e-9,3.5983553206686963e-9,5.056425145035116e-9,2.326127319647669e-9,7.431122204635676e-9,2.7897213078442095e-10,2.0888267050644878e-10,0
