"time" "channel1" "channel2" "channel3" "channel4" "channel5" "channel6" "channel7" "channel8"
"2132" 57446 4.46753301779301e-08 4.38569850576578e-09 1.6044714079549e-09 1.04599873116562e-08 1.24631859070253e-07 1.10116977916018e-07 3.79849458003335e-08 2.20204367071125e-07
"2133" 57447 4.46794434542305e-08 4.38744977322779e-09 1.60849125772351e-09 1.04561965515895e-08 1.24599565413441e-07 1.0968087127566e-07 3.80530926362038e-08 2.2030334713821e-07
"2134" 57448 4.46835567305309e-08 4.3892010406898e-09 1.61251110749212e-09 1.04524057915229e-08 1.24567271756629e-07 1.09244764635301e-07 3.81212394720742e-08 2.20402327205295e-07
"2135" 57449 4.46876700068312e-08 4.39095230815181e-09 1.61653095726073e-09 1.04486150314562e-08 1.24534978099818e-07 1.08808657994943e-07 3.81893863079445e-08 2.2050130727238e-07
"2136" 57450 4.46902851078913e-08 4.39095230815181e-09 1.62055080702934e-09 1.04271539921114e-08 1.24705173348372e-07 1.09138761944349e-07 3.81627217811016e-08 2.20602455744013e-07
"2137" 57451 4.46929002089513e-08 4.39095230815181e-09 1.62457065679795e-09 1.04056929527667e-08 1.24875368596926e-07 1.09468865893754e-07 3.81360572542588e-08 2.20703604215646e-07
"2138" 57452 4.46955153100113e-08 4.39095230815181e-09 1.62859050656656e-09 1.03842319134219e-08 1.25045563845481e-07 1.0979896984316e-07 3.81093927274159e-08 2.20804752687279e-07
"2139" 57453 4.46981304110713e-08 4.39095230815181e-09 1.63261035633517e-09 1.03627708740771e-08 1.25215759094035e-07 1.10129073792565e-07 3.8082728200573e-08 2.20905901158912e-07
"2140" 57454 4.47007455121314e-08 4.39095230815181e-09 1.63663020610378e-09 1.03413098347324e-08 1.2538595434259e-07 1.10459177741971e-07 3.80560636737302e-08 2.21007049630545e-07
"2141" 57455 4.47033606131914e-08 4.39095230815181e-09 1.64065005587239e-09 1.03198487953876e-08 1.25556149591144e-07 1.10789281691377e-07 3.80293991468873e-08 2.21108198102178e-07
"2142" 57456 4.47059757142514e-08 4.39095230815181e-09 1.644669905641e-09 1.02983877560428e-08 1.25726344839699e-07 1.11119385640782e-07 3.80027346200444e-08 2.2120934657381e-07
"2143" 57457 4.4704477539011e-08 4.39095230815181e-09 1.6456823242909e-09 1.0275558809452e-08 1.25662012977909e-07 1.11063750387849e-07 3.78925530812913e-08 2.2125228218813e-07
"2144" 57458 4.47029793637707e-08 4.3871947651174e-09 1.6456823242909e-09 1.02578885301739e-08 1.25787508389625e-07 1.11004701104099e-07 3.78007631995477e-08 2.21325489773639e-07
"2145" 57459 4.47014811885303e-08 4.38343722208299e-09 1.6456823242909e-09 1.02402182508957e-08 1.25913003801341e-07 1.10945651820349e-07 3.77089733178041e-08 2.21398697359149e-07
"2146" 57460 4.46999830132899e-08 4.37967967904859e-09 1.6456823242909e-09 1.02225479716176e-08 1.26038499213057e-07 1.10886602536599e-07 3.76171834360604e-08 2.21471904944658e-07
"2147" 57461 4.46984848380495e-08 4.37592213601418e-09 1.6456823242909e-09 1.02048776923395e-08 1.26163994624773e-07 1.10827553252849e-07 3.75253935543168e-08 2.21545112530168e-07
"2148" 57462 4.46969866628092e-08 4.37216459297977e-09 1.6456823242909e-09 1.01872074130614e-08 1.26289490036489e-07 1.10768503969099e-07 3.74336036725732e-08 2.21618320115677e-07
"2149" 57463 4.46947432317261e-08 4.37143335795932e-09 1.64166247452229e-09 1.01872074130614e-08 1.26452078692478e-07 1.09425610114519e-07 3.74109870952006e-08 2.21433727904511e-07
"2150" 57464 4.36170303425845e-08 4.36942708238692e-09 1.63272965565899e-09 1.01464233542511e-08 1.2653622809282e-07 1.09413334389099e-07 3.73458617402998e-08 2.18607906555332e-07
"2151" 57465 4.2539317453443e-08 4.36742080681452e-09 1.6237968367957e-09 1.01056392954408e-08 1.26620377493161e-07 1.09401058663679e-07 3.72807363853991e-08 2.15782085206152e-07
"2152" 57466 4.14616045643014e-08 4.36541453124212e-09 1.61486401793241e-09 1.00648552366305e-08 1.26704526893502e-07 1.09388782938259e-07 3.72156110304983e-08 2.12956263856972e-07
"2153" 57467 4.03838916751598e-08 4.36340825566973e-09 1.60593119906911e-09 1.00240711778201e-08 1.26788676293844e-07 1.0937650721284e-07 3.71504856755975e-08 2.10130442507793e-07
"2154" 57468 3.93061787860182e-08 4.36140198009733e-09 1.59699838020582e-09 9.98328711900982e-09 1.26872825694185e-07 1.0936423148742e-07 3.70853603206968e-08 2.07304621158613e-07
"2155" 57469 3.82284658968766e-08 4.35939570452493e-09 1.58806556134253e-09 9.9425030601995e-09 1.26956975094526e-07 1.09351955762e-07 3.7020234965796e-08 2.04478799809433e-07
"2156" 57470 3.71507530077351e-08 4.35738942895253e-09 1.57913274247923e-09 9.90171900138919e-09 1.27041124494868e-07 1.0933968003658e-07 3.69551096108952e-08 2.01652978460254e-07
"2157" 57471 3.60939839177387e-08 4.36139071699376e-09 1.57019992361594e-09 9.86093494257886e-09 1.27038430635022e-07 1.10750366835007e-07 3.69431974606149e-08 1.98779418069222e-07
"2158" 57472 3.50372148277423e-08 4.36539200503499e-09 1.56126710475265e-09 9.82015088376854e-09 1.27035736775175e-07 1.12161053633435e-07 3.69312853103346e-08 1.9590585767819e-07
"2159" 57473 3.39804457377459e-08 4.36939329307621e-09 1.55233428588935e-09 9.77936682495822e-09 1.27033042915329e-07 1.13571740431862e-07 3.69193731600543e-08 1.93032297287158e-07
"2160" 57474 3.29236766477495e-08 4.37339458111744e-09 1.54340146702606e-09 9.7385827661479e-09 1.27030349055483e-07 1.1498242723029e-07 3.69074610097739e-08 1.90158736896126e-07
"2161" 57475 3.18669075577531e-08 4.37739586915866e-09 1.53446864816277e-09 9.69779870733758e-09 1.27027655195637e-07 1.16393114028717e-07 3.68955488594936e-08 1.87285176505093e-07
"2162" 57476 3.08101384677568e-08 4.38139715719989e-09 1.52553582929947e-09 9.65701464852726e-09 1.27024961335791e-07 1.17803800827145e-07 3.68836367092133e-08 1.84411616114061e-07
"2163" 57477 2.97533693777604e-08 4.38539844524111e-09 1.51660301043618e-09 9.61623058971694e-09 1.27022267475945e-07 1.19214487625573e-07 3.6871724558933e-08 1.81538055723029e-07
"2164" 57478 2.86808962701826e-08 4.38339216966872e-09 1.50767019157289e-09 9.57340873440262e-09 1.26972505309481e-07 1.19294822184536e-07 3.67995061816202e-08 1.78740175259973e-07
"2165" 57479 2.76084231626048e-08 4.38138589409632e-09 1.49873737270959e-09 9.5305868790883e-09 1.26922743143017e-07 1.19375156743499e-07 3.67272878043075e-08 1.75942294796917e-07
"2166" 57480 2.6535950055027e-08 4.37937961852392e-09 1.4898045538463e-09 9.48776502377398e-09 1.26872980976554e-07 1.19455491302462e-07 3.66550694269948e-08 1.73144414333861e-07
"2167" 57481 2.54634769474493e-08 4.37737334295152e-09 1.48087173498301e-09 9.44494316845966e-09 1.2682321881009e-07 1.19535825861425e-07 3.65828510496821e-08 1.70346533870805e-07
"2168" 57482 2.43910038398715e-08 4.37536706737912e-09 1.47193891611971e-09 9.40212131314534e-09 1.26773456643626e-07 1.19616160420388e-07 3.65106326723694e-08 1.67548653407748e-07
"2169" 57483 2.33185307322937e-08 4.37336079180673e-09 1.46300609725642e-09 9.35929945783102e-09 1.26723694477162e-07 1.19696494979351e-07 3.64384142950566e-08 1.64750772944692e-07
"2170" 57484 2.22460576247159e-08 4.37135451623433e-09 1.45407327839313e-09 9.3164776025167e-09 1.26673932310699e-07 1.19776829538314e-07 3.63661959177439e-08 1.61952892481636e-07
"2171" 57485 2.22367045668518e-08 4.37160952434472e-09 1.45306085974324e-09 9.2666304195263e-09 1.25470395401744e-07 1.1951876782057e-07 3.63487921128801e-08 1.62013359435976e-07
"2172" 57486 2.22273515089876e-08 4.37186453245511e-09 1.45204844109334e-09 9.21678323653592e-09 1.2426685849279e-07 1.19260706102827e-07 3.63313883080162e-08 1.62073826390316e-07
"2173" 57487 2.21630066092016e-08 4.30836924639156e-09 1.44802859132473e-09 9.18155755665978e-09 1.23901628904418e-07 1.19059290397888e-07 3.63121096235434e-08 1.62117900768269e-07
"2174" 57488 2.20986617094156e-08 4.24487396032801e-09 1.44400874155612e-09 9.14633187678364e-09 1.23536399316046e-07 1.1885787469295e-07 3.62928309390706e-08 1.62161975146222e-07
"2175" 57489 2.20343168096297e-08 4.18137867426446e-09 1.43998889178751e-09 9.1111061969075e-09 1.23171169727674e-07 1.18656458988012e-07 3.62735522545978e-08 1.62206049524175e-07
"2176" 57490 2.19699719098437e-08 4.11788338820092e-09 1.4359690420189e-09 9.07588051703136e-09 1.22805940139302e-07 1.18455043283074e-07 3.6254273570125e-08 1.62250123902128e-07
"2177" 57491 2.19056270100578e-08 4.05438810213737e-09 1.43194919225029e-09 9.04065483715522e-09 1.2244071055093e-07 1.18253627578136e-07 3.62349948856521e-08 1.62294198280081e-07
"2178" 57492 2.18412821102718e-08 3.99089281607382e-09 1.42792934248168e-09 9.00542915727908e-09 1.22075480962558e-07 1.18052211873197e-07 3.62157162011793e-08 1.62338272658034e-07
"2179" 57493 2.17716974289221e-08 3.92714252189989e-09 1.424892086532e-09 8.96866443401615e-09 1.21643859421914e-07 1.18205518869281e-07 3.61831535237289e-08 1.62315732363722e-07
"2180" 57494 2.17021127475723e-08 3.86339222772595e-09 1.42185483058233e-09 8.93189971075322e-09 1.21212237881269e-07 1.18358825865364e-07 3.61505908462786e-08 1.62293192069409e-07
"2181" 57495 2.16435044665786e-08 3.79988567855883e-09 1.42185483058233e-09 8.89355316006832e-09 1.20806985177824e-07 1.18095873737909e-07 3.61450230454845e-08 1.62611702503227e-07
"2182" 57496 2.15848961855849e-08 3.73637912939172e-09 1.42185483058233e-09 8.85520660938342e-09 1.20401732474378e-07 1.17832921610453e-07 3.61394552446905e-08 1.62930212937045e-07
"2183" 57497 2.15262879045912e-08 3.6728725802246e-09 1.42185483058233e-09 8.81686005869852e-09 1.19996479770933e-07 1.17569969482998e-07 3.61338874438965e-08 1.63248723370863e-07
"2184" 57498 2.14676796235975e-08 3.60936603105748e-09 1.42185483058233e-09 8.77851350801362e-09 1.19591227067487e-07 1.17307017355542e-07 3.61283196431025e-08 1.63567233804681e-07
"2185" 57499 2.14676796235975e-08 3.57363197300398e-09 1.42360792270029e-09 8.7648906930132e-09 1.19283544461414e-07 1.17338091217408e-07 3.60396424129219e-08 1.63820548837545e-07
"2186" 57500 2.14676796235975e-08 3.53789791495048e-09 1.42536101481826e-09 8.75126787801279e-09 1.18975861855341e-07 1.17369165079273e-07 3.59509651827414e-08 1.64073863870408e-07
"2187" 57501 2.14676796235975e-08 3.50216385689697e-09 1.42711410693622e-09 8.73764506301238e-09 1.18668179249268e-07 1.17400238941139e-07 3.58622879525608e-08 1.64327178903272e-07
"2188" 57502 2.14676796235975e-08 3.46642979884347e-09 1.42886719905418e-09 8.72402224801196e-09 1.18360496643195e-07 1.17431312803005e-07 3.57736107223803e-08 1.64580493936135e-07
"2189" 57503 2.14676796235975e-08 3.43069574078997e-09 1.43062029117215e-09 8.71039943301155e-09 1.18052814037122e-07 1.1746238666487e-07 3.56849334921997e-08 1.64833808968999e-07
"2190" 57504 2.14676796235975e-08 3.39496168273647e-09 1.43237338329011e-09 8.69677661801114e-09 1.17745131431048e-07 1.17493460526736e-07 3.55962562620192e-08 1.65087124001862e-07
"2191" 57505 2.14676796235975e-08 3.35922762468296e-09 1.43412647540807e-09 8.68315380301072e-09 1.17437448824975e-07 1.17524534388602e-07 3.55075790318386e-08 1.65340439034726e-07
"2192" 57506 2.14676796235975e-08 3.32349356662946e-09 1.43587956752604e-09 8.66953098801031e-09 1.17129766218902e-07 1.17555608250467e-07 3.5418901801658e-08 1.65593754067589e-07
"2193" 57507 2.14782805221991e-08 3.29362469511489e-09 1.437632659644e-09 8.66670960544776e-09 1.17142104890806e-07 1.17587525136559e-07 3.52564187642196e-08 1.65835760459276e-07
"2194" 57508 2.14888814208007e-08 3.26375582360032e-09 1.43938575176196e-09 8.66388822288521e-09 1.17154443562709e-07 1.17619442022651e-07 3.50939357267812e-08 1.66077766850963e-07
"2195" 57509 2.14994823194023e-08 3.23388695208575e-09 1.44113884387993e-09 8.66106684032266e-09 1.17166782234612e-07 1.17651358908743e-07 3.49314526893428e-08 1.6631977324265e-07
"2196" 57510 2.15100832180039e-08 3.20401808057118e-09 1.44289193599789e-09 8.65824545776011e-09 1.17179120906516e-07 1.17683275794835e-07 3.47689696519044e-08 1.66561779634337e-07
"2197" 57511 2.15206841166055e-08 3.17414920905661e-09 1.44464502811585e-09 8.65542407519756e-09 1.17191459578419e-07 1.17715192680927e-07 3.4606486614466e-08 1.66803786026024e-07
"2198" 57512 2.1531285015207e-08 3.14428033754204e-09 1.44639812023381e-09 8.652602692635e-09 1.17203798250323e-07 1.17747109567019e-07 3.44440035770275e-08 1.67045792417711e-07
"2199" 57513 2.15418859138086e-08 3.11441146602747e-09 1.44815121235178e-09 8.64978131007245e-09 1.17216136922226e-07 1.17779026453111e-07 3.42815205395891e-08 1.67287798809398e-07
"2200" 57514 2.15524868124102e-08 3.0845425945129e-09 1.44990430446974e-09 8.6469599275099e-09 1.1722847559413e-07 1.17810943339203e-07 3.41190375021507e-08 1.67529805201084e-07
"2201" 57515 2.15630877110118e-08 3.05467372299833e-09 1.4516573965877e-09 8.64413854494735e-09 1.17240814266033e-07 1.17842860225295e-07 3.39565544647123e-08 1.67771811592771e-07
"2202" 57516 2.15668254855577e-08 3.02481611458733e-09 1.45040305758695e-09 8.64413854494735e-09 1.17295243433822e-07 1.17856558282471e-07 3.38057057819791e-08 1.67644565278524e-07
"2203" 57517 2.17650654804819e-08 3.00371484348638e-09 1.46415604934883e-09 8.65149148959994e-09 1.17444500771894e-07 1.18736496696186e-07 3.36487905453347e-08 1.68569902272781e-07
"2204" 57518 2.1963305475406e-08 2.98261357238542e-09 1.47790904111072e-09 8.65884443425252e-09 1.17593758109965e-07 1.19616435109901e-07 3.34918753086903e-08 1.69495239267038e-07
"2205" 57519 2.21615454703301e-08 2.96151230128447e-09 1.49166203287261e-09 8.66619737890511e-09 1.17743015448037e-07 1.20496373523615e-07 3.33349600720459e-08 1.70420576261295e-07
"2206" 57520 2.23597854652543e-08 2.94041103018351e-09 1.50541502463449e-09 8.6735503235577e-09 1.17892272786108e-07 1.2137631193733e-07 3.31780448354015e-08 1.71345913255551e-07
"2207" 57521 2.25580254601784e-08 2.91930975908256e-09 1.51916801639638e-09 8.68090326821028e-09 1.1804153012418e-07 1.22256250351045e-07 3.30211295987571e-08 1.72271250249808e-07
"2208" 57522 2.21764889049588e-08 2.92205853277898e-09 1.52625494694562e-09 8.69112037946059e-09 1.17906302951404e-07 1.23129476564633e-07 3.30470551067631e-08 1.73268048190103e-07
"2209" 57523 2.23709911253371e-08 2.92480730647541e-09 1.54203277600729e-09 8.63277973817282e-09 1.17721721091013e-07 1.2395816258219e-07 3.29208941600818e-08 1.74256703400004e-07
"2210" 57524 2.25654933457153e-08 2.92755608017183e-09 1.55781060506895e-09 8.57443909688504e-09 1.17537139230623e-07 1.24786848599748e-07 3.27947332134006e-08 1.75245358609905e-07
"2211" 57525 2.27599955660935e-08 2.93030485386825e-09 1.57358843413062e-09 8.51609845559727e-09 1.17352557370233e-07 1.25615534617306e-07 3.26685722667193e-08 1.76234013819805e-07
"2212" 57526 2.29544977864717e-08 2.93305362756468e-09 1.58936626319229e-09 8.45775781430949e-09 1.17167975509843e-07 1.26444220634864e-07 3.2542411320038e-08 1.77222669029706e-07
"2213" 57527 2.31490000068499e-08 2.9358024012611e-09 1.60514409225396e-09 8.39941717302171e-09 1.16983393649453e-07 1.27272906652421e-07 3.24162503733568e-08 1.78211324239607e-07
"2214" 57528 2.33435022272281e-08 2.93855117495752e-09 1.62092192131563e-09 8.34107653173394e-09 1.16798811789063e-07 1.28101592669979e-07 3.22900894266755e-08 1.79199979449508e-07
"2215" 57529 2.33627109278512e-08 2.94454747546758e-09 1.62290202136898e-09 8.2731031003834e-09 1.16564402684195e-07 1.28064038330999e-07 3.21532916315234e-08 1.79505304056839e-07
"2216" 57530 2.33819196284743e-08 2.95054377597763e-09 1.62488212142233e-09 8.20512966903287e-09 1.16329993579328e-07 1.28026483992019e-07 3.20164938363713e-08 1.79810628664169e-07
"2217" 57531 2.34011283290974e-08 2.95654007648768e-09 1.62686222147568e-09 8.13715623768234e-09 1.16095584474461e-07 1.27988929653039e-07 3.18796960412192e-08 1.801159532715e-07
"2218" 57532 2.34203370297205e-08 2.96253637699774e-09 1.62884232152903e-09 8.0691828063318e-09 1.15861175369593e-07 1.27951375314059e-07 3.17428982460671e-08 1.80421277878831e-07
"2219" 57533 2.34395457303436e-08 2.96853267750779e-09 1.63082242158238e-09 8.00120937498127e-09 1.15626766264726e-07 1.27913820975079e-07 3.1606100450915e-08 1.80726602486162e-07
"2220" 57534 2.34587544309667e-08 2.97452897801784e-09 1.63280252163573e-09 7.93323594363074e-09 1.15392357159859e-07 1.27876266636099e-07 3.14693026557629e-08 1.81031927093493e-07
"2221" 57535 2.34779631315898e-08 2.9805252785279e-09 1.63478262168908e-09 7.8652625122802e-09 1.15157948054991e-07 1.27838712297119e-07 3.13325048606108e-08 1.81337251700824e-07
"2222" 57536 2.34925578869066e-08 2.97426270680389e-09 1.63555311998811e-09 7.79832937119926e-09 1.15236500455896e-07 1.28005000127887e-07 3.11858424818856e-08 1.81266655708059e-07
"2223" 57537 2.35071526422233e-08 2.96800013507987e-09 1.63632361828713e-09 7.73139623011831e-09 1.15315052856801e-07 1.28171287958655e-07 3.10391801031605e-08 1.81196059715294e-07
"2224" 57538 2.35217473975401e-08 2.96173756335586e-09 1.63709411658616e-09 7.66446308903736e-09 1.15393605257707e-07 1.28337575789423e-07 3.08925177244353e-08 1.81125463722528e-07
"2225" 57539 2.35363421528568e-08 2.95547499163185e-09 1.63786461488519e-09 7.59752994795642e-09 1.15472157658612e-07 1.28503863620191e-07 3.07458553457101e-08 1.81054867729763e-07
"2226" 57540 2.35509369081736e-08 2.94921241990784e-09 1.63863511318421e-09 7.53059680687547e-09 1.15550710059517e-07 1.2867015145096e-07 3.05991929669849e-08 1.80984271736998e-07
"2227" 57541 2.35655316634903e-08 2.94294984818383e-09 1.63940561148324e-09 7.46366366579452e-09 1.15629262460422e-07 1.28836439281728e-07 3.04525305882598e-08 1.80913675744233e-07
"2228" 57542 2.3580126418807e-08 2.93668727645982e-09 1.64017610978227e-09 7.39673052471358e-09 1.15707814861327e-07 1.29002727112496e-07 3.03058682095346e-08 1.80843079751467e-07
"2229" 57543 2.35947211741238e-08 2.9304247047358e-09 1.6409466080813e-09 7.32979738363263e-09 1.15786367262232e-07 1.29169014943264e-07 3.01592058308094e-08 1.80772483758702e-07
"2230" 57544 2.35595562055276e-08 2.92819721036373e-09 1.63973700632697e-09 7.33083767390222e-09 1.16085599691677e-07 1.29382298115146e-07 3.01493412472363e-08 1.78920638871875e-07
"2231" 57545 2.35243912369314e-08 2.92596971599165e-09 1.63852740457265e-09 7.3318779641718e-09 1.16384832121121e-07 1.29595581287029e-07 3.01394766636633e-08 1.77068793985049e-07
"2232" 57546 2.3032895904422e-08 2.90996456382675e-09 1.6392829904562e-09 7.32328546437863e-09 1.16533956873056e-07 1.29549081385622e-07 3.01129086777081e-08 1.76960639539534e-07
"2233" 57547 2.25414005719127e-08 2.89395941166185e-09 1.64003857633975e-09 7.31469296458546e-09 1.16683081624991e-07 1.29502581484216e-07 3.0086340691753e-08 1.76852485094019e-07
"2234" 57548 2.20499052394033e-08 2.87795425949694e-09 1.6407941622233e-09 7.30610046479229e-09 1.16832206376926e-07 1.2945608158281e-07 3.00597727057979e-08 1.76744330648504e-07
"2235" 57549 2.1558409906894e-08 2.86194910733204e-09 1.64154974810684e-09 7.29750796499912e-09 1.16981331128861e-07 1.29409581681403e-07 3.00332047198428e-08 1.76636176202989e-07
"2236" 57550 2.1048582044522e-08 2.87082529550964e-09 1.6502257342038e-09 7.35584860628689e-09 1.18564045702699e-07 1.29640469067577e-07 3.00032269785719e-08 1.76578113307512e-07
"2237" 57551 2.053875418215e-08 2.87970148368724e-09 1.65890172030075e-09 7.41418924757467e-09 1.20146760276537e-07 1.29871356453752e-07 2.99732492373011e-08 1.76520050412036e-07
"2238" 57552 2.00431436574515e-08 2.9356704205784e-09 1.66086690793862e-09 7.40713579116829e-09 1.19879125086637e-07 1.29628836637055e-07 2.99732492373011e-08 1.77570908504189e-07
"2239" 57553 1.9547533132753e-08 2.99163935746956e-09 1.66283209557649e-09 7.40008233476191e-09 1.19611489896737e-07 1.29386316820358e-07 2.99732492373011e-08 1.78621766596341e-07
"2240" 57554 1.90519226080546e-08 3.04760829436073e-09 1.66479728321437e-09 7.39302887835554e-09 1.19343854706837e-07 1.29143797003661e-07 2.99732492373011e-08 1.79672624688493e-07
"2241" 57555 1.85563120833561e-08 3.10357723125189e-09 1.66676247085224e-09 7.38597542194916e-09 1.19076219516937e-07 1.28901277186965e-07 2.99732492373011e-08 1.80723482780645e-07
"2242" 57556 1.80607015586576e-08 3.15954616814305e-09 1.66872765849011e-09 7.37892196554278e-09 1.18808584327037e-07 1.28658757370268e-07 2.99732492373011e-08 1.81774340872797e-07
"2243" 57557 1.7765834373913e-08 3.22525768547511e-09 1.67094967889433e-09 7.37892196554278e-09 1.18796802195934e-07 1.28673140656254e-07 2.99793157912123e-08 1.82424464557516e-07
"2244" 57558 1.74709671891685e-08 3.29096920280716e-09 1.67317169929854e-09 7.37892196554278e-09 1.18785020064831e-07 1.28687523942239e-07 2.99853823451235e-08 1.83074588242234e-07
"2245" 57559 1.71761000044239e-08 3.35668072013922e-09 1.67539371970276e-09 7.37892196554278e-09 1.18773237933728e-07 1.28701907228225e-07 2.99914488990347e-08 1.83724711926953e-07
"2246" 57560 1.68812328196794e-08 3.42239223747127e-09 1.67761574010697e-09 7.37892196554278e-09 1.18761455802626e-07 1.2871629051421e-07 2.9997515452946e-08 1.84374835611671e-07
"2247" 57561 1.65863656349348e-08 3.48810375480333e-09 1.67983776051119e-09 7.37892196554278e-09 1.18749673671523e-07 1.28730673800196e-07 3.00035820068572e-08 1.8502495929639e-07
"2248" 57562 1.62914984501903e-08 3.55381527213538e-09 1.6820597809154e-09 7.37892196554278e-09 1.1873789154042e-07 1.28745057086181e-07 3.00096485607684e-08 1.85675082981108e-07
"2249" 57563 1.59966312654457e-08 3.61952678946744e-09 1.68428180131962e-09 7.37892196554278e-09 1.18726109409317e-07 1.28759440372167e-07 3.00157151146796e-08 1.86325206665827e-07
"2250" 57564 1.57017640807012e-08 3.68523830679949e-09 1.68650382172383e-09 7.37892196554278e-09 1.18714327278214e-07 1.28773823658153e-07 3.00217816685909e-08 1.86975330350546e-07
"2251" 57565 1.54068968959567e-08 3.75094982413154e-09 1.68872584212805e-09 7.37892196554278e-09 1.18702545147112e-07 1.28788206944138e-07 3.00278482225021e-08 1.87625454035264e-07
"2252" 57566 1.54183701335412e-08 3.82266890507722e-09 1.69094786253226e-09 7.38208562038671e-09 1.18659334279295e-07 1.28704754064738e-07 3.00165828339654e-08 1.87940535459499e-07
"2253" 57567 1.54298433711257e-08 3.8943879860229e-09 1.69316988293648e-09 7.38524927523065e-09 1.18616123411478e-07 1.28621301185337e-07 3.00053174454288e-08 1.88255616883734e-07
"2254" 57568 1.54413166087102e-08 3.96610706696858e-09 1.69539190334069e-09 7.38841293007458e-09 1.18572912543661e-07 1.28537848305937e-07 2.99940520568922e-08 1.8857069830797e-07
"2255" 57569 1.54527898462947e-08 4.03782614791426e-09 1.69761392374491e-09 7.39157658491851e-09 1.18529701675845e-07 1.28454395426537e-07 2.99827866683555e-08 1.88885779732205e-07
"2256" 57570 1.54642630838792e-08 4.10954522885993e-09 1.69983594414912e-09 7.39474023976245e-09 1.18486490808028e-07 1.28370942547136e-07 2.99715212798189e-08 1.8920086115644e-07
"2257" 57571 1.54757363214637e-08 4.18126430980561e-09 1.70205796455334e-09 7.39790389460638e-09 1.18443279940211e-07 1.28287489667736e-07 2.99602558912822e-08 1.89515942580675e-07
"2258" 57572 1.54872095590482e-08 4.25298339075129e-09 1.70427998495755e-09 7.40106754945031e-09 1.18400069072395e-07 1.28204036788335e-07 2.99489905027456e-08 1.8983102400491e-07
"2259" 57573 1.54893297387686e-08 4.25371462577174e-09 1.70529240360745e-09 7.40393171604804e-09 1.18398252283196e-07 1.28509048599872e-07 3.11079575898918e-08 1.89075470604384e-07
"2260" 57574 1.54858365510594e-08 4.25345961766136e-09 1.70529240360745e-09 7.40555632750517e-09 1.18358470039296e-07 1.28414243573692e-07 3.10613912088045e-08 1.88235182731732e-07
"2261" 57575 1.54823433633502e-08 4.25320460955097e-09 1.70529240360745e-09 7.40718093896231e-09 1.18318687795397e-07 1.28319438547511e-07 3.10148248277172e-08 1.8739489485908e-07
"2262" 57576 1.5478850175641e-08 4.25294960144058e-09 1.70529240360745e-09 7.40880555041945e-09 1.18278905551497e-07 1.2822463352133e-07 3.096825844663e-08 1.86554606986427e-07
"2263" 57577 1.54753569879318e-08 4.25269459333019e-09 1.70529240360745e-09 7.41043016187659e-09 1.18239123307597e-07 1.2812982849515e-07 3.09216920655427e-08 1.85714319113775e-07
"2264" 57578 1.54718638002226e-08 4.2524395852198e-09 1.70529240360745e-09 7.41205477333373e-09 1.18199341063698e-07 1.28035023468969e-07 3.08751256844554e-08 1.84874031241123e-07
"2265" 57579 1.54683706125133e-08 4.25218457710941e-09 1.70529240360745e-09 7.41367938479087e-09 1.18159558819798e-07 1.27940218442788e-07 3.08285593033681e-08 1.8403374336847e-07
"2266" 57580 1.54648774248041e-08 4.25192956899903e-09 1.70529240360745e-09 7.41530399624801e-09 1.18119776575898e-07 1.27845413416608e-07 3.07819929222809e-08 1.83193455495818e-07
"2267" 57581 1.54613842370949e-08 4.24298580220001e-09 1.69902070860367e-09 7.36515850689083e-09 1.18072450387337e-07 1.27771565961578e-07 3.07028349014769e-08 1.82552891805684e-07
"2268" 57582 1.54142453619083e-08 4.23404203540099e-09 1.69282357567727e-09 7.32732418274858e-09 1.18059171996883e-07 1.27197630238816e-07 3.06857861248983e-08 1.81806939238859e-07
"2269" 57583 1.53671064867216e-08 4.22509826860198e-09 1.68662644275088e-09 7.28948985860633e-09 1.18045893606428e-07 1.26623694516054e-07 3.06687373483198e-08 1.81060986672035e-07
"2270" 57584 1.53199676115349e-08 4.21615450180296e-09 1.68042930982448e-09 7.25165553446408e-09 1.18032615215974e-07 1.26049758793292e-07 3.06516885717412e-08 1.80315034105211e-07
"2271" 57585 1.52728287363482e-08 4.20721073500394e-09 1.67423217689809e-09 7.21382121032183e-09 1.18019336825519e-07 1.2547582307053e-07 3.06346397951627e-08 1.79569081538386e-07
"2272" 57586 1.52256898611615e-08 4.19826696820493e-09 1.6680350439717e-09 7.17598688617958e-09 1.18006058435065e-07 1.24901887347769e-07 3.06175910185841e-08 1.78823128971562e-07
"2273" 57587 1.53019818450954e-08 4.19833454682635e-09 1.66410466869595e-09 7.14134434561157e-09 1.17979877541577e-07 1.24506817518393e-07 3.06989886013712e-08 1.79068770575542e-07
"2274" 57588 1.53782738290293e-08 4.19840212544776e-09 1.66017429342021e-09 7.10670180504356e-09 1.17953696648088e-07 1.24111747689017e-07 3.07803861841582e-08 1.79314412179523e-07
"2275" 57589 1.54545658129632e-08 4.19846970406918e-09 1.65624391814446e-09 7.07205926447554e-09 1.179275157546e-07 1.23716677859641e-07 3.08617837669452e-08 1.79560053783503e-07
"2276" 57590 1.55308577968971e-08 4.1985372826906e-09 1.65231354286871e-09 7.03741672390753e-09 1.17901334861111e-07 1.23321608030265e-07 3.09431813497322e-08 1.79805695387483e-07
"2277" 57591 1.5607149780831e-08 4.19860486131202e-09 1.64838316759297e-09 7.00277418333952e-09 1.17875153967623e-07 1.22926538200889e-07 3.10245789325193e-08 1.80051336991464e-07
"2278" 57592 1.55656242730738e-08 4.19592366623701e-09 1.64440805507079e-09 6.97105324870927e-09 1.17848785130424e-07 1.22590475721351e-07 3.10174859101073e-08 1.79431667374453e-07
"2279" 57593 1.55240987653167e-08 4.19324247116201e-09 1.64043294254861e-09 6.93933231407902e-09 1.17822416293226e-07 1.22254413241814e-07 3.10103928876953e-08 1.78811997757442e-07
"2280" 57594 1.54825732575595e-08 4.19056127608701e-09 1.63645783002643e-09 6.90761137944877e-09 1.17796047456027e-07 1.21918350762276e-07 3.10032998652834e-08 1.78192328140431e-07
"2281" 57595 1.54410477498023e-08 4.187880081012e-09 1.63248271750425e-09 6.87589044481853e-09 1.17769678618829e-07 1.21582288282739e-07 3.09962068428714e-08 1.7757265852342e-07
"2282" 57596 1.53995222420452e-08 4.185198885937e-09 1.62850760498208e-09 6.84416951018828e-09 1.1774330978163e-07 1.21246225803202e-07 3.09891138204595e-08 1.76952988906409e-07
"2283" 57597 1.5357996734288e-08 4.18251769086199e-09 1.6245324924599e-09 6.81244857555803e-09 1.17716940944431e-07 1.20910163323664e-07 3.09820207980475e-08 1.76333319289398e-07
"2284" 57598 1.53164712265308e-08 4.17983649578699e-09 1.62055737993772e-09 6.78072764092778e-09 1.17690572107233e-07 1.20574100844127e-07 3.09749277756355e-08 1.75713649672387e-07
"2285" 57599 1.52749457187736e-08 4.17715530071198e-09 1.61658226741554e-09 6.74900670629753e-09 1.17664203270034e-07 1.20238038364589e-07 3.09678347532236e-08 1.75093980055376e-07
"2286" 57600 1.52334202110165e-08 4.17447410563698e-09 1.61260715489336e-09 6.71728577166728e-09 1.17637834432836e-07 1.19901975885052e-07 3.09607417308116e-08 1.74474310438365e-07
"2287" 57601 1.51918947032593e-08 4.17179291056197e-09 1.60863204237118e-09 6.68556483703703e-09 1.17611465595637e-07 1.19565913405514e-07 3.09536487083997e-08 1.73854640821354e-07
"2288" 57602 1.51825416453951e-08 4.16214043494964e-09 1.60858730512475e-09 6.6756899980681e-09 1.17525424607644e-07 1.18709200091933e-07 3.09509629475378e-08 1.73331517085006e-07
"2289" 57603 1.51731885875309e-08 4.15248795933731e-09 1.60854256787832e-09 6.66581515909918e-09 1.17439383619651e-07 1.17852486778352e-07 3.0948277186676e-08 1.72808393348658e-07
"2290" 57604 1.51657130384391e-08 4.15875053106132e-09 1.60849783063189e-09 6.65594032013025e-09 1.17220982681778e-07 1.16567458225596e-07 3.09455914258142e-08 1.72864775881144e-07
"2291" 57605 1.51582374893472e-08 4.16501310278533e-09 1.60845309338545e-09 6.64606548116132e-09 1.17002581743904e-07 1.15282429672841e-07 3.09429056649523e-08 1.7292115841363e-07
"2292" 57606 1.51507619402554e-08 4.17127567450934e-09 1.60840835613902e-09 6.63619064219239e-09 1.16784180806031e-07 1.13997401120085e-07 3.09402199040905e-08 1.72977540946115e-07
"2293" 57607 1.51432863911635e-08 4.17753824623335e-09 1.60836361889259e-09 6.62631580322346e-09 1.16565779868158e-07 1.1271237256733e-07 3.09375341432287e-08 1.73033923478601e-07
"2294" 57608 1.51538930374313e-08 4.17976574060543e-09 1.60609686124194e-09 6.63076179724315e-09 1.16523696662602e-07 1.11921499119039e-07 3.14632145584706e-08 1.74484349094116e-07
"2295" 57609 1.51644996836992e-08 4.18199323497751e-09 1.60383010359129e-09 6.63520779126284e-09 1.16481613457047e-07 1.11130625670748e-07 3.19888949737125e-08 1.75934774709632e-07
"2296" 57610 1.5154903954887e-08 4.18422072934958e-09 1.65033676451859e-09 7.09129789775018e-09 1.18775214865515e-07 1.096641922117e-07 3.22487024476277e-08 1.75940468527801e-07
"2297" 57611 1.51453082260749e-08 4.18644822372166e-09 1.69684342544588e-09 7.54738800423751e-09 1.21068816273984e-07 1.08197758752652e-07 3.25085099215429e-08 1.75946162345971e-07
"2298" 57612 1.51357124972627e-08 4.18867571809374e-09 1.74335008637318e-09 8.00347811072485e-09 1.23362417682452e-07 1.06731325293604e-07 3.27683173954581e-08 1.7595185616414e-07
"2299" 57613 1.51261167684505e-08 4.19090321246581e-09 1.78985674730047e-09 8.45956821721219e-09 1.25656019090921e-07 1.05264891834556e-07 3.30281248693733e-08 1.75957549982309e-07
"2300" 57614 1.51165210396384e-08 4.19313070683789e-09 1.83636340822777e-09 8.91565832369952e-09 1.2794962049939e-07 1.03798458375508e-07 3.32879323432885e-08 1.75963243800479e-07
"2301" 57615 1.51069253108262e-08 4.19535820120997e-09 1.88287006915506e-09 9.37174843018686e-09 1.30243221907858e-07 1.0233202491646e-07 3.35477398172037e-08 1.75968937618648e-07
"2302" 57616 1.50404602313199e-08 4.19733068747166e-09 1.91937184290726e-09 9.80706204189219e-09 1.32659644309076e-07 1.02273902524759e-07 3.36852380148376e-08 1.75890147344811e-07
"2303" 57617 1.49739951518136e-08 4.19930317373334e-09 1.95587361665946e-09 1.02423756535975e-08 1.35076066710294e-07 1.02215780133058e-07 3.38227362124715e-08 1.75811357070973e-07
"2304" 57618 1.49075300723074e-08 4.20127565999503e-09 1.99237539041166e-09 1.06776892653029e-08 1.37492489111513e-07 1.02157657741357e-07 3.39602344101053e-08 1.75732566797136e-07
"2305" 57619 1.48410649928011e-08 4.20324814625672e-09 2.02887716416386e-09 1.11130028770082e-08 1.39908911512731e-07 1.02099535349656e-07 3.40977326077392e-08 1.75653776523299e-07
"2306" 57620 1.47745999132948e-08 4.20522063251841e-09 2.06537893791606e-09 1.15483164887135e-08 1.42325333913949e-07 1.02041412957955e-07 3.42352308053731e-08 1.75574986249461e-07
"2307" 57621 1.47081348337885e-08 4.2071931187801e-09 2.10188071166826e-09 1.19836301004189e-08 1.44741756315167e-07 1.01983290566254e-07 3.4372729003007e-08 1.75496195975624e-07
"2308" 57622 1.46416697542823e-08 4.20916560504179e-09 2.13838248542046e-09 1.24189437121242e-08 1.47158178716385e-07 1.01925168174553e-07 3.45102272006408e-08 1.75417405701787e-07
"2309" 57623 1.4575204674776e-08 4.21113809130348e-09 2.17488425917266e-09 1.28542573238295e-08 1.49574601117604e-07 1.01867045782852e-07 3.46477253982747e-08 1.75338615427949e-07
"2310" 57624 1.45087395952697e-08 4.21311057756516e-09 2.21138603292486e-09 1.32895709355349e-08 1.51991023518822e-07 1.01808923391152e-07 3.47852235959086e-08 1.75259825154112e-07
"2311" 57625 1.44806919170097e-08 4.21132552079245e-09 2.25917685768386e-09 1.37616492705031e-08 1.54389565606274e-07 1.01660298275633e-07 3.50037064235116e-08 1.7528897108035e-07
"2312" 57626 1.44526442387496e-08 4.20954046401973e-09 2.30696768244287e-09 1.42337276054714e-08 1.56788107693726e-07 1.01511673160115e-07 3.52221892511146e-08 1.75318117006588e-07
"2313" 57627 1.44245965604895e-08 4.20775540724701e-09 2.35475850720187e-09 1.47058059404397e-08 1.59186649781178e-07 1.01363048044596e-07 3.54406720787175e-08 1.75347262932826e-07
"2314" 57628 1.43965488822294e-08 4.20597035047429e-09 2.40254933196088e-09 1.51778842754079e-08 1.6158519186863e-07 1.01214422929078e-07 3.56591549063205e-08 1.75376408859063e-07
"2315" 57629 1.43685012039694e-08 4.20418529370157e-09 2.45034015671988e-09 1.56499626103762e-08 1.63983733956082e-07 1.0106579781356e-07 3.58776377339235e-08 1.75405554785301e-07
"2316" 57630 1.43404535257093e-08 4.20240023692885e-09 2.49813098147889e-09 1.61220409453445e-08 1.66382276043534e-07 1.00917172698041e-07 3.60961205615265e-08 1.75434700711539e-07
"2317" 57631 1.43377209209528e-08 4.24718664954535e-09 2.49739030801082e-09 1.61220409453445e-08 1.66321688475288e-07 1.01238710663222e-07 3.67737394228292e-08 1.75432273222434e-07
"2318" 57632 1.43298756177727e-08 4.24543538208334e-09 2.49640771419188e-09 1.61959982322221e-08 1.66682369067812e-07 1.01027706100961e-07 3.67550742540392e-08 1.75382517744993e-07
"2319" 57633 1.43220303145926e-08 4.24368411462133e-09 2.49542512037294e-09 1.62699555190996e-08 1.67043049660336e-07 1.00816701538699e-07 3.67364090852492e-08 1.75332762267552e-07
"2320" 57634 1.43141850114126e-08 4.24193284715932e-09 2.49444252655401e-09 1.63439128059772e-08 1.6740373025286e-07 1.00605696976437e-07 3.67177439164592e-08 1.75283006790111e-07
"2321" 57635 1.43063397082325e-08 4.24018157969732e-09 2.49345993273507e-09 1.64178700928548e-08 1.67764410845384e-07 1.00394692414175e-07 3.66990787476692e-08 1.7523325131267e-07
"2322" 57636 1.42984944050525e-08 4.23843031223531e-09 2.49247733891614e-09 1.64918273797324e-08 1.68125091437908e-07 1.00183687851913e-07 3.66804135788792e-08 1.75183495835229e-07
"2323" 57637 1.42906491018724e-08 4.2366790447733e-09 2.4914947450972e-09 1.656578466661e-08 1.68485772030431e-07 9.99726832896509e-08 3.66617484100892e-08 1.75133740357788e-07
"2324" 57638 1.42828037986923e-08 4.23492777731129e-09 2.49051215127826e-09 1.66397419534876e-08 1.68846452622955e-07 9.9761678727389e-08 3.66430832412991e-08 1.75083984880347e-07
"2325" 57639 1.42188344006608e-08 4.23322156226356e-09 2.48431501835187e-09 1.67010164922592e-08 1.69315728808893e-07 9.96992992806454e-08 3.66817124726608e-08 1.75029511667852e-07
"2326" 57640 1.41548650026294e-08 4.23151534721583e-09 2.47811788542547e-09 1.67622910310307e-08 1.69785004994832e-07 9.96369198339018e-08 3.67203417040224e-08 1.74975038455356e-07
"2327" 57641 1.40908956045979e-08 4.2298091321681e-09 2.47192075249908e-09 1.68235655698023e-08 1.7025428118077e-07 9.95745403871582e-08 3.6758970935384e-08 1.74920565242861e-07
"2328" 57642 1.40269262065664e-08 4.22810291712037e-09 2.46572361957269e-09 1.68848401085738e-08 1.70723557366708e-07 9.95121609404146e-08 3.67976001667456e-08 1.74866092030365e-07
"2329" 57643 1.39629568085349e-08 4.22639670207264e-09 2.45952648664629e-09 1.69461146473454e-08 1.71192833552646e-07 9.94497814936711e-08 3.68362293981072e-08 1.7481161881787e-07
"2330" 57644 1.38756654335799e-08 4.22242920334212e-09 2.4533293537199e-09 1.69323916089698e-08 1.71187968887171e-07 9.93902820175339e-08 3.68448808881979e-08 1.74949893265616e-07
"2331" 57645 1.37883740586249e-08 4.2184617046116e-09 2.44713222079351e-09 1.69186685705941e-08 1.71183104221696e-07 9.93307825413968e-08 3.68535323782887e-08 1.75088167713362e-07
"2332" 57646 1.37868758833846e-08 4.18261905879412e-09 2.44713222079351e-09 1.6892249310687e-08 1.71114644888612e-07 9.9201727972365e-08 3.68630998581092e-08 1.7503891299616e-07
"2333" 57647 1.37853777081442e-08 4.14677641297663e-09 2.44713222079351e-09 1.68658300507799e-08 1.71046185555528e-07 9.90726734033332e-08 3.68726673379296e-08 1.74989658278958e-07
"2334" 57648 1.37838795329038e-08 4.11093376715915e-09 2.44713222079351e-09 1.68394107908728e-08 1.70977726222444e-07 9.89436188343014e-08 3.68822348177501e-08 1.74940403561755e-07
"2335" 57649 1.37823813576634e-08 4.07509112134167e-09 2.44713222079351e-09 1.68129915309657e-08 1.7090926688936e-07 9.88145642652696e-08 3.68918022975705e-08 1.74891148844553e-07
"2336" 57650 1.37808831824231e-08 4.03924847552418e-09 2.44713222079351e-09 1.67865722710586e-08 1.70840807556275e-07 9.86855096962377e-08 3.69013697773909e-08 1.74841894127351e-07
"2337" 57651 1.3964160583831e-08 4.0283998010849e-09 2.45340391579729e-09 1.67643850849953e-08 1.70811629283864e-07 9.9133421989173e-08 3.70486220798268e-08 1.75724815683526e-07
"2338" 57652 1.41474379852389e-08 4.01755112664561e-09 2.45967561080107e-09 1.67421978989321e-08 1.70782451011452e-07 9.95813342821082e-08 3.71958743822627e-08 1.766077372397e-07
"2339" 57653 1.43307153866469e-08 4.00670245220632e-09 2.46594730580485e-09 1.67200107128688e-08 1.70753272739041e-07 1.00029246575043e-07 3.73431266846986e-08 1.77490658795874e-07
"2340" 57654 1.45139927880548e-08 3.99585377776704e-09 2.47221900080863e-09 1.66978235268055e-08 1.70724094466629e-07 1.00477158867979e-07 3.74903789871345e-08 1.78373580352049e-07
"2341" 57655 1.46972701894627e-08 3.98500510332775e-09 2.47849069581241e-09 1.66756363407422e-08 1.70694916194217e-07 1.00925071160914e-07 3.76376312895704e-08 1.79256501908223e-07
"2342" 57656 1.48805475908706e-08 3.97415642888846e-09 2.48476239081619e-09 1.66534491546789e-08 1.70665737921806e-07 1.01372983453849e-07 3.77848835920063e-08 1.80139423464398e-07
"2343" 57657 1.50638249922786e-08 3.96330775444918e-09 2.49103408581997e-09 1.66312619686157e-08 1.70636559649394e-07 1.01820895746784e-07 3.79321358944422e-08 1.81022345020572e-07
"2344" 57658 1.52471023936865e-08 3.95245908000989e-09 2.49730578082376e-09 1.66090747825524e-08 1.70607381376983e-07 1.0226880803972e-07 3.80793881968781e-08 1.81905266576746e-07
"2345" 57659 1.54303797950944e-08 3.94161040557061e-09 2.50357747582754e-09 1.65868875964891e-08 1.70578203104571e-07 1.02716720332655e-07 3.8226640499314e-08 1.82788188132921e-07
"2346" 57660 1.56136571965024e-08 3.93076173113132e-09 2.50984917083132e-09 1.65647004104258e-08 1.70549024832159e-07 1.0316463262559e-07 3.83738928017499e-08 1.83671109689095e-07
"2347" 57661 1.57797247415335e-08 3.95550069439913e-09 2.51389884543088e-09 1.65643153541093e-08 1.70575215446088e-07 1.03721456260359e-07 3.85214808242935e-08 1.84458180940044e-07
"2348" 57662 1.59457922865647e-08 3.98023965766694e-09 2.51794852003045e-09 1.65639302977927e-08 1.70601406060016e-07 1.04278279895127e-07 3.86690688468371e-08 1.85245252190993e-07
"2349" 57663 1.61290696879726e-08 4.00126613031462e-09 2.52422021503423e-09 1.65169765920098e-08 1.67533857284163e-07 1.04855246757094e-07 3.88021211665658e-08 1.86186375892921e-07
"2350" 57664 1.63123470893805e-08 4.0222926029623e-09 2.53049191003801e-09 1.64700228862269e-08 1.6446630850831e-07 1.05432213619061e-07 3.89351734862945e-08 1.8712749959485e-07
"2351" 57665 1.64956244907885e-08 4.04331907560998e-09 2.53676360504179e-09 1.64230691804439e-08 1.61398759732458e-07 1.06009180481028e-07 3.90682258060231e-08 1.88068623296778e-07
"2352" 57666 1.66789018921964e-08 4.06434554825766e-09 2.54303530004557e-09 1.6376115474661e-08 1.58331210956605e-07 1.06586147342996e-07 3.92012781257518e-08 1.89009746998706e-07
"2353" 57667 1.68621792936043e-08 4.08537202090535e-09 2.54930699504935e-09 1.6329161768878e-08 1.55263662180752e-07 1.07163114204963e-07 3.93343304454804e-08 1.89950870700635e-07
"2354" 57668 1.68659208999278e-08 4.09366339440889e-09 2.55332684481796e-09 1.62910572670993e-08 1.5254792958657e-07 1.08127071551971e-07 3.93709410724011e-08 1.90035444499363e-07
"2355" 57669 1.68685360009878e-08 4.09195717936116e-09 2.55433926346786e-09 1.62441035613164e-08 1.49440663644831e-07 1.08282457428346e-07 3.93663085695143e-08 1.89859765574948e-07
"2356" 57670 1.68711511020478e-08 4.09025096431343e-09 2.55535168211775e-09 1.61971498555334e-08 1.46333397703092e-07 1.08437843304721e-07 3.93616760666275e-08 1.89684086650533e-07
"2357" 57671 1.68737662031078e-08 4.0885447492657e-09 2.55636410076764e-09 1.61501961497505e-08 1.43226131761353e-07 1.08593229181096e-07 3.93570435637407e-08 1.89508407726118e-07
"2358" 57672 1.68763813041679e-08 4.08683853421797e-09 2.55737651941753e-09 1.61032424439676e-08 1.40118865819614e-07 1.08748615057471e-07 3.93524110608539e-08 1.89332728801703e-07
"2359" 57673 1.68789964052279e-08 4.08513231917024e-09 2.55838893806742e-09 1.60562887381846e-08 1.37011599877874e-07 1.08904000933846e-07 3.93477785579671e-08 1.89157049877288e-07
"2360" 57674 1.68816115062879e-08 4.08342610412251e-09 2.55940135671731e-09 1.60093350324017e-08 1.33904333936135e-07 1.09059386810221e-07 3.93431460550804e-08 1.88981370952873e-07
"2361" 57675 1.67570349830164e-08 4.07350735729622e-09 2.5564535752605e-09 1.59536165088055e-08 1.32772371744665e-07 1.09212243613917e-07 3.93498121867911e-08 1.88155953959893e-07
"2362" 57676 1.66324584597449e-08 4.06358861046993e-09 2.55350579380369e-09 1.58978979852093e-08 1.31640409553196e-07 1.09365100417613e-07 3.93564783185018e-08 1.87330536966914e-07
"2363" 57677 1.65078819364733e-08 4.05366986364364e-09 2.55055801234688e-09 1.5842179461613e-08 1.30508447361726e-07 1.0951795722131e-07 3.93631444502125e-08 1.86505119973934e-07
"2364" 57678 1.63833054132018e-08 4.04375111681735e-09 2.54761023089007e-09 1.57864609380168e-08 1.29376485170256e-07 1.09670814025006e-07 3.93698105819232e-08 1.85679702980955e-07
"2365" 57679 1.62587288899303e-08 4.03383236999106e-09 2.54466244943327e-09 1.57307424144206e-08 1.28244522978786e-07 1.09823670828702e-07 3.93764767136339e-08 1.84854285987976e-07
"2366" 57680 1.61341523666588e-08 4.02391362316477e-09 2.54171466797646e-09 1.56750238908244e-08 1.27112560787316e-07 1.09976527632398e-07 3.93831428453447e-08 1.84028868994996e-07
"2367" 57681 1.60095758433873e-08 4.01399487633848e-09 2.53876688651965e-09 1.56193053672281e-08 1.25980598595846e-07 1.10129384436095e-07 3.93898089770554e-08 1.83203452002017e-07
"2368" 57682 1.58849993201158e-08 4.00407612951219e-09 2.53581910506284e-09 1.55635868436319e-08 1.24848636404376e-07 1.10282241239791e-07 3.93964751087661e-08 1.82378035009037e-07
"2369" 57683 1.57604227968442e-08 3.99415738268589e-09 2.53287132360603e-09 1.55078683200357e-08 1.23716674212906e-07 1.10435098043487e-07 3.94031412404768e-08 1.81552618016058e-07
"2370" 57684 1.57458280415275e-08 3.98740732094825e-09 2.53287132360603e-09 1.5512228745985e-08 1.23709506155665e-07 1.10267417701646e-07 3.93199116782304e-08 1.81529947175905e-07
"2371" 57685 1.57312332862107e-08 3.9806572592106e-09 2.53287132360603e-09 1.55165891719344e-08 1.23702338098424e-07 1.10099737359805e-07 3.92366821159841e-08 1.81507276335753e-07
"2372" 57686 1.5716638530894e-08 3.97390719747295e-09 2.53287132360603e-09 1.55209495978837e-08 1.23695170041183e-07 1.09932057017964e-07 3.91534525537377e-08 1.814846054956e-07
"2373" 57687 1.57020437755773e-08 3.9671571357353e-09 2.53287132360603e-09 1.55253100238331e-08 1.23688001983942e-07 1.09764376676123e-07 3.90702229914913e-08 1.81461934655448e-07
"2374" 57688 1.56874490202605e-08 3.96040707399765e-09 2.53287132360603e-09 1.55296704497824e-08 1.23680833926701e-07 1.09596696334282e-07 3.89869934292449e-08 1.81439263815296e-07
"2375" 57689 1.56728542649438e-08 3.95765830030123e-09 2.53185890495614e-09 1.55297988018879e-08 1.23680833926701e-07 1.09544443118482e-07 3.88955199594315e-08 1.81470588857641e-07
"2376" 57690 1.56593860148904e-08 3.94889069988761e-09 2.53108840665711e-09 1.55293428328059e-08 1.23684578220245e-07 1.0921412401311e-07 3.88133501117467e-08 1.81518698113893e-07
"2377" 57691 1.56459177648371e-08 3.94012309947399e-09 2.53031790835808e-09 1.55288868637239e-08 1.23688322513789e-07 1.08883804907739e-07 3.87311802640619e-08 1.81566807370144e-07
"2378" 57692 1.56324495147837e-08 3.93135549906038e-09 2.52954741005906e-09 1.55284308946418e-08 1.23692066807333e-07 1.08553485802368e-07 3.86490104163772e-08 1.81614916626396e-07
"2379" 57693 1.56189812647304e-08 3.92258789864676e-09 2.52877691176003e-09 1.55279749255598e-08 1.23695811100877e-07 1.08223166696997e-07 3.85668405686924e-08 1.81663025882647e-07
"2380" 57694 1.56055130146771e-08 3.91382029823315e-09 2.528006413461e-09 1.55275189564778e-08 1.23699555394421e-07 1.07892847591626e-07 3.84846707210076e-08 1.81711135138899e-07
"2381" 57695 1.55920447646237e-08 3.90505269781953e-09 2.52723591516198e-09 1.55270629873957e-08 1.23703299687965e-07 1.07562528486254e-07 3.84025008733229e-08 1.8175924439515e-07
"2382" 57696 1.55785765145704e-08 3.89628509740591e-09 2.52646541686295e-09 1.55266070183137e-08 1.23707043981509e-07 1.07232209380883e-07 3.83203310256381e-08 1.81807353651402e-07
"2383" 57697 1.5565108264517e-08 3.8875174969923e-09 2.52569491856392e-09 1.55261510492317e-08 1.23710788275053e-07 1.06901890275512e-07 3.82381611779533e-08 1.81855462907654e-07
"2384" 57698 1.55638661714459e-08 3.88374869085432e-09 2.52197663880809e-09 1.54866921136323e-08 1.23138174059366e-07 1.05362641034351e-07 3.82092431512441e-08 1.81915281147039e-07
"2385" 57699 1.55626240783748e-08 3.87997988471634e-09 2.51825835905225e-09 1.54472331780329e-08 1.22565559843679e-07 1.0382339179319e-07 3.81803251245348e-08 1.81975099386424e-07
"2386" 57700 1.55613819853036e-08 3.87621107857837e-09 2.51454007929641e-09 1.54077742424335e-08 1.21992945627991e-07 1.0228414255203e-07 3.81514070978256e-08 1.8203491762581e-07
"2387" 57701 1.55601398922325e-08 3.87244227244039e-09 2.51082179954058e-09 1.53683153068341e-08 1.21420331412304e-07 1.00744893310869e-07 3.81224890711164e-08 1.82094735865195e-07
"2388" 57702 1.55588977991613e-08 3.86867346630241e-09 2.50710351978474e-09 1.53288563712347e-08 1.20847717196617e-07 9.92056440697079e-08 3.80935710444072e-08 1.8215455410458e-07
"2389" 57703 1.56100152039532e-08 3.91361756236889e-09 2.5121656130342e-09 1.52893974356353e-08 1.2037024439073e-07 9.99365799627018e-08 3.85219238258775e-08 1.8244365551336e-07
"2390" 57704 1.5661132608745e-08 3.95856165843537e-09 2.51722770628366e-09 1.52499385000359e-08 1.19892771584842e-07 1.00667515855696e-07 3.89502766073477e-08 1.82732756922139e-07
"2391" 57705 1.57122500135369e-08 4.00350575450184e-09 2.52228979953311e-09 1.52104795644365e-08 1.19415298778955e-07 1.0139845174869e-07 3.9378629388818e-08 1.83021858330919e-07
"2392" 57706 1.57633674183287e-08 4.04844985056832e-09 2.52735189278257e-09 1.51710206288372e-08 1.18937825973067e-07 1.02129387641683e-07 3.98069821702883e-08 1.83310959739698e-07
"2393" 57707 1.58144848231205e-08 4.0933939466348e-09 2.53241398603203e-09 1.51315616932378e-08 1.1846035316718e-07 1.02860323534677e-07 4.02353349517586e-08 1.83600061148478e-07
"2394" 57708 1.58656022279124e-08 4.13833804270128e-09 2.53747607928149e-09 1.50921027576384e-08 1.17982880361292e-07 1.03591259427671e-07 4.06636877332289e-08 1.83889162557257e-07
"2395" 57709 1.59167196327042e-08 4.18328213876775e-09 2.54253817253094e-09 1.5052643822039e-08 1.17505407555405e-07 1.04322195320665e-07 4.10920405146992e-08 1.84178263966037e-07
"2396" 57710 1.59098641722035e-08 4.18328213876775e-09 2.53881989277511e-09 1.50234019976899e-08 1.16931978916973e-07 1.02810342193858e-07 4.10524952936079e-08 1.84312537677286e-07
"2397" 57711 1.59030087117029e-08 4.18328213876775e-09 2.53510161301927e-09 1.49941601733408e-08 1.16358550278542e-07 1.01298489067051e-07 4.10129500725166e-08 1.84446811388534e-07
"2398" 57712 1.58961532512022e-08 4.18328213876775e-09 2.53138333326343e-09 1.49649183489917e-08 1.1578512164011e-07 9.97866359402436e-08 4.09734048514253e-08 1.84581085099783e-07
"2399" 57713 1.58892977907016e-08 4.18328213876775e-09 2.5276650535076e-09 1.49356765246427e-08 1.15211693001679e-07 9.82747828134364e-08 4.0933859630334e-08 1.84715358811031e-07
"2400" 57714 1.58824423302009e-08 4.18328213876775e-09 2.52394677375176e-09 1.49064347002936e-08 1.14638264363248e-07 9.67629296866293e-08 4.08943144092428e-08 1.8484963252228e-07
"2401" 57715 1.58755868697003e-08 4.18328213876775e-09 2.52022849399593e-09 1.48771928759445e-08 1.14064835724816e-07 9.52510765598221e-08 4.08547691881515e-08 1.84983906233529e-07
"2402" 57716 1.58687314091996e-08 4.18328213876775e-09 2.51651021424009e-09 1.48479510515954e-08 1.13491407086385e-07 9.37392234330149e-08 4.08152239670602e-08 1.85118179944777e-07
"2403" 57717 1.5861875948699e-08 4.18328213876775e-09 2.51279193448425e-09 1.48187092272463e-08 1.12917978447954e-07 9.22273703062078e-08 4.07756787459689e-08 1.85252453656026e-07
"2404" 57718 1.58550204881983e-08 4.18328213876775e-09 2.50907365472842e-09 1.47894674028973e-08 1.12344549809522e-07 9.07155171794006e-08 4.07361335248776e-08 1.85386727367275e-07
"2405" 57719 1.58505336260322e-08 4.18332719118203e-09 2.50905874231294e-09 1.47919465131784e-08 1.12153908113272e-07 9.06984889592302e-08 4.07332321767679e-08 1.85483010149137e-07
"2406" 57720 1.58460467638661e-08 4.18337224359631e-09 2.50904382989746e-09 1.47944256234596e-08 1.11963266417022e-07 9.06814607390597e-08 4.07303308286582e-08 1.85579292930999e-07
"2407" 57721 1.5753661849375e-08 4.15140699168078e-09 2.50526590047972e-09 1.47721956533612e-08 1.11965507160885e-07 9.03937121841147e-08 4.02107888297434e-08 1.83197851904812e-07
"2408" 57722 1.5661276934884e-08 4.11944173976526e-09 2.50148797106197e-09 1.47499656832627e-08 1.11967747904747e-07 9.01059636291696e-08 3.96912468308287e-08 1.80816410878626e-07
"2409" 57723 1.5568892020393e-08 4.08747648784973e-09 2.49771004164422e-09 1.47277357131642e-08 1.1196998864861e-07 8.98182150742245e-08 3.9171704831914e-08 1.78434969852439e-07
"2410" 57724 1.5476507105902e-08 4.05551123593421e-09 2.49393211222648e-09 1.47055057430658e-08 1.11972229392472e-07 8.95304665192795e-08 3.86521628329992e-08 1.76053528826253e-07
"2411" 57725 1.5384122191411e-08 4.02354598401868e-09 2.49015418280873e-09 1.46832757729673e-08 1.11974470136335e-07 8.92427179643344e-08 3.81326208340845e-08 1.73672087800066e-07
"2412" 57726 1.53086910511275e-08 3.98857695029634e-09 2.48714675169001e-09 1.46778322727132e-08 1.122159992312e-07 8.90431747835403e-08 3.7627278817877e-08 1.71141290634835e-07
"2413" 57727 1.5233259910844e-08 3.95360791657401e-09 2.48413932057129e-09 1.46723887724591e-08 1.12457528326065e-07 8.88436316027461e-08 3.71219368016694e-08 1.68610493469604e-07
"2414" 57728 1.5142746757459e-08 3.92383636971985e-09 2.48113188945257e-09 1.46501588023607e-08 1.12468190085236e-07 8.854632949757e-08 3.67415898226051e-08 1.66076530393591e-07
"2415" 57729 1.50522336040741e-08 3.89406482286569e-09 2.47812445833385e-09 1.46279288322622e-08 1.12478851844408e-07 8.8249027392394e-08 3.63612428435407e-08 1.63542567317578e-07
"2416" 57730 1.49617204506892e-08 3.86429327601153e-09 2.47511702721513e-09 1.46056988621638e-08 1.12489513603579e-07 8.79517252872179e-08 3.59808958644764e-08 1.61008604241564e-07
"2417" 57731 1.48712072973042e-08 3.83452172915737e-09 2.47210959609642e-09 1.45834688920653e-08 1.12500175362751e-07 8.76544231820418e-08 3.5600548885412e-08 1.58474641165551e-07
"2418" 57732 1.47806941439193e-08 3.80475018230322e-09 2.4691021649777e-09 1.45612389219669e-08 1.12510837121922e-07 8.73571210768657e-08 3.52202019063477e-08 1.55940678089538e-07
"2419" 57733 1.46901809905344e-08 3.77497863544906e-09 2.46609473385898e-09 1.45390089518684e-08 1.12521498881094e-07 8.70598189716897e-08 3.48398549272833e-08 1.53406715013524e-07
"2420" 57734 1.45996678371494e-08 3.7452070885949e-09 2.46308730274026e-09 1.451677898177e-08 1.12532160640265e-07 8.67625168665136e-08 3.4459507948219e-08 1.50872751937511e-07
"2421" 57735 1.45091546837645e-08 3.71543554174074e-09 2.46007987162154e-09 1.44945490116715e-08 1.12542822399437e-07 8.64652147613375e-08 3.40791609691546e-08 1.48338788861498e-07
"2422" 57736 1.44186415303796e-08 3.68566399488658e-09 2.45707244050282e-09 1.44723190415731e-08 1.12553484158608e-07 8.61679126561615e-08 3.36988139900903e-08 1.45804825785484e-07
"2423" 57737 1.43281283769946e-08 3.65589244803242e-09 2.4540650093841e-09 1.44500890714746e-08 1.1256414591778e-07 8.58706105509854e-08 3.33184670110259e-08 1.43270862709471e-07
"2424" 57738 1.42376152236097e-08 3.62612090117826e-09 2.45105757826538e-09 1.44278591013762e-08 1.12574807676952e-07 8.55733084458093e-08 3.29381200319616e-08 1.40736899633458e-07
"2425" 57739 1.41471020702248e-08 3.59634935432411e-09 2.44805014714666e-09 1.44056291312777e-08 1.12585469436123e-07 8.52760063406332e-08 3.25577730528972e-08 1.38202936557445e-07
"2426" 57740 1.40565889168398e-08 3.56657780746995e-09 2.44504271602794e-09 1.43833991611793e-08 1.12596131195295e-07 8.49787042354572e-08 3.21774260738329e-08 1.35668973481431e-07
"2427" 57741 1.39660757634549e-08 3.53680626061579e-09 2.44203528490922e-09 1.43611691910808e-08 1.12606792954466e-07 8.46814021302811e-08 3.17970790947685e-08 1.33135010405418e-07
"2428" 57742 1.39466301395501e-08 3.54301251682195e-09 2.4408256831549e-09 1.43685221357334e-08 1.11484892239388e-07 8.449829243549e-08 3.19362741146189e-08 1.32120283466218e-07
"2429" 57743 1.39402696003891e-08 3.5452512742976e-09 2.43787790169809e-09 1.43257284091494e-08 1.11155105713767e-07 8.44895499158019e-08 3.20758863710817e-08 1.31975732761828e-07
"2430" 57744 1.39339090612282e-08 3.54749003177325e-09 2.43493012024128e-09 1.42829346825654e-08 1.10825319188146e-07 8.44808073961138e-08 3.22154986275446e-08 1.31831182057439e-07
"2431" 57745 1.39275485220672e-08 3.54972878924889e-09 2.43198233878447e-09 1.42401409559814e-08 1.10495532662525e-07 8.44720648764256e-08 3.23551108840075e-08 1.31686631353049e-07
"2432" 57746 1.39342826470939e-08 3.54576129051838e-09 2.43028889632842e-09 1.42007957171826e-08 1.10946808099111e-07 8.52388668869477e-08 3.25745139851347e-08 1.32722209519133e-07
"2433" 57747 1.39260503468269e-08 3.54204879989825e-09 2.42632869622172e-09 1.41509485341922e-08 1.10605670687381e-07 8.5217002304204e-08 3.26028420881332e-08 1.32845198019446e-07
"2434" 57748 1.39178180465598e-08 3.53833630927812e-09 2.42236849611501e-09 1.41011013512019e-08 1.10264533275651e-07 8.51951377214603e-08 3.26311701911317e-08 1.32968186519759e-07
"2435" 57749 1.39095857462928e-08 3.53462381865799e-09 2.41840829600831e-09 1.40512541682115e-08 1.09923395863922e-07 8.51732731387166e-08 3.26594982941302e-08 1.33091175020072e-07
"2436" 57750 1.39013534460257e-08 3.53091132803786e-09 2.41444809590161e-09 1.40014069852211e-08 1.09582258452192e-07 8.51514085559729e-08 3.26878263971287e-08 1.33214163520386e-07
"2437" 57751 1.38931211457587e-08 3.52719883741774e-09 2.41048789579491e-09 1.39515598022307e-08 1.09241121040462e-07 8.51295439732292e-08 3.27161545001272e-08 1.33337152020699e-07
"2438" 57752 1.38848888454916e-08 3.52348634679761e-09 2.40652769568821e-09 1.39017126192403e-08 1.08899983628733e-07 8.51076793904855e-08 3.27444826031257e-08 1.33460140521012e-07
"2439" 57753 1.38766565452246e-08 3.51977385617748e-09 2.40256749558151e-09 1.38518654362499e-08 1.08558846217003e-07 8.50858148077418e-08 3.27728107061242e-08 1.33583129021325e-07
"2440" 57754 1.38684242449576e-08 3.51606136555735e-09 2.39860729547481e-09 1.38020182532595e-08 1.08217708805273e-07 8.50639502249982e-08 3.28011388091228e-08 1.33706117521638e-07
"2441" 57755 1.38601919446905e-08 3.51234887493722e-09 2.39464709536811e-09 1.37521710702691e-08 1.07876571393543e-07 8.50420856422545e-08 3.28294669121213e-08 1.33829106021952e-07
"2442" 57756 1.38504691327381e-08 3.50859133190282e-09 2.36963487743037e-09 1.37035646242987e-08 1.07787723400447e-07 8.44625863941993e-08 3.28498246193332e-08 1.3404040595869e-07
"2443" 57757 1.38267735699489e-08 3.50661884564113e-09 2.36862245878048e-09 1.36891154392046e-08 1.07667266017257e-07 8.43992800554068e-08 3.28768194959896e-08 1.34155423113566e-07
"2444" 57758 1.38030780071597e-08 3.50464635937944e-09 2.36761004013059e-09 1.36746662541105e-08 1.07546808634067e-07 8.43359737166142e-08 3.2903814372646e-08 1.34270440268442e-07
"2445" 57759 1.37793824443705e-08 3.50267387311775e-09 2.3665976214807e-09 1.36602170690163e-08 1.07426351250876e-07 8.42726673778216e-08 3.29308092493023e-08 1.34385457423318e-07
"2446" 57760 1.37601737437474e-08 3.50267387311775e-09 2.36558520283081e-09 1.36430601981603e-08 1.07305893867686e-07 8.42811848013161e-08 3.30163116195926e-08 1.34350555416674e-07
"2447" 57761 1.37409650431243e-08 3.50267387311775e-09 2.36457278418091e-09 1.36259033273043e-08 1.07185436484495e-07 8.42897022248107e-08 3.31018139898829e-08 1.34315653410029e-07
"2448" 57762 1.37217563425012e-08 3.50267387311775e-09 2.36356036553102e-09 1.36087464564482e-08 1.07064979101305e-07 8.42982196483053e-08 3.31873163601732e-08 1.34280751403384e-07
"2449" 57763 1.37025476418781e-08 3.50267387311775e-09 2.36254794688113e-09 1.35915895855922e-08 1.06944521718115e-07 8.43067370717998e-08 3.32728187304635e-08 1.3424584939674e-07
"2450" 57764 1.3683338941255e-08 3.50267387311775e-09 2.36153552823124e-09 1.35744327147361e-08 1.06824064334924e-07 8.43152544952944e-08 3.33583211007538e-08 1.34210947390095e-07
"2451" 57765 1.36641302406319e-08 3.50267387311775e-09 2.36052310958135e-09 1.35572758438801e-08 1.06703606951734e-07 8.4323771918789e-08 3.34438234710441e-08 1.34176045383451e-07
"2452" 57766 1.36404346778427e-08 3.50945772416611e-09 2.36578238593524e-09 1.35444793989734e-08 1.06662458604509e-07 8.51064115407368e-08 3.44851953013005e-08 1.34051573342467e-07
"2453" 57767 1.36866973822689e-08 3.53734284631542e-09 2.36873016739205e-09 1.35269093430705e-08 1.0655228709307e-07 8.52841088788333e-08 3.45973621984336e-08 1.3511375680872e-07
"2454" 57768 1.37329600866952e-08 3.56522796846473e-09 2.37167794884886e-09 1.35093392871676e-08 1.06442115581631e-07 8.54618062169299e-08 3.47095290955668e-08 1.36175940274974e-07
"2455" 57769 1.37792227911215e-08 3.59311309061405e-09 2.37462573030567e-09 1.34917692312647e-08 1.06331944070191e-07 8.56395035550264e-08 3.48216959926999e-08 1.37238123741227e-07
"2456" 57770 1.38254854955477e-08 3.62099821276336e-09 2.37757351176248e-09 1.34741991753618e-08 1.06221772558752e-07 8.58172008931229e-08 3.49338628898331e-08 1.3830030720748e-07
"2457" 57771 1.3871748199974e-08 3.64888333491267e-09 2.38052129321929e-09 1.34566291194589e-08 1.06111601047313e-07 8.59948982312194e-08 3.50460297869662e-08 1.39362490673734e-07
"2458" 57772 1.39180109044002e-08 3.67676845706198e-09 2.38346907467610e-09 1.3439059063556e-08 1.06001429535874e-07 8.61725955693159e-08 3.51581966840994e-08 1.40424674139987e-07
"2459" 57773 1.39642736088265e-08 3.70465357921129e-09 2.3864168561329e-09 1.34214890076531e-08 1.05891258024434e-07 8.63502929074124e-08 3.52703635812326e-08 1.4148685760624e-07
"2460" 57774 1.40105363132528e-08 3.73253870136061e-09 2.38936463758971e-09 1.34039189517502e-08 1.05781086512995e-07 8.65279902455089e-08 3.53825304783657e-08 1.42549041072493e-07
"2461" 57775 1.4056799017679e-08 3.76042382350992e-09 2.39231241904652e-09 1.33863488958474e-08 1.05670915001556e-07 8.67056875836055e-08 3.54946973754989e-08 1.43611224538747e-07
"2462" 57776 1.41030617221053e-08 3.78830894565923e-09 2.39526020050333e-09 1.33687788399445e-08 1.05560743490117e-07 8.6883384921702e-08 3.5606864272632e-08 1.44673408005e-07
"2463" 57777 1.41493244265316e-08 3.81619406780854e-09 2.39820798196014e-09 1.33512087840416e-08 1.05450571978677e-07 8.70610822597985e-08 3.57190311697652e-08 1.45735591471253e-07
"2464" 57778 1.42157895060378e-08 3.84229413318514e-09 2.40118558824791e-09 1.33480879132328e-08 1.05316833774923e-07 8.72479955038357e-08 3.57576078468884e-08 1.46772013167491e-07
"2465" 57779 1.42205286185957e-08 3.83852532704716e-09 2.40242501483319e-09 1.33783553725466e-08 1.05175739570217e-07 8.73783344896628e-08 3.57147054247198e-08 1.46611977686226e-07
"2466" 57780 1.42217745434443e-08 3.83256281584781e-09 2.39349219596989e-09 1.33783553725466e-08 1.06023846159982e-07 8.77011855519133e-08 3.56508553716285e-08 1.46746022440475e-07
"2467" 57781 1.4223020468293e-08 3.82660030464847e-09 2.3845593771066e-09 1.33783553725466e-08 1.06871952749748e-07 8.80240366141637e-08 3.55870053185373e-08 1.46880067194724e-07
"2468" 57782 1.42242663931416e-08 3.82063779344913e-09 2.37562655824331e-09 1.33783553725466e-08 1.07720059339514e-07 8.83468876764141e-08 3.5523155265446e-08 1.47014111948973e-07
"2469" 57783 1.42255123179902e-08 3.81467528224978e-09 2.36669373938001e-09 1.33783553725466e-08 1.08568165929279e-07 8.86697387386645e-08 3.54593052123547e-08 1.47148156703222e-07
"2470" 57784 1.42267582428389e-08 3.80871277105044e-09 2.35776092051672e-09 1.33783553725466e-08 1.09416272519045e-07 8.89925898009149e-08 3.53954551592634e-08 1.47282201457471e-07
"2471" 57785 1.42280041676875e-08 3.80275025985109e-09 2.34882810165343e-09 1.33783553725466e-08 1.10264379108811e-07 8.93154408631653e-08 3.53316051061722e-08 1.4741624621172e-07
"2472" 57786 1.42292500925362e-08 3.79678774865175e-09 2.33989528279013e-09 1.33783553725466e-08 1.11112485698577e-07 8.96382919254158e-08 3.52677550530809e-08 1.47550290965969e-07
"2473" 57787 1.42304960173848e-08 3.7908252374524e-09 2.33096246392684e-09 1.33783553725466e-08 1.11960592288342e-07 8.99611429876662e-08 3.52039049999896e-08 1.47684335720218e-07
"2474" 57788 1.42317419422334e-08 3.78486272625306e-09 2.32202964506355e-09 1.33783553725466e-08 1.12808698878108e-07 9.02839940499166e-08 3.51400549468984e-08 1.47818380474467e-07
"2475" 57789 1.42329878670821e-08 3.77890021505372e-09 2.31309682620025e-09 1.33783553725466e-08 1.13656805467874e-07 9.0606845112167e-08 3.50762048938071e-08 1.47952425228716e-07
"2476" 57790 1.42342337919307e-08 3.77293770385437e-09 2.30416400733696e-09 1.33783553725466e-08 1.14504912057639e-07 9.09296961744174e-08 3.50123548407158e-08 1.48086469982964e-07
"2477" 57791 1.42354797167794e-08 3.76697519265503e-09 2.29523118847367e-09 1.33783553725466e-08 1.15353018647405e-07 9.12525472366679e-08 3.49485047876246e-08 1.48220514737213e-07
"2478" 57792 1.4236725641628e-08 3.76101268145568e-09 2.28629836961037e-09 1.33783553725466e-08 1.16201125237171e-07 9.15753982989183e-08 3.48846547345333e-08 1.48354559491462e-07
"2479" 57793 1.42379715664767e-08 3.75505017025634e-09 2.27736555074708e-09 1.33783553725466e-08 1.17049231826937e-07 9.18982493611687e-08 3.4820804681442e-08 1.48488604245711e-07
"2480" 57794 1.42392174913253e-08 3.74908765905699e-09 2.26843273188379e-09 1.33783553725466e-08 1.17897338416702e-07 9.22211004234191e-08 3.47569546283508e-08 1.4862264899996e-07
"2481" 57795 1.42404634161739e-08 3.74312514785765e-09 2.25949991302049e-09 1.33783553725466e-08 1.18745445006468e-07 9.25439514856695e-08 3.46931045752595e-08 1.48756693754209e-07
"2482" 57796 1.42417093410226e-08 3.73716263665831e-09 2.2505670941572e-09 1.33783553725466e-08 1.19593551596234e-07 9.286680254792e-08 3.46292545221682e-08 1.48890738508458e-07
"2483" 57797 1.42429552658712e-08 3.73120012545896e-09 2.24163427529391e-09 1.33783553725466e-08 1.20441658185999e-07 9.31896536101704e-08 3.4565404469077e-08 1.49024783262707e-07
"2484" 57798 1.42442011907199e-08 3.72523761425962e-09 2.23270145643061e-09 1.33783553725466e-08 1.21289764775765e-07 9.35125046724208e-08 3.45015544159857e-08 1.49158828016956e-07
"2485" 57799 1.42454471155685e-08 3.71927510306027e-09 2.22376863756732e-09 1.33783553725466e-08 1.22137871365531e-07 9.38353557346712e-08 3.44377043628944e-08 1.49292872771205e-07
"2486" 57800 1.40405694245379e-08 3.6774474198363e-09 2.22275621891743e-09 1.34113305176223e-08 1.23032364425307e-07 9.43734463607708e-08 3.44466004024994e-08 1.49318981325378e-07
"2487" 57801 1.39676339657292e-08 3.67546367047105e-09 2.20262382354019e-09 1.34177580506854e-08 1.22697474258191e-07 9.49067006242972e-08 3.42011849065673e-08 1.47792358288724e-07
"2488" 57802 1.39405914572586e-08 3.67720367482949e-09 2.18249142816296e-09 1.33907544695907e-08 1.2150511676745e-07 9.49759920004962e-08 3.38766113898311e-08 1.46288810448422e-07
"2489" 57803 1.38708969357673e-08 3.6772374641402e-09 2.16863072778951e-09 1.34021402232161e-08 1.20850870683151e-07 9.49819737244934e-08 3.35757045109404e-08 1.4513299863929e-07
"2490" 57804 1.38012024142761e-08 3.6772712534509e-09 2.15477002741605e-09 1.34135259768415e-08 1.20196624598852e-07 9.49879554484905e-08 3.32747976320496e-08 1.43977186830158e-07
"2491" 57805 1.37315078927849e-08 3.67730504276161e-09 2.1409093270426e-09 1.3424911730467e-08 1.19542378514554e-07 9.49939371724877e-08 3.29738907531589e-08 1.42821375021026e-07
"2492" 57806 1.36618133712936e-08 3.67733883207232e-09 2.12704862666915e-09 1.34362974840924e-08 1.18888132430255e-07 9.49999188964848e-08 3.26729838742682e-08 1.41665563211894e-07
"2493" 57807 1.35921188498024e-08 3.67737262138303e-09 2.11318792629569e-09 1.34476832377178e-08 1.18233886345956e-07 9.5005900620482e-08 3.23720769953774e-08 1.40509751402762e-07
"2494" 57808 1.35224243283112e-08 3.67740641069374e-09 2.09932722592224e-09 1.34590689913432e-08 1.17579640261658e-07 9.50118823444791e-08 3.20711701164867e-08 1.39353939593631e-07
"2495" 57809 1.34527298068199e-08 3.67744020000445e-09 2.08546652554879e-09 1.34704547449686e-08 1.16925394177359e-07 9.50178640684763e-08 3.17702632375959e-08 1.38198127784499e-07
"2496" 57810 1.33830352853287e-08 3.67747398931516e-09 2.07160582517534e-09 1.3481840498594e-08 1.1627114809306e-07 9.50238457924734e-08 3.14693563587052e-08 1.37042315975367e-07
"2497" 57811 1.33133407638375e-08 3.67750777862587e-09 2.05774512480188e-09 1.34932262522195e-08 1.15616902008761e-07 9.50298275164706e-08 3.11684494798144e-08 1.35886504166235e-07
"2498" 57812 1.32436462423462e-08 3.67754156793658e-09 2.04388442442843e-09 1.35046120058449e-08 1.14962655924463e-07 9.50358092404677e-08 3.08675426009237e-08 1.34730692357103e-07
"2499" 57813 1.3173951720855e-08 3.67757535724729e-09 2.03002372405498e-09 1.35159977594703e-08 1.14308409840164e-07 9.50417909644649e-08 3.0566635722033e-08 1.33574880547971e-07
"2500" 57814 1.31042571993638e-08 3.677609146558e-09 2.01616302368152e-09 1.35273835130957e-08 1.13654163755865e-07 9.5047772688462e-08 3.02657288431422e-08 1.32419068738839e-07
"2501" 57815 1.31031306941004e-08 3.67961542213040e-09 2.02217788591896e-09 1.35580348468466e-08 1.14230240617009e-07 9.50541792379816e-08 3.0279439726821e-08 1.32937065693737e-07
"2502" 57816 1.29381551683351e-08 3.70985193279105e-09 2.01590619091518e-09 1.35763750153826e-08 1.14533349926134e-07 9.51853998685371e-08 3.02661653879322e-08 1.32766365596056e-07
"2503" 57817 1.27731796425698e-08 3.74008844345171e-09 2.0096344959114e-09 1.35947151839186e-08 1.1483645923526e-07 9.53166204990926e-08 3.02528910490434e-08 1.32595665498375e-07
"2504" 57818 1.26082041168045e-08 3.77032495411236e-09 2.00336280090762e-09 1.36130553524546e-08 1.15139568544385e-07 9.54478411296481e-08 3.02396167101547e-08 1.32424965400694e-07
"2505" 57819 1.24432285910392e-08 3.80056146477302e-09 1.99709110590384e-09 1.36313955209907e-08 1.1544267785351e-07 9.55790617602035e-08 3.02263423712659e-08 1.32254265303012e-07
"2506" 57820 1.22782530652739e-08 3.83079797543368e-09 1.99081941090006e-09 1.36497356895267e-08 1.15745787162635e-07 9.5710282390759e-08 3.02130680323771e-08 1.32083565205331e-07
"2507" 57821 1.21132775395087e-08 3.86103448609433e-09 1.98454771589628e-09 1.36680758580627e-08 1.1604889647176e-07 9.58415030213145e-08 3.01997936934883e-08 1.3191286510765e-07
"2508" 57822 1.19483020137434e-08 3.89127099675499e-09 1.97827602089249e-09 1.36864160265987e-08 1.16352005780885e-07 9.597272365187e-08 3.01865193545995e-08 1.31742165009968e-07
"2509" 57823 1.17833264879781e-08 3.92150750741564e-09 1.97200432588871e-09 1.37047561951347e-08 1.1665511509001e-07 9.61039442824255e-08 3.01732450157107e-08 1.31571464912287e-07
"2510" 57824 1.16262096766141e-08 3.92176251552603e-09 1.96598946365128e-09 1.37047561951347e-08 1.16646829090948e-07 9.63545048229549e-08 3.03142001526045e-08 1.31086646754804e-07
"2511" 57825 1.14690928652502e-08 3.92201752363642e-09 1.95997460141384e-09 1.37047561951347e-08 1.16638543091886e-07 9.66050653634844e-08 3.04551552894983e-08 1.30601828597321e-07
"2512" 57826 1.13119760538862e-08 3.92227253174681e-09 1.9539597391764e-09 1.37047561951347e-08 1.16630257092823e-07 9.68556259040138e-08 3.0596110426392e-08 1.30117010439838e-07
"2513" 57827 1.11548592425223e-08 3.9225275398572e-09 1.94794487693896e-09 1.37047561951347e-08 1.16621971093761e-07 9.71061864445432e-08 3.07370655632858e-08 1.29632192282354e-07
"2514" 57828 1.09977424311583e-08 3.92278254796759e-09 1.94193001470152e-09 1.37047561951347e-08 1.16613685094698e-07 9.73567469850727e-08 3.08780207001796e-08 1.29147374124871e-07
"2515" 57829 1.08406256197944e-08 3.92303755607797e-09 1.93591515246408e-09 1.37047561951347e-08 1.16605399095636e-07 9.76073075256021e-08 3.10189758370734e-08 1.28662555967388e-07
"2516" 57830 1.06835088084304e-08 3.92329256418836e-09 1.92990029022664e-09 1.37047561951347e-08 1.16597113096574e-07 9.78578680661316e-08 3.11599309739671e-08 1.28177737809905e-07
"2517" 57831 1.05263919970664e-08 3.92354757229875e-09 1.9238854279892e-09 1.37047561951347e-08 1.16588827097511e-07 9.8108428606661e-08 3.13008861108609e-08 1.27692919652422e-07
"2518" 57832 1.03692751857025e-08 3.92380258040914e-09 1.91787056575176e-09 1.37047561951347e-08 1.16580541098449e-07 9.83589891471905e-08 3.14418412477547e-08 1.27208101494939e-07
"2519" 57833 1.02121583743385e-08 3.92405758851953e-09 1.91185570351433e-09 1.37047561951347e-08 1.16572255099387e-07 9.86095496877199e-08 3.15827963846485e-08 1.26723283337456e-07
"2520" 57834 1.00550415629746e-08 3.92431259662992e-09 1.90584084127689e-09 1.37047561951347e-08 1.16563969100324e-07 9.88601102282494e-08 3.17237515215423e-08 1.26238465179972e-07
"2521" 57835 9.8979247516106e-09 3.9245676047403e-09 1.89982597903945e-09 1.37047561951347e-08 1.16555683101262e-07 9.91106707687788e-08 3.1864706658436e-08 1.25753647022489e-07
"2522" 57836 9.84818418658515e-09 3.88884480979037e-09 1.89612261169909e-09 1.37047561951347e-08 1.16555683101262e-07 9.92574167333344e-08 3.19909963055662e-08 1.25698480241678e-07
"2523" 57837 9.81901958250543e-09 3.85509450110213e-09 1.89442916924304e-09 1.37155294988422e-08 1.16547262085953e-07 9.9582237441189e-08 3.21979262949687e-08 1.25635896433467e-07
"2524" 57838 9.82425553229173e-09 3.85133695806772e-09 1.89267607712507e-09 1.3731731647499e-08 1.16966426949217e-07 9.92856944924164e-08 3.21210754147692e-08 1.25591822055514e-07
"2525" 57839 9.82949148207803e-09 3.84757941503331e-09 1.89092298500711e-09 1.37479337961558e-08 1.1738559181248e-07 9.89891515436438e-08 3.20442245345697e-08 1.25547747677561e-07
"2526" 57840 9.83472743186432e-09 3.84382187199891e-09 1.88916989288915e-09 1.37641359448126e-08 1.17804756675744e-07 9.86926085948713e-08 3.19673736543702e-08 1.25503673299608e-07
"2527" 57841 9.83996338165062e-09 3.8400643289645e-09 1.88741680077118e-09 1.37803380934694e-08 1.18223921539008e-07 9.83960656460987e-08 3.18905227741706e-08 1.25459598921655e-07
"2528" 57842 9.84519933143692e-09 3.83630678593009e-09 1.88566370865322e-09 1.37965402421262e-08 1.18643086402272e-07 9.80995226973261e-08 3.18136718939711e-08 1.25415524543702e-07
"2529" 57843 9.85043528122322e-09 3.83254924289568e-09 1.88391061653526e-09 1.3812742390783e-08 1.19062251265536e-07 9.78029797485535e-08 3.17368210137716e-08 1.25371450165749e-07
"2530" 57844 9.85567123100951e-09 3.82879169986128e-09 1.88215752441729e-09 1.38289445394398e-08 1.19481416128799e-07 9.7506436799781e-08 3.16599701335721e-08 1.25327375787796e-07
"2531" 57845 9.86090718079581e-09 3.82503415682687e-09 1.88040443229933e-09 1.38451466880966e-08 1.19900580992063e-07 9.72098938510084e-08 3.15831192533726e-08 1.25283301409843e-07
"2532" 57846 9.86614313058211e-09 3.82127661379246e-09 1.87865134018137e-09 1.38613488367534e-08 1.20319745855327e-07 9.69133509022358e-08 3.1506268373173e-08 1.2523922703189e-07
"2533" 57847 9.87137908036841e-09 3.81751907075806e-09 1.8768982480634e-09 1.38775509854102e-08 1.20738910718591e-07 9.66168079534632e-08 3.14294174929735e-08 1.25195152653937e-07
"2534" 57848 9.8766150301547e-09 3.81376152772365e-09 1.87514515594544e-09 1.3893753134067e-08 1.21158075581855e-07 9.63202650046906e-08 3.1352566612774e-08 1.25151078275984e-07
"2535" 57849 9.881850979941e-09 3.81000398468924e-09 1.87339206382748e-09 1.39099552827238e-08 1.21577240445118e-07 9.60237220559181e-08 3.12757157325745e-08 1.25107003898031e-07
"2536" 57850 9.8870869297273e-09 3.80624644165484e-09 1.87163897170952e-09 1.39261574313806e-08 1.21996405308382e-07 9.57271791071455e-08 3.1198864852375e-08 1.25062929520078e-07
"2537" 57851 9.8923228795136e-09 3.80248889862043e-09 1.86988587959155e-09 1.39423595800374e-08 1.22415570171646e-07 9.54306361583729e-08 3.11220139721755e-08 1.25018855142125e-07
"2538" 57852 9.89755882929989e-09 3.79873135558602e-09 1.86813278747359e-09 1.39585617286941e-08 1.2283473503491e-07 9.51340932096003e-08 3.10451630919759e-08 1.24974780764172e-07
"2539" 57853 9.90279477908619e-09 3.79497381255161e-09 1.86637969535563e-09 1.39747638773509e-08 1.23253899898174e-07 9.48375502608278e-08 3.09683122117764e-08 1.24930706386219e-07
"2540" 57854 9.90803072887249e-09 3.79121626951721e-09 1.86462660323766e-09 1.39909660260077e-08 1.23673064761437e-07 9.45410073120552e-08 3.08914613315769e-08 1.24886632008266e-07
"2541" 57855 9.91326667865879e-09 3.7874587264828e-09 1.8628735111197e-09 1.40071681746645e-08 1.24092229624701e-07 9.42444643632826e-08 3.08146104513774e-08 1.24842557630313e-07
"2542" 57856 9.91850262844508e-09 3.78370118344839e-09 1.86112041900174e-09 1.40233703233213e-08 1.24511394487965e-07 9.394792141451e-08 3.07377595711779e-08 1.2479848325236e-07
"2543" 57857 9.92373857823138e-09 3.77994364041399e-09 1.85936732688377e-09 1.40395724719781e-08 1.24930559351229e-07 9.36513784657375e-08 3.06609086909784e-08 1.24754408874407e-07
"2544" 57858 9.93308780431807e-09 3.77618609737958e-09 1.86062166588453e-09 1.4057142527881e-08 1.25584251324837e-07 9.37405747193041e-08 3.06675748226891e-08 1.24768547353768e-07
"2545" 57859 9.94243703040476e-09 3.77618609737958e-09 1.86288842353518e-09 1.40695539164711e-08 1.26048116024939e-07 9.38331850036871e-08 3.06558492973903e-08 1.24752413861938e-07
"2546" 57860 9.95901721874658e-09 3.77617483427601e-09 1.86288842353518e-09 1.40648084342052e-08 1.25887093566535e-07 9.38494121335427e-08 3.06927666821524e-08 1.24695523871897e-07
"2547" 57861 9.95901721874658e-09 3.7769285955036e-09 1.86390084218507e-09 1.40596497668925e-08 1.25700820212753e-07 9.39072641817293e-08 3.06727972492866e-08 1.2462198021379e-07
"2548" 57862 9.95901721874658e-09 3.7776823567312e-09 1.86491326083496e-09 1.40544910995797e-08 1.25514546858971e-07 9.3965116229916e-08 3.06528278164208e-08 1.24548436555682e-07
"2549" 57863 9.95901721874658e-09 3.7784361179588e-09 1.86592567948485e-09 1.4049332432267e-08 1.25328273505189e-07 9.40229682781027e-08 3.06328583835549e-08 1.24474892897574e-07
"2550" 57864 9.95901721874658e-09 3.77918987918639e-09 1.86693809813474e-09 1.40441737649542e-08 1.25142000151407e-07 9.40808203262894e-08 3.06128889506891e-08 1.24401349239467e-07
"2551" 57865 9.95901721874658e-09 3.77994364041399e-09 1.86795051678463e-09 1.40390150976414e-08 1.24955726797625e-07 9.4138672374476e-08 3.05929195178233e-08 1.24327805581359e-07
"2552" 57866 9.95901721874658e-09 3.78069740164158e-09 1.86896293543453e-09 1.40338564303287e-08 1.24769453443843e-07 9.41965244226627e-08 3.05729500849574e-08 1.24254261923252e-07
"2553" 57867 9.95901721874658e-09 3.78145116286918e-09 1.86997535408442e-09 1.40286977630159e-08 1.24583180090061e-07 9.42543764708494e-08 3.05529806520916e-08 1.24180718265144e-07
"2554" 57868 9.95901721874658e-09 3.78220492409677e-09 1.87098777273431e-09 1.40235390957032e-08 1.24396906736279e-07 9.43122285190361e-08 3.05330112192258e-08 1.24107174607037e-07
"2555" 57869 9.95901721874658e-09 3.78295868532437e-09 1.8720001913842e-09 1.40183804283904e-08 1.24210633382497e-07 9.43700805672227e-08 3.051304178636e-08 1.24033630948929e-07
"2556" 57870 9.95901721874658e-09 3.78371244655196e-09 1.87301261003409e-09 1.40132217610776e-08 1.24024360028715e-07 9.44279326154094e-08 3.04930723534941e-08 1.23960087290821e-07
"2557" 57871 9.95901721874658e-09 3.78446620777956e-09 1.87402502868398e-09 1.40080630937649e-08 1.23838086674933e-07 9.44857846635961e-08 3.04731029206283e-08 1.23886543632714e-07
"2558" 57872 9.93807341960139e-09 3.77921240539353e-09 1.87503744733387e-09 1.40029044264521e-08 1.23738656581339e-07 9.31206741879352e-08 3.0399920283142e-08 1.23860739016459e-07
"2559" 57873 9.9171296204562e-09 3.7739586030075e-09 1.87604986598377e-09 1.39977457591394e-08 1.23639226487744e-07 9.17555637122744e-08 3.03267376456558e-08 1.23834934400204e-07
"2560" 57874 9.89618582131101e-09 3.76769603128349e-09 1.87630669875011e-09 1.39939549990727e-08 1.23543849066991e-07 9.18648281250348e-08 3.02531474256458e-08 1.24117650429619e-07
"2561" 57875 9.87524202216582e-09 3.76143345955948e-09 1.87656353151645e-09 1.3990164239006e-08 1.23448471646238e-07 9.19740925377952e-08 3.01795572056358e-08 1.24400366459035e-07
"2562" 57876 9.85429822302063e-09 3.75517088783547e-09 1.87682036428279e-09 1.39863734789394e-08 1.23353094225484e-07 9.20833569505556e-08 3.01059669856259e-08 1.24683082488451e-07
"2563" 57877 9.83335442387544e-09 3.74890831611146e-09 1.87707719704913e-09 1.39825827188727e-08 1.23257716804731e-07 9.2192621363316e-08 3.00323767656159e-08 1.24965798517867e-07
"2564" 57878 9.81241062473025e-09 3.74264574438744e-09 1.87733402981548e-09 1.39787919588061e-08 1.23162339383977e-07 9.23018857760764e-08 2.99587865456059e-08 1.25248514547283e-07
"2565" 57879 9.80717084316645e-09 3.74239073627706e-09 1.87759086258182e-09 1.39770389952434e-08 1.23114030269842e-07 9.37415024283013e-08 2.99455025526284e-08 1.25455550648723e-07
"2566" 57880 9.80155747573693e-09 3.74239073627706e-09 1.87981288298603e-09 1.39738753403995e-08 1.23093465816669e-07 9.36506201262822e-08 2.99315471194354e-08 1.25357709345272e-07
"2567" 57881 9.79594410830741e-09 3.74239073627706e-09 1.88203490339025e-09 1.39707116855555e-08 1.23072901363497e-07 9.35597378242631e-08 2.99175916862423e-08 1.25259868041821e-07
"2568" 57882 9.7903307408779e-09 3.74239073627706e-09 1.88425692379447e-09 1.39675480307116e-08 1.23052336910324e-07 9.34688555222439e-08 2.99036362530493e-08 1.2516202673837e-07
"2569" 57883 9.78471737344838e-09 3.74239073627706e-09 1.88647894419868e-09 1.39643843758677e-08 1.23031772457152e-07 9.33779732202248e-08 2.98896808198563e-08 1.25064185434918e-07
"2570" 57884 9.77910400601886e-09 3.74239073627706e-09 1.8887009646029e-09 1.39612207210237e-08 1.2301120800398e-07 9.32870909182057e-08 2.98757253866633e-08 1.24966344131467e-07
"2571" 57885 9.77349063858934e-09 3.74239073627706e-09 1.89092298500711e-09 1.39580570661798e-08 1.22990643550807e-07 9.31962086161866e-08 2.98617699534702e-08 1.24868502828016e-07
"2572" 57886 9.76787727115982e-09 3.74239073627706e-09 1.89314500541133e-09 1.39548934113359e-08 1.22970079097635e-07 9.31053263141674e-08 2.98478145202772e-08 1.24770661524564e-07
"2573" 57887 9.76226390373031e-09 3.74239073627706e-09 1.89536702581554e-09 1.39517297564919e-08 1.22949514644463e-07 9.30144440121483e-08 2.98338590870842e-08 1.24672820221113e-07
"2574" 57888 9.75665053630079e-09 3.74239073627706e-09 1.89758904621976e-09 1.3948566101648e-08 1.2292895019129e-07 9.29235617101292e-08 2.98199036538912e-08 1.24574978917662e-07
"2575" 57889 9.75103716887127e-09 3.74239073627706e-09 1.89981106662397e-09 1.39454024468041e-08 1.22908385738118e-07 9.28326794081101e-08 2.98059482206982e-08 1.24477137614211e-07
"2576" 57890 9.74542380144175e-09 3.74239073627706e-09 1.90203308702819e-09 1.39422387919602e-08 1.22887821284945e-07 9.27417971060909e-08 2.97919927875051e-08 1.24379296310759e-07
"2577" 57891 9.73981043401223e-09 3.74239073627706e-09 1.9042551074324e-09 1.39390751371162e-08 1.22867256831773e-07 9.26509148040718e-08 2.97780373543121e-08 1.24281455007308e-07
"2578" 57892 9.73419706658272e-09 3.74239073627706e-09 1.90647712783662e-09 1.39359114822723e-08 1.22846692378601e-07 9.25600325020527e-08 2.97640819211191e-08 1.24183613703857e-07
"2579" 57893 9.7285836991532e-09 3.74239073627706e-09 1.90869914824083e-09 1.39327478274284e-08 1.22826127925428e-07 9.24691502000335e-08 2.97501264879261e-08 1.24085772400406e-07
"2580" 57894 9.72821011328748e-09 3.74264574438744e-09 1.90993857482611e-09 1.39311232159712e-08 1.22871955424528e-07 9.20235451969928e-08 2.97494550477106e-08 1.2405454576922e-07
"2581" 57895 9.72970828852785e-09 3.74288948939426e-09 1.91522767601096e-09 1.39619456858628e-08 1.23324587243998e-07 9.15890672445388e-08 2.97485390579809e-08 1.24149602087848e-07
"2582" 57896 9.7187318881718e-09 3.74363198751829e-09 1.91342984664656e-09 1.39898049476609e-08 1.23498521925877e-07 9.17579867558544e-08 2.98040304409395e-08 1.2384722514586e-07
"2583" 57897 9.70775548781574e-09 3.74437448564231e-09 1.91163201728216e-09 1.40176642094591e-08 1.23672456607755e-07 9.19269062671701e-08 2.98595218238981e-08 1.23544848203871e-07
"2584" 57898 9.69677908745968e-09 3.74511698376634e-09 1.90983418791777e-09 1.40455234712572e-08 1.23846391289633e-07 9.20958257784858e-08 2.99150132068567e-08 1.23242471261882e-07
"2585" 57899 9.68580268710363e-09 3.74585948189037e-09 1.90803635855337e-09 1.40733827330553e-08 1.24020325971512e-07 9.22647452898014e-08 2.99705045898153e-08 1.22940094319894e-07
"2586" 57900 9.67482628674757e-09 3.74660198001439e-09 1.90623852918898e-09 1.41012419948534e-08 1.2419426065339e-07 9.24336648011171e-08 3.00259959727739e-08 1.22637717377905e-07
"2587" 57901 9.66384988639151e-09 3.74734447813842e-09 1.90444069982458e-09 1.41291012566515e-08 1.24368195335269e-07 9.26025843124328e-08 3.00814873557324e-08 1.22335340435917e-07
"2588" 57902 9.65287348603546e-09 3.74808697626244e-09 1.90264287046019e-09 1.41569605184496e-08 1.24542130017147e-07 9.27715038237484e-08 3.0136978738691e-08 1.22032963493928e-07
"2589" 57903 9.6418970856794e-09 3.74882947438647e-09 1.90084504109579e-09 1.41848197802477e-08 1.24716064699026e-07 9.29404233350641e-08 3.01924701216496e-08 1.21730586551939e-07
"2590" 57904 9.63092068532334e-09 3.74957197251049e-09 1.89904721173139e-09 1.42126790420458e-08 1.24889999380904e-07 9.31093428463798e-08 3.02479615046082e-08 1.21428209609951e-07
"2591" 57905 9.61994428496729e-09 3.75031447063452e-09 1.897249382367e-09 1.42405383038439e-08 1.25063934062783e-07 9.32782623576954e-08 3.03034528875668e-08 1.21125832667962e-07
"2592" 57906 9.60896788461123e-09 3.75105696875854e-09 1.8954515530026e-09 1.42683975656421e-08 1.25237868744661e-07 9.34471818690111e-08 3.03589442705254e-08 1.20823455725974e-07
"2593" 57907 9.59799148425517e-09 3.75179946688257e-09 1.89365372363821e-09 1.42962568274402e-08 1.2541180342654e-07 9.36161013803268e-08 3.0414435653484e-08 1.20521078783985e-07
"2594" 57908 9.58701508389912e-09 3.7525419650066e-09 1.89185589427381e-09 1.43241160892383e-08 1.25585738108418e-07 9.37850208916424e-08 3.04699270364425e-08 1.20218701841997e-07
"2595" 57909 9.57603868354306e-09 3.75328446313062e-09 1.89005806490942e-09 1.43519753510364e-08 1.25759672790297e-07 9.39539404029581e-08 3.05254184194011e-08 1.19916324900008e-07
"2596" 57910 9.565062283187e-09 3.75402696125465e-09 1.88826023554502e-09 1.43798346128345e-08 1.25933607472175e-07 9.41228599142738e-08 3.05809098023597e-08 1.19613947958019e-07
"2597" 57911 9.55408588283095e-09 3.75476945937867e-09 1.88646240618063e-09 1.44076938746326e-08 1.26107542154054e-07 9.42917794255894e-08 3.06364011853183e-08 1.19311571016031e-07
"2598" 57912 9.54310948247489e-09 3.7555119575027e-09 1.88466457681623e-09 1.44355531364307e-08 1.26281476835932e-07 9.44606989369051e-08 3.06918925682769e-08 1.19009194074042e-07
"2599" 57913 9.53213308211883e-09 3.75625445562672e-09 1.88286674745183e-09 1.44634123982288e-08 1.26455411517811e-07 9.46296184482208e-08 3.07473839512355e-08 1.18706817132054e-07
"2600" 57914 9.52115668176278e-09 3.75699695375075e-09 1.88106891808744e-09 1.4491271660027e-08 1.26629346199689e-07 9.47985379595364e-08 3.0802875334194e-08 1.18404440190065e-07
"2601" 57915 9.51018028140672e-09 3.75773945187478e-09 1.87927108872304e-09 1.45191309218251e-08 1.26803280881568e-07 9.49674574708521e-08 3.08583667171526e-08 1.18102063248076e-07
"2602" 57916 9.49920388105066e-09 3.7584819499988e-09 1.87747325935865e-09 1.45469901836232e-08 1.26977215563446e-07 9.51363769821677e-08 3.09138581001112e-08 1.17799686306088e-07
"2603" 57917 9.49509060475027e-09 3.75921318501926e-09 1.87868286111297e-09 1.45720280628587e-08 1.27109059749439e-07 9.53235153223985e-08 3.09577151283646e-08 1.17866562070033e-07
"2604" 57918 9.3029569827066e-09 3.75020183959882e-09 1.86488513210465e-09 1.4575476550644e-08 1.278023989507e-07 9.48335731660657e-08 3.09271378092942e-08 1.16991447171655e-07
"2605" 57919 9.33213308211883e-09 3.7474530659024e-09 1.84912221545846e-09 1.45652594393937e-08 1.27690167348779e-07 9.4039079330811e-08 3.09375687246059e-08 1.17784040855816e-07
"2606" 57920 9.36130918153106e-09 3.74470429220597e-09 1.83335929881227e-09 1.45550423281434e-08 1.27577935746857e-07 9.32445854955563e-08 3.09479996399176e-08 1.18576634539976e-07
"2607" 57921 9.3904852809433e-09 3.74195551850955e-09 1.81759638216608e-09 1.45448252168931e-08 1.27465704144936e-07 9.24500916603016e-08 3.09584305552293e-08 1.19369228224137e-07
"2608" 57922 9.41966138035553e-09 3.73920674481313e-09 1.80183346551989e-09 1.45346081056428e-08 1.27353472543015e-07 9.16555978250468e-08 3.0968861470541e-08 1.20161821908298e-07
"2609" 57923 9.44883747976776e-09 3.7364579711167e-09 1.7860705488737e-09 1.45243909943925e-08 1.27241240941093e-07 9.08611039897921e-08 3.09792923858528e-08 1.20954415592459e-07
"2610" 57924 9.47801357918e-09 3.73370919742028e-09 1.77030763222751e-09 1.45141738831421e-08 1.27129009339172e-07 9.00666101545374e-08 3.09897233011645e-08 1.21747009276619e-07
"2611" 57925 9.50718967859223e-09 3.73096042372386e-09 1.75454471558132e-09 1.45039567718918e-08 1.2701677773725e-07 8.92721163192827e-08 3.10001542164762e-08 1.2253960296078e-07
"2612" 57926 9.53636577800446e-09 3.72821165002744e-09 1.73878179893512e-09 1.44937396606415e-08 1.26904546135329e-07 8.8477622484028e-08 3.10105851317879e-08 1.23332196644941e-07
"2613" 57927 9.56554187741669e-09 3.72546287633101e-09 1.72301888228893e-09 1.44835225493912e-08 1.26792314533407e-07 8.76831286487733e-08 3.10210160470996e-08 1.24124790329102e-07
"2614" 57928 9.59471797682893e-09 3.72271410263459e-09 1.70725596564274e-09 1.44733054381409e-08 1.26680082931486e-07 8.68886348135185e-08 3.10314469624113e-08 1.24917384013262e-07
"2615" 57929 9.62389407624116e-09 3.71996532893817e-09 1.69149304899655e-09 1.44630883268906e-08 1.26567851329564e-07 8.60941409782638e-08 3.1041877877723e-08 1.25709977697423e-07
"2616" 57930 9.82836369540851e-09 3.71396902842811e-09 1.68952786135868e-09 1.4462504005703e-08 1.2650544697212e-07 8.61658874995469e-08 3.10629456415055e-08 1.27185901984154e-07
"2617" 57931 9.80541722023948e-09 3.70271892553203e-09 1.68952786135868e-09 1.44619196845155e-08 1.2641343066716e-07 8.61786586646747e-08 3.1086214350916e-08 1.26814318193153e-07
"2618" 57932 9.78247074507046e-09 3.69146882263595e-09 1.68952786135868e-09 1.44613353633279e-08 1.26321414362201e-07 8.61914298298026e-08 3.11094830603265e-08 1.26442734402153e-07
"2619" 57933 9.75952426990143e-09 3.68021871973987e-09 1.68952786135868e-09 1.44607510421404e-08 1.26229398057241e-07 8.62042009949304e-08 3.11327517697369e-08 1.26071150611152e-07
"2620" 57934 9.73657779473241e-09 3.66896861684379e-09 1.68952786135868e-09 1.44601667209528e-08 1.26137381752281e-07 8.62169721600582e-08 3.11560204791474e-08 1.25699566820151e-07
"2621" 57935 9.71363131956339e-09 3.6577185139477e-09 1.68952786135868e-09 1.44595823997653e-08 1.26045365447322e-07 8.62297433251861e-08 3.11792891885579e-08 1.25327983029151e-07
"2622" 57936 9.69068484439436e-09 3.64646841105162e-09 1.68952786135868e-09 1.44589980785777e-08 1.25953349142362e-07 8.62425144903139e-08 3.12025578979684e-08 1.2495639923815e-07
"2623" 57937 9.67235231453169e-09 3.64747718038961e-09 1.690737463113e-09 1.44573734671206e-08 1.2554837133163e-07 8.60514434856936e-08 3.12356911909519e-08 1.24960736047246e-07
"2624" 57938 9.65401978466902e-09 3.64848594972759e-09 1.69194706486733e-09 1.44557488556635e-08 1.25143393520897e-07 8.58603724810733e-08 3.12688244839355e-08 1.24965072856341e-07
"2625" 57939 9.74752162497969e-09 3.66449110189249e-09 1.69495449598604e-09 1.4456988410804e-08 1.24803012744228e-07 8.57268478740326e-08 3.14283729272033e-08 1.25053450569247e-07
"2626" 57940 9.84102346529036e-09 3.6804962540574e-09 1.69796192710476e-09 1.44582279659446e-08 1.2446263196756e-07 8.5593323266992e-08 3.15879213704711e-08 1.25141828282153e-07
"2627" 57941 9.93452530560104e-09 3.6965014062223e-09 1.70096935822348e-09 1.44594675210852e-08 1.24122251190891e-07 8.54597986599513e-08 3.17474698137389e-08 1.25230205995059e-07
"2628" 57942 1.00280271459117e-08 3.7125065583872e-09 1.7039767893422e-09 1.44607070762258e-08 1.23781870414222e-07 8.53262740529107e-08 3.19070182570067e-08 1.25318583707964e-07
"2629" 57943 1.01215289862224e-08 3.7285117105521e-09 1.70698422046092e-09 1.44619466313664e-08 1.23441489637553e-07 8.51927494458701e-08 3.20665667002746e-08 1.2540696142087e-07
"2630" 57944 1.02150308265331e-08 3.74451686271701e-09 1.70999165157964e-09 1.4463186186507e-08 1.23101108860884e-07 8.50592248388294e-08 3.22261151435424e-08 1.25495339133776e-07
"2631" 57945 1.03085326668437e-08 3.76052201488191e-09 1.71299908269836e-09 1.44644257416475e-08 1.22760728084215e-07 8.49257002317888e-08 3.23856635868102e-08 1.25583716846682e-07
"2632" 57946 1.04020345071544e-08 3.77652716704681e-09 1.71600651381708e-09 1.44656652967881e-08 1.22420347307546e-07 8.47921756247481e-08 3.2545212030078e-08 1.25672094559587e-07
"2633" 57947 1.04955363474651e-08 3.79253231921171e-09 1.7190139449358e-09 1.44669048519287e-08 1.22079966530877e-07 8.46586510177075e-08 3.27047604733458e-08 1.25760472272493e-07
"2634" 57948 1.05890381877757e-08 3.80853747137662e-09 1.72202137605452e-09 1.44681444070693e-08 1.21739585754208e-07 8.45251264106669e-08 3.28643089166136e-08 1.25848849985399e-07
"2635" 57949 1.06825400280864e-08 3.82454262354152e-09 1.72502880717324e-09 1.44693839622099e-08 1.21399204977539e-07 8.43916018036262e-08 3.30238573598815e-08 1.25937227698304e-07
"2636" 57950 1.07760418683971e-08 3.84054777570642e-09 1.72803623829196e-09 1.44706235173505e-08 1.2105882420087e-07 8.42580771965856e-08 3.31834058031493e-08 1.2602560541121e-07
"2637" 57951 1.08878762385704e-08 3.83167158752882e-09 1.72312326919728e-09 1.44049299314101e-08 1.19284853602298e-07 8.38471653019644e-08 3.33463640017328e-08 1.26063891574077e-07
"2638" 57952 1.09997106087438e-08 3.82279539935122e-09 1.71821030010259e-09 1.43392363454697e-08 1.17510883003726e-07 8.34362534073433e-08 3.35093222003163e-08 1.26102177736944e-07
"2639" 57953 1.10973276412436e-08 3.76682646246006e-09 1.72000812946699e-09 1.43389368572235e-08 1.17587262168892e-07 8.3498748715593e-08 3.3642302657629e-08 1.25031542912182e-07
"2640" 57954 1.11228911333614e-08 3.69583861653484e-09 1.71778610906277e-09 1.43357732023796e-08 1.17600234610159e-07 8.35359234763713e-08 3.3616957419245e-08 1.24595030833271e-07
"2641" 57955 1.11080498753192e-08 3.62411953558916e-09 1.71580600900942e-09 1.43342341589928e-08 1.17704033046221e-07 8.35908315665847e-08 3.35869796779742e-08 1.2419515066755e-07
"2642" 57956 1.11121650675083e-08 3.55238919153991e-09 1.71760383837382e-09 1.43412876153992e-08 1.17740198722494e-07 8.37174343039419e-08 3.35476790063971e-08 1.23177698322691e-07
"2643" 57957 1.11162802596975e-08 3.48065884749067e-09 1.71940166773821e-09 1.43483410718056e-08 1.17776364398766e-07 8.3844037041299e-08 3.350837833482e-08 1.22160245977832e-07
"2644" 57958 1.11203954518866e-08 3.40892850344142e-09 1.72119949710261e-09 1.43553945282119e-08 1.17812530075039e-07 8.39706397786562e-08 3.3469077663243e-08 1.21142793632973e-07
"2645" 57959 1.11245106440758e-08 3.33719815939217e-09 1.72299732646701e-09 1.43624479846183e-08 1.17848695751311e-07 8.40972425160134e-08 3.34297769916659e-08 1.20125341288114e-07
"2646" 57960 1.11286258362649e-08 3.26546781534292e-09 1.7247951558314e-09 1.43695014410247e-08 1.17884861427584e-07 8.42238452533705e-08 3.33904763200888e-08 1.19107888943255e-07
"2647" 57961 1.1132741028454e-08 3.19373747129368e-09 1.7265929851958e-09 1.43765548974311e-08 1.17921027103856e-07 8.43504479907277e-08 3.33511756485118e-08 1.18090436598396e-07
"2648" 57962 1.11368562206432e-08 3.12200712724443e-09 1.72839081456019e-09 1.43836083538374e-08 1.17957192780129e-07 8.44770507280848e-08 3.33118749769347e-08 1.17072984253536e-07
"2649" 57963 1.11409714128323e-08 3.05027678319518e-09 1.73018864392459e-09 1.43906618102438e-08 1.17993358456401e-07 8.4603653465442e-08 3.32725743053576e-08 1.16055531908677e-07
"2650" 57964 1.11450866050215e-08 2.97854643914593e-09 1.73198647328898e-09 1.43977152666502e-08 1.18029524132673e-07 8.47302562027991e-08 3.32332736337806e-08 1.15038079563818e-07
"2651" 57965 1.11492017972106e-08 2.90681609509669e-09 1.73378430265338e-09 1.44047687230566e-08 1.18065689808946e-07 8.48568589401563e-08 3.31939729622035e-08 1.14020627218959e-07
"2652" 57966 1.11533169893998e-08 2.83508575104744e-09 1.73558213201777e-09 1.4411822179463e-08 1.18101855485218e-07 8.49834616775135e-08 3.31546722906264e-08 1.130031748741e-07
"2653" 57967 1.11574321815889e-08 2.76335540699819e-09 1.73737996138217e-09 1.44188756358693e-08 1.18138021161491e-07 8.51100644148706e-08 3.31153716190494e-08 1.11985722529241e-07
"2654" 57968 1.11615473737781e-08 2.69162506294894e-09 1.73917779074657e-09 1.44259290922757e-08 1.18174186837763e-07 8.52366671522278e-08 3.30760709474723e-08 1.10968270184382e-07
"2655" 57969 1.11656625659672e-08 2.6198947188997e-09 1.74097562011096e-09 1.44329825486821e-08 1.18210352514036e-07 8.53632698895849e-08 3.30367702758952e-08 1.09950817839522e-07
"2656" 57970 1.11697777581564e-08 2.54816437485045e-09 1.74277344947536e-09 1.44400360050885e-08 1.18246518190308e-07 8.54898726269421e-08 3.29974696043182e-08 1.08933365494663e-07
"2657" 57971 1.122899271652e-08 2.48020283693918e-09 1.76081803618767e-09 1.44638759313392e-08 1.18440730817052e-07 8.57806390674551e-08 3.29974696043182e-08 1.08453175365513e-07
"2658" 57972 1.12882076748836e-08 2.41224129902791e-09 1.77886262289999e-09 1.44877158575899e-08 1.18634943443795e-07 8.60714055079681e-08 3.29974696043182e-08 1.07972985236363e-07
"2659" 57973 1.13474226332472e-08 2.34427976111664e-09 1.79690720961231e-09 1.45115557838406e-08 1.18829156070539e-07 8.63621719484811e-08 3.29974696043182e-08 1.07492795107212e-07
"2660" 57974 1.14159906494751e-08 2.34730606913059e-09 1.81616139807895e-09 1.45356951983376e-08 1.18981974618664e-07 8.62644736980566e-08 3.18272371286354e-08 1.08083239802823e-07
"2661" 57975 1.14901720331324e-08 2.35131862027538e-09 1.83642800519548e-09 1.45610741679751e-08 1.19172758621491e-07 8.65665922853499e-08 3.1862538121186e-08 1.0875841897056e-07
"2662" 57976 1.15643534167898e-08 2.35533117142018e-09 1.85669461231201e-09 1.45864531376126e-08 1.19363542624317e-07 8.68687108726432e-08 3.18978391137366e-08 1.09433598138297e-07
"2663" 57977 1.16385348004471e-08 2.35934372256497e-09 1.87696121942854e-09 1.46118321072501e-08 1.19554326627144e-07 8.71708294599365e-08 3.19331401062873e-08 1.10108777306035e-07
"2664" 57978 1.17127161841045e-08 2.36335627370977e-09 1.89722782654507e-09 1.46372110768876e-08 1.19745110629971e-07 8.74729480472298e-08 3.19684410988379e-08 1.10783956473772e-07
"2665" 57979 1.17868975677618e-08 2.36736882485457e-09 1.9174944336616e-09 1.46625900465252e-08 1.19935894632797e-07 8.77750666345231e-08 3.20037420913885e-08 1.11459135641509e-07
"2666" 57980 1.18610789514191e-08 2.37138137599936e-09 1.93776104077813e-09 1.46879690161627e-08 1.20126678635624e-07 8.80771852218164e-08 3.20390430839392e-08 1.12134314809246e-07
"2667" 57981 1.19352603350765e-08 2.37539392714416e-09 1.95802764789467e-09 1.47133479858002e-08 1.2031746263845e-07 8.83793038091097e-08 3.20743440764898e-08 1.12809493976983e-07
"2668" 57982 1.20094417187338e-08 2.37940647828895e-09 1.9782942550112e-09 1.47387269554377e-08 1.20508246641277e-07 8.8681422396403e-08 3.21096450690404e-08 1.1348467314472e-07
"2669" 57983 1.20836231023912e-08 2.38341902943375e-09 1.99856086212773e-09 1.47641059250752e-08 1.20699030644103e-07 8.89835409836963e-08 3.21449460615911e-08 1.14159852312457e-07
"2670" 57984 1.21578044860485e-08 2.38743158057854e-09 2.01882746924426e-09 1.47894848947127e-08 1.2088981464693e-07 8.92856595709896e-08 3.21802470541417e-08 1.14835031480194e-07
"2671" 57985 1.22319858697059e-08 2.39144413172334e-09 2.03909407636079e-09 1.48148638643503e-08 1.21080598649757e-07 8.95877781582829e-08 3.22155480466923e-08 1.15510210647931e-07
"2672" 57986 1.23061672533632e-08 2.39545668286813e-09 2.05936068347732e-09 1.48402428339878e-08 1.21271382652583e-07 8.98898967455762e-08 3.2250849039243e-08 1.16185389815668e-07
"2673" 57987 1.23803486370206e-08 2.39946923401293e-09 2.07962729059385e-09 1.48656218036253e-08 1.2146216665541e-07 9.01920153328695e-08 3.22861500317936e-08 1.16860568983405e-07
"2674" 57988 1.23310991615573e-08 2.39447043973729e-09 2.09762714005974e-09 1.48878089896886e-08 1.2166585316127e-07 9.03152680267771e-08 3.22230046649787e-08 1.16544153980338e-07
"2675" 57989 1.22818496860941e-08 2.38947164546165e-09 2.11562698952562e-09 1.49099961757519e-08 1.21869539667131e-07 9.04385207206846e-08 3.21598592981637e-08 1.1622773897727e-07
"2676" 57990 1.22326002106308e-08 2.38447285118601e-09 2.13362683899151e-09 1.49321833618151e-08 1.22073226172991e-07 9.05617734145921e-08 3.20967139313488e-08 1.15911323974202e-07
"2677" 57991 1.21833507351676e-08 2.37947405691037e-09 2.15162668845739e-09 1.49543705478784e-08 1.22276912678852e-07 9.06850261084997e-08 3.20335685645338e-08 1.15594908971135e-07
"2678" 57992 1.21341012597043e-08 2.37447526263473e-09 2.16962653792327e-09 1.49765577339417e-08 1.22480599184712e-07 9.08082788024072e-08 3.19704231977189e-08 1.15278493968067e-07
"2679" 57993 1.21303596533809e-08 2.36919893404156e-09 2.16838711133799e-09 1.49688625170077e-08 1.22513832560075e-07 9.29829362014804e-08 3.19775162201309e-08 1.15154368711241e-07
"2680" 57994 1.22427119355589e-08 2.37188012911657e-09 2.17509790979707e-09 1.49890265618719e-08 1.2289998061805e-07 9.31448797959739e-08 3.19682941145069e-08 1.15132596966163e-07
"2681" 57995 1.2355064217737e-08 2.37456132419157e-09 2.18180870825615e-09 1.5009190606736e-08 1.23286128676025e-07 9.33068233904673e-08 3.1959072008883e-08 1.15110825221085e-07
"2682" 57996 1.24674164999151e-08 2.37724251926658e-09 2.18851950671523e-09 1.50293546516002e-08 1.23672276734e-07 9.34687669849607e-08 3.1949849903259e-08 1.15089053476007e-07
"2683" 57997 1.25797687820931e-08 2.37992371434158e-09 2.19523030517431e-09 1.50495186964643e-08 1.24058424791976e-07 9.36307105794542e-08 3.19406277976351e-08 1.15067281730929e-07
"2684" 57998 1.26921210642712e-08 2.38260490941659e-09 2.20194110363338e-09 1.50696827413284e-08 1.24444572849951e-07 9.37926541739476e-08 3.19314056920112e-08 1.15045509985851e-07
"2685" 57999 1.28044733464493e-08 2.38528610449159e-09 2.20865190209246e-09 1.50898467861926e-08 1.24830720907926e-07 9.3954597768441e-08 3.19221835863872e-08 1.15023738240773e-07
"2686" 58000 1.29168256286273e-08 2.3879672995666e-09 2.21536270055154e-09 1.51100108310567e-08 1.25216868965901e-07 9.41165413629345e-08 3.19129614807633e-08 1.15001966495694e-07
"2687" 58001 1.30291779108054e-08 2.3906484946416e-09 2.22207349901062e-09 1.51301748759209e-08 1.25603017023876e-07 9.42784849574279e-08 3.19037393751393e-08 1.14980194750616e-07
"2688" 58002 1.31415301929835e-08 2.3933296897166e-09 2.2287842974697e-09 1.5150338920785e-08 1.25989165081851e-07 9.44404285519213e-08 3.18945172695154e-08 1.14958423005538e-07
"2689" 58003 1.32538824751615e-08 2.39601088479161e-09 2.23549509592878e-09 1.51705029656492e-08 1.26375313139826e-07 9.46023721464148e-08 3.18852951638914e-08 1.1493665126046e-07
"2690" 58004 1.33662347573396e-08 2.39869207986661e-09 2.24220589438785e-09 1.51906670105133e-08 1.26761461197801e-07 9.47643157409082e-08 3.18760730582675e-08 1.14914879515382e-07
"2691" 58005 1.34785870395177e-08 2.40137327494162e-09 2.24891669284693e-09 1.52108310553774e-08 1.27147609255777e-07 9.49262593354017e-08 3.18668509526436e-08 1.14893107770304e-07
"2692" 58006 1.35909393216957e-08 2.40405447001662e-09 2.25562749130601e-09 1.52309951002416e-08 1.27533757313752e-07 9.50882029298951e-08 3.18576288470196e-08 1.14871336025226e-07
"2693" 58007 1.35950487662186e-08 2.40997192880169e-09 2.25567222855244e-09 1.52261212658702e-08 1.27565549787336e-07 9.48780248248128e-08 3.18540560586944e-08 1.14823768368331e-07
"2694" 58008 1.3608517016272e-08 2.40767685580819e-09 2.25741040825493e-09 1.5221546919745e-08 1.27582567611115e-07 9.62889334060246e-08 3.18421868085637e-08 1.14962552280754e-07
"2695" 58009 1.36039030709656e-08 2.40941686016663e-09 2.26137060836163e-09 1.52026517406311e-08 1.27423267702576e-07 9.72056868827717e-08 3.13019513823293e-08 1.13707293110147e-07
"2696" 58010 1.35992891256593e-08 2.41115686452507e-09 2.26533080846833e-09 1.51837565615173e-08 1.27263967794036e-07 9.81224403595188e-08 3.07617159560949e-08 1.1245203393954e-07
"2697" 58011 1.36148775554329e-08 2.41289686888351e-09 2.22051758999709e-09 1.47132172699358e-08 1.24768983271473e-07 9.97147538470232e-08 3.04873534711871e-08 1.1264150656628e-07
"2698" 58012 1.36304659852066e-08 2.41463687324195e-09 2.17570437152585e-09 1.42426779783544e-08 1.2227399874891e-07 1.01307067334527e-07 3.02129909862794e-08 1.12830979193019e-07
"2699" 58013 1.36460544149802e-08 2.41637687760039e-09 2.13089115305461e-09 1.37721386867729e-08 1.19779014226347e-07 1.02899380822032e-07 2.99386285013717e-08 1.13020451819759e-07
"2700" 58014 1.36616428447539e-08 2.41811688195883e-09 2.08607793458337e-09 1.33015993951914e-08 1.17284029703784e-07 1.04491694309536e-07 2.9664266016464e-08 1.13209924446498e-07
"2701" 58015 1.36772312745276e-08 2.41985688631727e-09 2.04126471611212e-09 1.28310601036099e-08 1.1478904518122e-07 1.0608400779704e-07 2.93899035315563e-08 1.13399397073237e-07
"2702" 58016 1.36928197043012e-08 2.42159689067571e-09 1.99645149764088e-09 1.23605208120285e-08 1.12294060658657e-07 1.07676321284545e-07 2.91155410466486e-08 1.13588869699977e-07
"2703" 58017 1.37084081340749e-08 2.42333689503415e-09 1.95163827916964e-09 1.1889981520447e-08 1.09799076136094e-07 1.09268634772049e-07 2.88411785617409e-08 1.13778342326716e-07
"2704" 58018 1.37239965638485e-08 2.42507689939259e-09 1.9068250606984e-09 1.14194422288655e-08 1.07304091613531e-07 1.10860948259553e-07 2.85668160768332e-08 1.13967814953456e-07
"2705" 58019 1.37395849936222e-08 2.42681690375103e-09 1.86201184222716e-09 1.0948902937284e-08 1.04809107090967e-07 1.12453261747058e-07 2.82924535919255e-08 1.14157287580195e-07
"2706" 58020 1.37551734233958e-08 2.42855690810947e-09 1.81719862375592e-09 1.04783636457026e-08 1.02314122568404e-07 1.14045575234562e-07 2.80180911070177e-08 1.14346760206935e-07
"2707" 58021 1.37707618531695e-08 2.43029691246791e-09 1.77238540528468e-09 1.00078243541211e-08 9.9819138045841e-08 1.15637888722066e-07 2.774372862211e-08 1.14536232833674e-07
"2708" 58022 1.37863502829432e-08 2.43203691682635e-09 1.72757218681344e-09 9.53728506253963e-09 9.73241535232778e-08 1.17230202209571e-07 2.74693661372023e-08 1.14725705460414e-07
"2709" 58023 1.38019387127168e-08 2.43377692118479e-09 1.6827589683422e-09 9.06674577095815e-09 9.48291690007146e-08 1.18822515697075e-07 2.71950036522946e-08 1.14915178087153e-07
"2710" 58024 1.38175271424905e-08 2.43551692554323e-09 1.63794574987095e-09 8.59620647937668e-09 9.23341844781513e-08 1.20414829184579e-07 2.69206411673869e-08 1.15104650713893e-07
"2711" 58025 1.38331155722641e-08 2.43725692990167e-09 1.59313253139971e-09 8.12566718779521e-09 8.98391999555881e-08 1.22007142672084e-07 2.66462786824792e-08 1.15294123340632e-07
"2712" 58026 1.38487040020378e-08 2.43899693426011e-09 1.54831931292847e-09 7.65512789621374e-09 8.73442154330249e-08 1.23599456159588e-07 2.63719161975715e-08 1.15483595967372e-07
"2713" 58027 1.38642924318115e-08 2.44073693861855e-09 1.50350609445723e-09 7.18458860463226e-09 8.48492309104617e-08 1.25191769647092e-07 2.60975537126638e-08 1.15673068594111e-07
"2714" 58028 1.38798808615851e-08 2.44247694297699e-09 1.45869287598599e-09 6.71404931305079e-09 8.23542463878985e-08 1.26784083134597e-07 2.58231912277561e-08 1.1586254122085e-07
"2715" 58029 1.38763876738759e-08 2.44024944860491e-09 1.4121862150587e-09 6.24034636662538e-09 7.98465448759015e-08 1.27104391870531e-07 2.55996725985371e-08 1.1579995741264e-07
"2716" 58030 1.38811267864337e-08 2.43802195423283e-09 1.36365471683162e-09 5.76668620423515e-09 7.73373495346628e-08 1.27075618671741e-07 2.53371793637601e-08 1.15791315929128e-07
"2717" 58031 1.38858658989916e-08 2.43579445986076e-09 1.31512321860454e-09 5.29302604184492e-09 7.48281541934241e-08 1.27046845472951e-07 2.50746861289831e-08 1.15782674445617e-07
"2718" 58032 1.38652899380459e-08 2.38699549609946e-09 1.31512321860454e-09 5.29144421442295e-09 7.47780885078833e-08 1.26547909193462e-07 2.43530568605063e-08 1.15805606377448e-07
"2719" 58033 1.38498266755237e-08 2.38473421241667e-09 1.31536513895541e-09 5.21590510012339e-09 7.43067546615728e-08 1.26581515441416e-07 2.43277116221223e-08 1.15875866297616e-07
"2720" 58034 1.38343634130015e-08 2.38247292873389e-09 1.31560705930627e-09 5.14036598582383e-09 7.38354208152623e-08 1.2661512168937e-07 2.43023663837382e-08 1.15946126217783e-07
"2721" 58035 1.38189001504794e-08 2.3802116450511e-09 1.31584897965714e-09 5.06482687152427e-09 7.33640869689519e-08 1.26648727937323e-07 2.42770211453542e-08 1.1601638613795e-07
"2722" 58036 1.38034368879572e-08 2.37795036136832e-09 1.316090900008e-09 4.98928775722471e-09 7.28927531226414e-08 1.26682334185277e-07 2.42516759069701e-08 1.16086646058117e-07
"2723" 58037 1.3787973625435e-08 2.37568907768553e-09 1.31633282035887e-09 4.91374864292516e-09 7.24214192763309e-08 1.26715940433231e-07 2.42263306685861e-08 1.16156905978284e-07
"2724" 58038 1.37725103629129e-08 2.37342779400274e-09 1.31657474070973e-09 4.8382095286256e-09 7.19500854300205e-08 1.26749546681185e-07 2.4200985430202e-08 1.16227165898451e-07
"2725" 58039 1.37570471003907e-08 2.37116651031996e-09 1.3168166610606e-09 4.76267041432604e-09 7.147875158371e-08 1.26783152929138e-07 2.4175640191818e-08 1.16297425818619e-07
"2726" 58040 1.37415838378685e-08 2.36890522663717e-09 1.31705858141146e-09 4.68713130002648e-09 7.10074177373995e-08 1.26816759177092e-07 2.4150294953434e-08 1.16367685738786e-07
"2727" 58041 1.37261205753464e-08 2.36664394295438e-09 1.31730050176232e-09 4.61159218572692e-09 7.0536083891089e-08 1.26850365425046e-07 2.41249497150499e-08 1.16437945658953e-07
"2728" 58042 1.37106573128242e-08 2.3643826592716e-09 1.31754242211319e-09 4.53605307142736e-09 7.00647500447785e-08 1.26883971673e-07 2.40996044766659e-08 1.1650820557912e-07
"2729" 58043 1.36938172105356e-08 2.3631301449268e-09 1.31779925487953e-09 4.46092714217466e-09 6.9683745870256e-08 1.26889380716285e-07 2.40609752453043e-08 1.16910339841867e-07
"2730" 58044 1.36769771082471e-08 2.36187763058199e-09 1.31805608764587e-09 4.38580121292196e-09 6.93027416957335e-08 1.2689478975957e-07 2.40223460139427e-08 1.17312474104613e-07
"2731" 58045 1.3683458982882e-08 2.36288639991998e-09 1.31831292041222e-09 4.38567286081645e-09 6.93958783726244e-08 1.26897318832249e-07 2.40136945238519e-08 1.17521860707119e-07
"2732" 58046 1.3689940857517e-08 2.36389516925796e-09 1.31856975317856e-09 4.38554450871093e-09 6.94890150495154e-08 1.26899847904927e-07 2.40050430337611e-08 1.17731247309624e-07
"2733" 58047 1.36964227321519e-08 2.36490393859595e-09 1.3188265859449e-09 4.38541615660541e-09 6.95821517264064e-08 1.26902376977606e-07 2.39963915436704e-08 1.17940633912129e-07
"2734" 58048 1.37029046067868e-08 2.36591270793393e-09 1.31908341871124e-09 4.38528780449989e-09 6.96752884032973e-08 1.26904906050285e-07 2.39877400535796e-08 1.18150020514634e-07
"2735" 58049 1.37093864814218e-08 2.36692147727191e-09 1.31934025147759e-09 4.38515945239437e-09 6.97684250801883e-08 1.26907435122964e-07 2.39790885634888e-08 1.18359407117139e-07
"2736" 58050 1.37158683560567e-08 2.3679302466099e-09 1.31959708424393e-09 4.38503110028885e-09 6.98615617570792e-08 1.26909964195642e-07 2.3970437073398e-08 1.18568793719644e-07
"2737" 58051 1.37626336453777e-08 2.36891648974074e-09 1.32181910464814e-09 4.3844467791013e-09 6.98796445952155e-08 1.2691652522717e-07 2.39637709416873e-08 1.18970214998077e-07
"2738" 58052 1.36246233580504e-08 2.34490876149339e-09 1.31776943004858e-09 4.37963038406992e-09 6.98584463726792e-08 1.26346119396731e-07 2.38194199873612e-08 1.18439460003133e-07
"2739" 58053 1.3486613070723e-08 2.32090103324603e-09 1.31371975544901e-09 4.37481398903854e-09 6.98372481501429e-08 1.25775713566292e-07 2.3675069033035e-08 1.17908705008189e-07
"2740" 58054 1.33486027833957e-08 2.29689330499868e-09 1.30967008084945e-09 4.36999759400717e-09 6.98160499276066e-08 1.25205307735852e-07 2.35307180787088e-08 1.17377950013245e-07
"2741" 58055 1.32105924960684e-08 2.27288557675133e-09 1.30562040624988e-09 4.36518119897579e-09 6.97948517050703e-08 1.24634901905413e-07 2.33863671243827e-08 1.16847195018302e-07
"2742" 58056 1.3072582208741e-08 2.24887784850397e-09 1.30157073165031e-09 4.36036480394441e-09 6.9773653482534e-08 1.24064496074974e-07 2.32420161700565e-08 1.16316440023358e-07
"2743" 58057 1.29345719214137e-08 2.22487012025662e-09 1.29752105705075e-09 4.35554840891303e-09 6.97524552599978e-08 1.23494090244534e-07 2.30976652157303e-08 1.15785685028414e-07
"2744" 58058 1.27965616340864e-08 2.20086239200927e-09 1.29347138245118e-09 4.35073201388165e-09 6.97312570374615e-08 1.22923684414095e-07 2.29533142614042e-08 1.1525493003347e-07
"2745" 58059 1.26585513467591e-08 2.17685466376191e-09 1.28942170785162e-09 4.34591561885027e-09 6.97100588149252e-08 1.22353278583656e-07 2.2808963307078e-08 1.14724175038526e-07
"2746" 58060 1.25205410594317e-08 2.15284693551456e-09 1.28537203325205e-09 4.34109922381889e-09 6.96888605923889e-08 1.21782872753217e-07 2.26646123527518e-08 1.14193420043582e-07
"2747" 58061 1.23825307721044e-08 2.1288392072672e-09 1.28132235865248e-09 4.33628282878751e-09 6.96676623698526e-08 1.21212466922777e-07 2.25202613984257e-08 1.13662665048639e-07
"2748" 58062 1.22445204847771e-08 2.10483147901985e-09 1.27727268405292e-09 4.33146643375613e-09 6.96464641473163e-08 1.20642061092338e-07 2.23759104440995e-08 1.13131910053695e-07
"2749" 58063 1.21065101974497e-08 2.0808237507725e-09 1.27322300945335e-09 4.32665003872476e-09 6.962526592478e-08 1.20071655261899e-07 2.22315594897733e-08 1.12601155058751e-07
"2750" 58064 1.19426784199466e-08 2.05683854873228e-09 1.26921807210022e-09 4.32228961277541e-09 6.95855487588937e-08 1.19817754618148e-07 2.20845517368517e-08 1.12180988695744e-07
"2751" 58065 1.17766108749155e-08 2.03407207172616e-09 1.2631882974473e-09 4.32267466909197e-09 6.95632855219997e-08 1.19394203986951e-07 2.19904740226811e-08 1.11534707081247e-07
"2752" 58066 1.16105433298843e-08 2.01130559472004e-09 1.25715852279439e-09 4.32305972540852e-09 6.95410222851057e-08 1.18970653355755e-07 2.18963963085106e-08 1.1088842546675e-07
"2753" 58067 1.14444757848531e-08 1.98853911771392e-09 1.25112874814147e-09 4.32344478172508e-09 6.95187590482116e-08 1.18547102724559e-07 2.180231859434e-08 1.10242143852253e-07
"2754" 58068 1.1278408239822e-08 1.9657726407078e-09 1.24509897348856e-09 4.32382983804163e-09 6.94964958113176e-08 1.18123552093363e-07 2.17082408801695e-08 1.09595862237756e-07
"2755" 58069 1.12918764898753e-08 1.95574126284581e-09 1.24132104407081e-09 4.31536569035398e-09 6.91224163927525e-08 1.17313010977125e-07 2.17106048588069e-08 1.09806130526459e-07
"2756" 58070 1.13064712451921e-08 1.9557074735351e-09 1.24055054577178e-09 4.31575074667053e-09 6.91398703217447e-08 1.17311041331521e-07 2.17542119672518e-08 1.10276651538305e-07
"2757" 58071 1.13210660005088e-08 1.95567368422439e-09 1.23978004747276e-09 4.31613580298709e-09 6.9157324250737e-08 1.17309071685917e-07 2.17978190756967e-08 1.10747172550152e-07
"2758" 58072 1.13356607558256e-08 1.95563989491368e-09 1.23900954917373e-09 4.31652085930364e-09 6.91747781797293e-08 1.17307102040313e-07 2.18414261841416e-08 1.11217693561998e-07
"2759" 58073 1.13502555111423e-08 1.95560610560297e-09 1.2382390508747e-09 4.31690591562019e-09 6.91922321087215e-08 1.17305132394709e-07 2.18850332925865e-08 1.11688214573844e-07
"2760" 58074 1.13648502664591e-08 1.95557231629226e-09 1.23746855257568e-09 4.31729097193675e-09 6.92096860377138e-08 1.17303162749105e-07 2.19286404010314e-08 1.12158735585691e-07
"2761" 58075 1.13794450217758e-08 1.95553852698155e-09 1.23669805427665e-09 4.3176760282533e-09 6.92271399667061e-08 1.17301193103501e-07 2.19722475094763e-08 1.12629256597537e-07
"2762" 58076 1.13940397770925e-08 1.95550473767084e-09 1.23592755597762e-09 4.31806108456986e-09 6.92445938956984e-08 1.17299223457897e-07 2.20158546179212e-08 1.13099777609384e-07
"2763" 58077 1.14086345324093e-08 1.95547094836014e-09 1.2351570576786e-09 4.31844614088641e-09 6.92620478246906e-08 1.17297253812292e-07 2.20594617263661e-08 1.1357029862123e-07
"2764" 58078 1.1423229287726e-08 1.95543715904943e-09 1.23438655937957e-09 4.31883119720297e-09 6.92795017536829e-08 1.17295284166688e-07 2.2103068834811e-08 1.14040819633076e-07
"2765" 58079 1.14378240430428e-08 1.95540336973872e-09 1.23361606108054e-09 4.31921625351952e-09 6.92969556826752e-08 1.17293314521084e-07 2.21466759432559e-08 1.14511340644923e-07
"2766" 58080 1.14524187983595e-08 1.95536958042801e-09 1.23284556278152e-09 4.31960130983608e-09 6.93144096116674e-08 1.1729134487548e-07 2.21902830517008e-08 1.14981861656769e-07
"2767" 58081 1.14670135536763e-08 1.9553357911173e-09 1.23207506448249e-09 4.31998636615263e-09 6.93318635406597e-08 1.17289375229876e-07 2.22338901601457e-08 1.15452382668615e-07
"2768" 58082 1.1481608308993e-08 1.95530200180659e-09 1.23130456618346e-09 4.32037142246919e-09 6.9349317469652e-08 1.17287405584272e-07 2.22774972685906e-08 1.15922903680462e-07
"2769" 58083 1.14962030643098e-08 1.95526821249588e-09 1.23053406788444e-09 4.32075647878574e-09 6.93667713986442e-08 1.17285435938668e-07 2.23211043770355e-08 1.16393424692308e-07
"2770" 58084 1.15107978196265e-08 1.95523442318517e-09 1.22976356958541e-09 4.32114153510230e-09 6.93842253276365e-08 1.17283466293064e-07 2.23647114854804e-08 1.16863945704155e-07
"2771" 58085 1.15253925749433e-08 1.95520063387446e-09 1.22899307128638e-09 4.32152659141885e-09 6.94016792566288e-08 1.1728149664746e-07 2.24083185939253e-08 1.17334466716001e-07
"2772" 58086 1.153998733026e-08 1.95516684456375e-09 1.22822257298736e-09 4.3219116477354e-09 6.94191331856211e-08 1.17279527001855e-07 2.24519257023702e-08 1.17804987727847e-07
"2773" 58087 1.153998733026e-08 1.95316056899135e-09 1.22721015433746e-09 4.31755122178606e-09 6.94263012428622e-08 1.1721196360802e-07 2.24432742122794e-08 1.1780814292707e-07
"2774" 58088 1.15381174850427e-08 1.95188552843941e-09 1.22643965603844e-09 4.31319079583672e-09 6.94448201862122e-08 1.17125869107844e-07 2.24653105200301e-08 1.17804022356292e-07
"2775" 58089 1.15362476398253e-08 1.95061048788747e-09 1.22566915773941e-09 4.30883036988737e-09 6.94633391295622e-08 1.17039774607668e-07 2.24873468277807e-08 1.17799901785515e-07
"2776" 58090 1.1534377794608e-08 1.9453341592943e-09 1.22591107809028e-09 4.30870201778185e-09 6.94746900156711e-08 1.16838252981452e-07 2.25176270430984e-08 1.1774178533224e-07
"2777" 58091 1.15313814441273e-08 1.94607665741833e-09 1.22591107809028e-09 4.30915798686389e-09 6.9482296608236e-08 1.16914797244806e-07 2.25386036362874e-08 1.17666884665059e-07
"2778" 58092 1.15283850936465e-08 1.94681915554235e-09 1.22591107809028e-09 4.30961395594592e-09 6.94899032008009e-08 1.16991341508161e-07 2.25595802294764e-08 1.17591983997877e-07
"2779" 58093 1.15253887431658e-08 1.94756165366638e-09 1.22591107809028e-09 4.31006992502796e-09 6.94975097933658e-08 1.17067885771515e-07 2.25805568226654e-08 1.17517083330696e-07
"2780" 58094 1.1522392392685e-08 1.94830415179041e-09 1.22591107809028e-09 4.31052589410999e-09 6.95051163859307e-08 1.17144430034869e-07 2.26015334158544e-08 1.17442182663515e-07
"2781" 58095 1.15193960422043e-08 1.94904664991443e-09 1.22591107809028e-09 4.31098186319202e-09 6.95127229784956e-08 1.17220974298223e-07 2.26225100090435e-08 1.17367281996333e-07
"2782" 58096 1.15163996917235e-08 1.94978914803846e-09 1.22591107809028e-09 4.31143783227406e-09 6.95203295710605e-08 1.17297518561578e-07 2.26434866022325e-08 1.17292381329152e-07
"2783" 58097 1.15134033412428e-08 1.95053164616248e-09 1.22591107809028e-09 4.31189380135609e-09 6.95279361636254e-08 1.17374062824932e-07 2.26644631954215e-08 1.17217480661971e-07
"2784" 58098 1.1510406990762e-08 1.95127414428651e-09 1.22591107809028e-09 4.31234977043813e-09 6.95355427561903e-08 1.17450607088286e-07 2.26854397886105e-08 1.17142579994789e-07
"2785" 58099 1.15074106402813e-08 1.95201664241053e-09 1.22591107809028e-09 4.31280573952016e-09 6.95431493487552e-08 1.1752715135164e-07 2.27064163817995e-08 1.17067679327608e-07
"2786" 58100 1.15044142898006e-08 1.95275914053456e-09 1.22591107809028e-09 4.31326170860219e-09 6.95507559413202e-08 1.17603695614995e-07 2.27273929749885e-08 1.16992778660427e-07
"2787" 58101 1.15014179393198e-08 1.95350163865858e-09 1.22591107809028e-09 4.31371767768423e-09 6.9558362533885e-08 1.17680239878349e-07 2.27483695681776e-08 1.16917877993246e-07
"2788" 58102 1.1542943447077e-08 1.96543792416084e-09 1.22591107809028e-09 4.34714879184196e-09 7.0155353004412e-08 1.17687492765504e-07 2.28404329617017e-08 1.17761282233124e-07
"2789" 58103 1.15844689548342e-08 1.9773742096631e-09 1.22591107809028e-09 4.3805799059997e-09 7.07523434749389e-08 1.17694745652659e-07 2.29324963552259e-08 1.18604686473002e-07
"2790" 58104 1.15736349647283e-08 1.94059759296091e-09 1.21713070508498e-09 4.41401102015743e-09 7.12541925356662e-08 1.1543181340566e-07 2.25672889405706e-08 1.19218807543487e-07
"2791" 58105 1.15628009746225e-08 1.90382097625871e-09 1.20835033207969e-09 4.44744213431516e-09 7.17560415963934e-08 1.1316888115866e-07 2.22020815259152e-08 1.19832928613971e-07
"2792" 58106 1.15519669845167e-08 1.86704435955651e-09 1.19956995907440e-09 4.4808732484729e-09 7.22578906571207e-08 1.10905948911661e-07 2.18368741112599e-08 1.20447049684455e-07
"2793" 58107 1.15411329944109e-08 1.83026774285432e-09 1.1907895860691e-09 4.51430436263063e-09 7.27597397178479e-08 1.08643016664661e-07 2.14716666966045e-08 1.21061170754939e-07
"2794" 58108 1.15302990043051e-08 1.79349112615212e-09 1.18200921306381e-09 4.54773547678836e-09 7.32615887785751e-08 1.06380084417662e-07 2.11064592819492e-08 1.21675291825423e-07
"2795" 58109 1.14724513062641e-08 1.75671450944993e-09 1.17520894011187e-09 4.54777826082354e-09 7.31936859862917e-08 1.04141932031105e-07 2.06664721457736e-08 1.21367942078066e-07
"2796" 58110 1.14146036082231e-08 1.71993789274773e-09 1.16840866715992e-09 4.54782104485871e-09 7.31257831940082e-08 1.01903779644548e-07 2.02264850095981e-08 1.21060592330708e-07
