"time" "channel1" "channel2" "channel3" "channel4" "channel5" "channel6" "channel7" "channel8"
"1664" 28178 2.25407810532173e-10 2.0074212432942e-10 6.1873049637572e-10 1.52472380412909e-09 1.79228369713536e-10 1.68547209875379e-10 1.5434887216699e-10 1.45550166653086e-10
"1665" 28179 2.26291207707112e-10 2.00969801397526e-10 6.22586915271265e-10 1.52580780188962e-09 1.80698874087358e-10 1.69181374133532e-10 1.53220039007296e-10 1.45478307440069e-10
"1666" 28180 2.26291207707112e-10 2.01240877446627e-10 6.22802890319341e-10 1.52689179965015e-09 1.80690289094758e-10 1.69815538391684e-10 1.52274918943565e-10 1.46118648296356e-10
"1667" 28181 2.26291207707112e-10 2.01511953495729e-10 6.23018865367417e-10 1.52797579741068e-09 1.80681704102158e-10 1.70449702649837e-10 1.51329798879834e-10 1.46758989152642e-10
"1668" 28182 2.26291207707112e-10 2.0178302954483e-10 6.23234840415492e-10 1.5290597951712e-09 1.80673119109558e-10 1.71083866907989e-10 1.50384678816103e-10 1.47399330008928e-10
"1669" 28183 2.26291207707112e-10 2.02054105593931e-10 6.23450815463568e-10 1.53014379293173e-09 1.80664534116958e-10 1.71718031166142e-10 1.49439558752372e-10 1.48039670865214e-10
"1670" 28184 2.23875655090468e-10 2.01284276427623e-10 6.22602481256174e-10 1.52199076000419e-09 1.80664534116958e-10 1.72352195424294e-10 1.48494438688641e-10 1.48965317886612e-10
"1671" 28185 2.20113848271762e-10 2.01327675408618e-10 6.21887753090891e-10 1.52307475776472e-09 1.80655949124358e-10 1.73062336627552e-10 1.4781197247547e-10 1.48965317886612e-10
"1672" 28186 2.16352041453056e-10 2.01371074389614e-10 6.21173024925609e-10 1.52415875552525e-09 1.80647364131759e-10 1.7377247783081e-10 1.471295062623e-10 1.48965317886612e-10
"1673" 28187 2.1259023463435e-10 2.01414473370609e-10 6.20458296760326e-10 1.52524275328578e-09 1.80638779139159e-10 1.74482619034068e-10 1.4644704004913e-10 1.48965317886612e-10
"1674" 28188 2.08828427815644e-10 2.01457872351604e-10 6.19743568595043e-10 1.5263267510463e-09 1.80630194146559e-10 1.75192760237326e-10 1.45764573835959e-10 1.48965317886612e-10
"1675" 28189 2.05066620996939e-10 2.015012713326e-10 6.19028840429761e-10 1.52741074880683e-09 1.80621609153959e-10 1.75902901440583e-10 1.45082107622789e-10 1.48965317886612e-10
"1676" 28190 2.01304814178233e-10 2.01544670313595e-10 6.18314112264478e-10 1.52849474656736e-09 1.80613024161359e-10 1.76613042643841e-10 1.44399641409619e-10 1.48965317886612e-10
"1677" 28191 1.97849438447868e-10 2.05393816145136e-10 6.29836670996385e-10 1.54410888021353e-09 1.80613024161359e-10 1.7747513773731e-10 1.44662295260179e-10 1.49109036312644e-10
"1678" 28192 1.94394062717503e-10 2.05393816145136e-10 6.29121942831102e-10 1.54440150253519e-09 1.8060443916876e-10 1.77551114682415e-10 1.43796115951046e-10 1.48468695456358e-10
"1679" 28193 1.90938686987139e-10 2.05393816145136e-10 6.2840721466582e-10 1.54469412485685e-09 1.8059585417616e-10 1.7762709162752e-10 1.42929936641912e-10 1.47828354600072e-10
"1680" 28194 1.87483311256774e-10 2.05393816145136e-10 6.27692486500537e-10 1.54498674717851e-09 1.8058726918356e-10 1.77703068572626e-10 1.42063757332779e-10 1.47188013743786e-10
"1681" 28195 1.84027935526409e-10 2.05393816145136e-10 6.26977758335254e-10 1.54527936950017e-09 1.8057868419096e-10 1.77779045517731e-10 1.41197578023645e-10 1.465476728875e-10
"1682" 28196 1.80572559796044e-10 2.05393816145136e-10 6.26263030169972e-10 1.54557199182183e-09 1.8057009919836e-10 1.77855022462836e-10 1.40331398714511e-10 1.45907332031213e-10
"1683" 28197 1.77117184065679e-10 2.05393816145136e-10 6.25548302004689e-10 1.54586461414349e-09 1.80561514205761e-10 1.77930999407942e-10 1.39465219405378e-10 1.45266991174927e-10
"1684" 28198 1.73661808335315e-10 2.05393816145136e-10 6.24833573839406e-10 1.54615723646515e-09 1.80552929213161e-10 1.78006976353047e-10 1.38599040096244e-10 1.44626650318641e-10
"1685" 28199 1.7020643260495e-10 2.05393816145136e-10 6.24118845674123e-10 1.54644985878681e-09 1.80544344220561e-10 1.78082953298152e-10 1.37732860787111e-10 1.43986309462355e-10
"1686" 28200 1.66751056874585e-10 2.05393816145136e-10 6.23404117508841e-10 1.54674248110847e-09 1.80535759227961e-10 1.78158930243258e-10 1.36866681477977e-10 1.43345968606068e-10
"1687" 28201 1.6329568114422e-10 2.05393816145136e-10 6.22689389343558e-10 1.54703510343013e-09 1.80527174235361e-10 1.78234907188363e-10 1.36000502168843e-10 1.42705627749782e-10
"1688" 28202 1.59840305413856e-10 2.05393816145136e-10 6.21974661178275e-10 1.54732772575179e-09 1.80518589242761e-10 1.78310884133468e-10 1.3513432285971e-10 1.42065286893496e-10
"1689" 28203 1.56384929683491e-10 2.05393816145136e-10 6.21259933012993e-10 1.54762034807346e-09 1.80510004250162e-10 1.78386861078574e-10 1.34268143550576e-10 1.4142494603721e-10
"1690" 28204 1.52929553953126e-10 2.05393816145136e-10 6.2054520484771e-10 1.54791297039512e-09 1.80501419257562e-10 1.78462838023679e-10 1.33401964241442e-10 1.40784605180924e-10
"1691" 28205 1.52352587866528e-10 2.05393816145136e-10 6.2054520484771e-10 1.54791297039512e-09 1.80501419257562e-10 1.78538814968784e-10 1.33218251145479e-10 1.4085646439394e-10
"1692" 28206 1.52659018954869e-10 2.05393816145136e-10 6.19830476682427e-10 1.5417549499364e-09 1.7902232989114e-10 1.7882617999994e-10 1.32903211124235e-10 1.40216123537654e-10
"1693" 28207 1.5296545004321e-10 2.05393816145136e-10 6.19115748517145e-10 1.53559692947769e-09 1.77543240524719e-10 1.79113545031096e-10 1.32588171102992e-10 1.39575782681367e-10
"1694" 28208 1.53271881131551e-10 2.05393816145136e-10 6.18401020351862e-10 1.52943890901898e-09 1.76064151158298e-10 1.79400910062253e-10 1.32273131081748e-10 1.38935441825081e-10
"1695" 28209 1.53578312219892e-10 2.05393816145136e-10 6.17686292186579e-10 1.52328088856027e-09 1.74585061791877e-10 1.79688275093409e-10 1.31958091060505e-10 1.38295100968795e-10
"1696" 28210 1.53884743308233e-10 2.05393816145136e-10 6.16971564021296e-10 1.51712286810155e-09 1.73105972425455e-10 1.79975640124565e-10 1.31643051039261e-10 1.37654760112509e-10
"1697" 28211 1.54191174396574e-10 2.05393816145136e-10 6.16256835856014e-10 1.51096484764284e-09 1.71626883059034e-10 1.80263005155721e-10 1.31328011018017e-10 1.37014419256222e-10
"1698" 28212 1.54497605484915e-10 2.05393816145136e-10 6.15542107690731e-10 1.50480682718413e-09 1.70147793692613e-10 1.80550370186877e-10 1.31012970996773e-10 1.36374078399936e-10
"1699" 28213 1.54804036573256e-10 2.05393816145136e-10 6.14827379525448e-10 1.49864880672542e-09 1.68668704326191e-10 1.80837735218033e-10 1.3069793097553e-10 1.3573373754365e-10
"1700" 28214 1.55110467661597e-10 2.05393816145136e-10 6.14827379525448e-10 1.49310917865334e-09 1.7214280616144e-10 1.81759264507342e-10 1.30566604050249e-10 1.3573373754365e-10
"1701" 28215 1.55110467661597e-10 2.05437215126131e-10 6.14179454381221e-10 1.48695115819463e-09 1.70663716795019e-10 1.81970652593393e-10 1.30435277124969e-10 1.34808090522252e-10
"1702" 28216 1.55110467661597e-10 2.05480614107127e-10 6.13531529236994e-10 1.48079313773592e-09 1.69184627428598e-10 1.82182040679444e-10 1.30303950199689e-10 1.33882443500854e-10
"1703" 28217 1.55110467661597e-10 2.05524013088122e-10 6.12883604092767e-10 1.4746351172772e-09 1.67705538062177e-10 1.82393428765495e-10 1.30172623274408e-10 1.32956796479457e-10
"1704" 28218 1.55110467661597e-10 2.05567412069117e-10 6.1223567894854e-10 1.46847709681849e-09 1.66226448695755e-10 1.82604816851545e-10 1.30041296349128e-10 1.32031149458059e-10
"1705" 28219 1.55110467661597e-10 2.05610811050113e-10 6.11587753804313e-10 1.46231907635978e-09 1.64747359329334e-10 1.82816204937596e-10 1.29909969423848e-10 1.31105502436661e-10
"1706" 28220 1.54227070486658e-10 2.03702596543276e-10 6.09726347377596e-10 1.46261169868144e-09 1.61780595603891e-10 1.82740227992491e-10 1.29227503210677e-10 1.30820196271549e-10
"1707" 28221 1.53343673311719e-10 2.01794382036438e-10 6.07864940950879e-10 1.4629043210031e-09 1.58813831878449e-10 1.82664251047386e-10 1.28545036997507e-10 1.30534890106438e-10
"1708" 28222 1.5246027613678e-10 1.99886167529601e-10 6.06003534524162e-10 1.46319694332476e-09 1.55847068153007e-10 1.8258827410228e-10 1.27862570784337e-10 1.30249583941326e-10
"1709" 28223 1.51576878961842e-10 1.97977953022764e-10 6.04142128097445e-10 1.46348956564642e-09 1.52880304427564e-10 1.82512297157175e-10 1.27180104571167e-10 1.29964277776215e-10
"1710" 28224 1.50693481786903e-10 1.96069738515927e-10 6.02280721670728e-10 1.46378218796808e-09 1.49913540702122e-10 1.8243632021207e-10 1.26497638357996e-10 1.29678971611103e-10
"1711" 28225 1.49810084611964e-10 1.9416152400909e-10 6.00419315244011e-10 1.46407481028974e-09 1.46946776976679e-10 1.82360343266964e-10 1.25815172144826e-10 1.29393665445992e-10
"1712" 28226 1.48926687437025e-10 1.92253309502252e-10 5.98557908817295e-10 1.4643674326114e-09 1.43980013251237e-10 1.82284366321859e-10 1.25132705931656e-10 1.2910835928088e-10
"1713" 28227 1.48043290262086e-10 1.90345094995415e-10 5.96696502390578e-10 1.46466005493307e-09 1.41013249525794e-10 1.82208389376754e-10 1.24450239718485e-10 1.28823053115768e-10
"1714" 28228 1.48043290262086e-10 1.90345094995415e-10 5.90577858941983e-10 1.43525381705733e-09 1.40497326423388e-10 1.81346294283285e-10 1.23505119654754e-10 1.28537746950657e-10
"1715" 28229 1.48043290262086e-10 1.90345094995415e-10 5.84459215493388e-10 1.4058475791816e-09 1.39981403320981e-10 1.80484199189817e-10 1.22559999591023e-10 1.28252440785545e-10
"1716" 28230 1.48043290262086e-10 1.90345094995415e-10 5.78340572044793e-10 1.37644134130587e-09 1.39465480218574e-10 1.79622104096348e-10 1.21614879527292e-10 1.27967134620434e-10
"1717" 28231 1.48043290262086e-10 1.90345094995415e-10 5.72221928596198e-10 1.34703510343013e-09 1.38949557116168e-10 1.7876000900288e-10 1.20669759463561e-10 1.27681828455322e-10
"1718" 28232 1.48043290262086e-10 1.90345094995415e-10 5.66103285147603e-10 1.3176288655544e-09 1.38433634013761e-10 1.77897913909411e-10 1.1972463939983e-10 1.27396522290211e-10
"1719" 28233 1.48043290262086e-10 1.90345094995415e-10 5.59984641699009e-10 1.28822262767867e-09 1.37917710911355e-10 1.77035818815943e-10 1.18779519336099e-10 1.27111216125099e-10
"1720" 28234 1.48043290262086e-10 1.90345094995415e-10 5.53865998250414e-10 1.25881638980294e-09 1.37401787808948e-10 1.76173723722475e-10 1.17834399272368e-10 1.26825909959987e-10
"1721" 28235 1.48043290262086e-10 1.90345094995415e-10 5.47747354801819e-10 1.2294101519272e-09 1.36885864706541e-10 1.75311628629006e-10 1.16889279208637e-10 1.26540603794876e-10
"1722" 28236 1.48235612290952e-10 1.91028126199733e-10 5.41561908332168e-10 1.20208541804641e-09 1.36369941604135e-10 1.74449533535538e-10 1.16626625358077e-10 1.26255297629764e-10
"1723" 28237 1.48427934319818e-10 1.90757050150631e-10 5.36224796069912e-10 1.17238655784902e-09 1.36344186626335e-10 1.73376050356018e-10 1.15497792198382e-10 1.26255297629764e-10
"1724" 28238 1.48620256348684e-10 1.9048597410153e-10 5.30887683807655e-10 1.14268769765162e-09 1.36318431648536e-10 1.72302567176499e-10 1.14368959038688e-10 1.26255297629764e-10
"1725" 28239 1.4881257837755e-10 1.90214898052429e-10 5.25550571545398e-10 1.11298883745423e-09 1.36292676670736e-10 1.7122908399698e-10 1.13240125878994e-10 1.26255297629764e-10
"1726" 28240 1.49004900406416e-10 1.89943822003328e-10 5.20213459283142e-10 1.08328997725684e-09 1.36266921692937e-10 1.7015560081746e-10 1.12111292719299e-10 1.26255297629764e-10
"1727" 28241 1.49197222435282e-10 1.89672745954227e-10 5.14876347020885e-10 1.05359111705944e-09 1.36241166715138e-10 1.69082117637941e-10 1.10982459559605e-10 1.26255297629764e-10
"1728" 28242 1.49083113375807e-10 1.89672745954227e-10 5.15940656276355e-10 1.04942810906956e-09 1.36731334839745e-10 1.6887072955189e-10 1.10982459559605e-10 1.26540603794876e-10
"1729" 28243 1.49275435404673e-10 1.89445068886121e-10 5.16788990483748e-10 1.04526510107967e-09 1.37221502964352e-10 1.67949200262582e-10 1.10116280250471e-10 1.26540603794876e-10
"1730" 28244 1.49467757433539e-10 1.89217391818015e-10 5.17637324691142e-10 1.04110209308979e-09 1.37711671088959e-10 1.67027670973273e-10 1.09250100941338e-10 1.26540603794876e-10
"1731" 28245 1.49660079462405e-10 1.88989714749909e-10 5.18485658898536e-10 1.03693908509991e-09 1.38201839213566e-10 1.66106141683964e-10 1.08383921632204e-10 1.26540603794876e-10
"1732" 28246 1.4985240149127e-10 1.88762037681804e-10 5.1933399310593e-10 1.03277607711002e-09 1.38692007338173e-10 1.65184612394656e-10 1.07517742323071e-10 1.26540603794876e-10
"1733" 28247 1.50044723520136e-10 1.88534360613698e-10 5.20182327313324e-10 1.02861306912014e-09 1.39182175462781e-10 1.64263083105347e-10 1.06651563013937e-10 1.26540603794876e-10
"1734" 28248 1.50237045549002e-10 1.88306683545592e-10 5.21030661520717e-10 1.02445006113025e-09 1.39672343587388e-10 1.63341553816039e-10 1.05785383704803e-10 1.26540603794876e-10
"1735" 28249 1.50429367577868e-10 1.88079006477486e-10 5.21878995728111e-10 1.02028705314037e-09 1.40162511711995e-10 1.6242002452673e-10 1.0491920439567e-10 1.26540603794876e-10
"1736" 28250 1.50621689606734e-10 1.88079006477486e-10 5.22727329935505e-10 1.02257468793086e-09 1.40678434814402e-10 1.61498495237421e-10 1.04053025086536e-10 1.27180944651162e-10
"1737" 28251 1.51733304900623e-10 1.8785132940938e-10 5.23575664142899e-10 1.0222287218264e-09 1.42157524180823e-10 1.60864330979269e-10 1.03370558873366e-10 1.27965003933481e-10
"1738" 28252 1.52844920194512e-10 1.87623652341275e-10 5.24423998350293e-10 1.02188275572194e-09 1.43636613547244e-10 1.60230166721116e-10 1.02688092660196e-10 1.28749063215799e-10
"1739" 28253 1.53956535488401e-10 1.87395975273169e-10 5.25272332557686e-10 1.02153678961748e-09 1.45115702913665e-10 1.59596002462964e-10 1.02005626447025e-10 1.29533122498118e-10
"1740" 28254 1.5506815078229e-10 1.87168298205063e-10 5.2612066676508e-10 1.02119082351303e-09 1.46594792280087e-10 1.58961838204811e-10 1.01323160233855e-10 1.30317181780436e-10
"1741" 28255 1.56179766076179e-10 1.86940621136957e-10 5.26969000972474e-10 1.02084485740857e-09 1.48073881646508e-10 1.58327673946659e-10 1.00640694020685e-10 1.31101241062755e-10
"1742" 28256 1.57291381370068e-10 1.86712944068851e-10 5.27817335179868e-10 1.02049889130411e-09 1.49552971012929e-10 1.57693509688506e-10 9.99582278075143e-11 1.31885300345073e-10
"1743" 28257 1.58402996663957e-10 1.86485267000746e-10 5.28665669387262e-10 1.02015292519965e-09 1.51032060379351e-10 1.57059345430354e-10 9.9275761594344e-11 1.32669359627392e-10
"1744" 28258 1.59514611957846e-10 1.8625758993264e-10 5.29514003594655e-10 1.0198069590952e-09 1.52511149745772e-10 1.56425181172201e-10 9.85932953811737e-11 1.33453418909711e-10
"1745" 28259 1.60626227251735e-10 1.86029912864534e-10 5.30362337802049e-10 1.01946099299074e-09 1.53990239112193e-10 1.55791016914049e-10 9.79108291680034e-11 1.34237478192029e-10
"1746" 28260 1.61737842545624e-10 1.85802235796428e-10 5.31210672009443e-10 1.01911502688628e-09 1.55469328478615e-10 1.55156852655896e-10 9.72283629548331e-11 1.35021537474348e-10
"1747" 28261 1.62849457839513e-10 1.85574558728322e-10 5.32059006216837e-10 1.01876906078182e-09 1.56948417845036e-10 1.54522688397744e-10 9.65458967416628e-11 1.35805596756666e-10
"1748" 28262 1.63961073133402e-10 1.85346881660216e-10 5.3290734042423e-10 1.01842309467737e-09 1.58427507211457e-10 1.53888524139591e-10 9.58634305284925e-11 1.36589656038985e-10
"1749" 28263 1.65072688427291e-10 1.85119204592111e-10 5.33755674631624e-10 1.01807712857291e-09 1.59906596577879e-10 1.53254359881439e-10 9.51809643153222e-11 1.37373715321303e-10
"1750" 28264 1.6618430372118e-10 1.82809717093186e-10 5.32475390328079e-10 1.01317608892695e-09 1.613856859443e-10 1.53330336826544e-10 9.51809643153222e-11 1.38229633816638e-10
"1751" 28265 1.6618430372118e-10 1.82538641044085e-10 5.313955150877e-10 1.01670050849072e-09 1.62348852208315e-10 1.52544218678181e-10 9.51809643153222e-11 1.39085552311973e-10
"1752" 28266 1.6618430372118e-10 1.82267564994984e-10 5.30315639847322e-10 1.02022492805449e-09 1.63312018472329e-10 1.51758100529818e-10 9.51809643153222e-11 1.39941470807308e-10
"1753" 28267 1.6618430372118e-10 1.81996488945883e-10 5.29235764606943e-10 1.02374934761825e-09 1.64275184736344e-10 1.50971982381455e-10 9.51809643153222e-11 1.40797389302642e-10
"1754" 28268 1.6618430372118e-10 1.81725412896781e-10 5.28155889366565e-10 1.02727376718202e-09 1.65238351000359e-10 1.50185864233092e-10 9.51809643153222e-11 1.41653307797977e-10
"1755" 28269 1.6618430372118e-10 1.8145433684768e-10 5.27076014126186e-10 1.03079818674579e-09 1.66201517264374e-10 1.49399746084728e-10 9.51809643153222e-11 1.42509226293312e-10
"1756" 28270 1.6618430372118e-10 1.81183260798579e-10 5.25996138885807e-10 1.03432260630955e-09 1.67164683528388e-10 1.48613627936365e-10 9.51809643153222e-11 1.43365144788646e-10
"1757" 28271 1.6618430372118e-10 1.80912184749478e-10 5.24916263645429e-10 1.03784702587332e-09 1.68127849792403e-10 1.47827509788002e-10 9.51809643153222e-11 1.44221063283981e-10
"1758" 28272 1.6618430372118e-10 1.80641108700377e-10 5.2383638840505e-10 1.04137144543709e-09 1.69091016056418e-10 1.47041391639639e-10 9.51809643153222e-11 1.45076981779316e-10
"1759" 28273 1.6595608560223e-10 1.80597709719381e-10 5.21974981978333e-10 1.04489586500085e-09 1.68575092954011e-10 1.46255273491276e-10 9.49972512193589e-11 1.45148840992332e-10
"1760" 28274 1.6691769574656e-10 1.80554310738386e-10 5.20046772530561e-10 1.04568724043972e-09 1.68059169851605e-10 1.46103319601065e-10 9.49972512193589e-11 1.47071994248144e-10
"1761" 28275 1.6787930589089e-10 1.80510911757391e-10 5.18118563082789e-10 1.04647861587859e-09 1.67543246749198e-10 1.45951365710855e-10 9.49972512193589e-11 1.48995147503956e-10
"1762" 28276 1.6884091603522e-10 1.80467512776395e-10 5.16190353635016e-10 1.04726999131746e-09 1.67027323646791e-10 1.45799411820644e-10 9.49972512193589e-11 1.50918300759767e-10
"1763" 28277 1.6980252617955e-10 1.804241137954e-10 5.14262144187244e-10 1.04806136675632e-09 1.66511400544385e-10 1.45647457930433e-10 9.49972512193589e-11 1.52841454015579e-10
"1764" 28278 1.7076413632388e-10 1.80380714814405e-10 5.12333934739471e-10 1.04885274219519e-09 1.65995477441978e-10 1.45495504040223e-10 9.49972512193589e-11 1.54764607271391e-10
"1765" 28279 1.7172574646821e-10 1.80337315833409e-10 5.10405725291699e-10 1.04964411763406e-09 1.65479554339571e-10 1.45343550150012e-10 9.49972512193589e-11 1.56687760527203e-10
"1766" 28280 1.72687356612539e-10 1.80293916852414e-10 5.08477515843927e-10 1.05043549307293e-09 1.64963631237165e-10 1.45191596259801e-10 9.49972512193589e-11 1.58610913783014e-10
"1767" 28281 1.73648966756869e-10 1.80250517871418e-10 5.06549306396154e-10 1.05122686851179e-09 1.64447708134758e-10 1.45039642369591e-10 9.49972512193589e-11 1.60534067038826e-10
"1768" 28282 1.74610576901199e-10 1.80207118890423e-10 5.04621096948382e-10 1.05201824395066e-09 1.63931785032352e-10 1.4488768847938e-10 9.49972512193589e-11 1.62457220294638e-10
"1769" 28283 1.75572187045529e-10 1.80163719909428e-10 5.0269288750061e-10 1.05280961938953e-09 1.63415861929945e-10 1.4473573458917e-10 9.49972512193589e-11 1.6438037355045e-10
"1770" 28284 1.76533797189859e-10 1.80120320928432e-10 5.00764678052837e-10 1.0536009948284e-09 1.62899938827538e-10 1.44583780698959e-10 9.49972512193589e-11 1.66303526806261e-10
"1771" 28285 1.77495407334189e-10 1.80076921947437e-10 4.98836468605065e-10 1.05439237026727e-09 1.62384015725132e-10 1.44431826808748e-10 9.49972512193589e-11 1.68226680062073e-10
"1772" 28286 1.78457017478519e-10 1.80033522966442e-10 4.96908259157292e-10 1.05518374570613e-09 1.61868092622725e-10 1.44279872918538e-10 9.49972512193589e-11 1.70149833317885e-10
"1773" 28287 1.79418627622848e-10 1.79990123985446e-10 4.9498004970952e-10 1.055975121145e-09 1.61352169520319e-10 1.44127919028327e-10 9.49972512193589e-11 1.72072986573697e-10
"1774" 28288 1.81299531032201e-10 1.80217801053552e-10 4.9498004970952e-10 1.05676649658387e-09 1.61352169520319e-10 1.44838060231585e-10 9.40521311556279e-11 1.73996139829508e-10
"1775" 28289 1.8337275647042e-10 1.80217801053552e-10 4.94913246688465e-10 1.05676649658387e-09 1.60862001395711e-10 1.45472224489737e-10 9.42358442515912e-11 1.76132740037416e-10
"1776" 28290 1.85445981908639e-10 1.80217801053552e-10 4.94846443667409e-10 1.05676649658387e-09 1.60371833271104e-10 1.4610638874789e-10 9.44195573475546e-11 1.78269340245323e-10
"1777" 28291 1.87519207346858e-10 1.80217801053552e-10 4.94779640646353e-10 1.05676649658387e-09 1.59881665146497e-10 1.46740553006042e-10 9.46032704435179e-11 1.8040594045323e-10
"1778" 28292 1.89592432785077e-10 1.80217801053552e-10 4.94712837625298e-10 1.05676649658387e-09 1.5939149702189e-10 1.47374717264195e-10 9.47869835394812e-11 1.82542540661137e-10
"1779" 28293 1.91665658223296e-10 1.80217801053552e-10 4.94646034604242e-10 1.05676649658387e-09 1.58901328897283e-10 1.48008881522347e-10 9.49706966354445e-11 1.84679140869044e-10
"1780" 28294 1.93738883661514e-10 1.80217801053552e-10 4.94579231583187e-10 1.05676649658387e-09 1.58411160772676e-10 1.486430457805e-10 9.51544097314078e-11 1.86815741076951e-10
"1781" 28295 1.93738883661514e-10 1.80944231238865e-10 4.94512428562131e-10 1.055975121145e-09 1.57929577640668e-10 1.48355680749344e-10 9.75957891467598e-11 1.88952341284859e-10
"1782" 28296 1.93738883661514e-10 1.8098763021986e-10 4.94229650493e-10 1.05700577512273e-09 1.57447994508661e-10 1.48279703804238e-10 9.77795022427231e-11 1.89877988306256e-10
"1783" 28297 1.93738883661514e-10 1.80759953151754e-10 4.94877575637227e-10 1.05621439968386e-09 1.57447994508661e-10 1.49065821952601e-10 9.86456815518567e-11 1.90163294471368e-10
"1784" 28298 1.93738883661514e-10 1.80532276083649e-10 4.95525500781454e-10 1.055423024245e-09 1.57447994508661e-10 1.49851940100965e-10 9.95118608609903e-11 1.9044860063648e-10
"1785" 28299 1.93738883661514e-10 1.80304599015543e-10 4.96173425925681e-10 1.05463164880613e-09 1.57447994508661e-10 1.50638058249328e-10 1.00378040170124e-10 1.90733906801591e-10
"1786" 28300 1.93738883661514e-10 1.80076921947437e-10 4.96821351069909e-10 1.05384027336726e-09 1.57447994508661e-10 1.51424176397691e-10 1.01244219479258e-10 1.91019212966703e-10
"1787" 28301 1.93432452573173e-10 1.80076921947437e-10 4.96687745027797e-10 1.05322188098062e-09 1.57447994508661e-10 1.5249765957721e-10 1.01926685692428e-10 1.91304519131814e-10
"1788" 28302 1.93126021484832e-10 1.77767434448512e-10 4.9740247319308e-10 1.05322188098062e-09 1.57938162633268e-10 1.53359754670679e-10 1.01664031841867e-10 1.9137637834483e-10
"1789" 28303 1.92819590396491e-10 1.75457946949588e-10 4.98117201358363e-10 1.05322188098062e-09 1.58428330757875e-10 1.54221849764147e-10 1.01401377991306e-10 1.91448237557847e-10
"1790" 28304 1.9251315930815e-10 1.73148459450663e-10 4.98831929523646e-10 1.05322188098062e-09 1.58918498882482e-10 1.55083944857615e-10 1.01138724140746e-10 1.91520096770863e-10
"1791" 28305 1.92206728219809e-10 1.70838971951739e-10 4.99546657688928e-10 1.05322188098062e-09 1.5940866700709e-10 1.55946039951084e-10 1.00876070290185e-10 1.91591955983879e-10
"1792" 28306 1.91900297131468e-10 1.68529484452814e-10 5.00261385854211e-10 1.05322188098062e-09 1.59898835131697e-10 1.56808135044552e-10 1.00613416439624e-10 1.91663815196895e-10
"1793" 28307 1.91593866043127e-10 1.6621999695389e-10 5.00976114019494e-10 1.05322188098062e-09 1.60389003256304e-10 1.57670230138021e-10 1.00350762589064e-10 1.91735674409911e-10
"1794" 28308 1.91287434954786e-10 1.63910509454966e-10 5.01690842184776e-10 1.05322188098062e-09 1.60879171380911e-10 1.58532325231489e-10 1.00088108738503e-10 1.91807533622928e-10
"1795" 28309 1.91173325895311e-10 1.61828699024147e-10 5.01474867136701e-10 1.08832053394118e-09 1.60879171380911e-10 1.58532325231489e-10 9.91429886747719e-11 1.91879392835944e-10
"1796" 28310 1.91059216835836e-10 1.59746888593328e-10 5.02189595301983e-10 1.09040203793612e-09 1.65832362582582e-10 1.58320937145438e-10 9.83291955363213e-11 1.91879392835944e-10
"1797" 28311 1.90945107776361e-10 1.5766507816251e-10 5.02904323467266e-10 1.09248354193106e-09 1.70785553784252e-10 1.58109549059388e-10 9.75154023978706e-11 1.91879392835944e-10
"1798" 28312 1.90830998716886e-10 1.55583267731691e-10 5.03619051632549e-10 1.09456504592601e-09 1.75738744985923e-10 1.57898160973337e-10 9.670160925942e-11 1.91879392835944e-10
"1799" 28313 1.90716889657411e-10 1.53501457300872e-10 5.04333779797832e-10 1.09664654992095e-09 1.80691936187593e-10 1.57686772887286e-10 9.58878161209693e-11 1.91879392835944e-10
"1800" 28314 1.90602780597936e-10 1.51419646870053e-10 5.05048507963114e-10 1.09872805391589e-09 1.85645127389264e-10 1.57475384801235e-10 9.50740229825187e-11 1.91879392835944e-10
"1801" 28315 1.90488671538461e-10 1.49337836439235e-10 5.05763236128397e-10 1.10080955791083e-09 1.90598318590935e-10 1.57263996715184e-10 9.4260229844068e-11 1.91879392835944e-10
"1802" 28316 1.90374562478986e-10 1.47256026008416e-10 5.0647796429368e-10 1.10289106190577e-09 1.95551509792605e-10 1.57052608629133e-10 9.34464367056174e-11 1.91879392835944e-10
"1803" 28317 1.90260453419511e-10 1.45174215577597e-10 5.07192692458962e-10 1.10497256590072e-09 2.00504700994276e-10 1.56841220543083e-10 9.26326435671667e-11 1.91879392835944e-10
"1804" 28318 1.90146344360036e-10 1.43092405146779e-10 5.07907420624245e-10 1.10705406989566e-09 2.05457892195946e-10 1.56629832457032e-10 9.18188504287161e-11 1.91879392835944e-10
"1805" 28319 1.90032235300561e-10 1.4101059471596e-10 5.08622148789528e-10 1.1091355738906e-09 2.10411083397617e-10 1.56418444370981e-10 9.10050572902654e-11 1.91879392835944e-10
"1806" 28320 1.89918126241086e-10 1.38928784285141e-10 5.0933687695481e-10 1.11121707788554e-09 2.15364274599287e-10 1.5620705628493e-10 9.01912641518148e-11 1.91879392835944e-10
"1807" 28321 1.89804017181611e-10 1.36846973854323e-10 5.10051605120093e-10 1.11329858188049e-09 2.20317465800958e-10 1.55995668198879e-10 8.93774710133641e-11 1.91879392835944e-10
"1808" 28322 1.89689908122136e-10 1.34765163423504e-10 5.10766333285376e-10 1.11538008587543e-09 2.25270657002629e-10 1.55784280112828e-10 8.85636778749135e-11 1.91879392835944e-10
"1809" 28323 1.89689908122136e-10 1.34038733238191e-10 5.11697036498734e-10 1.11684319748373e-09 2.29707925101892e-10 1.55784280112828e-10 8.77498847364628e-11 1.91807533622928e-10
"1810" 28324 1.89689908122136e-10 1.34266410306297e-10 5.12411764664017e-10 1.11684319748373e-09 2.33182026937142e-10 1.53653856503055e-10 8.78812116617432e-11 1.91807533622928e-10
"1811" 28325 1.89689908122136e-10 1.34494087374403e-10 5.131264928293e-10 1.11684319748373e-09 2.36656128772391e-10 1.51523432893282e-10 8.80125385870235e-11 1.91807533622928e-10
"1812" 28326 1.89689908122136e-10 1.34721764442509e-10 5.13841220994582e-10 1.11684319748373e-09 2.4013023060764e-10 1.49393009283508e-10 8.81438655123039e-11 1.91807533622928e-10
"1813" 28327 1.89689908122136e-10 1.34949441510614e-10 5.14555949159865e-10 1.11684319748373e-09 2.43604332442889e-10 1.47262585673735e-10 8.82751924375842e-11 1.91807533622928e-10
"1814" 28328 1.89689908122136e-10 1.3517711857872e-10 5.15270677325148e-10 1.11684319748373e-09 2.47078434278139e-10 1.45132162063961e-10 8.84065193628646e-11 1.91807533622928e-10
"1815" 28329 1.89689908122136e-10 1.35404795646826e-10 5.1598540549043e-10 1.11684319748373e-09 2.50552536113388e-10 1.43001738454188e-10 8.85378462881449e-11 1.91807533622928e-10
"1816" 28330 1.89689908122136e-10 1.35632472714932e-10 5.16700133655713e-10 1.11684319748373e-09 2.54026637948637e-10 1.40871314844414e-10 8.86691732134253e-11 1.91807533622928e-10
"1817" 28331 1.89804017181611e-10 1.35903548764033e-10 5.16766936676769e-10 1.11658372290539e-09 2.53063471684623e-10 1.39028256265797e-10 8.86691732134253e-11 1.91807533622928e-10
"1818" 28332 1.89804017181611e-10 1.36131225832139e-10 5.16766936676769e-10 1.11441572738433e-09 2.51584382318201e-10 1.36897832656024e-10 8.8485460117462e-11 1.9251973369223e-10
"1819" 28333 1.89804017181611e-10 1.36358902900245e-10 5.16766936676769e-10 1.11224773186328e-09 2.5010529295178e-10 1.3476740904625e-10 8.83017470214987e-11 1.93231933761532e-10
"1820" 28334 1.89804017181611e-10 1.3658657996835e-10 5.16766936676769e-10 1.11007973634222e-09 2.48626203585359e-10 1.32636985436477e-10 8.81180339255353e-11 1.93944133830835e-10
"1821" 28335 1.89804017181611e-10 1.36814257036456e-10 5.16766936676769e-10 1.10791174082116e-09 2.47147114218937e-10 1.30506561826703e-10 8.7934320829572e-11 1.94656333900137e-10
"1822" 28336 1.89804017181611e-10 1.37041934104562e-10 5.16766936676769e-10 1.10574374530011e-09 2.45668024852516e-10 1.2837613821693e-10 8.77506077336087e-11 1.95368533969439e-10
"1823" 28337 1.89804017181611e-10 1.37269611172668e-10 5.16766936676769e-10 1.10357574977905e-09 2.44188935486095e-10 1.26245714607156e-10 8.75668946376454e-11 1.96080734038742e-10
"1824" 28338 1.89804017181611e-10 1.37497288240774e-10 5.16766936676769e-10 1.10140775425799e-09 2.42709846119673e-10 1.24115290997383e-10 8.73831815416821e-11 1.96792934108044e-10
"1825" 28339 1.89804017181611e-10 1.3772496530888e-10 5.16766936676769e-10 1.09923975873694e-09 2.41230756753252e-10 1.21984867387609e-10 8.71994684457188e-11 1.97505134177347e-10
"1826" 28340 1.89804017181611e-10 1.37952642376985e-10 5.16766936676769e-10 1.09707176321588e-09 2.39751667386831e-10 1.19854443777836e-10 8.70157553497554e-11 1.98217334246649e-10
"1827" 28341 1.89804017181611e-10 1.38180319445091e-10 5.16766936676769e-10 1.09490376769482e-09 2.38272578020409e-10 1.17724020168063e-10 8.68320422537921e-11 1.98929534315951e-10
"1828" 28342 1.89804017181611e-10 1.38407996513197e-10 5.16766936676769e-10 1.09273577217377e-09 2.36793488653988e-10 1.15593596558289e-10 8.66483291578288e-11 1.99641734385254e-10
"1829" 28343 1.89804017181611e-10 1.38635673581303e-10 5.16766936676769e-10 1.09056777665271e-09 2.35314399287567e-10 1.13463172948516e-10 8.64646160618655e-11 2.00353934454556e-10
"1830" 28344 1.89804017181611e-10 1.38863350649409e-10 5.16766936676769e-10 1.08839978113165e-09 2.33835309921145e-10 1.11332749338742e-10 8.62809029659022e-11 2.01066134523859e-10
"1831" 28345 1.89804017181611e-10 1.39091027717514e-10 5.16766936676769e-10 1.0862317856106e-09 2.32356220554724e-10 1.09202325728969e-10 8.60971898699389e-11 2.01778334593161e-10
"1832" 28346 1.89996339210477e-10 1.3931870478562e-10 5.15918602469375e-10 1.08614529408448e-09 2.32356220554724e-10 1.09202325728969e-10 8.60971898699389e-11 2.02490534662463e-10
"1833" 28347 1.90188661239343e-10 1.39546381853726e-10 5.15070268261981e-10 1.08605880255837e-09 2.32356220554724e-10 1.09202325728969e-10 8.60971898699389e-11 2.03202734731766e-10
"1834" 28348 1.90380983268209e-10 1.39774058921832e-10 5.14221934054587e-10 1.08597231103225e-09 2.32356220554724e-10 1.09202325728969e-10 8.60971898699389e-11 2.03914934801068e-10
"1835" 28349 1.90573305297075e-10 1.40001735989938e-10 5.13373599847194e-10 1.08588581950614e-09 2.32356220554724e-10 1.09202325728969e-10 8.60971898699389e-11 2.04627134870371e-10
"1836" 28350 1.90765627325941e-10 1.40229413058043e-10 5.125252656398e-10 1.08579932798002e-09 2.32356220554724e-10 1.09202325728969e-10 8.60971898699389e-11 2.05339334939673e-10
"1837" 28351 1.90957949354807e-10 1.40457090126149e-10 5.11676931432406e-10 1.08571283645391e-09 2.32356220554724e-10 1.09202325728969e-10 8.60971898699389e-11 2.06051535008975e-10
"1838" 28352 1.91150271383673e-10 1.40684767194255e-10 5.10828597225012e-10 1.0856263449278e-09 2.32356220554724e-10 1.09202325728969e-10 8.60971898699389e-11 2.06763735078278e-10
"1839" 28353 1.91342593412539e-10 1.40912444262361e-10 5.09980263017618e-10 1.08553985340168e-09 2.32356220554724e-10 1.09202325728969e-10 8.60971898699389e-11 2.0747593514758e-10
"1840" 28354 1.91534915441405e-10 1.41140121330467e-10 5.11060138257997e-10 1.08553985340168e-09 2.33878234884144e-10 1.09489690760125e-10 8.64122298911825e-11 2.07262488195485e-10
"1841" 28355 1.91727237470271e-10 1.41367798398572e-10 5.12140013498376e-10 1.08553985340168e-09 2.35400249213565e-10 1.09777055791281e-10 8.67272699124262e-11 2.07049041243389e-10
"1842" 28356 1.91919559499137e-10 1.41595475466678e-10 5.13219888738754e-10 1.08553985340168e-09 2.36922263542985e-10 1.10064420822437e-10 8.70423099336699e-11 2.06835594291294e-10
"1843" 28357 1.92111881528003e-10 1.41823152534784e-10 5.14299763979133e-10 1.08553985340168e-09 2.38444277872406e-10 1.10351785853593e-10 8.73573499549135e-11 2.06622147339198e-10
"1844" 28358 1.92304203556869e-10 1.4205082960289e-10 5.15379639219511e-10 1.08553985340168e-09 2.39966292201826e-10 1.1063915088475e-10 8.76723899761572e-11 2.06408700387103e-10
"1845" 28359 1.92496525585735e-10 1.42278506670996e-10 5.1645951445989e-10 1.08553985340168e-09 2.41488306531246e-10 1.10926515915906e-10 8.79874299974009e-11 2.06195253435008e-10
"1846" 28360 1.92382416526259e-10 1.42278506670996e-10 5.1645951445989e-10 1.08474847796281e-09 2.43001735868067e-10 1.11213880947062e-10 8.81187569226812e-11 2.05909947269896e-10
"1847" 28361 1.92268307466784e-10 1.42506183739101e-10 5.1253629254329e-10 1.08122405839905e-09 2.44515165204887e-10 1.11501245978218e-10 8.82500838479616e-11 2.05624641104784e-10
"1848" 28362 1.92154198407309e-10 1.42733860807207e-10 5.08613070626689e-10 1.07769963883528e-09 2.46028594541708e-10 1.11788611009374e-10 8.83814107732419e-11 2.05339334939673e-10
"1849" 28363 1.92040089347834e-10 1.42961537875313e-10 5.04689848710089e-10 1.07417521927151e-09 2.47542023878529e-10 1.1207597604053e-10 8.85127376985223e-11 2.05054028774561e-10
"1850" 28364 1.91925980288359e-10 1.43189214943419e-10 5.00766626793489e-10 1.07065079970775e-09 2.49055453215349e-10 1.12363341071686e-10 8.86440646238026e-11 2.0476872260945e-10
"1851" 28365 1.91811871228884e-10 1.43416892011525e-10 4.96843404876888e-10 1.06712638014398e-09 2.5056888255217e-10 1.12650706102843e-10 8.8775391549083e-11 2.04483416444338e-10
"1852" 28366 1.91697762169409e-10 1.4364456907963e-10 4.92920182960288e-10 1.06360196058021e-09 2.5208231188899e-10 1.12938071133999e-10 8.89067184743633e-11 2.04198110279227e-10
"1853" 28367 1.91583653109934e-10 1.43872246147736e-10 4.88996961043688e-10 1.06007754101645e-09 2.53595741225811e-10 1.13225436165155e-10 8.90380453996437e-11 2.03912804114115e-10
"1854" 28368 1.91583653109934e-10 1.46051536703675e-10 4.82929554631239e-10 1.05655312145268e-09 2.54103079335618e-10 1.14298919344674e-10 8.90380453996437e-11 2.05764098156911e-10
"1855" 28369 1.91277222021593e-10 1.46322612752776e-10 4.77144926287922e-10 1.05364709427555e-09 2.54094494343018e-10 1.14510307430725e-10 8.99831654633747e-11 2.05692238943894e-10
"1856" 28370 1.90970790933252e-10 1.46593688801877e-10 4.71360297944605e-10 1.05074106709843e-09 2.54085909350418e-10 1.14721695516776e-10 9.09282855271057e-11 2.05620379730878e-10
"1857" 28371 1.90664359844911e-10 1.46864764850978e-10 4.65575669601288e-10 1.0478350399213e-09 2.54077324357818e-10 1.14933083602827e-10 9.18734055908367e-11 2.05548520517862e-10
"1858" 28372 1.9035792875657e-10 1.47135840900079e-10 4.59791041257971e-10 1.04492901274417e-09 2.54068739365219e-10 1.15144471688877e-10 9.28185256545677e-11 2.05476661304846e-10
"1859" 28373 1.90051497668229e-10 1.4740691694918e-10 4.54006412914654e-10 1.04202298556704e-09 2.54060154372619e-10 1.15355859774928e-10 9.37636457182987e-11 2.0540480209183e-10
"1860" 28374 1.89745066579888e-10 1.47677992998282e-10 4.48221784571336e-10 1.03911695838992e-09 2.54051569380019e-10 1.15567247860979e-10 9.47087657820297e-11 2.05332942878814e-10
"1861" 28375 1.89438635491547e-10 1.47949069047383e-10 4.42437156228019e-10 1.03621093121279e-09 2.54042984387419e-10 1.1577863594703e-10 9.56538858457607e-11 2.05261083665797e-10
"1862" 28376 1.89132204403206e-10 1.48220145096484e-10 4.36652527884702e-10 1.03330490403566e-09 2.54034399394819e-10 1.15990024033081e-10 9.65990059094917e-11 2.05189224452781e-10
"1863" 28377 1.88825773314865e-10 1.48491221145585e-10 4.30867899541385e-10 1.03039887685853e-09 2.54025814402219e-10 1.16201412119132e-10 9.75441259732227e-11 2.05117365239765e-10
"1864" 28378 1.88519342226524e-10 1.48762297194686e-10 4.25083271198068e-10 1.02749284968141e-09 2.5401722940962e-10 1.16412800205182e-10 9.84892460369537e-11 2.05045506026749e-10
"1865" 28379 1.88212911138183e-10 1.49033373243788e-10 4.19298642854751e-10 1.02458682250428e-09 2.5400864441702e-10 1.16624188291233e-10 9.94343661006847e-11 2.04973646813733e-10
"1866" 28380 1.87906480049842e-10 1.49304449292889e-10 4.13514014511433e-10 1.02168079532715e-09 2.5400005942442e-10 1.16835576377284e-10 1.00379486164416e-10 2.04901787600717e-10
"1867" 28381 1.87023082874903e-10 1.48621418088571e-10 4.12732483325095e-10 1.02021768371885e-09 2.5400005942442e-10 1.16759599432179e-10 1.01193279302866e-10 2.05115234552812e-10
"1868" 28382 1.86830760846037e-10 1.48621418088571e-10 4.08891630414459e-10 1.02021768371885e-09 2.5399147443182e-10 1.16759599432179e-10 1.02007072441317e-10 2.05328681504907e-10
"1869" 28383 1.86638438817171e-10 1.48621418088571e-10 4.05050777503824e-10 1.02021768371885e-09 2.5398288943922e-10 1.16759599432179e-10 1.02820865579768e-10 2.05542128457003e-10
"1870" 28384 1.86446116788305e-10 1.48621418088571e-10 4.01209924593188e-10 1.02021768371885e-09 2.53974304446621e-10 1.16759599432179e-10 1.03634658718218e-10 2.05755575409098e-10
"1871" 28385 1.86253794759439e-10 1.48621418088571e-10 3.97369071682552e-10 1.02021768371885e-09 2.53965719454021e-10 1.16759599432179e-10 1.04448451856669e-10 2.05969022361194e-10
"1872" 28386 1.86061472730573e-10 1.48621418088571e-10 3.93528218771917e-10 1.02021768371885e-09 2.53957134461421e-10 1.16759599432179e-10 1.0526224499512e-10 2.06182469313289e-10
"1873" 28387 1.85869150701707e-10 1.48621418088571e-10 3.89687365861281e-10 1.02021768371885e-09 2.53948549468821e-10 1.16759599432179e-10 1.0607603813357e-10 2.06395916265384e-10
"1874" 28388 1.85676828672841e-10 1.48621418088571e-10 3.85846512950645e-10 1.02021768371885e-09 2.53939964476221e-10 1.16759599432179e-10 1.06889831272021e-10 2.0660936321748e-10
"1875" 28389 1.85484506643975e-10 1.48621418088571e-10 3.8200566004001e-10 1.02021768371885e-09 2.53931379483621e-10 1.16759599432179e-10 1.07703624410472e-10 2.06822810169575e-10
"1876" 28390 1.85484506643975e-10 1.48621418088571e-10 3.78098004108318e-10 1.01951279980609e-09 2.56889558216464e-10 1.16548211346128e-10 1.08517417548922e-10 2.09174988016531e-10
"1877" 28391 1.85292184615109e-10 1.49391247254879e-10 3.73974373128551e-10 1.01889440741945e-09 2.56880973223864e-10 1.17258352549386e-10 1.08386090623642e-10 2.09174988016531e-10
"1878" 28392 1.85099862586243e-10 1.50161076421188e-10 3.69850742148785e-10 1.01827601503282e-09 2.56872388231264e-10 1.17968493752644e-10 1.08254763698361e-10 2.09174988016531e-10
"1879" 28393 1.84907540557377e-10 1.50930905587496e-10 3.65727111169018e-10 1.01765762264618e-09 2.56863803238665e-10 1.18678634955901e-10 1.08123436773081e-10 2.09174988016531e-10
"1880" 28394 1.84715218528511e-10 1.51700734753804e-10 3.61603480189251e-10 1.01703923025954e-09 2.56855218246065e-10 1.19388776159159e-10 1.07992109847801e-10 2.09174988016531e-10
"1881" 28395 1.84522896499646e-10 1.52470563920112e-10 3.57479849209484e-10 1.0164208378729e-09 2.56846633253465e-10 1.20098917362417e-10 1.0786078292252e-10 2.09174988016531e-10
"1882" 28396 1.8433057447078e-10 1.5324039308642e-10 3.53356218229717e-10 1.01580244548626e-09 2.56838048260865e-10 1.20809058565675e-10 1.0772945599724e-10 2.09174988016531e-10
"1883" 28397 1.84138252441914e-10 1.54010222252728e-10 3.4923258724995e-10 1.01518405309962e-09 2.56829463268265e-10 1.21519199768933e-10 1.0759812907196e-10 2.09174988016531e-10
"1884" 28398 1.83945930413048e-10 1.54780051419037e-10 3.45108956270183e-10 1.01456566071298e-09 2.56820878275666e-10 1.2222934097219e-10 1.07466802146679e-10 2.09174988016531e-10
"1885" 28399 1.83753608384182e-10 1.55549880585345e-10 3.40985325290416e-10 1.01394726832634e-09 2.56812293283066e-10 1.22939482175448e-10 1.07335475221399e-10 2.09174988016531e-10
"1886" 28400 1.83561286355316e-10 1.56319709751653e-10 3.36861694310649e-10 1.0133288759397e-09 2.56803708290466e-10 1.23649623378706e-10 1.07204148296119e-10 2.09174988016531e-10
"1887" 28401 1.8336896432645e-10 1.57089538917961e-10 3.32738063330882e-10 1.01271048355307e-09 2.56795123297866e-10 1.24359764581964e-10 1.07072821370838e-10 2.09174988016531e-10
"1888" 28402 1.83176642297584e-10 1.57859368084269e-10 3.28614432351115e-10 1.01209209116643e-09 2.56786538305266e-10 1.25069905785222e-10 1.06941494445558e-10 2.09174988016531e-10
"1889" 28403 1.82984320268718e-10 1.58629197250577e-10 3.24490801371348e-10 1.01147369877979e-09 2.56777953312667e-10 1.2578004698848e-10 1.06810167520278e-10 2.09174988016531e-10
"1890" 28404 1.82100923093779e-10 1.59442425397881e-10 3.20634382475803e-10 1.01068232334092e-09 2.56287785188059e-10 1.24571152668015e-10 1.06127701307107e-10 2.08961541064435e-10
"1891" 28405 1.8121752591884e-10 1.6048333061329e-10 3.20634382475803e-10 1.00715790377715e-09 2.54808695821638e-10 1.25492681957323e-10 1.06311414403071e-10 2.08961541064435e-10
"1892" 28406 1.80334128743901e-10 1.615242358287e-10 3.20634382475803e-10 1.00363348421339e-09 2.53329606455217e-10 1.26414211246632e-10 1.06495127499034e-10 2.08961541064435e-10
"1893" 28407 1.79450731568962e-10 1.62565141044109e-10 3.20634382475803e-10 1.00010906464962e-09 2.51850517088795e-10 1.27335740535941e-10 1.06678840594997e-10 2.08961541064435e-10
"1894" 28408 1.78567334394023e-10 1.63606046259518e-10 3.20634382475803e-10 9.96584645085854e-10 2.50371427722374e-10 1.28257269825249e-10 1.06862553690961e-10 2.08961541064435e-10
"1895" 28409 1.77683937219084e-10 1.64646951474928e-10 3.20634382475803e-10 9.93060225522087e-10 2.48892338355953e-10 1.29178799114558e-10 1.07046266786924e-10 2.08961541064435e-10
"1896" 28410 1.76800540044145e-10 1.65687856690337e-10 3.20634382475803e-10 9.89535805958321e-10 2.47413248989531e-10 1.30100328403867e-10 1.07229979882887e-10 2.08961541064435e-10
"1897" 28411 1.75917142869206e-10 1.66728761905746e-10 3.20634382475803e-10 9.86011386394554e-10 2.4593415962311e-10 1.31021857693175e-10 1.07413692978851e-10 2.08961541064435e-10
"1898" 28412 1.75033745694267e-10 1.67769667121156e-10 3.20634382475803e-10 9.82486966830788e-10 2.44455070256689e-10 1.31943386982484e-10 1.07597406074814e-10 2.08961541064435e-10
"1899" 28413 1.75261963813217e-10 1.74112578538731e-10 3.36861694310649e-10 9.82486966830788e-10 2.43491903992674e-10 1.3223075201364e-10 1.10038785490166e-10 2.09246847229547e-10
"1900" 28414 1.75490181932168e-10 1.80455489956307e-10 3.53089006145495e-10 9.82486966830788e-10 2.42528737728659e-10 1.32518117044796e-10 1.12480164905518e-10 2.09532153394659e-10
"1901" 28415 1.75718400051118e-10 1.86798401373883e-10 3.6931631798034e-10 9.82486966830788e-10 2.41565571464645e-10 1.32805482075952e-10 1.1492154432087e-10 2.0981745955977e-10
"1902" 28416 1.75946618170068e-10 1.93141312791459e-10 3.85543629815186e-10 9.82486966830788e-10 2.4060240520063e-10 1.33092847107109e-10 1.17362923736222e-10 2.10102765724882e-10
"1903" 28417 1.76174836289018e-10 1.99484224209034e-10 4.01770941650031e-10 9.82486966830788e-10 2.39639238936615e-10 1.33380212138265e-10 1.19804303151574e-10 2.10388071889993e-10
"1904" 28418 1.77094129554041e-10 2.04786230411201e-10 4.17715475415746e-10 9.29545596584572e-10 2.37188398313579e-10 1.33667577169421e-10 1.21930642545682e-10 2.09747731033707e-10
"1905" 28419 1.77899313759589e-10 2.1090146476067e-10 4.31798602754743e-10 9.32278640709471e-10 2.37704321415986e-10 1.33667577169421e-10 1.24372021961034e-10 2.09819590246723e-10
"1906" 28420 1.78704497965137e-10 2.1701669911014e-10 4.45881730093741e-10 9.35011684834370e-10 2.38220244518393e-10 1.33667577169421e-10 1.26813401376386e-10 2.09891449459739e-10
"1907" 28421 1.79509682170685e-10 2.2313193345961e-10 4.59964857432738e-10 9.37744728959269e-10 2.38736167620799e-10 1.33667577169421e-10 1.29254780791738e-10 2.09963308672756e-10
"1908" 28422 1.80314866376233e-10 2.2924716780908e-10 4.74047984771736e-10 9.40477773084167e-10 2.39252090723206e-10 1.33667577169421e-10 1.3169616020709e-10 2.10035167885772e-10
"1909" 28423 1.81120050581781e-10 2.3536240215855e-10 4.88131112110733e-10 9.43210817209066e-10 2.39768013825612e-10 1.33667577169421e-10 1.34137539622442e-10 2.10107027098788e-10
"1910" 28424 1.81925234787329e-10 2.4147763650802e-10 5.02214239449731e-10 9.45943861333965e-10 2.40283936928019e-10 1.33667577169421e-10 1.36578919037794e-10 2.10178886311804e-10
"1911" 28425 1.82730418992877e-10 2.4759287085749e-10 5.16297366788728e-10 9.48676905458864e-10 2.40799860030426e-10 1.33667577169421e-10 1.39020298453146e-10 2.1025074552482e-10
"1912" 28426 1.83535603198425e-10 2.5370810520696e-10 5.30380494127726e-10 9.51409949583763e-10 2.41315783132832e-10 1.33667577169421e-10 1.41461677868497e-10 2.10322604737837e-10
"1913" 28427 1.84340787403973e-10 2.5982333955643e-10 5.44463621466723e-10 9.54142993708662e-10 2.41831706235239e-10 1.33667577169421e-10 1.43903057283849e-10 2.10394463950853e-10
"1914" 28428 1.85145971609521e-10 2.659385739059e-10 5.58546748805721e-10 9.5687603783356e-10 2.42347629337645e-10 1.33667577169421e-10 1.46344436699201e-10 2.10466323163869e-10
"1915" 28429 1.85951155815069e-10 2.7205380825537e-10 5.72629876144718e-10 9.59609081958459e-10 2.42863552440052e-10 1.33667577169421e-10 1.48785816114553e-10 2.10538182376885e-10
"1916" 28430 1.86756340020617e-10 2.7816904260484e-10 5.86713003483716e-10 9.62342126083358e-10 2.43379475542459e-10 1.33667577169421e-10 1.51227195529905e-10 2.10610041589901e-10
"1917" 28431 1.87561524226165e-10 2.84284276954309e-10 6.00796130822713e-10 9.65075170208257e-10 2.43895398644865e-10 1.33667577169421e-10 1.53668574945257e-10 2.10681900802917e-10
"1918" 28432 1.88366708431713e-10 2.90399511303779e-10 6.14879258161711e-10 9.67808214333156e-10 2.44411321747272e-10 1.33667577169421e-10 1.56109954360609e-10 2.10753760015934e-10
"1919" 28433 1.89171892637261e-10 2.96514745653249e-10 6.28962385500708e-10 9.70541258458055e-10 2.44927244849679e-10 1.33667577169421e-10 1.58551333775961e-10 2.1082561922895e-10
"1920" 28434 1.89057783577786e-10 2.98466359141082e-10 6.27748904218219e-10 9.70541258458055e-10 2.45417412974286e-10 1.33667577169421e-10 1.58551333775961e-10 2.10612172276854e-10
"1921" 28435 1.89057783577786e-10 2.98466359141082e-10 6.25604719722371e-10 9.73274302582954e-10 2.45417412974286e-10 1.33380212138265e-10 1.59417513085095e-10 2.11324372346157e-10
"1922" 28436 1.89057783577786e-10 2.98466359141082e-10 6.23460535226523e-10 9.76007346707852e-10 2.45417412974286e-10 1.33092847107109e-10 1.60283692394228e-10 2.12036572415459e-10
"1923" 28437 1.89057783577786e-10 2.98466359141082e-10 6.21316350730674e-10 9.78740390832751e-10 2.45417412974286e-10 1.32805482075952e-10 1.61149871703362e-10 2.12748772484761e-10
"1924" 28438 1.89057783577786e-10 2.98466359141082e-10 6.19172166234826e-10 9.8147343495765e-10 2.45417412974286e-10 1.32518117044796e-10 1.62016051012496e-10 2.13460972554064e-10
"1925" 28439 1.88252599372238e-10 2.98422960160086e-10 6.18956191186751e-10 9.83175825104817e-10 2.45408827981686e-10 1.32518117044796e-10 1.62698517225666e-10 2.14386619575462e-10
"1926" 28440 1.88559030460579e-10 2.98379561179091e-10 6.17891881931281e-10 9.86700244668584e-10 2.44918659857079e-10 1.32518117044796e-10 1.635646965348e-10 2.14242901149429e-10
"1927" 28441 1.8886546154892e-10 2.98336162198096e-10 6.16827572675812e-10 9.9022466423235e-10 2.44428491732472e-10 1.32518117044796e-10 1.64430875843933e-10 2.14099182723397e-10
"1928" 28442 1.89171892637261e-10 2.982927632171e-10 6.15763263420342e-10 9.93749083796117e-10 2.43938323607864e-10 1.32518117044796e-10 1.65297055153067e-10 2.13955464297365e-10
"1929" 28443 1.89478323725602e-10 2.98249364236105e-10 6.14698954164873e-10 9.97273503359883e-10 2.43448155483257e-10 1.32518117044796e-10 1.661632344622e-10 2.13811745871332e-10
"1930" 28444 1.89784754813943e-10 2.9820596525511e-10 6.13634644909403e-10 1.00079792292365e-09 2.4295798735865e-10 1.32518117044796e-10 1.67029413771334e-10 2.136680274453e-10
"1931" 28445 1.90091185902284e-10 2.98162566274114e-10 6.12570335653934e-10 1.00432234248742e-09 2.42467819234043e-10 1.32518117044796e-10 1.67895593080468e-10 2.13524309019268e-10
"1932" 28446 1.90397616990625e-10 2.98119167293119e-10 6.11506026398464e-10 1.00784676205118e-09 2.41977651109436e-10 1.32518117044796e-10 1.68761772389601e-10 2.13380590593235e-10
"1933" 28447 1.90704048078966e-10 2.98075768312123e-10 6.10441717142995e-10 1.01137118161495e-09 2.41487482984829e-10 1.32518117044796e-10 1.69627951698735e-10 2.13236872167203e-10
"1934" 28448 1.91010479167307e-10 2.98032369331128e-10 6.09377407887525e-10 1.01489560117872e-09 2.40997314860221e-10 1.32518117044796e-10 1.70494131007868e-10 2.13093153741171e-10
"1935" 28449 1.91893876342246e-10 2.98032369331128e-10 6.08529073680131e-10 1.01876598684694e-09 2.40997314860221e-10 1.32518117044796e-10 1.70809171029112e-10 2.12949435315138e-10
"1936" 28450 1.92086198371112e-10 2.97988970350133e-10 6.08529073680131e-10 1.02263637251516e-09 2.41986236102036e-10 1.32805482075952e-10 1.70809171029112e-10 2.11880069867708e-10
"1937" 28451 1.92278520399978e-10 2.97945571369137e-10 6.08529073680131e-10 1.02650675818339e-09 2.4297515734385e-10 1.33092847107109e-10 1.70809171029112e-10 2.10810704420278e-10
"1938" 28452 1.92470842428844e-10 2.97902172388142e-10 6.08529073680131e-10 1.03037714385161e-09 2.43964078585664e-10 1.33380212138265e-10 1.70809171029112e-10 2.09741338972848e-10
"1939" 28453 1.9266316445771e-10 2.97858773407147e-10 6.08529073680131e-10 1.03424752951984e-09 2.44952999827478e-10 1.33667577169421e-10 1.70809171029112e-10 2.08671973525418e-10
"1940" 28454 1.92855486486576e-10 2.97815374426151e-10 6.08529073680131e-10 1.03811791518806e-09 2.45941921069292e-10 1.33954942200577e-10 1.70809171029112e-10 2.07602608077988e-10
"1941" 28455 1.93047808515442e-10 2.97771975445156e-10 6.08529073680131e-10 1.04198830085628e-09 2.46930842311106e-10 1.34242307231733e-10 1.70809171029112e-10 2.06533242630557e-10
"1942" 28456 1.93240130544307e-10 2.9772857646416e-10 6.08529073680131e-10 1.04585868652451e-09 2.4791976355292e-10 1.34529672262889e-10 1.70809171029112e-10 2.05463877183127e-10
"1943" 28457 1.93432452573173e-10 2.97685177483165e-10 6.08529073680131e-10 1.04972907219273e-09 2.48908684794735e-10 1.34817037294045e-10 1.70809171029112e-10 2.04394511735697e-10
"1944" 28458 1.93624774602039e-10 2.9764177850217e-10 6.08529073680131e-10 1.05359945786095e-09 2.49897606036549e-10 1.35104402325202e-10 1.70809171029112e-10 2.03325146288267e-10
"1945" 28459 1.93817096630905e-10 2.97598379521174e-10 6.08529073680131e-10 1.05746984352918e-09 2.50886527278363e-10 1.35391767356358e-10 1.70809171029112e-10 2.02255780840837e-10
"1946" 28460 1.94009418659771e-10 2.97554980540179e-10 6.08529073680131e-10 1.0613402291974e-09 2.51875448520177e-10 1.35679132387514e-10 1.70809171029112e-10 2.01186415393407e-10
"1947" 28461 1.94201740688637e-10 2.97511581559184e-10 6.08529073680131e-10 1.06521061486563e-09 2.52864369761991e-10 1.3596649741867e-10 1.70809171029112e-10 2.00117049945977e-10
"1948" 28462 1.94394062717503e-10 2.97468182578188e-10 6.08529073680131e-10 1.06908100053385e-09 2.53853291003805e-10 1.36253862449826e-10 1.70809171029112e-10 1.99047684498546e-10
"1949" 28463 1.94394062717503e-10 2.97468182578188e-10 6.08662679722242e-10 1.07324400852374e-09 2.54842212245619e-10 1.36253862449826e-10 1.70809171029112e-10 1.98762378333435e-10
"1950" 28464 1.94394062717503e-10 2.97468182578188e-10 6.08796285764353e-10 1.07740701651362e-09 2.55831133487434e-10 1.36253862449826e-10 1.70809171029112e-10 1.98477072168323e-10
"1951" 28465 1.94394062717503e-10 2.97468182578188e-10 6.08929891806465e-10 1.0815700245035e-09 2.56820054729248e-10 1.36253862449826e-10 1.70809171029112e-10 1.98191766003212e-10
"1952" 28466 1.94394062717503e-10 2.97468182578188e-10 6.09063497848576e-10 1.08573303249339e-09 2.57808975971062e-10 1.36253862449826e-10 1.70809171029112e-10 1.979064598381e-10
"1953" 28467 1.94394062717503e-10 2.97468182578188e-10 6.09197103890687e-10 1.08989604048327e-09 2.58797897212876e-10 1.36253862449826e-10 1.70809171029112e-10 1.97621153672989e-10
"1954" 28468 1.94394062717503e-10 2.97468182578188e-10 6.09330709932798e-10 1.09405904847316e-09 2.5978681845469e-10 1.36253862449826e-10 1.70809171029112e-10 1.97335847507877e-10
"1955" 28469 1.94394062717503e-10 2.97468182578188e-10 6.09464315974909e-10 1.09822205646304e-09 2.60775739696504e-10 1.36253862449826e-10 1.70809171029112e-10 1.97050541342765e-10
"1956" 28470 1.94394062717503e-10 2.97468182578188e-10 6.0959792201702e-10 1.10238506445293e-09 2.61764660938319e-10 1.36253862449826e-10 1.70809171029112e-10 1.96765235177654e-10
"1957" 28471 1.94394062717503e-10 2.97468182578188e-10 6.09731528059131e-10 1.10654807244281e-09 2.62753582180133e-10 1.36253862449826e-10 1.70809171029112e-10 1.96479929012542e-10
"1958" 28472 1.94394062717503e-10 2.98194612763501e-10 6.09016799893848e-10 1.10892219875941e-09 2.62753582180133e-10 1.36253862449826e-10 1.70809171029112e-10 1.96408069799526e-10
"1959" 28473 1.94394062717503e-10 2.98921042948814e-10 6.08302071728566e-10 1.11129632507602e-09 2.62753582180133e-10 1.36253862449826e-10 1.70809171029112e-10 1.9633621058651e-10
"1960" 28474 1.94394062717503e-10 2.99647473134127e-10 6.07587343563283e-10 1.11367045139262e-09 2.62753582180133e-10 1.36253862449826e-10 1.70809171029112e-10 1.96264351373494e-10
"1961" 28475 1.94394062717503e-10 3.00373903319439e-10 6.06872615398e-10 1.11604457770922e-09 2.62753582180133e-10 1.36253862449826e-10 1.70809171029112e-10 1.96192492160478e-10
"1962" 28476 1.94394062717503e-10 3.01100333504752e-10 6.06157887232718e-10 1.11841870402583e-09 2.62753582180133e-10 1.36253862449826e-10 1.70809171029112e-10 1.96120632947461e-10
"1963" 28477 1.94586384746369e-10 3.01013535542761e-10 6.06091084211662e-10 1.12079283034243e-09 2.6323516531214e-10 1.34182873035893e-10 1.6836779161376e-10 1.96334079899557e-10
"1964" 28478 1.93895309600296e-10 3.0196764279618e-10 6.06307059259738e-10 1.11064478494606e-09 2.63716748444147e-10 1.34258849980998e-10 1.68052751592516e-10 1.95621879830254e-10
"1965" 28479 1.93204234454223e-10 3.02921750049599e-10 6.06523034307813e-10 1.10049673954969e-09 2.64198331576155e-10 1.34334826926104e-10 1.67737711571273e-10 1.94909679760952e-10
"1966" 28480 1.9251315930815e-10 3.03875857303017e-10 6.06739009355889e-10 1.09034869415332e-09 2.64679914708162e-10 1.34410803871209e-10 1.67422671550029e-10 1.9419747969165e-10
"1967" 28481 1.91822084162077e-10 3.04829964556436e-10 6.06954984403965e-10 1.08020064875696e-09 2.65161497840169e-10 1.34486780816314e-10 1.67107631528785e-10 1.93485279622347e-10
"1968" 28482 1.91131009016005e-10 3.05784071809854e-10 6.07170959452041e-10 1.07005260336059e-09 2.65643080972177e-10 1.3456275776142e-10 1.66792591507542e-10 1.92773079553045e-10
"1969" 28483 1.91131009016005e-10 3.05784071809854e-10 6.08101662665399e-10 1.05964508338588e-09 2.66150419081984e-10 1.34351369675369e-10 1.66661264582261e-10 1.92132738696759e-10
"1970" 28484 1.91131009016005e-10 3.05784071809854e-10 6.09032365878757e-10 1.04923756341116e-09 2.6665775719179e-10 1.34139981589318e-10 1.66529937656981e-10 1.91492397840472e-10
"1971" 28485 1.91131009016005e-10 3.05784071809854e-10 6.09963069092116e-10 1.03883004343645e-09 2.67165095301597e-10 1.33928593503267e-10 1.66398610731701e-10 1.90852056984186e-10
"1972" 28486 1.91131009016005e-10 3.05784071809854e-10 6.10893772305474e-10 1.02842252346174e-09 2.67672433411404e-10 1.33717205417216e-10 1.6626728380642e-10 1.902117161279e-10
"1973" 28487 1.91131009016005e-10 3.05784071809854e-10 6.11824475518833e-10 1.01801500348703e-09 2.68179771521211e-10 1.33505817331165e-10 1.6613595688114e-10 1.89571375271614e-10
"1974" 28488 1.91131009016005e-10 3.05784071809854e-10 6.12755178732191e-10 1.00760748351232e-09 2.68687109631018e-10 1.33294429245115e-10 1.6600462995586e-10 1.88931034415328e-10
"1975" 28489 1.91131009016005e-10 3.05784071809854e-10 6.13685881945550e-10 9.97199963537608e-10 2.69194447740824e-10 1.33083041159064e-10 1.65873303030579e-10 1.88290693559041e-10
"1976" 28490 1.91131009016005e-10 3.05784071809854e-10 6.14616585158908e-10 9.86792443562896e-10 2.69701785850631e-10 1.32871653073013e-10 1.65741976105299e-10 1.87650352702755e-10
"1977" 28491 1.90554042929407e-10 3.05784071809854e-10 6.21018006676634e-10 9.75181286558225e-10 2.70209123960438e-10 1.32660264986962e-10 1.6655576924375e-10 1.87794071128787e-10
"1978" 28492 1.89862967783334e-10 3.05784071809854e-10 6.21300784745765e-10 9.66476156730681e-10 2.70716462070245e-10 1.32736241932067e-10 1.66240729222506e-10 1.8793778955482e-10
"1979" 28493 1.89171892637261e-10 3.05784071809854e-10 6.21583562814897e-10 9.57771026903136e-10 2.71223800180052e-10 1.32812218877173e-10 1.65925689201262e-10 1.88081507980852e-10
"1980" 28494 1.88480817491188e-10 3.05784071809854e-10 6.21866340884028e-10 9.49065897075592e-10 2.71731138289858e-10 1.32888195822278e-10 1.65610649180019e-10 1.88225226406885e-10
"1981" 28495 1.87789742345115e-10 3.05784071809854e-10 6.22149118953159e-10 9.40360767248048e-10 2.72238476399665e-10 1.32964172767383e-10 1.65295609158775e-10 1.88368944832917e-10
"1982" 28496 1.87098667199042e-10 3.05784071809854e-10 6.2243189702229e-10 9.31655637420504e-10 2.72745814509472e-10 1.33040149712489e-10 1.64980569137531e-10 1.88512663258949e-10
"1983" 28497 1.86407592052969e-10 3.05784071809854e-10 6.22714675091422e-10 9.2295050759296e-10 2.73253152619279e-10 1.33116126657594e-10 1.64665529116288e-10 1.88656381684982e-10
"1984" 28498 1.86599914081835e-10 3.05556394741749e-10 6.22066749947195e-10 9.10461483623306e-10 2.73760490729086e-10 1.33192103602699e-10 1.64481816020324e-10 1.89725747132412e-10
"1985" 28499 1.8648580502236e-10 3.05328717673643e-10 6.22066749947195e-10 9.10461483623306e-10 2.73760490729086e-10 1.33479468633855e-10 1.64298102924361e-10 1.90795112579842e-10
"1986" 28500 1.86371695962885e-10 3.05101040605537e-10 6.22066749947195e-10 9.10461483623306e-10 2.73760490729086e-10 1.33766833665012e-10 1.64114389828398e-10 1.91864478027272e-10
"1987" 28501 1.8625758690341e-10 3.04873363537431e-10 6.22066749947195e-10 9.10461483623306e-10 2.73760490729086e-10 1.34054198696168e-10 1.63930676732434e-10 1.92933843474702e-10
"1988" 28502 1.86143477843935e-10 3.04645686469325e-10 6.22066749947195e-10 9.10461483623306e-10 2.73760490729086e-10 1.34341563727324e-10 1.63746963636471e-10 1.94003208922132e-10
"1989" 28503 1.8602936878446e-10 3.0441800940122e-10 6.22066749947195e-10 9.10461483623306e-10 2.73760490729086e-10 1.3462892875848e-10 1.63563250540508e-10 1.95072574369562e-10
"1990" 28504 1.85915259724985e-10 3.04190332333114e-10 6.22066749947195e-10 9.10461483623306e-10 2.73760490729086e-10 1.34916293789636e-10 1.63379537444544e-10 1.96141939816992e-10
"1991" 28505 1.8580115066551e-10 3.03962655265008e-10 6.22066749947195e-10 9.10461483623306e-10 2.73760490729086e-10 1.35203658820792e-10 1.63195824348581e-10 1.97211305264423e-10
"1992" 28506 1.85687041606035e-10 3.03734978196902e-10 6.22066749947195e-10 9.10461483623306e-10 2.73760490729086e-10 1.35491023851948e-10 1.63012111252618e-10 1.98280670711853e-10
"1993" 28507 1.85380610517694e-10 3.03734978196902e-10 6.22714675091422e-10 9.1916661345085e-10 2.73244567626679e-10 1.35702411937999e-10 1.63012111252618e-10 1.98494117663948e-10
"1994" 28508 1.85266501458218e-10 3.04548206344206e-10 6.22647872070366e-10 9.15349571565423e-10 2.74207733890694e-10 1.3591380002405e-10 1.63012111252618e-10 1.98707564616044e-10
"1995" 28509 1.85152392398743e-10 3.05361434491509e-10 6.22581069049311e-10 9.11532529679996e-10 2.75170900154708e-10 1.36125188110101e-10 1.63012111252618e-10 1.98921011568139e-10
"1996" 28510 1.85038283339268e-10 3.06174662638813e-10 6.22514266028255e-10 9.07715487794569e-10 2.76134066418723e-10 1.36336576196152e-10 1.63012111252618e-10 1.99134458520234e-10
"1997" 28511 1.84924174279793e-10 3.06987890786116e-10 6.224474630072e-10 9.03898445909142e-10 2.77097232682738e-10 1.36547964282203e-10 1.63012111252618e-10 1.9934790547233e-10
"1998" 28512 1.84810065220318e-10 3.0780111893342e-10 6.22380659986144e-10 9.00081404023715e-10 2.78060398946753e-10 1.36759352368253e-10 1.63012111252618e-10 1.99561352424425e-10
"1999" 28513 1.84695956160843e-10 3.08614347080723e-10 6.22313856965088e-10 8.96264362138287e-10 2.79023565210767e-10 1.36970740454304e-10 1.63012111252618e-10 1.99774799376521e-10
"2000" 28514 1.84581847101368e-10 3.09427575228027e-10 6.22247053944033e-10 8.9244732025286e-10 2.79986731474782e-10 1.37182128540355e-10 1.63012111252618e-10 1.99988246328616e-10
"2001" 28515 1.84467738041893e-10 3.1024080337533e-10 6.22180250922977e-10 8.88630278367433e-10 2.80949897738797e-10 1.37393516626406e-10 1.63012111252618e-10 2.00201693280711e-10
"2002" 28516 1.84353628982418e-10 3.11054031522634e-10 6.22113447901922e-10 8.84813236482006e-10 2.81913064002811e-10 1.37604904712457e-10 1.63012111252618e-10 2.00415140232807e-10
"2003" 28517 1.84239519922943e-10 3.11867259669937e-10 6.22046644880866e-10 8.80996194596579e-10 2.82876230266826e-10 1.37816292798508e-10 1.63012111252618e-10 2.00628587184902e-10
"2004" 28518 1.84125410863468e-10 3.12680487817241e-10 6.21979841859811e-10 8.77179152711152e-10 2.83839396530841e-10 1.38027680884558e-10 1.63012111252618e-10 2.00842034136998e-10
"2005" 28519 1.84011301803993e-10 3.13493715964545e-10 6.21913038838755e-10 8.73362110825724e-10 2.84802562794856e-10 1.38239068970609e-10 1.63012111252618e-10 2.01055481089093e-10
"2006" 28520 1.83897192744518e-10 3.14306944111848e-10 6.218462358177e-10 8.69545068940297e-10 2.8576572905887e-10 1.3845045705666e-10 1.63012111252618e-10 2.01268928041188e-10
"2007" 28521 1.82016289335165e-10 3.11444622351592e-10 6.21131507652417e-10 8.63094426159924e-10 2.87244818425292e-10 1.38661845142711e-10 1.62329645039447e-10 2.00556727971886e-10
"2008" 28522 1.80135385925812e-10 3.08582300591337e-10 6.20416779487134e-10 8.56643783379551e-10 2.88723907791713e-10 1.38873233228762e-10 1.61647178826277e-10 1.99844527902584e-10
"2009" 28523 1.78254482516459e-10 3.05719978831081e-10 6.19702051321852e-10 8.50193140599178e-10 2.90202997158134e-10 1.39084621314813e-10 1.60964712613107e-10 1.99132327833281e-10
"2010" 28524 1.76373579107106e-10 3.02857657070825e-10 6.18987323156569e-10 8.43742497818805e-10 2.91682086524555e-10 1.39296009400863e-10 1.60282246399937e-10 1.98420127763979e-10
"2011" 28525 1.74492675697754e-10 2.99995335310569e-10 6.18272594991286e-10 8.37291855038432e-10 2.93161175890977e-10 1.39507397486914e-10 1.59599780186766e-10 1.97707927694676e-10
"2012" 28526 1.72611772288401e-10 2.97133013550313e-10 6.17557866826003e-10 8.30841212258058e-10 2.94640265257398e-10 1.39718785572965e-10 1.58917313973596e-10 1.96995727625374e-10
"2013" 28527 1.70730868879048e-10 2.94270691790058e-10 6.16843138660721e-10 8.24390569477685e-10 2.96119354623819e-10 1.39930173659016e-10 1.58234847760426e-10 1.96283527556072e-10
"2014" 28528 1.68849965469695e-10 2.91408370029802e-10 6.16128410495438e-10 8.17939926697312e-10 2.97598443990241e-10 1.40141561745067e-10 1.57552381547255e-10 1.95571327486769e-10
"2015" 28529 1.66776740031476e-10 2.88459250307555e-10 6.17341891777928e-10 8.117819062386e-10 2.97598443990241e-10 1.40141561745067e-10 1.56686202238122e-10 1.95571327486769e-10
"2016" 28530 1.64703514593257e-10 2.85510130585309e-10 6.18555373060417e-10 8.05623885779887e-10 2.97598443990241e-10 1.40141561745067e-10 1.55820022928988e-10 1.95571327486769e-10
"2017" 28531 1.62630289155038e-10 2.82561010863062e-10 6.19768854342907e-10 7.99465865321175e-10 2.97598443990241e-10 1.40141561745067e-10 1.54953843619855e-10 1.95571327486769e-10
"2018" 28532 1.60557063716819e-10 2.79611891140816e-10 6.20982335625397e-10 7.93307844862462e-10 2.97598443990241e-10 1.40141561745067e-10 1.54087664310721e-10 1.95571327486769e-10
"2019" 28533 1.58483838278601e-10 2.76662771418569e-10 6.22195816907886e-10 7.8714982440375e-10 2.97598443990241e-10 1.40141561745067e-10 1.53221485001587e-10 1.95571327486769e-10
"2020" 28534 1.5817740719026e-10 2.76662771418569e-10 6.24124026355659e-10 7.80991803945037e-10 2.97589858997641e-10 1.39930173659016e-10 1.52355305692454e-10 1.96283527556072e-10
"2021" 28535 1.57870976101919e-10 2.77616878671988e-10 6.25337507638149e-10 7.80991803945037e-10 2.97589858997641e-10 1.39930173659016e-10 1.5204026567121e-10 1.96923868412358e-10
"2022" 28536 1.57564545013578e-10 2.78570985925406e-10 6.26550988920638e-10 7.80991803945037e-10 2.97589858997641e-10 1.39930173659016e-10 1.51725225649966e-10 1.97564209268644e-10
"2023" 28537 1.57258113925237e-10 2.79525093178825e-10 6.27764470203128e-10 7.80991803945037e-10 2.97589858997641e-10 1.39930173659016e-10 1.51410185628723e-10 1.9820455012493e-10
"2024" 28538 1.56951682836896e-10 2.80479200432244e-10 6.28977951485618e-10 7.80991803945037e-10 2.97589858997641e-10 1.39930173659016e-10 1.51095145607479e-10 1.98844890981217e-10
"2025" 28539 1.56645251748555e-10 2.81433307685662e-10 6.30191432768107e-10 7.80991803945037e-10 2.97589858997641e-10 1.39930173659016e-10 1.50780105586235e-10 1.99485231837503e-10
"2026" 28540 1.56338820660213e-10 2.82387414939081e-10 6.31404914050597e-10 7.80991803945037e-10 2.97589858997641e-10 1.39930173659016e-10 1.50465065564992e-10 2.00125572693789e-10
"2027" 28541 1.56032389571873e-10 2.83341522192499e-10 6.32618395333087e-10 7.80991803945037e-10 2.97589858997641e-10 1.39930173659016e-10 1.50150025543748e-10 2.00765913550075e-10
"2028" 28542 1.55725958483531e-10 2.83341522192499e-10 6.34032285678743e-10 7.81783179383905e-10 2.98105782100048e-10 1.39930173659016e-10 1.49834985522504e-10 2.00480607384964e-10
"2029" 28543 1.5541952739519e-10 2.83341522192499e-10 6.35446176024399e-10 7.82574554822772e-10 2.98621705202454e-10 1.39930173659016e-10 1.49519945501261e-10 2.00195301219852e-10
"2030" 28544 1.55113096306849e-10 2.83341522192499e-10 6.36860066370056e-10 7.8336593026164e-10 2.99137628304861e-10 1.39930173659016e-10 1.49204905480017e-10 1.99909995054741e-10
"2031" 28545 1.54806665218508e-10 2.83341522192499e-10 6.38273956715712e-10 7.84157305700508e-10 2.99653551407267e-10 1.39930173659016e-10 1.48889865458773e-10 1.99624688889629e-10
"2032" 28546 1.54500234130167e-10 2.83341522192499e-10 6.39687847061368e-10 7.84948681139375e-10 3.00169474509674e-10 1.39930173659016e-10 1.4857482543753e-10 1.99339382724517e-10
"2033" 28547 1.54193803041826e-10 2.83341522192499e-10 6.41101737407025e-10 7.85740056578243e-10 3.00685397612081e-10 1.39930173659016e-10 1.48259785416286e-10 1.99054076559406e-10
"2034" 28548 1.53887371953485e-10 2.83341522192499e-10 6.42515627752681e-10 7.86531432017111e-10 3.01201320714487e-10 1.39930173659016e-10 1.47944745395042e-10 1.98768770394294e-10
"2035" 28549 1.53580940865144e-10 2.83341522192499e-10 6.43929518098337e-10 7.87322807455978e-10 3.01717243816894e-10 1.39930173659016e-10 1.47629705373799e-10 1.98483464229183e-10
"2036" 28550 1.54386125070692e-10 2.84382427407909e-10 6.45343408443993e-10 7.90847227019745e-10 3.01725828809494e-10 1.39930173659016e-10 1.47314665352555e-10 1.98198158064071e-10
"2037" 28551 1.5519130927624e-10 2.85423332623318e-10 6.4675729878965e-10 7.94371646583511e-10 3.01734413802094e-10 1.39930173659016e-10 1.46999625331311e-10 1.97912851898959e-10
"2038" 28552 1.55996493481788e-10 2.86464237838727e-10 6.48171189135306e-10 7.97896066147278e-10 3.01742998794693e-10 1.39930173659016e-10 1.46684585310068e-10 1.97627545733848e-10
"2039" 28553 1.56801677687336e-10 2.87505143054137e-10 6.49585079480962e-10 8.01420485711044e-10 3.01751583787293e-10 1.39930173659016e-10 1.46369545288824e-10 1.97342239568736e-10
"2040" 28554 1.57606861892884e-10 2.88546048269546e-10 6.50998969826619e-10 8.04944905274811e-10 3.01760168779893e-10 1.39930173659016e-10 1.4605450526758e-10 1.97056933403625e-10
"2041" 28555 1.58412046098432e-10 2.89586953484955e-10 6.52412860172275e-10 8.08469324838577e-10 3.01768753772493e-10 1.39930173659016e-10 1.45739465246337e-10 1.96771627238513e-10
"2042" 28556 1.57450435954103e-10 2.90400181632259e-10 6.54474675662159e-10 8.11993744402344e-10 3.01777338765093e-10 1.39930173659016e-10 1.45739465246337e-10 1.96558180286418e-10
"2043" 28557 1.5825562015965e-10 2.90400181632259e-10 6.54474675662159e-10 8.0979260113797e-10 3.01785923757692e-10 1.39008644369707e-10 1.45555752150373e-10 1.96344733334322e-10
"2044" 28558 1.59060804365198e-10 2.90400181632259e-10 6.54474675662159e-10 8.07591457873595e-10 3.01794508750292e-10 1.38087115080399e-10 1.4537203905441e-10 1.96131286382227e-10
"2045" 28559 1.59865988570747e-10 2.90400181632259e-10 6.54474675662159e-10 8.05390314609221e-10 3.01803093742892e-10 1.3716558579109e-10 1.45188325958447e-10 1.95917839430132e-10
"2046" 28560 1.60671172776294e-10 2.90400181632259e-10 6.54474675662159e-10 8.03189171344847e-10 3.01811678735492e-10 1.36244056501781e-10 1.45004612862483e-10 1.95704392478036e-10
"2047" 28561 1.61476356981842e-10 2.90400181632259e-10 6.54474675662159e-10 8.00988028080473e-10 3.01820263728092e-10 1.35322527212473e-10 1.4482089976652e-10 1.95490945525941e-10
"2048" 28562 1.6228154118739e-10 2.90400181632259e-10 6.54474675662159e-10 7.98786884816098e-10 3.01828848720691e-10 1.34400997923164e-10 1.44637186670557e-10 1.95277498573845e-10
"2049" 28563 1.63086725392938e-10 2.90400181632259e-10 6.54474675662159e-10 7.96585741551724e-10 3.01837433713291e-10 1.33479468633855e-10 1.44453473574594e-10 1.9506405162175e-10
"2050" 28564 1.63891909598486e-10 2.90400181632259e-10 6.54474675662159e-10 7.9438459828735e-10 3.01846018705891e-10 1.32557939344547e-10 1.4426976047863e-10 1.94850604669655e-10
"2051" 28565 1.64697093804034e-10 2.90400181632259e-10 6.54474675662159e-10 7.92183455022976e-10 3.01854603698491e-10 1.31636410055238e-10 1.44086047382667e-10 1.94637157717559e-10
"2052" 28566 1.64390662715693e-10 2.89630352465951e-10 6.52130082103144e-10 7.86165269873174e-10 3.03333693064912e-10 1.3092626885198e-10 1.43902334286704e-10 1.96775888612419e-10
"2053" 28567 1.64967628802291e-10 2.88589447250541e-10 6.5006826661326e-10 7.80353215518919e-10 3.03849616167319e-10 1.3092626885198e-10 1.44584800499874e-10 1.96562441660324e-10
"2054" 28568 1.65544594888889e-10 2.87548542035132e-10 6.48006451123377e-10 7.74541161164664e-10 3.04365539269725e-10 1.3092626885198e-10 1.45267266713044e-10 1.96348994708229e-10
"2055" 28569 1.66121560975487e-10 2.86507636819723e-10 6.45944635633493e-10 7.68729106810409e-10 3.04881462372132e-10 1.3092626885198e-10 1.45949732926214e-10 1.96135547756133e-10
"2056" 28570 1.66698527062085e-10 2.85466731604313e-10 6.4388282014361e-10 7.62917052456154e-10 3.05397385474539e-10 1.3092626885198e-10 1.46632199139385e-10 1.95922100804038e-10
"2057" 28571 1.67275493148683e-10 2.84425826388904e-10 6.41821004653726e-10 7.57104998101899e-10 3.05913308576945e-10 1.3092626885198e-10 1.47314665352555e-10 1.95708653851942e-10
"2058" 28572 1.67852459235281e-10 2.83384921173495e-10 6.39759189163843e-10 7.51292943747644e-10 3.06429231679352e-10 1.3092626885198e-10 1.47997131565725e-10 1.95495206899847e-10
"2059" 28573 1.68429425321879e-10 2.82344015958085e-10 6.37697373673959e-10 7.45480889393389e-10 3.06945154781758e-10 1.3092626885198e-10 1.48679597778896e-10 1.95281759947752e-10
"2060" 28574 1.69006391408477e-10 2.81303110742676e-10 6.35635558184076e-10 7.39668835039133e-10 3.07461077884165e-10 1.3092626885198e-10 1.49362063992066e-10 1.95068312995656e-10
"2061" 28575 1.69583357495075e-10 2.80262205527267e-10 6.33573742694193e-10 7.33856780684878e-10 3.07977000986572e-10 1.3092626885198e-10 1.50044530205236e-10 1.94854866043561e-10
"2062" 28576 1.70160323581673e-10 2.79221300311857e-10 6.31511927204309e-10 7.28044726330623e-10 3.08492924088978e-10 1.3092626885198e-10 1.50726996418407e-10 1.94641419091465e-10
"2063" 28577 1.70737289668271e-10 2.78180395096448e-10 6.29450111714426e-10 7.22232671976368e-10 3.09008847191385e-10 1.3092626885198e-10 1.51409462631577e-10 1.9442797213937e-10
"2064" 28578 1.71314255754868e-10 2.77139489881039e-10 6.27388296224542e-10 7.16420617622113e-10 3.09524770293791e-10 1.3092626885198e-10 1.52091928844747e-10 1.94214525187275e-10
"2065" 28579 1.71891221841466e-10 2.76098584665629e-10 6.25326480734659e-10 7.10608563267858e-10 3.10040693396198e-10 1.3092626885198e-10 1.52774395057917e-10 1.94001078235179e-10
"2066" 28580 1.71891221841466e-10 2.75870907597524e-10 6.21752839908245e-10 7.09730696302876e-10 3.09077527132183e-10 1.3092626885198e-10 1.53640574367051e-10 1.93787631283084e-10
"2067" 28581 1.72774619016405e-10 2.75599831548422e-10 6.21819642929301e-10 7.08852829337894e-10 3.0959345023459e-10 1.3092626885198e-10 1.54323040580221e-10 1.92861984261686e-10
"2068" 28582 1.73658016191344e-10 2.75328755499321e-10 6.21886445950356e-10 7.07974962372912e-10 3.10109373336997e-10 1.3092626885198e-10 1.55005506793392e-10 1.91936337240288e-10
"2069" 28583 1.74541413366283e-10 2.7505767945022e-10 6.21953248971412e-10 7.0709709540793e-10 3.10625296439403e-10 1.3092626885198e-10 1.55687973006562e-10 1.9101069021889e-10
"2070" 28584 1.75424810541222e-10 2.74786603401119e-10 6.22020051992467e-10 7.06219228442948e-10 3.1114121954181e-10 1.3092626885198e-10 1.56370439219732e-10 1.90085043197493e-10
"2071" 28585 1.76308207716161e-10 2.74515527352018e-10 6.22086855013523e-10 7.05341361477966e-10 3.11657142644216e-10 1.3092626885198e-10 1.57052905432903e-10 1.89159396176095e-10
"2072" 28586 1.771916048911e-10 2.74244451302917e-10 6.22153658034578e-10 7.04463494512984e-10 3.12173065746623e-10 1.3092626885198e-10 1.57735371646073e-10 1.88233749154697e-10
"2073" 28587 1.78075002066039e-10 2.73973375253815e-10 6.22220461055634e-10 7.03585627548002e-10 3.1268898884903e-10 1.3092626885198e-10 1.58417837859243e-10 1.87308102133299e-10
"2074" 28588 1.78267324094905e-10 2.7392997627282e-10 6.22220461055634e-10 7.18807695642555e-10 3.1268898884903e-10 1.30004739562672e-10 1.5823412476328e-10 1.86382455111901e-10
"2075" 28589 1.78459646123771e-10 2.73886577291825e-10 6.22220461055634e-10 7.34029763737107e-10 3.1268898884903e-10 1.29083210273363e-10 1.58050411667317e-10 1.85456808090504e-10
"2076" 28590 1.78651968152637e-10 2.73843178310829e-10 6.22220461055634e-10 7.49251831831659e-10 3.1268898884903e-10 1.28161680984054e-10 1.57866698571353e-10 1.84531161069106e-10
"2077" 28591 1.78844290181503e-10 2.73799779329834e-10 6.22220461055634e-10 7.64473899926212e-10 3.1268898884903e-10 1.27240151694746e-10 1.5768298547539e-10 1.83605514047708e-10
"2078" 28592 1.78730181122028e-10 2.69950633498293e-10 6.09983174158444e-10 7.65165832135127e-10 3.1268040385643e-10 1.26166668515226e-10 1.56554152315696e-10 1.82536148600278e-10
"2079" 28593 1.78616072062553e-10 2.69950633498293e-10 6.09983174158444e-10 7.81179275668547e-10 3.1268040385643e-10 1.2587930348407e-10 1.56554152315696e-10 1.82250842435166e-10
"2080" 28594 1.78501963003078e-10 2.69950633498293e-10 6.09983174158444e-10 7.97192719201967e-10 3.1268040385643e-10 1.25591938452914e-10 1.56554152315696e-10 1.81965536270055e-10
"2081" 28595 1.78387853943603e-10 2.69950633498293e-10 6.09983174158444e-10 8.13206162735387e-10 3.1268040385643e-10 1.25304573421758e-10 1.56554152315696e-10 1.81680230104943e-10
"2082" 28596 1.78273744884128e-10 2.69950633498293e-10 6.09983174158444e-10 8.29219606268807e-10 3.1268040385643e-10 1.25017208390602e-10 1.56554152315696e-10 1.81394923939832e-10
"2083" 28597 1.78159635824653e-10 2.69950633498293e-10 6.09983174158444e-10 8.45233049802228e-10 3.1268040385643e-10 1.24729843359446e-10 1.56554152315696e-10 1.8110961777472e-10
"2084" 28598 1.78045526765177e-10 2.69950633498293e-10 6.09983174158444e-10 8.61246493335648e-10 3.1268040385643e-10 1.2444247832829e-10 1.56554152315696e-10 1.80824311609608e-10
"2085" 28599 1.77931417705702e-10 2.69950633498293e-10 6.09983174158444e-10 8.77259936869068e-10 3.1268040385643e-10 1.24155113297133e-10 1.56554152315696e-10 1.80539005444497e-10
"2086" 28600 1.77817308646227e-10 2.69950633498293e-10 6.09983174158444e-10 8.93273380402488e-10 3.1268040385643e-10 1.23867748265977e-10 1.56554152315696e-10 1.80253699279385e-10
"2087" 28601 1.78394274732825e-10 2.70763861645597e-10 6.100499771795e-10 8.93186888876374e-10 3.1268898884903e-10 1.2465386641434e-10 1.56554152315696e-10 1.82104993322181e-10
"2088" 28602 1.78971240819423e-10 2.715770897929e-10 6.10116780200555e-10 8.93100397350259e-10 3.12697573841629e-10 1.25439984562703e-10 1.56554152315696e-10 1.83956287364976e-10
"2089" 28603 1.79548206906021e-10 2.72390317940204e-10 6.10183583221611e-10 8.93013905824145e-10 3.12706158834229e-10 1.26226102711067e-10 1.56554152315696e-10 1.85807581407772e-10
"2090" 28604 1.80125172992619e-10 2.73203546087507e-10 6.10250386242666e-10 8.92927414298031e-10 3.12714743826829e-10 1.2701222085943e-10 1.56554152315696e-10 1.87658875450568e-10
"2091" 28605 1.80702139079217e-10 2.74016774234811e-10 6.10317189263722e-10 8.92840922771916e-10 3.12723328819429e-10 1.27798339007793e-10 1.56554152315696e-10 1.89510169493363e-10
"2092" 28606 1.81279105165815e-10 2.74830002382114e-10 6.10383992284777e-10 8.92754431245802e-10 3.12731913812029e-10 1.28584457156156e-10 1.56554152315696e-10 1.91361463536159e-10
"2093" 28607 1.81856071252413e-10 2.75643230529418e-10 6.10450795305833e-10 8.92667939719688e-10 3.12740498804629e-10 1.29370575304519e-10 1.56554152315696e-10 1.93212757578954e-10
"2094" 28608 1.85311446982778e-10 2.75643230529418e-10 6.12579413816772e-10 8.93459315158555e-10 3.13230666929236e-10 1.29294598359414e-10 1.56554152315696e-10 1.9506405162175e-10
"2095" 28609 1.85005015894437e-10 2.7759484401725e-10 6.14507623264544e-10 8.93372823632441e-10 3.16197430654678e-10 1.29294598359414e-10 1.56554152315696e-10 1.9506405162175e-10
"2096" 28610 1.84698584806096e-10 2.79546457505083e-10 6.16435832712317e-10 8.93286332106327e-10 3.19164194380121e-10 1.29294598359414e-10 1.56554152315696e-10 1.9506405162175e-10
"2097" 28611 1.84392153717755e-10 2.81498070992915e-10 6.18364042160089e-10 8.93199840580212e-10 3.22130958105563e-10 1.29294598359414e-10 1.56554152315696e-10 1.9506405162175e-10
"2098" 28612 1.84085722629414e-10 2.83449684480748e-10 6.20292251607862e-10 8.93113349054098e-10 3.25097721831006e-10 1.29294598359414e-10 1.56554152315696e-10 1.9506405162175e-10
"2099" 28613 1.83779291541073e-10 2.85401297968581e-10 6.22220461055634e-10 8.93026857527984e-10 3.28064485556448e-10 1.29294598359414e-10 1.56554152315696e-10 1.9506405162175e-10
"2100" 28614 1.83472860452732e-10 2.87352911456413e-10 6.24148670503406e-10 8.92940366001869e-10 3.3103124928189e-10 1.29294598359414e-10 1.56554152315696e-10 1.9506405162175e-10
"2101" 28615 1.83166429364391e-10 2.89304524944246e-10 6.25362151785896e-10 8.92235482089116e-10 3.29044821805662e-10 1.28660434101261e-10 1.56370439219732e-10 1.94423710765464e-10
"2102" 28616 1.83166429364391e-10 2.91212739451083e-10 6.27223558212613e-10 8.92148990563002e-10 3.32011585531105e-10 1.28736411046367e-10 1.56186726123769e-10 1.94709016930575e-10
"2103" 28617 1.83166429364391e-10 2.9312095395792e-10 6.2908496463933e-10 8.92062499036887e-10 3.34978349256547e-10 1.28812387991472e-10 1.56003013027806e-10 1.94994323095687e-10
"2104" 28618 1.83166429364391e-10 2.95029168464757e-10 6.30946371066047e-10 8.91976007510773e-10 3.3794511298199e-10 1.28888364936577e-10 1.55819299931842e-10 1.95279629260798e-10
"2105" 28619 1.83166429364391e-10 2.96937382971594e-10 6.32807777492763e-10 8.91889515984659e-10 3.40911876707432e-10 1.28964341881683e-10 1.55635586835879e-10 1.9556493542591e-10
"2106" 28620 1.83166429364391e-10 2.98845597478432e-10 6.3466918391948e-10 8.91803024458544e-10 3.43878640432875e-10 1.29040318826788e-10 1.55451873739916e-10 1.95850241591022e-10
"2107" 28621 1.83166429364391e-10 3.00753811985269e-10 6.36530590346197e-10 8.9171653293243e-10 3.46845404158317e-10 1.29116295771893e-10 1.55268160643952e-10 1.96135547756133e-10
"2108" 28622 1.83166429364391e-10 3.02662026492106e-10 6.38391996772914e-10 8.91630041406316e-10 3.4981216788376e-10 1.29192272716999e-10 1.55084447547989e-10 1.96420853921245e-10
"2109" 28623 1.83472860452732e-10 3.04700437941929e-10 6.38109218703783e-10 8.97788061865028e-10 3.49820752876359e-10 1.29192272716999e-10 1.54900734452026e-10 1.987730317682e-10
"2110" 28624 1.83665182481597e-10 3.04700437941929e-10 6.38890749890121e-10 8.98579437303896e-10 3.51299842242781e-10 1.28980884630948e-10 1.54900734452026e-10 1.987730317682e-10
"2111" 28625 1.83857504510463e-10 3.04700437941929e-10 6.39672281076459e-10 8.99370812742763e-10 3.52778931609202e-10 1.28769496544897e-10 1.54900734452026e-10 1.987730317682e-10
"2112" 28626 1.84049826539329e-10 3.04700437941929e-10 6.40453812262797e-10 9.00162188181631e-10 3.54258020975623e-10 1.28558108458846e-10 1.54900734452026e-10 1.987730317682e-10
"2113" 28627 1.84242148568195e-10 3.04700437941929e-10 6.41235343449136e-10 9.00953563620499e-10 3.55737110342045e-10 1.28346720372795e-10 1.54900734452026e-10 1.987730317682e-10
"2114" 28628 1.84434470597061e-10 3.04700437941929e-10 6.42016874635474e-10 9.01744939059366e-10 3.57216199708466e-10 1.28135332286744e-10 1.54900734452026e-10 1.987730317682e-10
"2115" 28629 1.84626792625927e-10 3.04700437941929e-10 6.42798405821812e-10 9.02536314498234e-10 3.58695289074887e-10 1.27923944200694e-10 1.54900734452026e-10 1.987730317682e-10
"2116" 28630 1.84819114654793e-10 3.04700437941929e-10 6.4357993700815e-10 9.03327689937102e-10 3.60174378441309e-10 1.27712556114643e-10 1.54900734452026e-10 1.987730317682e-10
"2117" 28631 1.85011436683659e-10 3.04700437941929e-10 6.44361468194489e-10 9.04119065375969e-10 3.6165346780773e-10 1.27501168028592e-10 1.54900734452026e-10 1.987730317682e-10
"2118" 28632 1.85203758712525e-10 3.04700437941929e-10 6.45142999380827e-10 9.04910440814837e-10 3.63132557174151e-10 1.27289779942541e-10 1.54900734452026e-10 1.987730317682e-10
"2119" 28633 1.85396080741391e-10 3.04700437941929e-10 6.45924530567165e-10 9.05701816253705e-10 3.64611646540573e-10 1.2707839185649e-10 1.54900734452026e-10 1.987730317682e-10
"2120" 28634 1.85588402770257e-10 3.04700437941929e-10 6.46706061753503e-10 9.06493191692572e-10 3.66090735906994e-10 1.26867003770439e-10 1.54900734452026e-10 1.987730317682e-10
"2121" 28635 1.85780724799123e-10 3.04700437941929e-10 6.47487592939842e-10 9.0728456713144e-10 3.67569825273415e-10 1.26655615684389e-10 1.54900734452026e-10 1.987730317682e-10
"2122" 28636 1.85973046827989e-10 3.04700437941929e-10 6.4826912412618e-10 9.08075942570307e-10 3.69048914639837e-10 1.26444227598338e-10 1.54900734452026e-10 1.987730317682e-10
"2123" 28637 1.85973046827989e-10 3.04017406737612e-10 6.49117458333574e-10 9.06785814014233e-10 3.70528004006258e-10 1.26232839512287e-10 1.54218268238855e-10 1.987730317682e-10
"2124" 28638 1.85973046827989e-10 3.04288482786713e-10 6.49117458333574e-10 9.07869811774761e-10 3.71516925248072e-10 1.26232839512287e-10 1.54401981334819e-10 1.98487725603089e-10
"2125" 28639 1.85973046827989e-10 3.04559558835814e-10 6.49117458333574e-10 9.08953809535289e-10 3.72505846489886e-10 1.26232839512287e-10 1.54585694430782e-10 1.98202419437977e-10
"2126" 28640 1.85973046827989e-10 3.04830634884915e-10 6.49117458333574e-10 9.10037807295818e-10 3.734947677317e-10 1.26232839512287e-10 1.54769407526745e-10 1.97917113272866e-10
"2127" 28641 1.85973046827989e-10 3.05101710934017e-10 6.49117458333574e-10 9.11121805056346e-10 3.74483688973514e-10 1.26232839512287e-10 1.54953120622709e-10 1.97631807107754e-10
"2128" 28642 1.85973046827989e-10 3.05372786983118e-10 6.49117458333574e-10 9.12205802816874e-10 3.75472610215329e-10 1.26232839512287e-10 1.55136833718672e-10 1.97346500942643e-10
"2129" 28643 1.85973046827989e-10 3.05643863032219e-10 6.49117458333574e-10 9.13289800577403e-10 3.76461531457143e-10 1.26232839512287e-10 1.55320546814635e-10 1.97061194777531e-10
"2130" 28644 1.85973046827989e-10 3.0591493908132e-10 6.49117458333574e-10 9.14373798337931e-10 3.77450452698957e-10 1.26232839512287e-10 1.55504259910599e-10 1.96775888612419e-10
"2131" 28645 1.85780724799123e-10 3.0591493908132e-10 6.48335927147235e-10 9.16488450076191e-10 3.77450452698957e-10 1.26444227598338e-10 1.55687973006562e-10 1.96704029399403e-10
"2132" 28646 1.85588402770257e-10 3.0591493908132e-10 6.47554395960897e-10 9.18603101814451e-10 3.77450452698957e-10 1.26655615684389e-10 1.55871686102525e-10 1.96632170186387e-10
"2133" 28647 1.85396080741391e-10 3.0591493908132e-10 6.46772864774559e-10 9.20717753552711e-10 3.77450452698957e-10 1.26867003770439e-10 1.56055399198489e-10 1.96560310973371e-10
"2134" 28648 1.85203758712525e-10 3.0591493908132e-10 6.45991333588221e-10 9.22832405290971e-10 3.77450452698957e-10 1.2707839185649e-10 1.56239112294452e-10 1.96488451760355e-10
"2135" 28649 1.85011436683659e-10 3.0591493908132e-10 6.45209802401882e-10 9.2494705702923e-10 3.77450452698957e-10 1.27289779942541e-10 1.56422825390415e-10 1.96416592547339e-10
"2136" 28650 1.84819114654793e-10 3.0591493908132e-10 6.44428271215544e-10 9.2706170876749e-10 3.77450452698957e-10 1.27501168028592e-10 1.56606538486379e-10 1.96344733334322e-10
"2137" 28651 1.84626792625927e-10 3.05687262013214e-10 6.43646740029206e-10 9.22725717725377e-10 3.77424697721157e-10 1.27712556114643e-10 1.56790251582342e-10 1.9563253326502e-10
"2138" 28652 1.83515177332038e-10 3.05687262013214e-10 6.42865208842868e-10 9.2102332757821e-10 3.76435776479343e-10 1.27636579169537e-10 1.56790251582342e-10 1.94776614769685e-10
"2139" 28653 1.82595884067015e-10 3.05958338062316e-10 6.42083677656529e-10 9.17206285692783e-10 3.74965272105522e-10 1.27349214138381e-10 1.56921578507622e-10 1.93992555487367e-10
"2140" 28654 1.81676590801992e-10 3.06229414111417e-10 6.41302146470191e-10 9.13389243807356e-10 3.734947677317e-10 1.27061849107225e-10 1.57052905432903e-10 1.93208496205048e-10
"2141" 28655 1.80757297536969e-10 3.06500490160518e-10 6.40520615283853e-10 9.09572201921928e-10 3.72024263357879e-10 1.26774484076069e-10 1.57184232358183e-10 1.9242443692273e-10
"2142" 28656 1.79838004271946e-10 3.06771566209619e-10 6.39739084097515e-10 9.05755160036501e-10 3.70553758984057e-10 1.26487119044913e-10 1.57315559283463e-10 1.91640377640411e-10
"2143" 28657 1.78918711006923e-10 3.0704264225872e-10 6.38957552911176e-10 9.01938118151074e-10 3.69083254610236e-10 1.26199754013757e-10 1.57446886208744e-10 1.90856318358092e-10
"2144" 28658 1.779994177419e-10 3.07313718307821e-10 6.38176021724838e-10 8.98121076265647e-10 3.67612750236414e-10 1.259123889826e-10 1.57578213134024e-10 1.90072259075774e-10
"2145" 28659 1.77194233536352e-10 3.08354623523231e-10 6.37327687517444e-10 8.95215049088519e-10 3.69100424595435e-10 1.25625023951444e-10 1.57578213134024e-10 1.89002893628344e-10
"2146" 28660 1.76389049330804e-10 3.0939552873864e-10 6.36479353310051e-10 8.92309021911392e-10 3.70588098954456e-10 1.25337658920288e-10 1.57578213134024e-10 1.87933528180914e-10
"2147" 28661 1.75583865125256e-10 3.10436433954049e-10 6.35631019102657e-10 8.89402994734264e-10 3.72075773313478e-10 1.25050293889132e-10 1.57578213134024e-10 1.86864162733483e-10
"2148" 28662 1.74778680919708e-10 3.11477339169459e-10 6.34782684895263e-10 8.86496967557137e-10 3.73563447672499e-10 1.24762928857976e-10 1.57578213134024e-10 1.85794797286053e-10
"2149" 28663 1.7397349671416e-10 3.12518244384868e-10 6.33934350687869e-10 8.83590940380009e-10 3.7505112203152e-10 1.2447556382682e-10 1.57578213134024e-10 1.84725431838623e-10
"2150" 28664 1.73168312508612e-10 3.13559149600277e-10 6.33086016480475e-10 8.80684913202882e-10 3.76538796390541e-10 1.24188198795664e-10 1.57578213134024e-10 1.83656066391193e-10
"2151" 28665 1.72363128303064e-10 3.14600054815687e-10 6.32237682273082e-10 8.77778886025754e-10 3.78026470749562e-10 1.23900833764507e-10 1.57578213134024e-10 1.82586700943763e-10
"2152" 28666 1.71557944097516e-10 3.15640960031096e-10 6.31389348065688e-10 8.74872858848626e-10 3.79514145108583e-10 1.23613468733351e-10 1.57578213134024e-10 1.81517335496333e-10
"2153" 28667 1.70446328803627e-10 3.15868637099202e-10 6.31389348065688e-10 8.7134843928486e-10 3.79514145108583e-10 1.23613468733351e-10 1.57578213134024e-10 1.813736170703e-10
"2154" 28668 1.69334713509738e-10 3.16096314167308e-10 6.31389348065688e-10 8.67824019721093e-10 3.79514145108583e-10 1.23613468733351e-10 1.57578213134024e-10 1.81229898644268e-10
"2155" 28669 1.68223098215849e-10 3.16323991235414e-10 6.31389348065688e-10 8.64299600157327e-10 3.79514145108583e-10 1.23613468733351e-10 1.57578213134024e-10 1.81086180218236e-10
"2156" 28670 1.6711148292196e-10 3.16551668303519e-10 6.31389348065688e-10 8.6077518059356e-10 3.79514145108583e-10 1.23613468733351e-10 1.57578213134024e-10 1.80942461792203e-10
"2157" 28671 1.65999867628071e-10 3.16779345371625e-10 6.31389348065688e-10 8.57250761029794e-10 3.79514145108583e-10 1.23613468733351e-10 1.57578213134024e-10 1.80798743366171e-10
"2158" 28672 1.64888252334182e-10 3.17007022439731e-10 6.31389348065688e-10 8.53726341466027e-10 3.79514145108583e-10 1.23613468733351e-10 1.57578213134024e-10 1.80655024940139e-10
"2159" 28673 1.63776637040293e-10 3.17234699507837e-10 6.31389348065688e-10 8.50201921902261e-10 3.79514145108583e-10 1.23613468733351e-10 1.57578213134024e-10 1.80511306514106e-10
"2160" 28674 1.62893239865354e-10 3.17234699507837e-10 6.32170879252026e-10 8.46677502338494e-10 3.80993234475005e-10 1.23613468733351e-10 1.57761926229987e-10 1.81151647370393e-10
"2161" 28675 1.60820014427135e-10 3.17234699507837e-10 6.3301921345942e-10 8.45886126899627e-10 3.82472323841426e-10 1.22979304475199e-10 1.57761926229987e-10 1.79940694183883e-10
"2162" 28676 1.58746788988917e-10 3.17234699507837e-10 6.33867547666814e-10 8.45094751460759e-10 3.83951413207847e-10 1.22345140217046e-10 1.57761926229987e-10 1.78729740997374e-10
"2163" 28677 1.56673563550698e-10 3.17234699507837e-10 6.34715881874207e-10 8.44303376021891e-10 3.85430502574269e-10 1.21710975958894e-10 1.57761926229987e-10 1.77518787810865e-10
"2164" 28678 1.54600338112479e-10 3.17234699507837e-10 6.35564216081601e-10 8.43512000583024e-10 3.8690959194069e-10 1.21076811700741e-10 1.57761926229987e-10 1.76307834624355e-10
"2165" 28679 1.5252711267426e-10 3.17234699507837e-10 6.36412550288995e-10 8.42720625144156e-10 3.88388681307111e-10 1.20442647442589e-10 1.57761926229987e-10 1.75096881437846e-10
"2166" 28680 1.50760318324382e-10 3.17234699507837e-10 6.36196575240919e-10 8.44010753700231e-10 3.88878849431718e-10 1.19732506239331e-10 1.58707046293718e-10 1.72960281229939e-10
"2167" 28681 1.48993523974504e-10 3.17234699507837e-10 6.35980600192844e-10 8.45300882256305e-10 3.89369017556326e-10 1.19022365036073e-10 1.59652166357449e-10 1.70823681022031e-10
"2168" 28682 1.47226729624626e-10 3.17234699507837e-10 6.35764625144768e-10 8.4659101081238e-10 3.89859185680933e-10 1.18312223832815e-10 1.6059728642118e-10 1.68687080814124e-10
"2169" 28683 1.45459935274749e-10 3.17234699507837e-10 6.35548650096692e-10 8.47881139368455e-10 3.9034935380554e-10 1.17602082629558e-10 1.61542406484911e-10 1.66550480606217e-10
"2170" 28684 1.43693140924871e-10 3.17234699507837e-10 6.35332675048616e-10 8.49171267924529e-10 3.90839521930147e-10 1.168919414263e-10 1.62487526548642e-10 1.6441388039831e-10
"2171" 28685 1.41926346574993e-10 3.17234699507837e-10 6.35116700000541e-10 8.50461396480604e-10 3.91329690054754e-10 1.16181800223042e-10 1.63432646612373e-10 1.62277280190403e-10
"2172" 28686 1.40159552225115e-10 3.17234699507837e-10 6.34900724952465e-10 8.51751525036679e-10 3.91819858179361e-10 1.15471659019784e-10 1.64377766676104e-10 1.60140679982496e-10
"2173" 28687 1.38392757875237e-10 3.17234699507837e-10 6.34684749904389e-10 8.53041653592753e-10 3.92310026303969e-10 1.14761517816526e-10 1.65322886739835e-10 1.58004079774588e-10
"2174" 28688 1.36625963525359e-10 3.17234699507837e-10 6.34468774856314e-10 8.54331782148828e-10 3.92800194428576e-10 1.14051376613268e-10 1.66268006803566e-10 1.55867479566681e-10
"2175" 28689 1.34859169175481e-10 3.17234699507837e-10 6.34252799808238e-10 8.55621910704902e-10 3.93290362553183e-10 1.13341235410011e-10 1.67213126867297e-10 1.53730879358774e-10
"2176" 28690 1.33092374825604e-10 3.17234699507837e-10 6.34036824760162e-10 8.56912039260977e-10 3.9378053067779e-10 1.12631094206753e-10 1.68158246931028e-10 1.51594279150867e-10
"2177" 28691 1.31325580475726e-10 3.17234699507837e-10 6.33820849712086e-10 8.58202167817052e-10 3.94270698802397e-10 1.11920953003495e-10 1.69103366994759e-10 1.4945767894296e-10
"2178" 28692 1.29558786125848e-10 3.17234699507837e-10 6.33604874664011e-10 8.59492296373126e-10 3.94760866927004e-10 1.11210811800237e-10 1.7004848705849e-10 1.47321078735053e-10
"2179" 28693 1.2779199177597e-10 3.17234699507837e-10 6.33388899615935e-10 8.60782424929201e-10 3.95251035051612e-10 1.10500670596979e-10 1.70993607122221e-10 1.45184478527145e-10
"2180" 28694 1.26025197426092e-10 3.17234699507837e-10 6.33172924567859e-10 8.62072553485276e-10 3.95741203176219e-10 1.09790529393722e-10 1.71938727185952e-10 1.43047878319238e-10
"2181" 28695 1.23951971987873e-10 3.17007022439731e-10 6.36813368415328e-10 8.61194686520294e-10 3.95749788168819e-10 1.08869000104413e-10 1.72070054111233e-10 1.41836925132729e-10
"2182" 28696 1.23951971987873e-10 3.16052915186312e-10 6.40453812262797e-10 8.61108194994179e-10 3.95749788168819e-10 1.08869000104413e-10 1.69943714717124e-10 1.4062597194622e-10
"2183" 28697 1.23951971987873e-10 3.15781839137211e-10 6.44310231158342e-10 8.59199674051466e-10 3.95749788168819e-10 1.08657612018362e-10 1.70075041642405e-10 1.4062597194622e-10
"2184" 28698 1.23951971987873e-10 3.15781839137211e-10 6.47235946840529e-10 8.59113182525351e-10 3.95268205036811e-10 1.07584128838843e-10 1.69523902354515e-10 1.41266312802506e-10
"2185" 28699 1.23951971987873e-10 3.15781839137211e-10 6.50161662522715e-10 8.59026690999237e-10 3.94786621904804e-10 1.06510645659324e-10 1.68972763066625e-10 1.41906653658792e-10
"2186" 28700 1.23951971987873e-10 3.15781839137211e-10 6.53087378204901e-10 8.58940199473123e-10 3.94305038772797e-10 1.05437162479804e-10 1.68421623778735e-10 1.42546994515078e-10
"2187" 28701 1.23951971987873e-10 3.15781839137211e-10 6.56013093887088e-10 8.58853707947008e-10 3.93823455640789e-10 1.04363679300285e-10 1.67870484490845e-10 1.43187335371364e-10
"2188" 28702 1.23951971987873e-10 3.15781839137211e-10 6.58938809569274e-10 8.58767216420894e-10 3.93341872508782e-10 1.03290196120766e-10 1.67319345202955e-10 1.43827676227651e-10
"2189" 28703 1.23951971987873e-10 3.15781839137211e-10 6.6186452525146e-10 8.5868072489478e-10 3.92860289376774e-10 1.02216712941246e-10 1.66768205915065e-10 1.44468017083937e-10
"2190" 28704 1.23951971987873e-10 3.15781839137211e-10 6.61998131293571e-10 8.58388102573119e-10 3.92370121252167e-10 1.01143229761727e-10 1.66085739701895e-10 1.44182710918825e-10
"2191" 28705 1.25063587281762e-10 3.15781839137211e-10 6.61350206149344e-10 8.62258488241343e-10 3.92370121252167e-10 1.00281134668259e-10 1.65403273488724e-10 1.44110851705809e-10
"2192" 28706 1.26175202575651e-10 3.15781839137211e-10 6.60702281005117e-10 8.66128873909567e-10 3.92370121252167e-10 9.94190395747902e-11 1.64720807275554e-10 1.44038992492793e-10
"2193" 28707 1.2728681786954e-10 3.15781839137211e-10 6.6005435586089e-10 8.69999259577791e-10 3.92370121252167e-10 9.85569444813218e-11 1.64038341062384e-10 1.43967133279777e-10
"2194" 28708 1.28398433163429e-10 3.15781839137211e-10 6.59406430716663e-10 8.73869645246014e-10 3.92370121252167e-10 9.76948493878533e-11 1.63355874849214e-10 1.43895274066761e-10
"2195" 28709 1.29510048457318e-10 3.15781839137211e-10 6.58758505572436e-10 8.77740030914238e-10 3.92370121252167e-10 9.68327542943849e-11 1.62673408636043e-10 1.43823414853744e-10
"2196" 28710 1.30429341722341e-10 3.15554162069105e-10 6.59041283641567e-10 8.46511763621906e-10 3.92860289376774e-10 9.68327542943849e-11 1.62673408636043e-10 1.43751555640728e-10
"2197" 28711 1.31348634987364e-10 3.15326485001e-10 6.5839335849734e-10 8.48300645295188e-10 3.88397266299711e-10 9.70441423804357e-11 1.62542081710763e-10 1.43751555640728e-10
"2198" 28712 1.32267928252387e-10 3.15098807932894e-10 6.57745433353113e-10 8.50089526968469e-10 3.83934243222648e-10 9.72555304664866e-11 1.62410754785483e-10 1.43751555640728e-10
"2199" 28713 1.3318722151741e-10 3.14871130864788e-10 6.57097508208885e-10 8.51878408641751e-10 3.79471220145584e-10 9.74669185525374e-11 1.62279427860202e-10 1.43751555640728e-10
"2200" 28714 1.34106514782433e-10 3.14643453796682e-10 6.56449583064658e-10 8.53667290315033e-10 3.75008197068521e-10 9.76783066385882e-11 1.62148100934922e-10 1.43751555640728e-10
"2201" 28715 1.35025808047456e-10 3.14415776728576e-10 6.55801657920431e-10 8.55456171988314e-10 3.70545173991457e-10 9.78896947246391e-11 1.62016774009641e-10 1.43751555640728e-10
"2202" 28716 1.36906711456809e-10 3.15142206913889e-10 6.58727373602617e-10 8.64998776701882e-10 3.66107905892194e-10 9.81770597557952e-11 1.61701733988398e-10 1.43751555640728e-10
"2203" 28717 1.38787614866162e-10 3.15868637099202e-10 6.61653089284804e-10 8.7454138141545e-10 3.6167063779293e-10 9.84644247869514e-11 1.61386693967154e-10 1.43751555640728e-10
"2204" 28718 1.40668518275515e-10 3.16595067284515e-10 6.6457880496699e-10 8.84083986129018e-10 3.57233369693666e-10 9.87517898181075e-11 1.6107165394591e-10 1.43751555640728e-10
"2205" 28719 1.42549421684868e-10 3.17321497469827e-10 6.67504520649176e-10 8.93626590842586e-10 3.52796101594402e-10 9.90391548492637e-11 1.60756613924667e-10 1.43751555640728e-10
"2206" 28720 1.44430325094221e-10 3.1804792765514e-10 6.70430236331363e-10 9.03169195556154e-10 3.48358833495138e-10 9.93265198804198e-11 1.60441573903423e-10 1.43751555640728e-10
"2207" 28721 1.46311228503574e-10 3.18774357840453e-10 6.73355952013549e-10 9.12711800269722e-10 3.43921565395874e-10 9.9613884911576e-11 1.60126533882179e-10 1.43751555640728e-10
"2208" 28722 1.48192131912927e-10 3.19500788025766e-10 6.76281667695735e-10 9.2225440498329e-10 3.3948429729661e-10 9.99012499427321e-11 1.59811493860936e-10 1.43751555640728e-10
"2209" 28723 1.5007303532228e-10 3.20227218211079e-10 6.79207383377922e-10 9.31797009696858e-10 3.35047029197346e-10 1.00188614973888e-10 1.59496453839692e-10 1.43751555640728e-10
"2210" 28724 1.51953938731633e-10 3.20953648396391e-10 6.82133099060108e-10 9.41339614410426e-10 3.30609761098082e-10 1.00475980005044e-10 1.59181413818448e-10 1.43751555640728e-10
"2211" 28725 1.51761616702767e-10 3.20725971328286e-10 6.83346580342598e-10 9.39258110415483e-10 3.25656569896411e-10 1.00763345036201e-10 1.58866373797205e-10 1.44607474136063e-10
"2212" 28726 1.51569294673901e-10 3.2049829426018e-10 6.84560061625088e-10 9.37176606420541e-10 3.20703378694741e-10 1.01050710067357e-10 1.58551333775961e-10 1.45463392631398e-10
"2213" 28727 1.51376972645035e-10 3.20270617192074e-10 6.85773542907577e-10 9.35095102425599e-10 3.1575018749307e-10 1.01338075098513e-10 1.58236293754717e-10 1.46319311126732e-10
"2214" 28728 1.51184650616169e-10 3.20042940123968e-10 6.86987024190067e-10 9.33013598430657e-10 3.10796996291399e-10 1.01625440129669e-10 1.57921253733474e-10 1.47175229622067e-10
"2215" 28729 1.50992328587303e-10 3.19815263055862e-10 6.88200505472557e-10 9.30932094435714e-10 3.05843805089729e-10 1.01912805160825e-10 1.5760621371223e-10 1.48031148117402e-10
"2216" 28730 1.50800006558437e-10 3.19587585987757e-10 6.89413986755046e-10 9.28850590440772e-10 3.00890613888058e-10 1.02200170191981e-10 1.57291173690986e-10 1.48887066612737e-10
"2217" 28731 1.50607684529571e-10 3.19359908919651e-10 6.90627468037536e-10 9.2676908644583e-10 2.95937422686388e-10 1.02487535223137e-10 1.56976133669743e-10 1.49742985108071e-10
"2218" 28732 1.5030125344123e-10 3.1908883287055e-10 6.92488874464253e-10 9.2494705702923e-10 2.95421499583981e-10 1.02487535223137e-10 1.56792420573779e-10 1.50598903603406e-10
"2219" 28733 1.50108931412364e-10 3.18861155802444e-10 6.94417083912025e-10 9.25033548555345e-10 2.95421499583981e-10 1.02774900254294e-10 1.56792420573779e-10 1.50742622029438e-10
"2220" 28734 1.49916609383498e-10 3.18633478734338e-10 6.96345293359798e-10 9.25120040081459e-10 2.95421499583981e-10 1.0306226528545e-10 1.56792420573779e-10 1.50886340455471e-10
"2221" 28735 1.49724287354632e-10 3.18405801666232e-10 6.9827350280757e-10 9.25206531607574e-10 2.95421499583981e-10 1.03349630316606e-10 1.56792420573779e-10 1.51030058881503e-10
"2222" 28736 1.49531965325766e-10 3.18178124598126e-10 7.00201712255342e-10 9.25293023133688e-10 2.95421499583981e-10 1.03636995347762e-10 1.56792420573779e-10 1.51173777307535e-10
"2223" 28737 1.493396432969e-10 3.17950447530021e-10 7.02129921703115e-10 9.25379514659802e-10 2.95421499583981e-10 1.03924360378918e-10 1.56792420573779e-10 1.51317495733568e-10
"2224" 28738 1.49147321268034e-10 3.17722770461915e-10 7.04058131150887e-10 9.25466006185917e-10 2.95421499583981e-10 1.04211725410074e-10 1.56792420573779e-10 1.514612141596e-10
"2225" 28739 1.49147321268034e-10 3.18449200647228e-10 7.04058131150887e-10 9.27634001706973e-10 2.95911667708588e-10 1.04423113496125e-10 1.56792420573779e-10 1.50535567138202e-10
"2226" 28740 1.48954999239168e-10 3.18492599628223e-10 7.06186749661826e-10 9.27634001706973e-10 2.96427590810995e-10 1.05496596675644e-10 1.56792420573779e-10 1.5196209796376e-10
"2227" 28741 1.48762677210302e-10 3.18535998609218e-10 7.08315368172765e-10 9.27634001706973e-10 2.96943513913402e-10 1.06570079855164e-10 1.56792420573779e-10 1.53388628789318e-10
"2228" 28742 1.48570355181436e-10 3.18579397590214e-10 7.10443986683704e-10 9.27634001706973e-10 2.97459437015808e-10 1.07643563034683e-10 1.56792420573779e-10 1.54815159614876e-10
"2229" 28743 1.4837803315257e-10 3.18622796571209e-10 7.12572605194643e-10 9.27634001706973e-10 2.97975360118215e-10 1.08717046214202e-10 1.56792420573779e-10 1.56241690440434e-10
"2230" 28744 1.48185711123704e-10 3.18666195552204e-10 7.14701223705582e-10 9.27634001706973e-10 2.98491283220621e-10 1.09790529393722e-10 1.56792420573779e-10 1.57668221265992e-10
"2231" 28745 1.47993389094838e-10 3.187095945332e-10 7.16829842216521e-10 9.27634001706973e-10 2.99007206323028e-10 1.10864012573241e-10 1.56792420573779e-10 1.5909475209155e-10
"2232" 28746 1.48684464240911e-10 3.20791404964018e-10 7.17678176423915e-10 9.28338885619726e-10 2.99523129425435e-10 1.11075400659292e-10 1.56792420573779e-10 1.58454411235263e-10
"2233" 28747 1.49375539386984e-10 3.22873215394837e-10 7.18526510631309e-10 9.2904376953248e-10 3.00039052527841e-10 1.11286788745343e-10 1.56792420573779e-10 1.57814070378977e-10
"2234" 28748 1.50066614533057e-10 3.24955025825656e-10 7.19374844838703e-10 9.29748653445233e-10 3.00554975630248e-10 1.11498176831393e-10 1.56792420573779e-10 1.57173729522691e-10
"2235" 28749 1.5075768967913e-10 3.27036836256475e-10 7.20223179046096e-10 9.30453537357986e-10 3.01070898732654e-10 1.11709564917444e-10 1.56792420573779e-10 1.56533388666405e-10
"2236" 28750 1.51448764825203e-10 3.29118646687293e-10 7.2107151325349e-10 9.3115842127074e-10 3.01586821835061e-10 1.11920953003495e-10 1.56792420573779e-10 1.55893047810119e-10
"2237" 28751 1.52139839971276e-10 3.31200457118112e-10 7.21919847460884e-10 9.31863305183493e-10 3.02102744937468e-10 1.12132341089546e-10 1.56792420573779e-10 1.55252706953832e-10
"2238" 28752 1.52830915117349e-10 3.33282267548931e-10 7.22768181668278e-10 9.32568189096246e-10 3.02618668039874e-10 1.12343729175597e-10 1.56792420573779e-10 1.54612366097546e-10
"2239" 28753 1.53521990263422e-10 3.35364077979749e-10 7.23616515875672e-10 9.33273073009e-10 3.03134591142281e-10 1.12555117261648e-10 1.56792420573779e-10 1.5397202524126e-10
"2240" 28754 1.54213065409495e-10 3.37445888410568e-10 7.24464850083065e-10 9.33977956921753e-10 3.03650514244687e-10 1.12766505347698e-10 1.56792420573779e-10 1.53331684384974e-10
"2241" 28755 1.54904140555568e-10 3.39527698841387e-10 7.23384974842687e-10 9.34596349308392e-10 3.02644423017674e-10 1.12690528402593e-10 1.56477380552536e-10 1.53616990550085e-10
"2242" 28756 1.55595215701641e-10 3.41609509272205e-10 7.22305099602308e-10 9.35214741695031e-10 3.0163833179066e-10 1.12614551457488e-10 1.56162340531292e-10 1.53902296715197e-10
"2243" 28757 1.56286290847713e-10 3.43691319703024e-10 7.2122522436193e-10 9.3583313408167e-10 3.00632240563646e-10 1.12538574512382e-10 1.55847300510048e-10 1.54187602880308e-10
"2244" 28758 1.56977365993786e-10 3.45773130133843e-10 7.20145349121551e-10 9.36451526468309e-10 2.99626149336632e-10 1.12462597567277e-10 1.55532260488805e-10 1.5447290904542e-10
"2245" 28759 1.57668441139859e-10 3.47854940564661e-10 7.19065473881172e-10 9.37069918854948e-10 2.98620058109619e-10 1.12386620622172e-10 1.55217220467561e-10 1.54758215210532e-10
"2246" 28760 1.58359516285932e-10 3.4993675099548e-10 7.17985598640794e-10 9.37688311241587e-10 2.97613966882605e-10 1.12310643677066e-10 1.54902180446317e-10 1.55043521375643e-10
"2247" 28761 1.59050591432005e-10 3.52018561426299e-10 7.16905723400415e-10 9.38306703628226e-10 2.96607875655591e-10 1.12234666731961e-10 1.54587140425074e-10 1.55328827540755e-10
"2248" 28762 1.59741666578078e-10 3.54100371857117e-10 7.15825848160037e-10 9.38925096014865e-10 2.95601784428577e-10 1.12158689786856e-10 1.5427210040383e-10 1.55614133705866e-10
"2249" 28763 1.59855775637553e-10 3.54100371857117e-10 7.14612366877547e-10 9.39543488401504e-10 2.94569938223764e-10 1.12158689786856e-10 1.53957060382586e-10 1.55827580657962e-10
"2250" 28764 1.59855775637553e-10 3.53872694789012e-10 7.12468182381699e-10 9.40334863840371e-10 2.96014687619786e-10 1.118713247557e-10 1.53825733457306e-10 1.55827580657962e-10
"2251" 28765 1.59855775637553e-10 3.53645017720906e-10 7.10323997885851e-10 9.41126239279239e-10 2.97459437015808e-10 1.11583959724544e-10 1.53694406532026e-10 1.55827580657962e-10
"2252" 28766 1.59855775637553e-10 3.534173406528e-10 7.08179813390003e-10 9.41917614718106e-10 2.9890418641183e-10 1.11296594693387e-10 1.53563079606745e-10 1.55827580657962e-10
"2253" 28767 1.59855775637553e-10 3.53189663584694e-10 7.06035628894154e-10 9.42708990156974e-10 3.00348935807852e-10 1.11009229662231e-10 1.53431752681465e-10 1.55827580657962e-10
"2254" 28768 1.59855775637553e-10 3.52961986516588e-10 7.03891444398306e-10 9.43500365595842e-10 3.01793685203874e-10 1.10721864631075e-10 1.53300425756185e-10 1.55827580657962e-10
"2255" 28769 1.59741666578078e-10 3.5078269596065e-10 7.03891444398306e-10 9.44291741034709e-10 3.0424452582691e-10 1.09648381451556e-10 1.53300425756185e-10 1.53690980450055e-10
"2256" 28770 1.59933988606944e-10 3.50511619911549e-10 7.03608666329175e-10 9.44464724086938e-10 3.07211289552353e-10 1.09436993365505e-10 1.52355305692454e-10 1.53477533497959e-10
"2257" 28771 1.6012631063581e-10 3.50240543862448e-10 7.03325888260044e-10 9.44637707139167e-10 3.10178053277795e-10 1.09225605279454e-10 1.51410185628723e-10 1.53264086545864e-10
"2258" 28772 1.60318632664676e-10 3.49969467813346e-10 7.03043110190913e-10 9.44810690191395e-10 3.13144817003238e-10 1.09014217193403e-10 1.50465065564992e-10 1.53050639593768e-10
"2259" 28773 1.60510954693542e-10 3.49698391764245e-10 7.02760332121781e-10 9.44983673243624e-10 3.1611158072868e-10 1.08802829107352e-10 1.49519945501261e-10 1.52837192641673e-10
"2260" 28774 1.60703276722408e-10 3.49427315715144e-10 7.0247755405265e-10 9.45156656295853e-10 3.19078344454122e-10 1.08591441021302e-10 1.4857482543753e-10 1.52623745689578e-10
"2261" 28775 1.60895598751274e-10 3.49156239666043e-10 7.02194775983519e-10 9.45329639348082e-10 3.22045108179565e-10 1.08380052935251e-10 1.47629705373799e-10 1.52410298737482e-10
"2262" 28776 1.6108792078014e-10 3.48885163616942e-10 7.01911997914388e-10 9.4550262240031e-10 3.25011871905007e-10 1.081686648492e-10 1.46684585310068e-10 1.52196851785387e-10
"2263" 28777 1.61280242809006e-10 3.4861408756784e-10 7.01629219845256e-10 9.45675605452539e-10 3.2797863563045e-10 1.07957276763149e-10 1.45739465246337e-10 1.51983404833291e-10
"2264" 28778 1.61472564837872e-10 3.48343011518739e-10 7.01346441776125e-10 9.45848588504768e-10 3.30945399355892e-10 1.07745888677098e-10 1.44794345182606e-10 1.51769957881196e-10
"2265" 28779 1.61664886866738e-10 3.48071935469638e-10 7.01063663706994e-10 9.46021571556996e-10 3.33912163081335e-10 1.07534500591047e-10 1.43849225118875e-10 1.515565109291e-10
"2266" 28780 1.61857208895604e-10 3.47800859420537e-10 7.00780885637862e-10 9.46194554609225e-10 3.36878926806777e-10 1.07323112504997e-10 1.42904105055144e-10 1.51343063977005e-10
"2267" 28781 1.6204953092447e-10 3.47529783371436e-10 7.00498107568731e-10 9.46367537661454e-10 3.3984569053222e-10 1.07111724418946e-10 1.41958984991413e-10 1.5112961702491e-10
"2268" 28782 1.62241852953336e-10 3.47258707322335e-10 7.002153294996e-10 9.46540520713682e-10 3.42812454257662e-10 1.06900336332895e-10 1.41013864927682e-10 1.50916170072814e-10
"2269" 28783 1.62434174982202e-10 3.46987631273233e-10 6.99932551430469e-10 9.46713503765911e-10 3.45779217983105e-10 1.06688948246844e-10 1.40068744863951e-10 1.50702723120719e-10
"2270" 28784 1.62626497011068e-10 3.46716555224132e-10 6.99649773361337e-10 9.4688648681814e-10 3.48745981708547e-10 1.06477560160793e-10 1.3912362480022e-10 1.50489276168623e-10
"2271" 28785 1.62932928099409e-10 3.46673156243137e-10 7.00297698505565e-10 9.4597547210984e-10 3.48754566701147e-10 1.06477560160793e-10 1.38309831661769e-10 1.52412429424435e-10
"2272" 28786 1.6323935918775e-10 3.46629757262142e-10 7.00945623649792e-10 9.4506445740154e-10 3.48763151693747e-10 1.06477560160793e-10 1.37496038523318e-10 1.54335582680247e-10
"2273" 28787 1.63545790276091e-10 3.46586358281146e-10 7.01593548794019e-10 9.44153442693241e-10 3.48771736686346e-10 1.06477560160793e-10 1.36682245384868e-10 1.56258735936059e-10
"2274" 28788 1.63852221364432e-10 3.46542959300151e-10 7.02241473938246e-10 9.43242427984941e-10 3.48780321678946e-10 1.06477560160793e-10 1.35868452246417e-10 1.5818188919187e-10
"2275" 28789 1.64158652452773e-10 3.46499560319155e-10 7.02889399082473e-10 9.42331413276642e-10 3.48788906671546e-10 1.06477560160793e-10 1.35054659107966e-10 1.60105042447682e-10
"2276" 28790 1.64465083541114e-10 3.4645616133816e-10 7.035373242267e-10 9.41420398568342e-10 3.48797491664146e-10 1.06477560160793e-10 1.34240865969516e-10 1.62028195703494e-10
"2277" 28791 1.64579192600589e-10 3.46412762357165e-10 7.04252052391983e-10 9.41214267772796e-10 3.45839312931303e-10 1.06688948246844e-10 1.33427072831065e-10 1.61812618064445e-10
"2278" 28792 1.64579192600589e-10 3.45371857141755e-10 7.04252052391983e-10 9.40921645451135e-10 3.45839312931303e-10 1.06054783988692e-10 1.34372192894796e-10 1.62026065016541e-10
"2279" 28793 1.64579192600589e-10 3.44330951926346e-10 7.04252052391983e-10 9.40629023129474e-10 3.45839312931303e-10 1.05420619730539e-10 1.35317312958527e-10 1.62239511968636e-10
"2280" 28794 1.64579192600589e-10 3.43290046710937e-10 7.04252052391983e-10 9.40336400807814e-10 3.45839312931303e-10 1.04786455472387e-10 1.36262433022258e-10 1.62452958920732e-10
"2281" 28795 1.64579192600589e-10 3.42249141495527e-10 7.04252052391983e-10 9.40043778486153e-10 3.45839312931303e-10 1.04152291214234e-10 1.37207553085989e-10 1.62666405872827e-10
"2282" 28796 1.64579192600589e-10 3.41208236280118e-10 7.04252052391983e-10 9.39751156164492e-10 3.45839312931303e-10 1.03518126956082e-10 1.3815267314972e-10 1.62879852824923e-10
"2283" 28797 1.64579192600589e-10 3.40167331064709e-10 7.04252052391983e-10 9.39458533842832e-10 3.45839312931303e-10 1.02883962697929e-10 1.39097793213451e-10 1.63093299777018e-10
"2284" 28798 1.64579192600589e-10 3.39126425849299e-10 7.04252052391983e-10 9.39165911521171e-10 3.45839312931303e-10 1.02249798439777e-10 1.40042913277182e-10 1.63306746729113e-10
"2285" 28799 1.64579192600589e-10 3.39126425849299e-10 7.05316361647453e-10 9.68572149396904e-10 3.48866171604944e-10 1.01539657236519e-10 1.39859200181219e-10 1.63306746729113e-10
"2286" 28800 1.64579192600589e-10 3.39126425849299e-10 7.06380670902922e-10 9.97978387272637e-10 3.51893030278586e-10 1.00829516033261e-10 1.39675487085256e-10 1.63306746729113e-10
"2287" 28801 1.65462589775528e-10 3.40264811189828e-10 7.06596645950998e-10 9.97685764950976e-10 3.52408953380992e-10 9.99079867439524e-11 1.39675487085256e-10 1.63520193681209e-10
"2288" 28802 1.66345986950467e-10 3.41403196530357e-10 7.06812620999074e-10 9.97393142629316e-10 3.52924876483399e-10 9.89864574546437e-11 1.39675487085256e-10 1.63733640633304e-10
"2289" 28803 1.67229384125406e-10 3.42541581870886e-10 7.07028596047149e-10 9.97100520307655e-10 3.53440799585805e-10 9.80649281653351e-11 1.39675487085256e-10 1.639470875854e-10
"2290" 28804 1.68112781300345e-10 3.43679967211415e-10 7.07244571095225e-10 9.96807897985994e-10 3.53956722688212e-10 9.71433988760264e-11 1.39675487085256e-10 1.64160534537495e-10
"2291" 28805 1.68996178475284e-10 3.44818352551944e-10 7.07460546143301e-10 9.96515275664333e-10 3.54472645790619e-10 9.62218695867178e-11 1.39675487085256e-10 1.6437398148959e-10
"2292" 28806 1.69879575650223e-10 3.45956737892473e-10 7.07676521191376e-10 9.96222653342673e-10 3.54988568893025e-10 9.53003402974091e-11 1.39675487085256e-10 1.64587428441686e-10
"2293" 28807 1.70762972825161e-10 3.47095123233002e-10 7.07892496239452e-10 9.95930031021012e-10 3.55504491995432e-10 9.43788110081005e-11 1.39675487085256e-10 1.64800875393781e-10
"2294" 28808 1.716463700001e-10 3.48233508573531e-10 7.08108471287528e-10 9.95637408699351e-10 3.56020415097838e-10 9.34572817187918e-11 1.39675487085256e-10 1.65014322345877e-10
"2295" 28809 1.72529767175039e-10 3.4937189391406e-10 7.08324446335604e-10 9.95344786377691e-10 3.56536338200245e-10 9.25357524294832e-11 1.39675487085256e-10 1.65227769297972e-10
"2296" 28810 1.73413164349978e-10 3.5051027925459e-10 7.08540421383679e-10 9.9505216405603e-10 3.57052261302652e-10 9.16142231401745e-11 1.39675487085256e-10 1.65441216250067e-10
"2297" 28811 1.74296561524917e-10 3.51648664595119e-10 7.08756396431755e-10 9.94759541734369e-10 3.57568184405058e-10 9.06926938508659e-11 1.39675487085256e-10 1.65654663202163e-10
"2298" 28812 1.75179958699856e-10 3.52787049935648e-10 7.08972371479831e-10 9.94466919412709e-10 3.58084107507465e-10 8.97711645615572e-11 1.39675487085256e-10 1.65868110154258e-10
"2299" 28813 1.76063355874795e-10 3.53925435276177e-10 7.09188346527906e-10 9.94174297091048e-10 3.58600030609871e-10 8.88496352722486e-11 1.39675487085256e-10 1.66081557106354e-10
"2300" 28814 1.75835137755845e-10 3.49761814414539e-10 6.93177009741137e-10 9.90357255205621e-10 3.58600030609871e-10 8.85622702410924e-11 1.37417820765867e-10 1.66009697893337e-10
"2301" 28815 1.75606919636895e-10 3.45598193552902e-10 6.77165672954367e-10 9.86540213320194e-10 3.58600030609871e-10 8.82749052099363e-11 1.35160154446478e-10 1.65937838680321e-10
"2302" 28816 1.75378701517945e-10 3.41434572691265e-10 6.61154336167597e-10 9.82723171434767e-10 3.58600030609871e-10 8.79875401787801e-11 1.3290248812709e-10 1.65865979467305e-10
"2303" 28817 1.75150483398995e-10 3.37270951829627e-10 6.45142999380827e-10 9.78906129549339e-10 3.58600030609871e-10 8.7700175147624e-11 1.30644821807701e-10 1.65794120254289e-10
"2304" 28818 1.74922265280045e-10 3.3310733096799e-10 6.29131662594057e-10 9.75089087663912e-10 3.58600030609871e-10 8.74128101164678e-11 1.28387155488312e-10 1.65722261041273e-10
"2305" 28819 1.74694047161095e-10 3.28943710106352e-10 6.13120325807287e-10 9.71272045778485e-10 3.58600030609871e-10 8.71254450853117e-11 1.26129489168924e-10 1.65650401828257e-10
"2306" 28820 1.74465829042144e-10 3.24780089244715e-10 5.97108989020517e-10 9.67455003893058e-10 3.58600030609871e-10 8.68380800541555e-11 1.23871822849535e-10 1.6557854261524e-10
"2307" 28821 1.74237610923194e-10 3.20616468383078e-10 5.81097652233747e-10 9.63637962007631e-10 3.58600030609871e-10 8.65507150229994e-11 1.21614156530146e-10 1.65506683402224e-10
"2308" 28822 1.74009392804244e-10 3.1645284752144e-10 5.65086315446977e-10 9.59820920122204e-10 3.58600030609871e-10 8.62633499918432e-11 1.19356490210758e-10 1.65434824189208e-10
"2309" 28823 1.73781174685294e-10 3.12289226659803e-10 5.49074978660207e-10 9.56003878236776e-10 3.58600030609871e-10 8.59759849606871e-11 1.17098823891369e-10 1.65362964976192e-10
"2310" 28824 1.73552956566344e-10 3.08125605798166e-10 5.33063641873438e-10 9.52186836351349e-10 3.58600030609871e-10 8.56886199295309e-11 1.14841157571981e-10 1.65291105763176e-10
"2311" 28825 1.73324738447394e-10 3.03961984936528e-10 5.17052305086668e-10 9.48369794465922e-10 3.58600030609871e-10 8.54012548983748e-11 1.12583491252592e-10 1.6521924655016e-10
"2312" 28826 1.73096520328444e-10 2.99798364074891e-10 5.01040968299898e-10 9.44552752580495e-10 3.58600030609871e-10 8.51138898672186e-11 1.10325824933203e-10 1.65147387337143e-10
"2313" 28827 1.72868302209494e-10 2.95634743213254e-10 4.85029631513128e-10 9.40735710695068e-10 3.58600030609871e-10 8.48265248360625e-11 1.08068158613815e-10 1.65075528124127e-10
"2314" 28828 1.72640084090544e-10 2.91471122351616e-10 4.69018294726358e-10 9.36918668809641e-10 3.58600030609871e-10 8.45391598049063e-11 1.05810492294426e-10 1.65003668911111e-10
"2315" 28829 1.72411865971594e-10 2.87307501489979e-10 4.53006957939588e-10 9.33101626924214e-10 3.58600030609871e-10 8.42517947737502e-11 1.03552825975037e-10 1.64931809698095e-10
"2316" 28830 1.72183647852644e-10 2.83143880628342e-10 4.36995621152818e-10 9.29284585038786e-10 3.58600030609871e-10 8.39644297425940e-11 1.01295159655649e-10 1.64859950485079e-10
"2317" 28831 1.71955429733694e-10 2.78980259766704e-10 4.20984284366048e-10 9.25467543153359e-10 3.58600030609871e-10 8.36770647114379e-11 9.90374933362601e-11 1.64788091272063e-10
"2318" 28832 1.71727211614744e-10 2.74816638905067e-10 4.04972947579278e-10 9.21650501267932e-10 3.58600030609871e-10 8.33896996802817e-11 9.67798270168715e-11 1.64716232059046e-10
"2319" 28833 1.71498993495793e-10 2.70653018043429e-10 3.88961610792508e-10 9.17833459382505e-10 3.58600030609871e-10 8.31023346491256e-11 9.45221606974828e-11 1.6464437284603e-10
"2320" 28834 1.71270775376843e-10 2.66489397181792e-10 3.72950274005739e-10 9.14016417497078e-10 3.58600030609871e-10 8.28149696179694e-11 9.22644943780942e-11 1.64572513633014e-10
"2321" 28835 1.71961850522916e-10 2.66489397181792e-10 3.72235545840456e-10 9.12932419736549e-10 3.58625785587671e-10 8.25276045868133e-11 9.24482074740575e-11 1.64785960585109e-10
"2322" 28836 1.71961850522916e-10 2.66261720113686e-10 3.74580139399471e-10 9.09321508646668e-10 3.58625785587671e-10 8.3449133876122e-11 9.15820281649239e-11 1.63860313563712e-10
"2323" 28837 1.71655419434575e-10 2.66988150298999e-10 3.74796114447546e-10 9.1474149744931e-10 3.58625785587671e-10 8.36605219621728e-11 9.07158488557903e-11 1.63148113494409e-10
"2324" 28838 1.71348988346234e-10 2.67714580484312e-10 3.75012089495622e-10 9.20161486251952e-10 3.58625785587671e-10 8.38719100482236e-11 8.98496695466567e-11 1.62435913425107e-10
"2325" 28839 1.71042557257893e-10 2.68441010669625e-10 3.75228064543698e-10 9.25581475054593e-10 3.58625785587671e-10 8.40832981342744e-11 8.89834902375231e-11 1.61723713355804e-10
"2326" 28840 1.70736126169552e-10 2.69167440854937e-10 3.75444039591773e-10 9.31001463857235e-10 3.58625785587671e-10 8.42946862203253e-11 8.81173109283895e-11 1.61011513286502e-10
"2327" 28841 1.70429695081211e-10 2.6989387104025e-10 3.75660014639849e-10 9.36421452659876e-10 3.58625785587671e-10 8.45060743063761e-11 8.72511316192558e-11 1.602993132172e-10
"2328" 28842 1.7012326399287e-10 2.70620301225563e-10 3.75875989687925e-10 9.41841441462518e-10 3.58625785587671e-10 8.4717462392427e-11 8.63849523101222e-11 1.59587113147897e-10
