"time" "channel1" "channel2" "channel3" "channel4" "channel5" "channel6" "channel7" "channel8"
"2021" 35940 1.62880228865116e-08 5.29128445629367e-09 2.41016629756268e-08 6.04779758730215e-08 3.32000450718758e-08 1.0096356293352e-07 1.06462955329952e-07 8.50253304952422e-09
"2022" 35941 1.6229504321023e-08 5.2912015599488e-09 2.40937679343689e-08 6.07098496439429e-08 3.31887544364624e-08 1.01015825428037e-07 1.06474931219727e-07 8.50093840797046e-09
"2023" 35942 1.61917548745731e-08 5.26459910195104e-09 2.4046873842764e-08 6.10671314945389e-08 3.30938955878357e-08 1.00803276321323e-07 1.06391259616983e-07 8.51952026460092e-09
"2024" 35943 1.61540054281231e-08 5.23799664395327e-09 2.3999979751159e-08 6.14244133451348e-08 3.2999036739209e-08 1.0059072721461e-07 1.06307588014239e-07 8.53810212123137e-09
"2025" 35944 1.61162559816731e-08 5.21139418595550e-09 2.39530856595541e-08 6.17816951957308e-08 3.29041778905823e-08 1.00378178107896e-07 1.06223916411495e-07 8.55668397786182e-09
"2026" 35945 1.60785065352231e-08 5.18479172795772e-09 2.39061915679491e-08 6.21389770463268e-08 3.28093190419555e-08 1.00165629001182e-07 1.06140244808751e-07 8.57526583449227e-09
"2027" 35946 1.60407570887732e-08 5.15818926995995e-09 2.38592974763442e-08 6.24962588969228e-08 3.27144601933288e-08 9.99530798944685e-08 1.06056573206007e-07 8.59384769112272e-09
"2028" 35947 1.60030076423232e-08 5.13158681196218e-09 2.38124033847392e-08 6.28535407475188e-08 3.26196013447021e-08 9.97405307877548e-08 1.05972901603263e-07 8.61242954775317e-09
"2029" 35948 1.59652581958732e-08 5.10498435396441e-09 2.37655092931342e-08 6.32108225981147e-08 3.25247424960754e-08 9.95279816810411e-08 1.05889230000519e-07 8.63101140438362e-09
"2030" 35949 1.59275087494232e-08 5.07838189596664e-09 2.37186152015293e-08 6.35681044487107e-08 3.24298836474487e-08 9.93154325743274e-08 1.05805558397775e-07 8.64959326101407e-09
"2031" 35950 1.58897593029733e-08 5.05177943796887e-09 2.36717211099243e-08 6.39253862993067e-08 3.23350247988219e-08 9.91028834676137e-08 1.05721886795031e-07 8.66817511764452e-09
"2032" 35951 1.58520098565233e-08 5.0251769799711e-09 2.36248270183194e-08 6.42826681499027e-08 3.22401659501952e-08 9.88903343609e-08 1.05638215192287e-07 8.68675697427497e-09
"2033" 35952 1.58216594814437e-08 5.00564133700713e-09 2.36321704002442e-08 6.42108337724509e-08 3.25057682247566e-08 9.86884639228134e-08 1.0562294817059e-07 8.81581925239575e-09
"2034" 35953 1.57913091063642e-08 4.98610569404316e-09 2.36395137821691e-08 6.41389993949991e-08 3.2771370499318e-08 9.84865934847268e-08 1.05607681148893e-07 8.94488153051653e-09
"2035" 35954 1.57609587312846e-08 4.97820441536859e-09 2.36082718582466e-08 6.41152710069129e-08 3.28694658299903e-08 9.82014488120709e-08 1.05507759460364e-07 8.9465713692967e-09
"2036" 35955 1.5730608356205e-08 4.97030313669403e-09 2.35770299343241e-08 6.40915426188266e-08 3.29675611606627e-08 9.79163041394149e-08 1.05407837771835e-07 8.94826120807687e-09
"2037" 35956 1.57002579811255e-08 4.96240185801946e-09 2.35457880104016e-08 6.40678142307403e-08 3.3065656491335e-08 9.7631159466759e-08 1.05307916083306e-07 8.94995104685705e-09
"2038" 35957 1.56699076060459e-08 4.95450057934489e-09 2.35145460864791e-08 6.40440858426541e-08 3.31637518220074e-08 9.7346014794103e-08 1.05207994394776e-07 8.95164088563722e-09
"2039" 35958 1.56395572309664e-08 4.94659930067033e-09 2.34833041625567e-08 6.40203574545678e-08 3.32618471526797e-08 9.70608701214471e-08 1.05108072706247e-07 8.95333072441739e-09
"2040" 35959 1.56092068558868e-08 4.93869802199576e-09 2.34520622386342e-08 6.39966290664815e-08 3.3359942483352e-08 9.67757254487912e-08 1.05008151017718e-07 8.95502056319757e-09
"2041" 35960 1.55788564808073e-08 4.93079674332119e-09 2.34208203147117e-08 6.39729006783952e-08 3.34580378140244e-08 9.64905807761352e-08 1.04908229329189e-07 8.95671040197774e-09
"2042" 35961 1.55485061057277e-08 4.92289546464663e-09 2.33895783907892e-08 6.3949172290309e-08 3.35561331446967e-08 9.62054361034793e-08 1.0480830764066e-07 8.95840024075791e-09
"2043" 35962 1.55181557306482e-08 4.91499418597206e-09 2.33583364668667e-08 6.39254439022227e-08 3.36542284753691e-08 9.59202914308233e-08 1.04708385952131e-07 8.96009007953809e-09
"2044" 35963 1.54878053555686e-08 4.90709290729750e-09 2.33270945429442e-08 6.39017155141364e-08 3.37523238060414e-08 9.56351467581674e-08 1.04608464263601e-07 8.96177991831826e-09
"2045" 35964 1.5457454980489e-08 4.89919162862293e-09 2.32958526190218e-08 6.38779871260502e-08 3.38504191367137e-08 9.53500020855115e-08 1.04508542575072e-07 8.96346975709843e-09
"2046" 35965 1.54271046054095e-08 4.89129034994836e-09 2.32646106950993e-08 6.38542587379639e-08 3.39485144673861e-08 9.50648574128555e-08 1.04408620886543e-07 8.96515959587861e-09
"2047" 35966 1.53936654251303e-08 4.8664328403368e-09 2.32379954640649e-08 6.42760915022193e-08 3.40302666728782e-08 9.48980154993536e-08 1.04710714467591e-07 9.05604744244611e-09
"2048" 35967 1.53602262448511e-08 4.84157533072523e-09 2.32113802330305e-08 6.46979242664746e-08 3.41120188783704e-08 9.47311735858516e-08 1.05012808048639e-07 9.14693528901361e-09
"2049" 35968 1.53395166297738e-08 4.81505576907232e-09 2.31653778352284e-08 6.48273558154028e-08 3.41961066567985e-08 9.44727124327604e-08 1.04976329482055e-07 9.14645293293009e-09
"2050" 35969 1.53188070146966e-08 4.78853620741941e-09 2.31193754374262e-08 6.49567873643311e-08 3.42801944352265e-08 9.42142512796691e-08 1.04939850915472e-07 9.14597057684657e-09
"2051" 35970 1.51025212729217e-08 4.77399084572359e-09 2.31238113092653e-08 6.47944344111193e-08 3.42238470001819e-08 9.41444350668504e-08 1.04746056349885e-07 9.13470923161306e-09
"2052" 35971 1.50818116578445e-08 4.76301965219307e-09 2.28764523603056e-08 6.42269425223496e-08 3.41648242725016e-08 9.41183840983755e-08 1.04501710839411e-07 9.12925574139116e-09
"2053" 35972 1.50596144437332e-08 4.76268669176559e-09 2.28231065805786e-08 6.44301282311605e-08 3.42038544105312e-08 9.38567172610014e-08 1.0456711127183e-07 9.12761509371206e-09
"2054" 35973 1.5037417229622e-08 4.76235373133811e-09 2.27697608008516e-08 6.46333139399715e-08 3.42428845485607e-08 9.35950504236272e-08 1.0463251170425e-07 9.12597444603295e-09
"2055" 35974 1.50152200155107e-08 4.76202077091062e-09 2.27164150211246e-08 6.48364996487825e-08 3.42819146865903e-08 9.3333383586253e-08 1.04697912136669e-07 9.12433379835385e-09
"2056" 35975 1.49930228013995e-08 4.76168781048314e-09 2.26630692413977e-08 6.50396853575934e-08 3.43209448246198e-08 9.30717167488788e-08 1.04763312569089e-07 9.12269315067475e-09
"2057" 35976 1.50100626327722e-08 4.75902687715934e-09 2.2666730530453e-08 6.50672579533996e-08 3.30859888006855e-08 9.30780671970181e-08 1.03879632148642e-07 9.11458510950564e-09
"2058" 35977 1.50271024641449e-08 4.75636594383555e-09 2.26703918195084e-08 6.50948305492058e-08 3.18510327767513e-08 9.30844176451575e-08 1.02995951728195e-07 9.10647706833654e-09
"2059" 35978 1.50441422955176e-08 4.75370501051175e-09 2.26740531085637e-08 6.51224031450119e-08 3.0616076752817e-08 9.30907680932968e-08 1.02112271307749e-07 9.09836902716744e-09
"2060" 35979 1.50611821268904e-08 4.75104407718795e-09 2.26777143976191e-08 6.51499757408181e-08 2.93811207288827e-08 9.30971185414361e-08 1.01228590887302e-07 9.09026098599833e-09
"2061" 35980 1.50782219582631e-08 4.74838314386416e-09 2.26813756866744e-08 6.51775483366242e-08 2.81461647049484e-08 9.31034689895755e-08 1.00344910466856e-07 9.08215294482923e-09
"2062" 35981 1.50737926841696e-08 4.74048736538174e-09 2.2366632160676e-08 6.43076049401454e-08 2.83138206965898e-08 9.27285667474147e-08 1.00298065375833e-07 9.08233012722409e-09
"2063" 35982 1.50070560529602e-08 4.7388253133404e-09 2.23559996265672e-08 6.44187237980968e-08 2.83668592276309e-08 9.20888362791955e-08 1.00223948298527e-07 9.06599926565005e-09
"2064" 35983 1.49403194217509e-08 4.73716326129906e-09 2.23453670924585e-08 6.45298426560481e-08 2.84198977586721e-08 9.14491058109763e-08 1.00149831221222e-07 9.04966840407601e-09
"2065" 35984 1.48735827905416e-08 4.73550120925771e-09 2.23347345583497e-08 6.46409615139995e-08 2.84729362897132e-08 9.08093753427571e-08 1.00075714143916e-07 9.03333754250197e-09
"2066" 35985 1.48068461593322e-08 4.73383915721637e-09 2.2324102024241e-08 6.47520803719509e-08 2.85259748207544e-08 9.0169644874538e-08 1.00001597066611e-07 9.01700668092794e-09
"2067" 35986 1.47401095281229e-08 4.73217710517503e-09 2.23134694901322e-08 6.48631992299022e-08 2.85790133517955e-08 8.95299144063188e-08 9.99274799893051e-08 9.0006758193539e-09
"2068" 35987 1.46733728969135e-08 4.73051505313368e-09 2.23028369560235e-08 6.49743180878536e-08 2.86320518828367e-08 8.88901839380996e-08 9.98533629119996e-08 8.98434495777986e-09
"2069" 35988 1.46066362657042e-08 4.72885300109234e-09 2.22922044219147e-08 6.5085436945805e-08 2.86850904138778e-08 8.82504534698804e-08 9.9779245834694e-08 8.96801409620582e-09
"2070" 35989 1.45359691135186e-08 4.77141693388877e-09 2.24757681662219e-08 6.53589087569682e-08 2.85818385329509e-08 8.76275915608606e-08 9.97005820202304e-08 9.09711235336971e-09
"2071" 35990 1.44692324823092e-08 4.79294483922549e-09 2.2522756771671e-08 6.53792164604139e-08 2.87758002041495e-08 8.71214909448681e-08 1.00117902013499e-07 9.08995262733395e-09
"2072" 35991 1.44024958510999e-08 4.81447274456222e-09 2.256974537712e-08 6.53995241638596e-08 2.8969761875348e-08 8.66153903288756e-08 1.00535222006768e-07 9.08279290129819e-09
"2073" 35992 1.43357592198905e-08 4.83600064989894e-09 2.26167339825691e-08 6.54198318673053e-08 2.91637235465466e-08 8.61092897128831e-08 1.00952542000037e-07 9.07563317526243e-09
"2074" 35993 1.42690225886812e-08 4.85752855523566e-09 2.26637225880181e-08 6.5440139570751e-08 2.93576852177452e-08 8.56031890968905e-08 1.01369861993306e-07 9.06847344922667e-09
"2075" 35994 1.42022859574719e-08 4.87905646057239e-09 2.27107111934672e-08 6.54604472741967e-08 2.95516468889438e-08 8.5097088480898e-08 1.01787181986575e-07 9.06131372319091e-09
"2076" 35995 1.41355493262625e-08 4.90058436590911e-09 2.27576997989163e-08 6.54807549776424e-08 2.97456085601424e-08 8.45909878649055e-08 1.02204501979844e-07 9.05415399715515e-09
"2077" 35996 1.40688126950532e-08 4.92211227124583e-09 2.28046884043653e-08 6.55010626810881e-08 2.9939570231341e-08 8.40848872489129e-08 1.02621821973113e-07 9.04699427111939e-09
"2078" 35997 1.40020760638438e-08 4.94364017658255e-09 2.28516770098144e-08 6.55213703845338e-08 3.01335319025396e-08 8.35787866329204e-08 1.03039141966382e-07 9.03983454508363e-09
"2079" 35998 1.39353394326345e-08 4.96516808191928e-09 2.28986656152634e-08 6.55416780879795e-08 3.03274935737382e-08 8.30726860169279e-08 1.0345646195965e-07 9.03267481904787e-09
"2080" 35999 1.37340757883372e-08 4.94189385314831e-09 2.29607226266603e-08 6.56040268704884e-08 3.04568296645123e-08 8.32629868629428e-08 1.04000798747682e-07 9.01813217845614e-09
"2081" 36000 1.35328121440399e-08 4.91861962437734e-09 2.30227796380572e-08 6.56663756529972e-08 3.05861657552863e-08 8.34532877089576e-08 1.04545135535713e-07 9.00358953786442e-09
"2082" 36001 1.33315484997427e-08 4.89534539560638e-09 2.3084836649454e-08 6.57287244355061e-08 3.07155018460604e-08 8.36435885549725e-08 1.05089472323744e-07 8.98904689727269e-09
"2083" 36002 1.31302848554454e-08 4.87207116683541e-09 2.31468936608509e-08 6.5791073218015e-08 3.08448379368344e-08 8.38338894009874e-08 1.05633809111775e-07 8.97450425668097e-09
"2084" 36003 1.29290212111481e-08 4.84879693806444e-09 2.32089506722478e-08 6.58534220005238e-08 3.09741740276084e-08 8.40241902470022e-08 1.06178145899806e-07 8.95996161608925e-09
"2085" 36004 1.29219791635459e-08 4.90340834182655e-09 2.323643499991e-08 6.58197278358094e-08 3.11912898262436e-08 8.35225419702915e-08 1.05816413523997e-07 8.931099523426e-09
"2086" 36005 1.28687770307801e-08 4.89584689881966e-09 2.32596439677413e-08 6.61528568309297e-08 3.11177391403369e-08 8.28887153495189e-08 1.05300792646941e-07 8.92595120689276e-09
"2087" 36006 1.28155748980143e-08 4.88828545581277e-09 2.32828529355727e-08 6.64859858260499e-08 3.10441884544302e-08 8.22548887287463e-08 1.04785171769885e-07 8.92080289035952e-09
"2088" 36007 1.27623727652485e-08 4.88072401280588e-09 2.33060619034041e-08 6.68191148211702e-08 3.09706377685235e-08 8.16210621079736e-08 1.04269550892829e-07 8.91565457382627e-09
"2089" 36008 1.27091706324828e-08 4.87316256979900e-09 2.33292708712355e-08 6.71522438162905e-08 3.08970870826169e-08 8.0987235487201e-08 1.03753930015773e-07 8.91050625729303e-09
"2090" 36009 1.2655968499717e-08 4.86560112679211e-09 2.33524798390668e-08 6.74853728114108e-08 3.08235363967102e-08 8.03534088664283e-08 1.03238309138717e-07 8.90535794075979e-09
"2091" 36010 1.26027663669512e-08 4.85803968378522e-09 2.33756888068982e-08 6.7818501806531e-08 3.07499857108035e-08 7.97195822456557e-08 1.0272268826166e-07 8.90020962422655e-09
"2092" 36011 1.25495642341854e-08 4.85047824077833e-09 2.33988977747296e-08 6.81516308016513e-08 3.06764350248968e-08 7.9085755624883e-08 1.02207067384604e-07 8.8950613076933e-09
"2093" 36012 1.24963621014197e-08 4.84291679777144e-09 2.3422106742561e-08 6.84847597967716e-08 3.06028843389901e-08 7.84519290041104e-08 1.01691446507548e-07 8.88991299116006e-09
"2094" 36013 1.24431599686539e-08 4.83535535476455e-09 2.34453157103923e-08 6.88178887918919e-08 3.05293336530835e-08 7.78181023833378e-08 1.01175825630492e-07 8.88476467462682e-09
"2095" 36014 1.23899578358881e-08 4.82779391175766e-09 2.34685246782237e-08 6.91510177870122e-08 3.04557829671768e-08 7.71842757625651e-08 1.00660204753436e-07 8.87961635809358e-09
"2096" 36015 1.23367557031223e-08 4.82023246875077e-09 2.34917336460551e-08 6.94841467821324e-08 3.03822322812701e-08 7.65504491417925e-08 1.0014458387638e-07 8.87446804156034e-09
"2097" 36016 1.22835535703566e-08 4.81267102574388e-09 2.35149426138864e-08 6.98172757772527e-08 3.03086815953634e-08 7.59166225210198e-08 9.96289629993234e-08 8.86931972502709e-09
"2098" 36017 1.22303514375908e-08 4.805109582737e-09 2.35381515817178e-08 7.0150404772373e-08 3.02351309094567e-08 7.52827959002472e-08 9.91133421222672e-08 8.86417140849385e-09
"2099" 36018 1.2177149304825e-08 4.79754813973011e-09 2.35613605495492e-08 7.04835337674933e-08 3.01615802235501e-08 7.46489692794745e-08 9.85977212452111e-08 8.85902309196061e-09
"2100" 36019 1.21239471720592e-08 4.78998669672322e-09 2.35845695173806e-08 7.08166627626136e-08 3.00880295376434e-08 7.40151426587019e-08 9.80821003681549e-08 8.85387477542737e-09
"2101" 36020 1.1960364809933e-08 4.79638896595009e-09 2.36134026843345e-08 7.11514152628713e-08 2.98640261109574e-08 7.4003181351891e-08 9.80687036230179e-08 8.77994771982063e-09
"2102" 36021 1.17967824478067e-08 4.80279123517695e-09 2.36422358512884e-08 7.1486167763129e-08 2.96400226842714e-08 7.39912200450802e-08 9.80553068778808e-08 8.7060206642139e-09
"2103" 36022 1.17453059299204e-08 4.79647323734299e-09 2.36917087170968e-08 7.16485207163408e-08 2.96616281017287e-08 7.39995830416925e-08 9.6997979344213e-08 8.67995432584961e-09
"2104" 36023 1.1693829412034e-08 4.79015523950902e-09 2.37411815829052e-08 7.18108736695526e-08 2.96832335191861e-08 7.40079460383049e-08 9.59406518105451e-08 8.65388798748533e-09
"2105" 36024 1.16423528941477e-08 4.78383724167505e-09 2.37906544487137e-08 7.19732266227644e-08 2.97048389366434e-08 7.40163090349173e-08 9.48833242768772e-08 8.62782164912105e-09
"2106" 36025 1.15908763762614e-08 4.77751924384108e-09 2.38401273145221e-08 7.21355795759762e-08 2.97264443541008e-08 7.40246720315296e-08 9.38259967432094e-08 8.60175531075676e-09
"2107" 36026 1.1539399858375e-08 4.77120124600711e-09 2.38896001803306e-08 7.2297932529188e-08 2.97480497715581e-08 7.4033035028142e-08 9.27686692095415e-08 8.57568897239248e-09
"2108" 36027 1.14883030856832e-08 4.80212531432199e-09 2.44140994319441e-08 7.22666188128477e-08 2.99107923355199e-08 7.40486657003446e-08 9.17321762008117e-08 8.52808105276188e-09
"2109" 36028 1.14764433584753e-08 4.78940504726115e-09 2.44140994319441e-08 7.20621486062248e-08 3.00589428234279e-08 7.40532079975885e-08 9.17137050811072e-08 8.78034856289075e-09
"2110" 36029 1.14645836312675e-08 4.77668478020031e-09 2.44140994319441e-08 7.18576783996019e-08 3.0207093311336e-08 7.40577502948324e-08 9.16952339614027e-08 9.03261607301961e-09
"2111" 36030 1.14527239040596e-08 4.76396451313948e-09 2.44140994319441e-08 7.16532081929789e-08 3.0355243799244e-08 7.40622925920763e-08 9.16767628416982e-08 9.28488358314848e-09
"2112" 36031 1.14408641768517e-08 4.75124424607864e-09 2.44140994319441e-08 7.1448737986356e-08 3.05033942871521e-08 7.40668348893201e-08 9.16582917219937e-08 9.53715109327734e-09
"2113" 36032 1.14804809675302e-08 4.7253063338878e-09 2.35477521754072e-08 6.95457227255179e-08 3.06519585982524e-08 7.35725613265777e-08 9.24427637890731e-08 9.83002758236222e-09
"2114" 36033 1.15200977582087e-08 4.69936842169696e-09 2.26814049188704e-08 6.76427074646798e-08 3.08005229093527e-08 7.30782877638353e-08 9.32272358561526e-08 1.01229040714471e-08
"2115" 36034 1.15597145488871e-08 4.67343050950612e-09 2.18150576623335e-08 6.57396922038417e-08 3.0949087220453e-08 7.25840142010929e-08 9.40117079232321e-08 1.0415780560532e-08
"2116" 36035 1.15993313395656e-08 4.64749259731528e-09 2.09487104057966e-08 6.38366769430035e-08 3.10976515315533e-08 7.20897406383504e-08 9.47961799903116e-08 1.07086570496168e-08
"2117" 36036 1.16389481302441e-08 4.62155468512444e-09 2.00823631492597e-08 6.19336616821654e-08 3.12462158426536e-08 7.1595467075608e-08 9.55806520573911e-08 1.10015335387017e-08
"2118" 36037 1.16785649209225e-08 4.5956167729336e-09 1.92160158927229e-08 6.00306464213273e-08 3.13947801537539e-08 7.11011935128656e-08 9.63651241244706e-08 1.12944100277866e-08
"2119" 36038 1.1718181711601e-08 4.56967886074276e-09 1.8349668636186e-08 5.81276311604892e-08 3.15433444648543e-08 7.06069199501232e-08 9.714959619155e-08 1.15872865168715e-08
"2120" 36039 1.17577985022795e-08 4.54307640274499e-09 1.7529450393697e-08 5.69155682285165e-08 3.16025153995195e-08 7.01063139308338e-08 9.71249340795781e-08 1.16483411886572e-08
"2121" 36040 1.17974152929579e-08 4.51647394474722e-09 1.6709232151208e-08 5.57035052965438e-08 3.16616863341848e-08 6.96057079115444e-08 9.71002719676062e-08 1.1709395860443e-08
"2122" 36041 1.18338610530491e-08 4.51605808797487e-09 1.67540236245517e-08 5.63759378157507e-08 3.17032843412929e-08 6.93970690065731e-08 9.69308322735892e-08 1.1742986316715e-08
"2123" 36042 1.18703068131402e-08 4.51564223120253e-09 1.67988150978954e-08 5.70483703349575e-08 3.1744882348401e-08 6.91884301016017e-08 9.67613925795722e-08 1.1776576772987e-08
"2124" 36043 1.19067525732314e-08 4.51522637443018e-09 1.68436065712391e-08 5.77208028541644e-08 3.17864803555091e-08 6.89797911966303e-08 9.65919528855552e-08 1.1810167229259e-08
"2125" 36044 1.19431983333225e-08 4.51481051765784e-09 1.68883980445828e-08 5.83932353733713e-08 3.18280783626172e-08 6.87711522916589e-08 9.64225131915381e-08 1.1843757685531e-08
"2126" 36045 1.19796440934137e-08 4.51439466088549e-09 1.69331895179264e-08 5.90656678925782e-08 3.18696763697253e-08 6.85625133866875e-08 9.62530734975211e-08 1.1877348141803e-08
"2127" 36046 1.20160898535048e-08 4.51397880411314e-09 1.69779809912701e-08 5.9738100411785e-08 3.19112743768334e-08 6.83538744817161e-08 9.60836338035041e-08 1.1910938598075e-08
"2128" 36047 1.20525356135959e-08 4.5135629473408e-09 1.70227724646138e-08 6.04105329309919e-08 3.19528723839415e-08 6.81452355767448e-08 9.59141941094871e-08 1.1944529054347e-08
"2129" 36048 1.20564888559986e-08 4.55745597175109e-09 1.73774614343388e-08 6.06530253902823e-08 3.19358406744639e-08 6.79461265001893e-08 9.55227222443988e-08 1.19111913956869e-08
"2130" 36049 1.20604420984012e-08 4.60134899616138e-09 1.77321504040637e-08 6.08955178495727e-08 3.19188089649864e-08 6.77470174236339e-08 9.51312503793106e-08 1.18778537370267e-08
"2131" 36050 1.20643953408038e-08 4.64524202057167e-09 1.80868393737887e-08 6.11380103088631e-08 3.19017772555089e-08 6.75479083470785e-08 9.47397785142224e-08 1.18445160783666e-08
"2132" 36051 1.20683485832064e-08 4.68913504498197e-09 1.84415283435136e-08 6.13805027681535e-08 3.18847455460313e-08 6.73487992705231e-08 9.43483066491341e-08 1.18111784197064e-08
"2133" 36052 1.20723018256091e-08 4.73302806939226e-09 1.87962173132386e-08 6.16229952274439e-08 3.18677138365538e-08 6.71496901939676e-08 9.39568347840459e-08 1.17778407610463e-08
"2134" 36053 1.20762550680117e-08 4.77692109380255e-09 1.91509062829636e-08 6.18654876867343e-08 3.18506821270763e-08 6.69505811174122e-08 9.35653629189576e-08 1.17445031023861e-08
"2135" 36054 1.20802083104143e-08 4.82081411821284e-09 1.95055952526885e-08 6.21079801460247e-08 3.18336504175987e-08 6.67514720408568e-08 9.31738910538694e-08 1.1711165443726e-08
"2136" 36055 1.2082642572039e-08 4.84342517622492e-09 1.96110021776541e-08 6.2342337452506e-08 3.18113655607419e-08 6.67079379536851e-08 9.28509657601051e-08 1.16671635751517e-08
"2137" 36056 1.20898263489903e-08 4.8849902277389e-09 1.99623377903919e-08 6.25766947589874e-08 3.17724944561297e-08 6.66891814203949e-08 9.26201242857902e-08 1.16688206198645e-08
"2138" 36057 1.20970101259416e-08 4.92655527925288e-09 2.03136734031296e-08 6.28110520654687e-08 3.17336233515176e-08 6.66704248871047e-08 9.23892828114753e-08 1.16704776645772e-08
"2139" 36058 1.21041939028929e-08 4.96812033076686e-09 2.06650090158674e-08 6.30454093719501e-08 3.16947522469055e-08 6.66516683538146e-08 9.21584413371604e-08 1.167213470929e-08
"2140" 36059 1.21113776798442e-08 5.00968538228084e-09 2.10163446286052e-08 6.32797666784314e-08 3.16558811422934e-08 6.66329118205244e-08 9.19275998628455e-08 1.16737917540028e-08
"2141" 36060 1.21185614567955e-08 5.05125043379482e-09 2.13676802413429e-08 6.35141239849128e-08 3.16170100376812e-08 6.66141552872342e-08 9.16967583885305e-08 1.16754487987156e-08
"2142" 36061 1.21257452337468e-08 5.0928154853088e-09 2.17190158540807e-08 6.37484812913942e-08 3.15781389330691e-08 6.6595398753944e-08 9.14659169142156e-08 1.16771058434284e-08
"2143" 36062 1.21329290106981e-08 5.13438053682278e-09 2.20703514668185e-08 6.39828385978755e-08 3.1539267828457e-08 6.65766422206538e-08 9.12350754399007e-08 1.16787628881412e-08
"2144" 36063 1.21401127876494e-08 5.17594558833675e-09 2.24216870795562e-08 6.42171959043568e-08 3.15003967238449e-08 6.65578856873636e-08 9.10042339655858e-08 1.1680419932854e-08
"2145" 36064 1.21472965646007e-08 5.21751063985073e-09 2.2773022692294e-08 6.44515532108382e-08 3.14615256192328e-08 6.65391291540735e-08 9.07733924912709e-08 1.16820769775668e-08
"2146" 36065 1.2154480341552e-08 5.25907569136471e-09 2.31243583050318e-08 6.46859105173196e-08 3.14226545146206e-08 6.65203726207833e-08 9.0542551016956e-08 1.16837340222796e-08
"2147" 36066 1.21616641185033e-08 5.30064074287869e-09 2.34756939177695e-08 6.49202678238009e-08 3.13837834100085e-08 6.65016160874931e-08 9.03117095426411e-08 1.16853910669924e-08
"2148" 36067 1.21688478954546e-08 5.34220579439267e-09 2.38270295305073e-08 6.51546251302823e-08 3.13449123053964e-08 6.64828595542029e-08 9.00808680683262e-08 1.16870481117052e-08
"2149" 36068 1.21873385433263e-08 5.35816314404722e-09 2.38175740250945e-08 6.51413705576573e-08 3.13162285879408e-08 6.65830913947573e-08 8.99150530092225e-08 1.17003208664412e-08
"2150" 36069 1.2205829191198e-08 5.37412049370177e-09 2.38081185196817e-08 6.51281159850324e-08 3.12875448704851e-08 6.66833232353117e-08 8.97492379501188e-08 1.17135936211773e-08
"2151" 36070 1.22193777507503e-08 5.38866860549367e-09 2.37958934190164e-08 6.59589216625395e-08 3.12485463709856e-08 6.66537454674198e-08 8.95393876236837e-08 1.17182923756944e-08
"2152" 36071 1.22329263103026e-08 5.40321671728557e-09 2.37836683183511e-08 6.67897273400466e-08 3.12095478714861e-08 6.66241676995278e-08 8.93295372972485e-08 1.17229911302115e-08
"2153" 36072 1.22464748698548e-08 5.41776482907747e-09 2.37714432176858e-08 6.76205330175537e-08 3.11705493719865e-08 6.65945899316358e-08 8.91196869708134e-08 1.17276898847286e-08
"2154" 36073 1.22600234294071e-08 5.43231294086938e-09 2.37592181170205e-08 6.84513386950607e-08 3.1131550872487e-08 6.65650121637438e-08 8.89098366443782e-08 1.17323886392457e-08
"2155" 36074 1.22735719889594e-08 5.44686105266128e-09 2.37469930163551e-08 6.92821443725678e-08 3.10925523729875e-08 6.65354343958519e-08 8.8699986317943e-08 1.17370873937628e-08
"2156" 36075 1.22871205485116e-08 5.46140916445318e-09 2.37347679156898e-08 7.01129500500749e-08 3.10535538734879e-08 6.65058566279599e-08 8.84901359915079e-08 1.17417861482799e-08
"2157" 36076 1.23006691080639e-08 5.47595727624508e-09 2.37225428150245e-08 7.0943755727582e-08 3.10145553739884e-08 6.64762788600679e-08 8.82802856650727e-08 1.1746484902797e-08
"2158" 36077 1.23142176676162e-08 5.49050538803699e-09 2.37103177143592e-08 7.17745614050891e-08 3.09755568744888e-08 6.64467010921759e-08 8.80704353386375e-08 1.17511836573141e-08
"2159" 36078 1.23277662271685e-08 5.50505349982889e-09 2.36980926136939e-08 7.26053670825962e-08 3.09365583749893e-08 6.6417123324284e-08 8.78605850122024e-08 1.17558824118312e-08
"2160" 36079 1.23413147867207e-08 5.51960161162079e-09 2.36858675130285e-08 7.34361727601033e-08 3.08975598754898e-08 6.6387545556392e-08 8.76507346857672e-08 1.17605811663483e-08
"2161" 36080 1.2354863346273e-08 5.53414972341269e-09 2.36736424123632e-08 7.42669784376103e-08 3.08585613759902e-08 6.63579677885e-08 8.74408843593321e-08 1.17652799208654e-08
"2162" 36081 1.23684119058253e-08 5.5486978352046e-09 2.36614173116979e-08 7.50977841151174e-08 3.08195628764907e-08 6.6328390020608e-08 8.72310340328969e-08 1.17699786753825e-08
"2163" 36082 1.23819604653776e-08 5.5632459469965e-09 2.36491922110326e-08 7.59285897926245e-08 3.07805643769912e-08 6.62988122527161e-08 8.70211837064617e-08 1.17746774298996e-08
"2164" 36083 1.24508024566608e-08 5.56183258398974e-09 2.36622448006974e-08 7.5901864242977e-08 3.07439747131527e-08 6.6268147931804e-08 8.70952051226693e-08 1.19389739969472e-08
"2165" 36084 1.2475031465776e-08 5.56041922098298e-09 2.36875224910276e-08 7.5840884474034e-08 3.07198330651469e-08 6.59097400701077e-08 8.72957096907487e-08 1.20478105857827e-08
"2166" 36085 1.24572548654406e-08 5.56474220634812e-09 2.3715696392856e-08 7.57870330659496e-08 3.0700095265271e-08 6.56822283698778e-08 8.72614928628197e-08 1.20215210588982e-08
"2167" 36086 1.24394782651052e-08 5.46872879366568e-09 2.36706802027008e-08 7.57928063418164e-08 3.06543581854729e-08 6.5643388369515e-08 8.71854359199267e-08 1.20398305359074e-08
"2168" 36087 1.24217016647698e-08 5.37271538098324e-09 2.36256640125455e-08 7.57985796176832e-08 3.06086211056748e-08 6.56045483691522e-08 8.71093789770337e-08 1.20581400129166e-08
"2169" 36088 1.24039250644345e-08 5.2767019683008e-09 2.35806478223903e-08 7.580435289355e-08 3.05628840258768e-08 6.55657083687893e-08 8.70333220341407e-08 1.20764494899258e-08
"2170" 36089 1.23861484640991e-08 5.18068855561836e-09 2.35356316322351e-08 7.58101261694168e-08 3.05171469460787e-08 6.55268683684265e-08 8.69572650912478e-08 1.20947589669349e-08
"2171" 36090 1.24082353306053e-08 5.17977669582488e-09 2.35356316322351e-08 7.5798664133437e-08 3.0361217065908e-08 6.56421606172849e-08 8.62384950725467e-08 1.21259080336977e-08
"2172" 36091 1.24303221971114e-08 5.17886483603141e-09 2.35356316322351e-08 7.57872020974572e-08 3.02052871857372e-08 6.57574528661432e-08 8.55197250538456e-08 1.21570571004605e-08
"2173" 36092 1.24524090636176e-08 5.17795297623793e-09 2.35356316322351e-08 7.57757400614775e-08 3.00493573055664e-08 6.58727451150016e-08 8.48009550351446e-08 1.21882061672232e-08
"2174" 36093 1.24744959301237e-08 5.17704111644446e-09 2.35356316322351e-08 7.57642780254977e-08 2.98934274253956e-08 6.59880373638599e-08 8.40821850164435e-08 1.2219355233986e-08
"2175" 36094 1.24965827966299e-08 5.17612925665098e-09 2.35356316322351e-08 7.57528159895179e-08 2.97374975452249e-08 6.61033296127183e-08 8.33634149977424e-08 1.22505043007488e-08
"2176" 36095 1.2518669663136e-08 5.1752173968575e-09 2.35356316322351e-08 7.57413539535381e-08 2.95815676650541e-08 6.62186218615766e-08 8.26446449790414e-08 1.22816533675115e-08
"2177" 36096 1.25455060449688e-08 5.17123012201593e-09 2.3561035938811e-08 7.57163410676399e-08 2.94948803790175e-08 6.63332017361499e-08 8.27198754807877e-08 1.23119821104348e-08
"2178" 36097 1.25723424268016e-08 5.16724284717435e-09 2.35864402453869e-08 7.56913281817417e-08 2.94081930929808e-08 6.64477816107231e-08 8.2795105982534e-08 1.2342310853358e-08
"2179" 36098 1.25991788086344e-08 5.16325557233277e-09 2.36118445519628e-08 7.56663152958434e-08 2.93215058069442e-08 6.65623614852964e-08 8.28703364842804e-08 1.23726395962812e-08
"2180" 36099 1.26260151904672e-08 5.15926829749119e-09 2.36372488585387e-08 7.56413024099452e-08 2.92348185209076e-08 6.66769413598696e-08 8.29455669860267e-08 1.24029683392044e-08
"2181" 36100 1.26528515722999e-08 5.15528102264961e-09 2.36626531651146e-08 7.5616289524047e-08 2.9148131234871e-08 6.67915212344429e-08 8.3020797487773e-08 1.24332970821276e-08
"2182" 36101 1.26796879541327e-08 5.15129374780803e-09 2.36880574716905e-08 7.55912766381487e-08 2.90614439488343e-08 6.69061011090161e-08 8.30960279895194e-08 1.24636258250508e-08
"2183" 36102 1.27065243359655e-08 5.14730647296646e-09 2.37134617782664e-08 7.55662637522505e-08 2.89747566627977e-08 6.70206809835894e-08 8.31712584912657e-08 1.2493954567974e-08
"2184" 36103 1.27333607177983e-08 5.14331919812488e-09 2.37388660848423e-08 7.55412508663523e-08 2.88880693767611e-08 6.71352608581626e-08 8.3246488993012e-08 1.25242833108973e-08
"2185" 36104 1.27601970996311e-08 5.1393319232833e-09 2.37642703914182e-08 7.55162379804541e-08 2.88013820907245e-08 6.72498407327359e-08 8.33217194947584e-08 1.25546120538205e-08
"2186" 36105 1.27870334814638e-08 5.13534464844172e-09 2.37896746979942e-08 7.54912250945559e-08 2.87146948046878e-08 6.73644206073091e-08 8.33969499965047e-08 1.25849407967437e-08
"2187" 36106 1.27887082526996e-08 5.13135737360014e-09 2.38175311625278e-08 7.57887122853828e-08 2.8653189137854e-08 6.76211446646982e-08 8.3392246636405e-08 1.26081722167902e-08
"2188" 36107 1.27903830239353e-08 5.13900446304797e-09 2.39322330808979e-08 7.60733266409423e-08 2.85812945854837e-08 6.77138684489e-08 8.33842288845348e-08 1.26201914827042e-08
"2189" 36108 1.2792057795171e-08 5.1466515524958e-09 2.4046934999268e-08 7.63579409965018e-08 2.85094000331134e-08 6.78065922331018e-08 8.33762111326646e-08 1.26322107486182e-08
"2190" 36109 1.27937325664067e-08 5.15429864194362e-09 2.41616369176381e-08 7.66425553520614e-08 2.84375054807431e-08 6.78993160173035e-08 8.33681933807945e-08 1.26442300145323e-08
"2191" 36110 1.27954073376424e-08 5.16194573139145e-09 2.42763388360082e-08 7.69271697076209e-08 2.83656109283728e-08 6.79920398015053e-08 8.33601756289243e-08 1.26562492804463e-08
"2192" 36111 1.27970821088781e-08 5.16959282083928e-09 2.43910407543783e-08 7.72117840631804e-08 2.82937163760025e-08 6.80847635857071e-08 8.33521578770541e-08 1.26682685463604e-08
"2193" 36112 1.27987568801138e-08 5.17723991028711e-09 2.45057426727484e-08 7.74963984187399e-08 2.82218218236322e-08 6.81774873699089e-08 8.33441401251839e-08 1.26802878122744e-08
"2194" 36113 1.28004316513495e-08 5.18488699973493e-09 2.46204445911185e-08 7.77810127742994e-08 2.81499272712619e-08 6.82702111541107e-08 8.33361223733137e-08 1.26923070781884e-08
"2195" 36114 1.28021064225852e-08 5.19253408918276e-09 2.47351465094887e-08 7.80656271298589e-08 2.80780327188916e-08 6.83629349383124e-08 8.33281046214436e-08 1.27043263441025e-08
"2196" 36115 1.28037811938209e-08 5.20018117863059e-09 2.48498484278588e-08 7.83502414854184e-08 2.80061381665213e-08 6.84556587225142e-08 8.33200868695734e-08 1.27163456100165e-08
"2197" 36116 1.28054559650566e-08 5.20782826807842e-09 2.49645503462289e-08 7.86348558409779e-08 2.7934243614151e-08 6.8548382506716e-08 8.33120691177032e-08 1.27283648759305e-08
"2198" 36117 1.28071307362923e-08 5.21547535752624e-09 2.5079252264599e-08 7.89194701965374e-08 2.78623490617807e-08 6.86411062909178e-08 8.3304051365833e-08 1.27403841418446e-08
"2199" 36118 1.2808805507528e-08 5.22312244697407e-09 2.51939541829691e-08 7.92040845520969e-08 2.77904545094104e-08 6.87338300751196e-08 8.32960336139628e-08 1.27524034077586e-08
"2200" 36119 1.28677633221724e-08 5.21672430289132e-09 2.52018492242269e-08 7.93489115033367e-08 2.7800387106792e-08 6.87196246070754e-08 8.34935137763063e-08 1.27540932465388e-08
"2201" 36120 1.28646885780815e-08 5.16618032021957e-09 2.49667438916126e-08 7.91485307102893e-08 2.7728184473252e-08 6.87296887162052e-08 8.36233490219435e-08 1.2757374541897e-08
"2202" 36121 1.28528147897649e-08 5.16352076194382e-09 2.48496011138722e-08 7.91096326100052e-08 2.76130049824745e-08 6.8735860615185e-08 8.36505658613451e-08 1.27421691778512e-08
"2203" 36122 1.28409410014483e-08 5.16086120366806e-09 2.47324583361319e-08 7.9070734509721e-08 2.74978254916971e-08 6.87420325141649e-08 8.36777827007466e-08 1.27269638138053e-08
"2204" 36123 1.28290672131318e-08 5.1582016453923e-09 2.46153155583915e-08 7.90318364094368e-08 2.73826460009196e-08 6.87482044131447e-08 8.37049995401482e-08 1.27117584497595e-08
"2205" 36124 1.28171934248152e-08 5.15554208711654e-09 2.44981727806512e-08 7.89929383091527e-08 2.72674665101421e-08 6.87543763121246e-08 8.37322163795497e-08 1.26965530857137e-08
"2206" 36125 1.28188086920895e-08 5.15155068713085e-09 2.45212212364743e-08 7.89694123968901e-08 2.72992701411884e-08 6.86424682967087e-08 8.24640929668346e-08 1.26613515908542e-08
"2207" 36126 1.28204239593639e-08 5.14755928714516e-09 2.45442696922974e-08 7.89458864846275e-08 2.73310737722347e-08 6.85305602812927e-08 8.11959695541194e-08 1.26261500959948e-08
"2208" 36127 1.28220392266382e-08 5.14356788715946e-09 2.45673181481206e-08 7.8922360572365e-08 2.7362877403281e-08 6.84186522658768e-08 7.99278461414043e-08 1.25909486011353e-08
"2209" 36128 1.28236544939125e-08 5.13957648717377e-09 2.45903666039437e-08 7.88988346601024e-08 2.73946810343272e-08 6.83067442504608e-08 7.86597227286891e-08 1.25557471062759e-08
"2210" 36129 1.28252697611869e-08 5.13558508718807e-09 2.46134150597668e-08 7.88753087478398e-08 2.74264846653735e-08 6.81948362350449e-08 7.73915993159739e-08 1.25205456114164e-08
"2211" 36130 1.28268850284612e-08 5.13159368720238e-09 2.46364635155899e-08 7.88517828355772e-08 2.74582882964198e-08 6.80829282196289e-08 7.61234759032588e-08 1.24853441165569e-08
"2212" 36131 1.28285002957356e-08 5.12760228721668e-09 2.46595119714131e-08 7.88282569233147e-08 2.74900919274661e-08 6.7971020204213e-08 7.48553524905436e-08 1.24501426216975e-08
"2213" 36132 1.28301155630099e-08 5.12361088723099e-09 2.46825604272362e-08 7.88047310110521e-08 2.75218955585124e-08 6.7859112188797e-08 7.35872290778285e-08 1.2414941126838e-08
"2214" 36133 1.28317308302843e-08 5.11961948724529e-09 2.47056088830593e-08 7.87812050987895e-08 2.75536991895587e-08 6.77472041733811e-08 7.23191056651133e-08 1.23797396319786e-08
"2215" 36134 1.27871860123951e-08 5.10565577501154e-09 2.46111858252598e-08 7.87091069440501e-08 2.75650647692319e-08 6.77524856045046e-08 7.22677804232198e-08 1.21637499231363e-08
"2216" 36135 1.27426411945059e-08 5.09169206277778e-09 2.45167627674603e-08 7.86370087893108e-08 2.75764303489051e-08 6.77577670356281e-08 7.22164551813263e-08 1.1947760214294e-08
"2217" 36136 1.27429387143127e-08 5.08528979355091e-09 2.45405858060671e-08 7.86134828770482e-08 2.76098576341905e-08 6.653448528551e-08 7.18241538723509e-08 1.19383003021008e-08
"2218" 36137 1.27432362341195e-08 5.07888752432404e-09 2.45644088446739e-08 7.85899569647856e-08 2.76432849194758e-08 6.53112035353919e-08 7.14318525633756e-08 1.19288403899076e-08
"2219" 36138 1.27435337539263e-08 5.07248525509718e-09 2.45882318832808e-08 7.8566431052523e-08 2.76767122047611e-08 6.40879217852739e-08 7.10395512544003e-08 1.19193804777143e-08
"2220" 36139 1.27438312737331e-08 5.06608298587031e-09 2.46120549218876e-08 7.85429051402605e-08 2.77101394900464e-08 6.28646400351558e-08 7.0647249945425e-08 1.19099205655211e-08
"2221" 36140 1.27441287935399e-08 5.05968071664344e-09 2.46358779604944e-08 7.85193792279979e-08 2.77435667753317e-08 6.16413582850377e-08 7.02549486364496e-08 1.19004606533278e-08
"2222" 36141 1.27444263133467e-08 5.05327844741657e-09 2.46597009991013e-08 7.84958533157353e-08 2.7776994060617e-08 6.04180765349197e-08 6.98626473274743e-08 1.18910007411346e-08
"2223" 36142 1.27605281424464e-08 5.06350357384333e-09 2.46622797733048e-08 7.84582257846891e-08 2.789131426648e-08 5.93751473280668e-08 7.03013962598965e-08 1.19258674532137e-08
"2224" 36143 1.2776629971546e-08 5.0737287002701e-09 2.46648585475082e-08 7.8420598253643e-08 2.80056344723429e-08 5.8332218121214e-08 7.07401451923188e-08 1.19607341652929e-08
"2225" 36144 1.27780667269363e-08 5.07464056006357e-09 2.4679926953456e-08 7.8441334123026e-08 2.80812217949135e-08 5.70785659501353e-08 7.01859695172582e-08 1.19479929577414e-08
"2226" 36145 1.27795034823266e-08 5.07555241985705e-09 2.46949953594039e-08 7.8462069992409e-08 2.81568091174842e-08 5.58249137790567e-08 6.96317938421976e-08 1.193525175019e-08
"2227" 36146 1.27809402377168e-08 5.07646427965052e-09 2.47100637653517e-08 7.84828058617921e-08 2.82323964400548e-08 5.4571261607978e-08 6.9077618167137e-08 1.19225105426385e-08
"2228" 36147 1.27820794733003e-08 5.08111885039511e-09 2.47194550659612e-08 7.85270676434377e-08 2.83007147906798e-08 5.44709144166316e-08 6.88483511683852e-08 1.19206763155309e-08
"2229" 36148 1.27832187088837e-08 5.08577342113969e-09 2.47288463665706e-08 7.85713294250833e-08 2.83690331413047e-08 5.43705672252853e-08 6.86190841696334e-08 1.19188420884232e-08
"2230" 36149 1.27843579444672e-08 5.09042799188428e-09 2.47382376671801e-08 7.86155912067289e-08 2.84373514919296e-08 5.4270220033939e-08 6.83898171708816e-08 1.19170078613156e-08
"2231" 36150 1.27854971800507e-08 5.09508256262887e-09 2.47476289677896e-08 7.86598529883745e-08 2.85056698425545e-08 5.41698728425926e-08 6.81605501721298e-08 1.19151736342079e-08
"2232" 36151 1.27866364156341e-08 5.09973713337345e-09 2.47570202683991e-08 7.87041147700201e-08 2.85739881931794e-08 5.40695256512463e-08 6.7931283173378e-08 1.19133394071002e-08
"2233" 36152 1.27877756512176e-08 5.10439170411804e-09 2.47664115690086e-08 7.87483765516657e-08 2.86423065438043e-08 5.39691784598999e-08 6.77020161746262e-08 1.19115051799926e-08
"2234" 36153 1.27889148868011e-08 5.10904627486262e-09 2.4775802869618e-08 7.87926383333113e-08 2.87106248944292e-08 5.38688312685536e-08 6.74727491758744e-08 1.19096709528849e-08
"2235" 36154 1.27900541223845e-08 5.11370084560721e-09 2.47851941702275e-08 7.88369001149569e-08 2.87789432450541e-08 5.37684840772072e-08 6.72434821771225e-08 1.19078367257773e-08
"2236" 36155 1.28399153729965e-08 5.1203531789167e-09 2.47909562841833e-08 7.90089931546832e-08 2.88969245825874e-08 5.36803741010308e-08 6.70029584387198e-08 1.19101697060021e-08
"2237" 36156 1.28897766236085e-08 5.12991375953653e-09 2.48016209206937e-08 7.88037650605135e-08 2.90149059201206e-08 5.36283524428645e-08 6.7029316949942e-08 1.19101697060021e-08
"2238" 36157 1.29396378742205e-08 5.13947434015636e-09 2.48122855572041e-08 7.85985369663437e-08 2.91328872576539e-08 5.35763307846982e-08 6.70556754611643e-08 1.19101697060021e-08
"2239" 36158 1.29894991248325e-08 5.1490349207762e-09 2.48229501937145e-08 7.8393308872174e-08 2.92508685951871e-08 5.35243091265319e-08 6.70820339723865e-08 1.19101697060021e-08
"2240" 36159 1.30393603754445e-08 5.15859550139603e-09 2.48336148302249e-08 7.81880807780042e-08 2.93688499327204e-08 5.34722874683656e-08 6.71083924836087e-08 1.19101697060021e-08
"2241" 36160 1.30892216260564e-08 5.16815608201586e-09 2.48442794667353e-08 7.79828526838345e-08 2.94868312702536e-08 5.34202658101993e-08 6.7134750994831e-08 1.19101697060021e-08
"2242" 36161 1.31390828766684e-08 5.17771666263569e-09 2.48549441032457e-08 7.77776245896647e-08 2.96048126077869e-08 5.33682441520331e-08 6.71611095060532e-08 1.19101697060021e-08
"2243" 36162 1.31475248971259e-08 5.17730080586335e-09 2.49197933070701e-08 7.78331830743303e-08 2.95989549652678e-08 5.33765181018598e-08 6.71666334923374e-08 1.1905470951485e-08
"2244" 36163 1.31559669175834e-08 5.176884949091e-09 2.49846425108945e-08 7.78887415589959e-08 2.95930973227487e-08 5.33847920516865e-08 6.71721574786215e-08 1.19007721969679e-08
"2245" 36164 1.31644089380409e-08 5.17646909231866e-09 2.50494917147189e-08 7.79443000436615e-08 2.95872396802296e-08 5.33930660015133e-08 6.71776814649056e-08 1.18960734424508e-08
"2246" 36165 1.31728509584984e-08 5.17605323554631e-09 2.51143409185433e-08 7.79998585283271e-08 2.95813820377106e-08 5.340133995134e-08 6.71832054511898e-08 1.18913746879337e-08
"2247" 36166 1.31812929789559e-08 5.17563737877397e-09 2.51791901223677e-08 7.80554170129926e-08 2.95755243951915e-08 5.34096139011667e-08 6.71887294374739e-08 1.18866759334166e-08
"2248" 36167 1.31897349994133e-08 5.17522152200162e-09 2.52440393261921e-08 7.81109754976582e-08 2.95696667526724e-08 5.34178878509935e-08 6.71942534237581e-08 1.18819771788995e-08
"2249" 36168 1.31981770198708e-08 5.17480566522928e-09 2.53088885300165e-08 7.81665339823238e-08 2.95638091101534e-08 5.34261618008202e-08 6.71997774100422e-08 1.18772784243824e-08
"2250" 36169 1.32078545624082e-08 5.16017740718859e-09 2.51680190208743e-08 7.84745934329399e-08 2.95647641514253e-08 5.29919974400856e-08 6.5516842402309e-08 1.18582602177938e-08
"2251" 36170 1.30816840848635e-08 5.15311059215479e-09 2.51104923951606e-08 7.89046124214422e-08 2.95647641514253e-08 5.30016961384825e-08 6.5375315437969e-08 1.18392420112052e-08
"2252" 36171 1.29555136073189e-08 5.14604377712099e-09 2.50529657694469e-08 7.93346314099444e-08 2.95647641514253e-08 5.30113948368795e-08 6.5233788473629e-08 1.18202238046165e-08
"2253" 36172 1.28293431297742e-08 5.1389769620872e-09 2.49954391437332e-08 7.97646503984467e-08 2.95647641514253e-08 5.30210935352764e-08 6.5092261509289e-08 1.18012055980279e-08
"2254" 36173 1.27031726522295e-08 5.1319101470534e-09 2.49379125180195e-08 8.01946693869489e-08 2.95647641514253e-08 5.30307922336733e-08 6.4950734544949e-08 1.17821873914393e-08
"2255" 36174 1.25770021746849e-08 5.1248433320196e-09 2.48803858923058e-08 8.06246883754511e-08 2.95647641514253e-08 5.30404909320702e-08 6.48092075806091e-08 1.17631691848507e-08
"2256" 36175 1.24508316971402e-08 5.1177765169858e-09 2.48228592665921e-08 8.10547073639534e-08 2.95647641514253e-08 5.30501896304671e-08 6.46676806162691e-08 1.1744150978262e-08
"2257" 36176 1.23246612195956e-08 5.110709701952e-09 2.47653326408784e-08 8.14847263524556e-08 2.95647641514253e-08 5.30598883288641e-08 6.45261536519291e-08 1.17251327716734e-08
"2258" 36177 1.22068645982294e-08 5.11827114495889e-09 2.46551819120056e-08 8.1744807059492e-08 2.95967801072839e-08 5.3522393026082e-08 6.45142908681385e-08 1.17474322736202e-08
"2259" 36178 1.21042090822635e-08 5.11452843400778e-09 2.45346102738873e-08 8.17595578914686e-08 2.96005686338417e-08 5.34601734608134e-08 6.44288069479379e-08 1.17674284044339e-08
"2260" 36179 1.20015535662977e-08 5.11078572305667e-09 2.44140386357689e-08 8.17743087234451e-08 2.96043571603994e-08 5.33979538955448e-08 6.43433230277372e-08 1.17874245352475e-08
"2261" 36180 1.18988980503318e-08 5.10704301210556e-09 2.42934669976506e-08 8.17890595554217e-08 2.96081456869572e-08 5.33357343302761e-08 6.42578391075365e-08 1.18074206660611e-08
"2262" 36181 1.1796242534366e-08 5.10330030115445e-09 2.41728953595323e-08 8.18038103873982e-08 2.96119342135149e-08 5.32735147650075e-08 6.41723551873359e-08 1.18274167968747e-08
"2263" 36182 1.16935870184001e-08 5.09955759020334e-09 2.40523237214139e-08 8.18185612193748e-08 2.96157227400727e-08 5.32112951997389e-08 6.40868712671352e-08 1.18474129276883e-08
"2264" 36183 1.15909315024342e-08 5.09581487925223e-09 2.39317520832956e-08 8.18333120513513e-08 2.96195112666304e-08 5.31490756344703e-08 6.40013873469346e-08 1.1867409058502e-08
"2265" 36184 1.14882759864684e-08 5.09207216830112e-09 2.38111804451772e-08 8.18480628833279e-08 2.96232997931882e-08 5.30868560692017e-08 6.39159034267339e-08 1.18874051893156e-08
"2266" 36185 1.13856204705025e-08 5.08832945735001e-09 2.36906088070589e-08 8.18628137153044e-08 2.96270883197459e-08 5.3024636503933e-08 6.38304195065332e-08 1.19074013201292e-08
"2267" 36186 1.12829649545367e-08 5.0845867463989e-09 2.35700371689406e-08 8.18775645472809e-08 2.96308768463037e-08 5.29624169386644e-08 6.37449355863326e-08 1.19273974509428e-08
"2268" 36187 1.11803094385708e-08 5.08084403544779e-09 2.34494655308222e-08 8.18923153792575e-08 2.96346653728614e-08 5.29001973733958e-08 6.36594516661319e-08 1.19473935817564e-08
"2269" 36188 1.10776539226049e-08 5.07710132449668e-09 2.33288938927039e-08 8.1907066211234e-08 2.96384538994192e-08 5.28379778081272e-08 6.35739677459313e-08 1.19673897125701e-08
"2270" 36189 1.09749984066391e-08 5.07335861354557e-09 2.32083222545856e-08 8.19218170432106e-08 2.96422424259769e-08 5.27757582428585e-08 6.34884838257306e-08 1.19873858433837e-08
"2271" 36190 1.08723428906732e-08 5.06961590259446e-09 2.30877506164672e-08 8.19365678751871e-08 2.96460309525347e-08 5.27135386775899e-08 6.34029999055299e-08 1.20073819741973e-08
"2272" 36191 1.07696873747074e-08 5.06587319164335e-09 2.29671789783489e-08 8.19513187071637e-08 2.96498194790924e-08 5.26513191123213e-08 6.33175159853293e-08 1.20273781050109e-08
"2273" 36192 1.06670318587415e-08 5.06213048069224e-09 2.28466073402306e-08 8.19660695391402e-08 2.96536080056502e-08 5.25890995470527e-08 6.32320320651286e-08 1.20473742358246e-08
"2274" 36193 1.05643763427756e-08 5.05838776974113e-09 2.27260357021122e-08 8.19808203711167e-08 2.96573965322079e-08 5.25268799817841e-08 6.3146548144928e-08 1.20673703666382e-08
"2275" 36194 1.04617208268098e-08 5.05464505879002e-09 2.26054640639939e-08 8.19955712030933e-08 2.96611850587657e-08 5.24646604165154e-08 6.30610642247273e-08 1.20873664974518e-08
"2276" 36195 1.03590653108439e-08 5.05090234783891e-09 2.24848924258755e-08 8.20103220350698e-08 2.96649735853234e-08 5.24024408512468e-08 6.29755803045266e-08 1.21073626282654e-08
"2277" 36196 1.02564097948781e-08 5.0471596368878e-09 2.23643207877572e-08 8.20250728670464e-08 2.96687621118812e-08 5.23402212859782e-08 6.2890096384326e-08 1.2127358759079e-08
"2278" 36197 1.01537542789122e-08 5.04341692593669e-09 2.22437491496389e-08 8.20398236990229e-08 2.96725506384389e-08 5.22780017207096e-08 6.28046124641253e-08 1.21473548898927e-08
"2279" 36198 1.00310155692266e-08 5.03768057756479e-09 2.21374505308705e-08 8.20252140414062e-08 2.96894766058939e-08 5.2226781483614e-08 6.28631667187372e-08 1.21299937280168e-08
"2280" 36199 1.00417501219597e-08 5.01573819050376e-09 2.20841273483185e-08 8.19589643925715e-08 2.96472840893112e-08 5.22022447660831e-08 6.27756617139973e-08 1.20512367416235e-08
"2281" 36200 1.00090790923871e-08 5.01407613846241e-09 2.21187000320532e-08 8.25577699976814e-08 2.9669855374473e-08 5.21658625481215e-08 6.28589099676138e-08 1.20606342506577e-08
"2282" 36201 9.97640806281453e-09 5.01241408642107e-09 2.21532727157879e-08 8.31565756027914e-08 2.96924266596347e-08 5.21294803301599e-08 6.29421582212303e-08 1.20700317596919e-08
"2283" 36202 9.94373703324193e-09 5.01075203437972e-09 2.21878453995225e-08 8.37553812079014e-08 2.97149979447964e-08 5.20930981121983e-08 6.30254064748468e-08 1.20794292687261e-08
"2284" 36203 9.91106600366932e-09 5.00908998233838e-09 2.22224180832572e-08 8.43541868130114e-08 2.97375692299582e-08 5.20567158942367e-08 6.31086547284633e-08 1.20888267777603e-08
"2285" 36204 9.87839497409672e-09 5.00742793029704e-09 2.22569907669919e-08 8.49529924181214e-08 2.97601405151199e-08 5.20203336762751e-08 6.31919029820798e-08 1.20982242867945e-08
"2286" 36205 9.80772782191108e-09 4.94100674421953e-09 2.19272281545398e-08 8.48165421269984e-08 2.96900178239736e-08 5.1770012675038e-08 6.32718368439258e-08 1.21167109461986e-08
"2287" 36206 9.73706066972545e-09 4.87458555814202e-09 2.15974655420877e-08 8.46800918358755e-08 2.96198951328273e-08 5.1519691673801e-08 6.33517707057719e-08 1.21351976056026e-08
"2288" 36207 9.66639351753981e-09 4.80816437206452e-09 2.12677029296356e-08 8.45436415447526e-08 2.9549772441681e-08 5.12693706725639e-08 6.34317045676179e-08 1.21536842650066e-08
"2289" 36208 9.59572636535417e-09 4.74174318598701e-09 2.09379403171835e-08 8.44071912536296e-08 2.94796497505348e-08 5.10190496713268e-08 6.35116384294639e-08 1.21721709244107e-08
"2290" 36209 9.52505921316854e-09 4.67532199990951e-09 2.06081777047314e-08 8.42707409625067e-08 2.94095270593885e-08 5.07687286700897e-08 6.35915722913099e-08 1.21906575838147e-08
"2291" 36210 9.4543920609829e-09 4.608900813832e-09 2.02784150922792e-08 8.41342906713837e-08 2.93394043682422e-08 5.05184076688526e-08 6.3671506153156e-08 1.22091442432188e-08
"2292" 36211 9.38372490879726e-09 4.54247962775449e-09 1.99486524798271e-08 8.39978403802608e-08 2.92692816770959e-08 5.02680866676155e-08 6.3751440015002e-08 1.22276309026228e-08
"2293" 36212 9.31305775661163e-09 4.47605844167699e-09 1.9618889867375e-08 8.38613900891379e-08 2.91991589859497e-08 5.00177656663784e-08 6.3831373876848e-08 1.22461175620268e-08
"2294" 36213 9.24239060442599e-09 4.40963725559948e-09 1.92891272549229e-08 8.37249397980149e-08 2.91290362948034e-08 4.97674446651413e-08 6.3911307738694e-08 1.22646042214309e-08
"2295" 36214 9.2450488207874e-09 4.39509189390366e-09 1.92998769000508e-08 8.43455818659282e-08 2.91205150268484e-08 4.98015112110882e-08 6.38352507958011e-08 1.22789236735024e-08
"2296" 36215 9.2477070371488e-09 4.38054653220783e-09 1.93106265451786e-08 8.49662239338414e-08 2.91119937588934e-08 4.9835577757035e-08 6.37591938529081e-08 1.22932431255739e-08
"2297" 36216 9.25036525351021e-09 4.36600117051201e-09 1.93213761903065e-08 8.55868660017546e-08 2.91034724909384e-08 4.98696443029819e-08 6.36831369100151e-08 1.23075625776454e-08
"2298" 36217 9.25302346987161e-09 4.35145580881618e-09 1.93321258354343e-08 8.62075080696678e-08 2.90949512229834e-08 4.99037108489287e-08 6.36070799671221e-08 1.23218820297169e-08
"2299" 36218 9.25568168623302e-09 4.33691044712036e-09 1.93428754805622e-08 8.6828150137581e-08 2.90864299550284e-08 4.99377773948755e-08 6.35310230242292e-08 1.23362014817885e-08
"2300" 36219 9.24616859447105e-09 4.32502601874833e-09 1.93402550987304e-08 8.70247712386623e-08 2.91149862775966e-08 5.01296640026159e-08 6.40274853279706e-08 1.25275158873094e-08
"2301" 36220 9.25376889915188e-09 4.31039776070764e-09 1.93260783865854e-08 8.69114363209865e-08 2.90410750598926e-08 5.012728604341e-08 6.38698909728575e-08 1.25292845262823e-08
"2302" 36221 9.2613692038327e-09 4.29576950266695e-09 1.93119016744404e-08 8.67981014033106e-08 2.89671638421886e-08 5.01249080842041e-08 6.37122966177445e-08 1.25310531652552e-08
"2303" 36222 9.26896950851353e-09 4.28114124462627e-09 1.92977249622954e-08 8.66847664856348e-08 2.88932526244846e-08 5.01225301249982e-08 6.35547022626315e-08 1.25328218042281e-08
"2304" 36223 9.27656981319436e-09 4.26651298658558e-09 1.92835482501504e-08 8.6571431567959e-08 2.88193414067805e-08 5.01201521657923e-08 6.33971079075184e-08 1.2534590443201e-08
"2305" 36224 9.28417011787518e-09 4.25188472854489e-09 1.92693715380054e-08 8.64580966502831e-08 2.87454301890765e-08 5.01177742065864e-08 6.32395135524054e-08 1.25363590821739e-08
"2306" 36225 9.291770422556e-09 4.23725647050421e-09 1.92551948258604e-08 8.63447617326073e-08 2.86715189713725e-08 5.01153962473805e-08 6.30819191972924e-08 1.25381277211468e-08
"2307" 36226 9.29937072723683e-09 4.22262821246352e-09 1.92410181137154e-08 8.62314268149315e-08 2.85976077536685e-08 5.01130182881747e-08 6.29243248421794e-08 1.25398963601197e-08
"2308" 36227 9.30697103191765e-09 4.20799995442283e-09 1.92268414015704e-08 8.61180918972556e-08 2.85236965359644e-08 5.01106403289688e-08 6.27667304870663e-08 1.25416649990926e-08
"2309" 36228 9.31457133659848e-09 4.19337169638215e-09 1.92126646894254e-08 8.60047569795798e-08 2.84497853182604e-08 5.01082623697629e-08 6.26091361319533e-08 1.25434336380655e-08
"2310" 36229 9.32217164127931e-09 4.17874343834146e-09 1.91984879772804e-08 8.5891422061904e-08 2.83758741005564e-08 5.0105884410557e-08 6.24515417768403e-08 1.25452022770384e-08
"2311" 36230 9.32977194596013e-09 4.16411518030078e-09 1.91843112651354e-08 8.57780871442281e-08 2.83019628828524e-08 5.01035064513511e-08 6.22939474217272e-08 1.25469709160113e-08
"2312" 36231 9.33737225064096e-09 4.14948692226009e-09 1.91701345529904e-08 8.56647522265523e-08 2.82280516651483e-08 5.01011284921452e-08 6.21363530666142e-08 1.25487395549842e-08
"2313" 36232 9.34497255532178e-09 4.1348586642194e-09 1.91559578408454e-08 8.55514173088765e-08 2.81541404474443e-08 5.00987505329393e-08 6.19787587115012e-08 1.25505081939571e-08
"2314" 36233 9.3525728600026e-09 4.12023040617872e-09 1.91417811287004e-08 8.54380823912007e-08 2.80802292297403e-08 5.00963725737335e-08 6.18211643563881e-08 1.255227683293e-08
"2315" 36234 9.34168251681174e-09 4.10626669394496e-09 1.9158653726068e-08 8.53204565284357e-08 2.80063180120363e-08 5.0157122639245e-08 6.16852686693547e-08 1.25932369917e-08
"2316" 36235 9.33288347258609e-09 4.1378566831148e-09 1.93319986807661e-08 8.51018326872812e-08 2.81820706220079e-08 5.01267522182844e-08 6.14852048952893e-08 1.25486379878063e-08
"2317" 36236 9.32408442836045e-09 4.16944667228464e-09 1.95053436354643e-08 8.48832088461268e-08 2.83578232319796e-08 5.00963817973238e-08 6.1285141121224e-08 1.25040389839126e-08
"2318" 36237 9.31034329581538e-09 4.19605050533045e-09 1.97312163861166e-08 8.50166155471086e-08 2.84735023166416e-08 5.00810717846671e-08 6.08952002147418e-08 1.24974763931962e-08
"2319" 36238 9.29660216327032e-09 4.22265433837626e-09 1.99570891367689e-08 8.51500222480904e-08 2.85891814013036e-08 5.00657617720105e-08 6.05052593082596e-08 1.24909138024798e-08
"2320" 36239 9.28286103072526e-09 4.24925817142207e-09 2.01829618874212e-08 8.52834289490723e-08 2.87048604859655e-08 5.00504517593538e-08 6.01153184017774e-08 1.24843512117634e-08
"2321" 36240 9.26911989818019e-09 4.27586200446787e-09 2.04088346380735e-08 8.54168356500541e-08 2.88205395706275e-08 5.00351417466971e-08 5.97253774952952e-08 1.2477788621047e-08
"2322" 36241 9.25537876563513e-09 4.30246583751368e-09 2.06347073887258e-08 8.5550242351036e-08 2.89362186552895e-08 5.00198317340405e-08 5.9335436588813e-08 1.24712260303306e-08
"2323" 36242 9.24163763309007e-09 4.32906967055949e-09 2.08605801393782e-08 8.56836490520178e-08 2.90518977399515e-08 5.00045217213838e-08 5.89454956823308e-08 1.24646634396142e-08
"2324" 36243 9.227896500545e-09 4.3556735036053e-09 2.10864528900305e-08 8.58170557529997e-08 2.91675768246135e-08 4.99892117087272e-08 5.85555547758486e-08 1.24581008488978e-08
"2325" 36244 9.21415536799994e-09 4.38227733665111e-09 2.13123256406828e-08 8.59504624539815e-08 2.92832559092755e-08 4.99739016960705e-08 5.81656138693664e-08 1.24515382581813e-08
"2326" 36245 9.20041423545488e-09 4.40888116969692e-09 2.15381983913351e-08 8.60838691549634e-08 2.93989349939375e-08 4.99585916834139e-08 5.77756729628842e-08 1.24449756674649e-08
"2327" 36246 9.18667310290981e-09 4.43548500274273e-09 2.17640711419874e-08 8.62172758559452e-08 2.95146140785995e-08 4.99432816707572e-08 5.7385732056402e-08 1.24384130767485e-08
"2328" 36247 9.17293197036475e-09 4.46208883578854e-09 2.19899438926397e-08 8.63506825569271e-08 2.96302931632615e-08 4.99279716581006e-08 5.69957911499198e-08 1.24318504860321e-08
"2329" 36248 9.15919083781968e-09 4.48869266883435e-09 2.2215816643292e-08 8.64840892579089e-08 2.97459722479235e-08 4.99126616454439e-08 5.66058502434376e-08 1.24252878953157e-08
"2330" 36249 9.14544970527462e-09 4.51529650188015e-09 2.24416893939443e-08 8.66174959588908e-08 2.98616513325855e-08 4.98973516327873e-08 5.62159093369554e-08 1.24187253045993e-08
"2331" 36250 9.14852444936555e-09 4.51529650188015e-09 2.26691113101641e-08 8.6721692630355e-08 2.99439039727295e-08 4.96745423317801e-08 5.6258082954911e-08 1.24231188854277e-08
"2332" 36251 9.15159919345648e-09 4.51529650188015e-09 2.28965332263838e-08 8.68258893018193e-08 3.00261566128735e-08 4.94517330307729e-08 5.63002565728666e-08 1.24275124662562e-08
"2333" 36252 8.98283346763882e-09 4.50939436081853e-09 2.30870682157443e-08 8.69919880184232e-08 3.00771152015209e-08 4.88753262168466e-08 5.62416559890759e-08 1.22945849695158e-08
"2334" 36253 8.81406774182116e-09 4.50349221975691e-09 2.32776032051049e-08 8.71580867350271e-08 3.01280737901683e-08 4.82989194029203e-08 5.61830554052851e-08 1.21616574727754e-08
"2335" 36254 8.6453020160035e-09 4.49759007869529e-09 2.34681381944655e-08 8.7324185451631e-08 3.01790323788157e-08 4.7722512588994e-08 5.61244548214944e-08 1.20287299760351e-08
"2336" 36255 8.47653629018585e-09 4.49168793763366e-09 2.3658673183826e-08 8.74902841682349e-08 3.02299909674631e-08 4.71461057750677e-08 5.60658542377037e-08 1.18958024792947e-08
"2337" 36256 8.31020482599286e-09 4.45652378029851e-09 2.36297342044405e-08 8.75063055694494e-08 3.01076057817999e-08 4.65850089737981e-08 5.65074567012928e-08 1.17652867629719e-08
"2338" 36257 8.16895274700928e-09 4.42327173908733e-09 2.36021327657593e-08 8.75313184553476e-08 3.0034130040153e-08 4.62622451073601e-08 5.64557313701205e-08 1.1711227846885e-08
"2339" 36258 8.02770066802569e-09 4.39001969787615e-09 2.3574531327078e-08 8.75563313412459e-08 2.99606542985062e-08 4.59394812409222e-08 5.64040060389483e-08 1.16571689307981e-08
"2340" 36259 7.8864485890421e-09 4.35676765666496e-09 2.35469298883967e-08 8.75813442271441e-08 2.98871785568593e-08 4.56167173744842e-08 5.6352280707776e-08 1.16031100147112e-08
"2341" 36260 7.74519651005851e-09 4.32351561545378e-09 2.35193284497154e-08 8.76063571130423e-08 2.98137028152124e-08 4.52939535080463e-08 5.63005553766038e-08 1.15490510986243e-08
"2342" 36261 7.60394443107493e-09 4.29026357424260e-09 2.34917270110341e-08 8.76313699989405e-08 2.97402270735656e-08 4.49711896416083e-08 5.62488300454315e-08 1.14949921825374e-08
"2343" 36262 7.46269235209134e-09 4.25701153303141e-09 2.34641255723528e-08 8.76563828848388e-08 2.96667513319187e-08 4.46484257751704e-08 5.61971047142593e-08 1.14409332664505e-08
"2344" 36263 7.32144027310775e-09 4.22375949182023e-09 2.34365241336715e-08 8.7681395770737e-08 2.95932755902718e-08 4.43256619087325e-08 5.61453793830871e-08 1.13868743503636e-08
"2345" 36264 7.18018819412416e-09 4.19050745060904e-09 2.34089226949903e-08 8.77064086566352e-08 2.9519799848625e-08 4.40028980422945e-08 5.60936540519148e-08 1.13328154342767e-08
"2346" 36265 7.03893611514057e-09 4.15725540939786e-09 2.3381321256309e-08 8.77314215425334e-08 2.94463241069781e-08 4.36801341758566e-08 5.60419287207426e-08 1.12787565181898e-08
"2347" 36266 6.89768403615699e-09 4.12400336818668e-09 2.33537198176277e-08 8.77564344284316e-08 2.93728483653313e-08 4.33573703094187e-08 5.59902033895703e-08 1.12246976021029e-08
"2348" 36267 6.7564319571734e-09 4.09075132697549e-09 2.33261183789464e-08 8.77814473143299e-08 2.92993726236844e-08 4.30346064429807e-08 5.59384780583981e-08 1.11706386860159e-08
"2349" 36268 6.61517987818981e-09 4.05749928576431e-09 2.32985169402651e-08 8.78064602002281e-08 2.92258968820375e-08 4.27118425765428e-08 5.58867527272258e-08 1.1116579769929e-08
"2350" 36269 6.47392779920622e-09 4.02424724455313e-09 2.32709155015838e-08 8.78314730861263e-08 2.91524211403907e-08 4.23890787101048e-08 5.58350273960536e-08 1.10625208538421e-08
"2351" 36270 6.33267572022264e-09 3.99099520334194e-09 2.32433140629025e-08 8.78564859720245e-08 2.90789453987438e-08 4.20663148436669e-08 5.57833020648813e-08 1.10084619377552e-08
"2352" 36271 6.19142364123905e-09 3.95774316213076e-09 2.32157126242213e-08 8.78814988579228e-08 2.90054696570969e-08 4.1743550977229e-08 5.57315767337091e-08 1.09544030216683e-08
"2353" 36272 6.22306904235982e-09 3.96065415953718e-09 2.32218147726468e-08 8.74166980955497e-08 2.8646525605358e-08 4.19407102480907e-08 5.57823364456796e-08 1.10461111920754e-08
"2354" 36273 6.24444186132965e-09 3.9639796386679e-09 2.32184614156596e-08 8.73242077216108e-08 2.85926702543648e-08 4.17138131073581e-08 5.56130271120151e-08 1.11341837023345e-08
"2355" 36274 6.26581468029948e-09 3.96730511779863e-09 2.32151080586724e-08 8.72317173476719e-08 2.85388149033716e-08 4.14869159666256e-08 5.54437177783505e-08 1.12222562125936e-08
"2356" 36275 6.28718749926931e-09 3.97063059692936e-09 2.32117547016852e-08 8.7139226973733e-08 2.84849595523783e-08 4.1260018825893e-08 5.52744084446859e-08 1.13103287228527e-08
"2357" 36276 6.30856031823915e-09 3.97395607606008e-09 2.32084013446981e-08 8.7046736599794e-08 2.84311042013851e-08 4.10331216851604e-08 5.51050991110214e-08 1.13984012331119e-08
"2358" 36277 6.32993313720898e-09 3.97728155519081e-09 2.32050479877109e-08 8.69542462258551e-08 2.83772488503919e-08 4.08062245444279e-08 5.49357897773568e-08 1.1486473743371e-08
"2359" 36278 6.32071756525381e-09 3.97603398487377e-09 2.3242486573903e-08 8.6932941016175e-08 2.83577125488959e-08 4.06324351592934e-08 5.47190351234922e-08 1.14912840921482e-08
"2360" 36279 6.32730630259151e-09 3.97603398487377e-09 2.32313968943054e-08 8.68923256092836e-08 2.85008230550042e-08 4.01943246136317e-08 5.45177795182559e-08 1.15793566024073e-08
"2361" 36280 6.33389503992922e-09 3.97603398487377e-09 2.32203072147077e-08 8.68517102023921e-08 2.86439335611126e-08 3.975621406797e-08 5.43165239130196e-08 1.16674291126664e-08
"2362" 36281 6.34048377726692e-09 3.97603398487377e-09 2.32092175351101e-08 8.68110947955007e-08 2.8787044067221e-08 3.93181035223083e-08 5.41152683077833e-08 1.17555016229256e-08
"2363" 36282 6.34707251460462e-09 3.97603398487377e-09 2.31981278555124e-08 8.67704793886093e-08 2.89301545733294e-08 3.88799929766466e-08 5.3914012702547e-08 1.18435741331847e-08
"2364" 36283 6.35366125194232e-09 3.97603398487377e-09 2.31870381759148e-08 8.67298639817179e-08 2.90732650794378e-08 3.84418824309848e-08 5.37127570973107e-08 1.19316466434438e-08
"2365" 36284 6.36024998928003e-09 3.97603398487377e-09 2.31759484963171e-08 8.66892485748265e-08 2.92163755855462e-08 3.80037718853231e-08 5.35115014920744e-08 1.20197191537029e-08
"2366" 36285 6.36683872661773e-09 3.97603398487377e-09 2.31648588167194e-08 8.6648633167935e-08 2.93594860916545e-08 3.75656613396614e-08 5.33102458868381e-08 1.2107791663962e-08
"2367" 36286 6.37342746395543e-09 3.97603398487377e-09 2.31537691371218e-08 8.66080177610436e-08 2.95025965977629e-08 3.71275507939997e-08 5.31089902816018e-08 1.21958641742212e-08
"2368" 36287 6.26603109298056e-09 3.97196243863929e-09 2.31512432691341e-08 8.58427614477404e-08 2.9724330250875e-08 3.71134966599322e-08 5.3120966171377e-08 1.21958641742212e-08
"2369" 36288 6.26501952563743e-09 3.95459172597799e-09 2.30829782968801e-08 8.59049690558895e-08 2.99406200846603e-08 3.71562201024429e-08 5.29046406816021e-08 1.2287411559267e-08
"2370" 36289 6.26400795829431e-09 3.93722101331668e-09 2.3014713324626e-08 8.59671766640386e-08 3.01569099184455e-08 3.71989435449535e-08 5.26883151918271e-08 1.23789589443129e-08
"2371" 36290 6.26299639095119e-09 3.91985030065538e-09 2.29464483523719e-08 8.60293842721877e-08 3.03731997522308e-08 3.72416669874641e-08 5.24719897020522e-08 1.24705063293588e-08
"2372" 36291 6.26198482360807e-09 3.90247958799407e-09 2.28781833801179e-08 8.60915918803367e-08 3.05894895860161e-08 3.72843904299748e-08 5.22556642122773e-08 1.25620537144047e-08
"2373" 36292 6.26097325626494e-09 3.88510887533276e-09 2.28099184078638e-08 8.61537994884858e-08 3.08057794198013e-08 3.73271138724854e-08 5.20393387225024e-08 1.26536010994506e-08
"2374" 36293 6.24723212371988e-09 3.86682355278191e-09 2.27441793035974e-08 8.61601987632557e-08 3.07909442211725e-08 3.73273187256512e-08 5.18059106337251e-08 1.26618863230145e-08
"2375" 36294 6.28954391329479e-09 3.84878691926563e-09 2.26908561210455e-08 8.67707710230448e-08 3.07613587538399e-08 3.74164977188435e-08 5.15713777476911e-08 1.26701715465785e-08
"2376" 36295 6.3318557028697e-09 3.83075028574936e-09 2.26375329384935e-08 8.7381343282834e-08 3.07317732865073e-08 3.75056767120358e-08 5.1336844861657e-08 1.26784567701425e-08
"2377" 36296 6.3741674924446e-09 3.81271365223308e-09 2.25842097559415e-08 8.79919155426231e-08 3.07021878191746e-08 3.75948557052281e-08 5.11023119756229e-08 1.26867419937064e-08
"2378" 36297 6.41647928201951e-09 3.79467701871681e-09 2.25308865733895e-08 8.86024878024123e-08 3.0672602351842e-08 3.76840346984204e-08 5.08677790895889e-08 1.26950272172704e-08
"2379" 36298 6.45879107159442e-09 3.77664038520054e-09 2.24775633908375e-08 8.92130600622014e-08 3.06430168845093e-08 3.77732136916127e-08 5.06332462035548e-08 1.27033124408344e-08
"2380" 36299 6.50110286116933e-09 3.75860375168426e-09 2.24242402082855e-08 8.98236323219906e-08 3.06134314171767e-08 3.7862392684805e-08 5.03987133175207e-08 1.27115976643983e-08
"2381" 36300 6.54341465074423e-09 3.74056711816799e-09 2.23709170257335e-08 9.04342045817797e-08 3.0583845949844e-08 3.79515716779973e-08 5.01641804314866e-08 1.27198828879623e-08
"2382" 36301 6.58572644031914e-09 3.72253048465171e-09 2.23175938431815e-08 9.10447768415689e-08 3.05542604825114e-08 3.80407506711897e-08 4.99296475454526e-08 1.27281681115263e-08
"2383" 36302 6.62803822989405e-09 3.70449385113544e-09 2.22642706606295e-08 9.1655349101358e-08 3.05246750151787e-08 3.8129929664382e-08 4.96951146594185e-08 1.27364533350902e-08
"2384" 36303 6.67035001946896e-09 3.68645721761917e-09 2.22109474780775e-08 9.22659213611472e-08 3.04950895478461e-08 3.82191086575743e-08 4.94605817733844e-08 1.27447385586542e-08
"2385" 36304 6.71266180904386e-09 3.66842058410289e-09 2.21576242955255e-08 9.28764936209363e-08 3.04655040805134e-08 3.83082876507666e-08 4.92260488873503e-08 1.27530237822182e-08
"2386" 36305 6.75497359861877e-09 3.65038395058662e-09 2.21043011129735e-08 9.34870658807255e-08 3.04359186131808e-08 3.83974666439589e-08 4.89915160013163e-08 1.27613090057821e-08
"2387" 36306 6.79728538819368e-09 3.63234731707034e-09 2.20509779304215e-08 9.40976381405146e-08 3.04063331458481e-08 3.84866456371512e-08 4.87569831152822e-08 1.27695942293461e-08
"2388" 36307 6.83959717776859e-09 3.61431068355407e-09 2.19976547478695e-08 9.47082104003038e-08 3.03767476785155e-08 3.85758246303435e-08 4.85224502292481e-08 1.27778794529101e-08
"2389" 36308 6.88190896734349e-09 3.59627405003779e-09 2.19443315653175e-08 9.53187826600929e-08 3.03471622111828e-08 3.86650036235358e-08 4.82879173432141e-08 1.2786164676474e-08
"2390" 36309 6.89649181566522e-09 3.59419476617607e-09 2.19586045846674e-08 9.59401955998168e-08 3.03357225280171e-08 3.87518046575223e-08 4.82651138778776e-08 1.2779359315228e-08
"2391" 36310 6.91107466398694e-09 3.59211548231434e-09 2.19728776040174e-08 9.65616085395408e-08 3.03242828448513e-08 3.88386056915087e-08 4.82423104125412e-08 1.2772553953982e-08
"2392" 36311 6.96098675824267e-09 3.59144956145937e-09 2.1980083071109e-08 9.71272883759233e-08 3.02946973775187e-08 3.86867535867057e-08 4.82412056152844e-08 1.27743225929548e-08
"2393" 36312 7.0108988524984e-09 3.5907836406044e-09 2.19872885382006e-08 9.76929682123058e-08 3.0265111910186e-08 3.85349014819027e-08 4.82401008180275e-08 1.27760912319277e-08
"2394" 36313 7.06081094675414e-09 3.59011771974943e-09 2.19944940052922e-08 9.82586480486884e-08 3.02355264428534e-08 3.83830493770996e-08 4.82389960207707e-08 1.27778598709006e-08
"2395" 36314 7.07295953345119e-09 3.59211135717022e-09 2.20392854786358e-08 9.83087119076588e-08 3.02173806586865e-08 3.82426593704021e-08 4.83610020245121e-08 1.28503858643822e-08
"2396" 36315 7.08510812014823e-09 3.59410499459101e-09 2.20840769519795e-08 9.83587757666292e-08 3.01992348745196e-08 3.81022693637045e-08 4.84830080282535e-08 1.29229118578637e-08
"2397" 36316 7.08865889593004e-09 3.6074027859698e-09 2.21151262614921e-08 9.86644036974333e-08 3.01668267483336e-08 3.79702783368041e-08 4.84838605414706e-08 1.29220259458894e-08
"2398" 36317 7.09220967171185e-09 3.62070057734859e-09 2.21461755710047e-08 9.89700316282374e-08 3.01344186221476e-08 3.78382873099038e-08 4.84847130546877e-08 1.29211400339151e-08
"2399" 36318 7.09576044749366e-09 3.63399836872738e-09 2.21772248805173e-08 9.92756595590415e-08 3.01020104959616e-08 3.77062962830034e-08 4.84855655679049e-08 1.29202541219408e-08
"2400" 36319 7.09931122327547e-09 3.64729616010617e-09 2.22082741900299e-08 9.95812874898456e-08 3.00696023697756e-08 3.7574305256103e-08 4.8486418081122e-08 1.29193682099664e-08
"2401" 36320 7.10286199905728e-09 3.66059395148495e-09 2.22393234995425e-08 9.98869154206497e-08 3.00371942435896e-08 3.74423142292027e-08 4.84872705943391e-08 1.29184822979921e-08
"2402" 36321 7.10641277483909e-09 3.67389174286374e-09 2.2270372809055e-08 1.00192543351454e-07 3.00047861174036e-08 3.73103232023023e-08 4.84881231075563e-08 1.29175963860178e-08
"2403" 36322 7.10730533425949e-09 3.6838640551118e-09 2.22796678024596e-08 1.00428839956108e-07 2.98905083765031e-08 3.61233895093138e-08 4.78090910908466e-08 1.29190434542684e-08
"2404" 36323 7.10819789367989e-09 3.69383636735987e-09 2.22889627958641e-08 1.00665136560763e-07 2.97762306356027e-08 3.49364558163254e-08 4.7130059074137e-08 1.29204905225189e-08
"2405" 36324 7.10909045310030e-09 3.70380867960793e-09 2.22982577892686e-08 1.00901433165417e-07 2.96619528947022e-08 3.37495221233369e-08 4.64510270574273e-08 1.29219375907695e-08
"2406" 36325 7.1099830125207e-09 3.71378099185599e-09 2.23075527826732e-08 1.01137729770071e-07 2.95476751538018e-08 3.25625884303484e-08 4.57719950407177e-08 1.292338465902e-08
"2407" 36326 7.1108755719411e-09 3.72375330410405e-09 2.23168477760777e-08 1.01374026374726e-07 2.94333974129013e-08 3.13756547373599e-08 4.5092963024008e-08 1.29248317272706e-08
"2408" 36327 7.1117681313615e-09 3.73372561635212e-09 2.23261427694822e-08 1.0161032297938e-07 2.93191196720009e-08 3.01887210443715e-08 4.44139310072984e-08 1.29262787955211e-08
"2409" 36328 7.1126606907819e-09 3.74369792860018e-09 2.23354377628868e-08 1.01846619584034e-07 2.92048419311004e-08 2.9001787351383e-08 4.37348989905887e-08 1.29277258637717e-08
"2410" 36329 7.11355325020231e-09 3.75367024084824e-09 2.23447327562913e-08 1.02082916188689e-07 2.90905641902e-08 2.78148536583945e-08 4.30558669738791e-08 1.29291729320222e-08
"2411" 36330 7.11444580962271e-09 3.7636425530963e-09 2.23540277496958e-08 1.02319212793343e-07 2.89762864492996e-08 2.66279199654061e-08 4.23768349571694e-08 1.29306200002728e-08
"2412" 36331 7.12844767943954e-09 3.77827081113699e-09 2.2391179207634e-08 1.02259150657738e-07 2.89655578440634e-08 2.66279199654061e-08 4.23605848713842e-08 1.29170092777807e-08
"2413" 36332 7.14244954925637e-09 3.79289906917768e-09 2.24283306655722e-08 1.02199088522134e-07 2.89548292388272e-08 2.66279199654061e-08 4.2344334785599e-08 1.29033985552886e-08
"2414" 36333 7.1564514190732e-09 3.80752732721836e-09 2.24654821235103e-08 1.02139026386529e-07 2.8944100633591e-08 2.66279199654061e-08 4.23280846998138e-08 1.28897878327966e-08
"2415" 36334 7.17045328889003e-09 3.82215558525905e-09 2.25026335814485e-08 1.02078964250925e-07 2.89333720283549e-08 2.66279199654061e-08 4.23118346140287e-08 1.28761771103045e-08
"2416" 36335 7.18445515870686e-09 3.83678384329974e-09 2.25397850393867e-08 1.0201890211532e-07 2.89226434231187e-08 2.66279199654061e-08 4.22955845282435e-08 1.28625663878124e-08
"2417" 36336 7.19845702852369e-09 3.85141210134042e-09 2.25769364973249e-08 1.01958839979716e-07 2.89119148178825e-08 2.66279199654061e-08 4.22793344424583e-08 1.28489556653204e-08
"2418" 36337 7.20585609989411e-09 3.85606804713305e-09 2.25746127489737e-08 1.01643213772278e-07 2.91993881261085e-08 2.65351961812043e-08 4.2377986083605e-08 1.28379994937755e-08
"2419" 36338 7.21325517126453e-09 3.86072399292567e-09 2.25722890006226e-08 1.0132758756484e-07 2.94868614343345e-08 2.64424723970025e-08 4.24766377247518e-08 1.28270433222306e-08
"2420" 36339 7.24644767538066e-09 3.87177808280105e-09 2.25976933071985e-08 1.0097277626554e-07 2.95039889001694e-08 2.65592069304352e-08 4.24980145197641e-08 1.2848634094598e-08
"2421" 36340 7.2796401794968e-09 3.88283217267642e-09 2.26230976137744e-08 1.0061796496624e-07 2.95211163660044e-08 2.6675941463868e-08 4.25193913147765e-08 1.28702248669654e-08
"2422" 36341 7.31283268361293e-09 3.8938862625518e-09 2.26485019203503e-08 1.0026315366694e-07 2.95382438318393e-08 2.67926759973007e-08 4.25407681097888e-08 1.28918156393328e-08
"2423" 36342 7.34602518772907e-09 3.90494035242718e-09 2.26739062269262e-08 9.99083423676401e-08 2.95553712976742e-08 2.69094105307335e-08 4.25621449048012e-08 1.29134064117002e-08
"2424" 36343 7.37921769184521e-09 3.91599444230255e-09 2.26993105335021e-08 9.95535310683402e-08 2.95724987635091e-08 2.70261450641662e-08 4.25835216998135e-08 1.29349971840675e-08
"2425" 36344 7.41241019596134e-09 3.92704853217793e-09 2.2724714840078e-08 9.91987197690404e-08 2.95896262293441e-08 2.71428795975989e-08 4.26048984948259e-08 1.29565879564349e-08
"2426" 36345 7.44560270007748e-09 3.93810262205331e-09 2.27501191466539e-08 9.88439084697405e-08 2.9606753695179e-08 2.72596141310317e-08 4.26262752898383e-08 1.29781787288023e-08
"2427" 36346 7.47879520419361e-09 3.94915671192868e-09 2.27755234532298e-08 9.84890971704406e-08 2.96238811610139e-08 2.73763486644644e-08 4.26476520848506e-08 1.29997695011697e-08
"2428" 36347 7.51198770830975e-09 3.96021080180406e-09 2.28009277598058e-08 9.81342858711407e-08 2.96410086268488e-08 2.74930831978972e-08 4.2669028879863e-08 1.30213602735371e-08
"2429" 36348 7.54518021242589e-09 3.97126489167943e-09 2.28263320663817e-08 9.77794745718409e-08 2.96581360926838e-08 2.76098177313299e-08 4.26904056748753e-08 1.30429510459045e-08
"2430" 36349 7.57837271654202e-09 3.98231898155481e-09 2.28517363729576e-08 9.7424663272541e-08 2.96752635585187e-08 2.77265522647626e-08 4.27117824698877e-08 1.30645418182718e-08
"2431" 36350 7.60476984921896e-09 3.98506281122347e-09 2.28795928374912e-08 9.70386469312547e-08 2.96717614602658e-08 2.76175121936677e-08 4.27117824698877e-08 1.30518170077541e-08
"2432" 36351 7.63116698189589e-09 3.98780664089213e-09 2.29074493020248e-08 9.66526305899685e-08 2.96682593620129e-08 2.75084721225727e-08 4.27117824698877e-08 1.30390921972363e-08
"2433" 36352 7.65756411457283e-09 3.99055047056078e-09 2.29353057665585e-08 9.62666142486822e-08 2.966475726376e-08 2.73994320514778e-08 4.27117824698877e-08 1.30263673867186e-08
"2434" 36353 7.67656217587934e-09 3.98622748519564e-09 2.29089247575623e-08 9.63097141354437e-08 2.9300794042319e-08 2.72797133117557e-08 4.26433778888406e-08 1.29031621547105e-08
"2435" 36354 7.69556023718586e-09 3.9819044998305e-09 2.28825437485661e-08 9.63528140222052e-08 2.8936830820878e-08 2.71599945720336e-08 4.25749733077935e-08 1.27799569227024e-08
"2436" 36355 7.71455829849238e-09 3.96594715017596e-09 2.28947480454173e-08 9.63478079196012e-08 2.8740374543326e-08 2.71235500668809e-08 4.25912233935787e-08 1.27841241300349e-08
"2437" 36356 7.7335563597989e-09 3.94998980052141e-09 2.29069523422685e-08 9.63428018169972e-08 2.85439182657741e-08 2.70871055617282e-08 4.26074734793639e-08 1.27882913373674e-08
"2438" 36357 7.72633580031256e-09 3.94467343406597e-09 2.28974023230116e-08 9.67820807103287e-08 2.83850275054301e-08 2.70669773434686e-08 4.27642153212598e-08 1.27859419601089e-08
"2439" 36358 7.71911524082622e-09 3.93935706761054e-09 2.28878523037547e-08 9.72213596036602e-08 2.82261367450861e-08 2.70468491252091e-08 4.29209571631557e-08 1.27835925828503e-08
"2440" 36359 7.71189468133988e-09 3.9340407011551e-09 2.28783022844978e-08 9.76606384969917e-08 2.80672459847421e-08 2.70267209069495e-08 4.30776990050516e-08 1.27812432055918e-08
"2441" 36360 7.70467412185354e-09 3.92872433469966e-09 2.28687522652409e-08 9.80999173903232e-08 2.79083552243981e-08 2.700659268869e-08 4.32344408469475e-08 1.27788938283332e-08
"2442" 36361 7.6974535623672e-09 3.92340796824422e-09 2.28592022459841e-08 9.85391962836547e-08 2.77494644640541e-08 2.69864644704304e-08 4.33911826888434e-08 1.27765444510747e-08
"2443" 36362 7.69023300288087e-09 3.91809160178878e-09 2.28496522267272e-08 9.89784751769863e-08 2.75905737037101e-08 2.69663362521708e-08 4.35479245307393e-08 1.27741950738161e-08
"2444" 36363 7.68301244339453e-09 3.91277523533335e-09 2.28401022074703e-08 9.94177540703178e-08 2.74316829433661e-08 2.69462080339113e-08 4.37046663726352e-08 1.27718456965576e-08
"2445" 36364 7.67579188390819e-09 3.90745886887791e-09 2.28305521882134e-08 9.98570329636493e-08 2.72727921830221e-08 2.69260798156517e-08 4.38614082145311e-08 1.2769496319299e-08
"2446" 36365 7.66857132442185e-09 3.90214250242247e-09 2.28210021689565e-08 1.00296311856981e-07 2.71139014226781e-08 2.69059515973922e-08 4.4018150056427e-08 1.27671469420404e-08
"2447" 36366 7.66135076493551e-09 3.89682613596703e-09 2.28114521496996e-08 1.00735590750312e-07 2.69550106623341e-08 2.68858233791326e-08 4.41748918983229e-08 1.27647975647819e-08
"2448" 36367 7.65721901064881e-09 3.90846600044859e-09 2.27972754375546e-08 1.00729308491302e-07 2.68124630271703e-08 2.67473924017191e-08 4.39296184706416e-08 1.2673250179736e-08
"2449" 36368 7.65308725636211e-09 3.92010586493015e-09 2.27830987254096e-08 1.00723026232292e-07 2.66699153920065e-08 2.66089614243055e-08 4.36843450429604e-08 1.25817027946901e-08
"2450" 36369 7.63622593687347e-09 3.93340778145306e-09 2.27883091800324e-08 1.01009145188609e-07 2.65250321839068e-08 2.65621496864813e-08 4.37776437629108e-08 1.25815256122953e-08
"2451" 36370 7.61936461738482e-09 3.94670969797596e-09 2.27935196346552e-08 1.01295264144926e-07 2.6380148975807e-08 2.65153379486571e-08 4.38709424828612e-08 1.25813484299004e-08
"2452" 36371 7.60250329789618e-09 3.96001161449887e-09 2.27987300892779e-08 1.01581383101243e-07 2.62352657677073e-08 2.64685262108328e-08 4.39642412028115e-08 1.25811712475055e-08
"2453" 36372 7.58564197840754e-09 3.97331353102177e-09 2.28039405439007e-08 1.0186750205756e-07 2.60903825596076e-08 2.64217144730086e-08 4.40575399227619e-08 1.25809940651107e-08
"2454" 36373 7.56878065891889e-09 3.98661544754468e-09 2.28091509985235e-08 1.02153621013877e-07 2.59454993515078e-08 2.63749027351844e-08 4.41508386427123e-08 1.25808168827158e-08
"2455" 36374 7.55658662936919e-09 4.02651294682516e-09 2.28835068206156e-08 1.02002508105079e-07 2.58614115730798e-08 2.63204851262198e-08 4.4103645606552e-08 1.25808168827158e-08
"2456" 36375 7.54439259981949e-09 4.06641044610564e-09 2.29578626427078e-08 1.01851395196282e-07 2.57773237946517e-08 2.62660675172552e-08 4.40564525703917e-08 1.25808168827158e-08
"2457" 36376 7.53219857026980e-09 4.10630794538612e-09 2.30322184647999e-08 1.01700282287484e-07 2.56932360162236e-08 2.62116499082906e-08 4.40092595342313e-08 1.25808168827158e-08
"2458" 36377 7.5200045407201e-09 4.1462054446666e-09 2.31065742868921e-08 1.01549169378686e-07 2.56091482377956e-08 2.61572322993261e-08 4.3962066498071e-08 1.25808168827158e-08
"2459" 36378 7.50970923714283e-09 4.14653840509408e-09 2.31089301376448e-08 1.01371354134531e-07 2.54296495662286e-08 2.63508906191888e-08 4.39276902349786e-08 1.25841145751077e-08
"2460" 36379 7.49941393356556e-09 4.14687136552157e-09 2.31112859883976e-08 1.01193538890376e-07 2.52501508946617e-08 2.65445489390516e-08 4.38933139718862e-08 1.25874122674996e-08
"2461" 36380 7.4891186299883e-09 4.14720432594905e-09 2.31136418391504e-08 1.0101572364622e-07 2.50706522230948e-08 2.67382072589143e-08 4.38589377087938e-08 1.25907099598915e-08
"2462" 36381 7.47882332641103e-09 4.14753728637654e-09 2.31159976899032e-08 1.00837908402065e-07 2.48911535515279e-08 2.69318655787771e-08 4.38245614457014e-08 1.25940076522834e-08
"2463" 36382 7.46852802283377e-09 4.14787024680402e-09 2.3118353540656e-08 1.0066009315791e-07 2.4711654879961e-08 2.71255238986399e-08 4.37901851826089e-08 1.25973053446753e-08
"2464" 36383 7.4582327192565e-09 4.1482032072315e-09 2.31207093914088e-08 1.00482277913754e-07 2.4532156208394e-08 2.73191822185026e-08 4.37558089195165e-08 1.26006030370672e-08
"2465" 36384 7.44793741567923e-09 4.14853616765899e-09 2.31230652421615e-08 1.00304462669599e-07 2.43526575368271e-08 2.75128405383654e-08 4.37214326564241e-08 1.26039007294591e-08
"2466" 36385 7.43764211210197e-09 4.14886912808647e-09 2.31254210929143e-08 1.00126647425444e-07 2.41731588652602e-08 2.77064988582282e-08 4.36870563933317e-08 1.2607198421851e-08
"2467" 36386 7.4273468085247e-09 4.14920208851396e-09 2.31277769436671e-08 9.99488321812884e-08 2.39936601936933e-08 2.79001571780909e-08 4.36526801302393e-08 1.26104961142429e-08
"2468" 36387 7.41705150494743e-09 4.14953504894144e-09 2.31301327944199e-08 9.97710169371331e-08 2.38141615221264e-08 2.80938154979537e-08 4.36183038671469e-08 1.26137938066348e-08
"2469" 36388 7.40675620137017e-09 4.14986800936893e-09 2.31324886451727e-08 9.95932016929778e-08 2.36346628505595e-08 2.82874738178165e-08 4.35839276040545e-08 1.26170914990267e-08
"2470" 36389 7.3964608977929e-09 4.15020096979641e-09 2.31348444959255e-08 9.94153864488224e-08 2.34551641789925e-08 2.84811321376792e-08 4.3549551340962e-08 1.26203891914186e-08
"2471" 36390 7.39009611519193e-09 4.10630794538612e-09 2.29430040682623e-08 9.90752182514554e-08 2.34319559193937e-08 2.86579218983426e-08 4.35197218150277e-08 1.24782577650726e-08
"2472" 36391 7.37980081161467e-09 4.08345094843554e-09 2.28877387794573e-08 9.89882141618057e-08 2.31115341076694e-08 2.87179503659787e-08 4.29939084813608e-08 1.24723843219262e-08
"2473" 36392 7.3695055080374e-09 4.06059395148495e-09 2.28324734906523e-08 9.8901210072156e-08 2.2791112295945e-08 2.87779788336148e-08 4.24680951476939e-08 1.24665108787798e-08
"2474" 36393 7.35921020446013e-09 4.03773695453437e-09 2.27772082018472e-08 9.88142059825064e-08 2.24706904842206e-08 2.88380073012509e-08 4.1942281814027e-08 1.24606374356334e-08
"2475" 36394 7.34891490088287e-09 4.01487995758379e-09 2.27219429130422e-08 9.87272018928567e-08 2.21502686724963e-08 2.8898035768887e-08 4.14164684803601e-08 1.2454763992487e-08
"2476" 36395 7.33187506951014e-09 3.99958577868813e-09 2.27143237014509e-08 9.88956727164289e-08 2.18332956676299e-08 2.87036558511489e-08 4.08721316923291e-08 1.2451932259145e-08
"2477" 36396 7.33187506951014e-09 3.98096887075783e-09 2.2665266373503e-08 9.87898478969692e-08 2.15351054213675e-08 2.8531390396137e-08 4.03806946217546e-08 1.24424231558506e-08
"2478" 36397 7.33187506951014e-09 3.96235196282753e-09 2.26162090455552e-08 9.86840230775095e-08 2.12369151751051e-08 2.83591249411251e-08 3.98892575511801e-08 1.24329140525563e-08
"2479" 36398 7.33187506951014e-09 3.94373505489722e-09 2.25671517176073e-08 9.85781982580498e-08 2.09387249288427e-08 2.81868594861132e-08 3.93978204806057e-08 1.2423404949262e-08
"2480" 36399 7.33187506951014e-09 3.92511814696692e-09 2.25180943896595e-08 9.84723734385901e-08 2.06405346825803e-08 2.80145940311013e-08 3.89063834100312e-08 1.24138958459677e-08
"2481" 36400 7.33187506951014e-09 3.90650123903662e-09 2.24690370617117e-08 9.83665486191304e-08 2.03423444363179e-08 2.78423285760894e-08 3.84149463394567e-08 1.24043867426734e-08
"2482" 36401 7.33187506951014e-09 3.88788433110631e-09 2.24199797337638e-08 9.82607237996706e-08 2.00441541900555e-08 2.76700631210775e-08 3.79235092688823e-08 1.23948776393791e-08
"2483" 36402 7.33187506951014e-09 3.86926742317601e-09 2.2370922405816e-08 9.81548989802109e-08 1.97459639437931e-08 2.74977976660657e-08 3.74320721983078e-08 1.23853685360848e-08
"2484" 36403 7.33187506951014e-09 3.8506505152457e-09 2.23218650778682e-08 9.80490741607512e-08 1.94477736975306e-08 2.73255322110538e-08 3.69406351277333e-08 1.23758594327905e-08
"2485" 36404 7.33187506951014e-09 3.8320336073154e-09 2.22728077499203e-08 9.79432493412915e-08 1.91495834512682e-08 2.71532667560419e-08 3.64491980571589e-08 1.23663503294961e-08
"2486" 36405 7.30313456091384e-09 3.76744989130523e-09 2.22237504219725e-08 9.7951083573949e-08 1.88693058522628e-08 2.70330497187908e-08 3.63558993372085e-08 1.23660123617401e-08
"2487" 36406 7.32055413748105e-09 3.76503902206406e-09 2.21789684538555e-08 9.75920946467719e-08 1.88796947377992e-08 2.70450110256017e-08 3.64164891185059e-08 1.23419606178541e-08
"2488" 36407 7.33797371404826e-09 3.76262815282288e-09 2.21341864857384e-08 9.72331057195947e-08 1.88900836233356e-08 2.70569723324125e-08 3.64770788998032e-08 1.2317908873968e-08
"2489" 36408 7.35640485795859e-09 3.75888544187177e-09 2.20789836083759e-08 9.69106808729074e-08 1.88950286895452e-08 2.71870135536192e-08 3.64719463756139e-08 1.2313259310552e-08
"2490" 36409 7.37483600186892e-09 3.75514273092066e-09 2.20237807310133e-08 9.65882560262201e-08 1.88999737557548e-08 2.73170547748259e-08 3.64668138514245e-08 1.2308609747136e-08
"2491" 36410 7.39326714577925e-09 3.75140001996955e-09 2.19685778536507e-08 9.62658311795328e-08 1.89049188219644e-08 2.74470959960325e-08 3.64616813272352e-08 1.23039601837199e-08
"2492" 36411 7.41169828968959e-09 3.74765730901844e-09 2.19133749762881e-08 9.59434063328454e-08 1.8909863888174e-08 2.75771372172392e-08 3.64565488030458e-08 1.22993106203039e-08
"2493" 36412 7.43012943359992e-09 3.74391459806733e-09 2.18581720989256e-08 9.56209814861581e-08 1.89148089543836e-08 2.77071784384459e-08 3.64514162788565e-08 1.22946610568879e-08
"2494" 36413 7.44856057751025e-09 3.74017188711622e-09 2.1802969221563e-08 9.52985566394708e-08 1.89197540205932e-08 2.78372196596525e-08 3.64462837546671e-08 1.22900114934718e-08
"2495" 36414 7.46699172142058e-09 3.73642917616511e-09 2.17477663442004e-08 9.49761317927835e-08 1.89246990868028e-08 2.79672608808592e-08 3.64411512304778e-08 1.22853619300558e-08
"2496" 36415 7.48542286533092e-09 3.732686465214e-09 2.16925634668379e-08 9.46537069460962e-08 1.89296441530124e-08 2.80973021020659e-08 3.64360187062884e-08 1.22807123666398e-08
"2497" 36416 7.50385400924125e-09 3.72894375426289e-09 2.16373605894753e-08 9.43312820994088e-08 1.8934589219222e-08 2.82273433232726e-08 3.64308861820991e-08 1.22760628032237e-08
"2498" 36417 7.52228515315158e-09 3.72520104331178e-09 2.15821577121127e-08 9.40088572527215e-08 1.89395342854316e-08 2.83573845444792e-08 3.64257536579097e-08 1.22714132398077e-08
"2499" 36418 7.54071629706192e-09 3.72145833236067e-09 2.15269548347501e-08 9.36864324060342e-08 1.89444793516412e-08 2.84874257656859e-08 3.64206211337204e-08 1.22667636763916e-08
"2500" 36419 7.55914744097225e-09 3.71771562140956e-09 2.14717519573876e-08 9.33640075593469e-08 1.89494244178508e-08 2.86174669868926e-08 3.6415488609531e-08 1.22621141129756e-08
"2501" 36420 7.57757858488258e-09 3.71397291045845e-09 2.1416549080025e-08 9.30415827126595e-08 1.89543694840604e-08 2.87475082080992e-08 3.64103560853416e-08 1.22574645495596e-08
"2502" 36421 7.59600972879291e-09 3.71023019950734e-09 2.13613462026624e-08 9.27191578659722e-08 1.895931455027e-08 2.88775494293059e-08 3.64052235611523e-08 1.22528149861435e-08
"2503" 36422 7.59876423165071e-09 3.70357924124589e-09 2.13442601870708e-08 9.25713393403393e-08 1.89378365277001e-08 2.88673962733905e-08 3.64465881828478e-08 1.22481654227275e-08
"2504" 36423 7.60151873450852e-09 3.69692828298443e-09 2.13271741714791e-08 9.24235208147064e-08 1.89163585051302e-08 2.88572431174751e-08 3.64879528045433e-08 1.22435158593115e-08
"2505" 36424 7.60427323736632e-09 3.69027732472298e-09 2.13100881558875e-08 9.22757022890735e-08 1.88948804825602e-08 2.88470899615597e-08 3.65293174262388e-08 1.22388662958954e-08
"2506" 36425 7.60702774022412e-09 3.68362636646153e-09 2.12930021402959e-08 9.21278837634406e-08 1.88734024599903e-08 2.88369368056443e-08 3.65706820479343e-08 1.22342167324794e-08
"2507" 36426 7.60978224308192e-09 3.67697540820008e-09 2.12759161247042e-08 9.19800652378077e-08 1.88519244374204e-08 2.88267836497288e-08 3.66120466696298e-08 1.22295671690634e-08
"2508" 36427 7.61253674593972e-09 3.67032444993863e-09 2.12588301091126e-08 9.18322467121748e-08 1.88304464148505e-08 2.88166304938134e-08 3.66534112913253e-08 1.22249176056473e-08
"2509" 36428 7.61491150360304e-09 3.62643142552833e-09 2.07667177077159e-08 9.1878094856094e-08 1.86678312457761e-08 2.87992096623078e-08 3.66739413880827e-08 1.22418096234976e-08
"2510" 36429 7.57804921578237e-09 3.62618273649375e-09 2.07991045579327e-08 9.20970994902958e-08 1.85198081527555e-08 2.87928772057609e-08 3.56764495958149e-08 1.19588262115884e-08
"2511" 36430 7.5411869279617e-09 3.62593404745917e-09 2.08314914081495e-08 9.23161041244976e-08 1.83717850597348e-08 2.87865447492139e-08 3.4678957803547e-08 1.16758427996792e-08
"2512" 36431 7.52454956320979e-09 3.6253523979971e-09 2.09576664415762e-08 9.26829272843323e-08 1.8230914370205e-08 2.90479361338173e-08 3.36494008187606e-08 1.13742775311396e-08
"2513" 36432 7.50791219845788e-09 3.62477074853503e-09 2.10838414750029e-08 9.3049750444167e-08 1.80900436806751e-08 2.93093275184207e-08 3.26198438339743e-08 1.10727122626e-08
"2514" 36433 7.48672655168975e-09 3.67771872520775e-09 2.12164985055925e-08 9.31106596259302e-08 1.80185105008695e-08 2.93734438257822e-08 3.15781340793628e-08 1.07711469940603e-08
"2515" 36434 7.46554090492162e-09 3.73066670188048e-09 2.1349155536182e-08 9.31715688076933e-08 1.79469773210639e-08 2.94375601331437e-08 3.05364243247513e-08 1.04695817255207e-08
"2516" 36435 7.44435525815348e-09 3.7836146785532e-09 2.14818125667716e-08 9.32324779894565e-08 1.78754441412582e-08 2.95016764405052e-08 2.94947145701398e-08 1.01680164569811e-08
"2517" 36436 7.42316961138535e-09 3.83656265522593e-09 2.16144695973611e-08 9.32933871712197e-08 1.78039109614526e-08 2.95657927478667e-08 2.84530048155283e-08 9.86645118844144e-09
"2518" 36437 7.40198396461721e-09 3.88951063189865e-09 2.17471266279507e-08 9.33542963529828e-08 1.7732377781647e-08 2.96299090552282e-08 2.74112950609168e-08 9.5648859199018e-09
"2519" 36438 7.38079831784908e-09 3.94245860857137e-09 2.18797836585403e-08 9.3415205534746e-08 1.76608446018413e-08 2.96940253625897e-08 2.63695853063053e-08 9.26332065136217e-09
"2520" 36439 7.35961267108095e-09 3.9954065852441e-09 2.20124406891298e-08 9.34761147165092e-08 1.75893114220357e-08 2.97581416699512e-08 2.53278755516938e-08 8.96175538282253e-09
"2521" 36440 7.33842702431281e-09 4.04901910772375e-09 2.20989687056715e-08 9.28460715694069e-08 1.76071716186651e-08 2.98285904338597e-08 2.50952999761337e-08 8.89201193158201e-09
"2522" 36441 7.31724137754468e-09 4.10263163020341e-09 2.21854967222131e-08 9.22160284223047e-08 1.76250318152945e-08 2.98990391977681e-08 2.48627244005736e-08 8.82226848034148e-09
"2523" 36442 7.29605573077654e-09 4.15624415268306e-09 2.22720247387548e-08 9.15859852752024e-08 1.76428920119239e-08 2.99694879616765e-08 2.46301488250135e-08 8.75252502910095e-09
"2524" 36443 7.27487008400841e-09 4.20985667516271e-09 2.23585527552965e-08 9.09559421281001e-08 1.76607522085533e-08 3.0039936725585e-08 2.43975732494533e-08 8.68278157786043e-09
"2525" 36444 7.25368443724028e-09 4.26346919764237e-09 2.24450807718381e-08 9.03258989809979e-08 1.76786124051826e-08 3.01103854894934e-08 2.41649976738932e-08 8.6130381266199e-09
"2526" 36445 7.23249879047214e-09 4.31708172012202e-09 2.25316087883798e-08 8.96958558338956e-08 1.7696472601812e-08 3.01808342534018e-08 2.39324220983331e-08 8.54329467537937e-09
"2527" 36446 7.21131314370401e-09 4.37069424260168e-09 2.26181368049215e-08 8.90658126867933e-08 1.77143327984414e-08 3.02512830173103e-08 2.3699846522773e-08 8.47355122413884e-09
"2528" 36447 7.19012749693587e-09 4.42430676508133e-09 2.27046648214631e-08 8.8435769539691e-08 1.77321929950708e-08 3.03217317812187e-08 2.34672709472129e-08 8.40380777289832e-09
"2529" 36448 7.16894185016774e-09 4.47791928756098e-09 2.27911928380048e-08 8.78057263925888e-08 1.77500531917002e-08 3.03921805451272e-08 2.32346953716528e-08 8.33406432165779e-09
"2530" 36449 7.18024872108813e-09 4.487222928858e-09 2.25678233581652e-08 8.7605623305403e-08 1.78265431049152e-08 3.04530994806196e-08 2.32241519671639e-08 8.33124898534941e-09
"2531" 36450 7.19155559200852e-09 4.49652657015502e-09 2.23444538783255e-08 8.74055202182172e-08 1.79030330181302e-08 3.05140184161121e-08 2.3213608562675e-08 8.32843364904103e-09
"2532" 36451 7.20286246292891e-09 4.50583021145203e-09 2.21210843984859e-08 8.72054171310314e-08 1.79795229313452e-08 3.05749373516046e-08 2.32030651581861e-08 8.32561831273265e-09
"2533" 36452 7.2141693338493e-09 4.51513385274905e-09 2.18977149186463e-08 8.70053140438456e-08 1.80560128445602e-08 3.06358562870971e-08 2.31925217536972e-08 8.32280297642427e-09
"2534" 36453 7.25159853906615e-09 4.48080140895859e-09 2.15806969637909e-08 8.68404060235839e-08 1.81084352132618e-08 3.06364796145965e-08 2.31862525452183e-08 8.33583614560641e-09
"2535" 36454 7.28902774428299e-09 4.4369083845483e-09 2.12707994674096e-08 8.65840283499075e-08 1.8147306317874e-08 3.06672952694853e-08 2.33868846614285e-08 8.33253845321452e-09
"2536" 36455 7.32645694949984e-09 4.39301536013801e-09 2.09609019710283e-08 8.63276506762312e-08 1.81861774224861e-08 3.06981109243741e-08 2.35875167776386e-08 8.32924076082262e-09
"2537" 36456 7.36388615471669e-09 4.34912233572772e-09 2.0651004474647e-08 8.60712730025549e-08 1.82250485270982e-08 3.07289265792629e-08 2.37881488938487e-08 8.32594306843072e-09
"2538" 36457 7.40131535993354e-09 4.30522931131742e-09 2.03411069782657e-08 8.58148953288785e-08 1.82639196317103e-08 3.07597422341517e-08 2.39887810100588e-08 8.32264537603882e-09
"2539" 36458 7.43874456515039e-09 4.26133628690713e-09 2.00312094818844e-08 8.55585176552022e-08 1.83027907363224e-08 3.07905578890405e-08 2.41894131262689e-08 8.31934768364693e-09
"2540" 36459 7.47617377036724e-09 4.21744326249684e-09 1.97213119855032e-08 8.53021399815259e-08 1.83416618409346e-08 3.08213735439292e-08 2.4390045242479e-08 8.31604999125503e-09
"2541" 36460 7.51360297558409e-09 4.17355023808655e-09 1.94114144891219e-08 8.50457623078495e-08 1.83805329455467e-08 3.0852189198818e-08 2.45906773586891e-08 8.31275229886314e-09
"2542" 36461 7.55103218080094e-09 4.12965721367626e-09 1.91015169927406e-08 8.47893846341732e-08 1.84194040501588e-08 3.08830048537068e-08 2.47913094748993e-08 8.30945460647124e-09
"2543" 36462 7.58846138601779e-09 4.08576418926596e-09 1.87916194963593e-08 8.45330069604969e-08 1.84582751547709e-08 3.09138205085956e-08 2.49919415911094e-08 8.30615691407934e-09
"2544" 36463 7.62589059123464e-09 4.04187116485567e-09 1.8481721999978e-08 8.42766292868205e-08 1.84971462593831e-08 3.09446361634844e-08 2.51925737073195e-08 8.30285922168745e-09
"2545" 36464 7.66331979645149e-09 3.99797814044538e-09 1.81718245035967e-08 8.40202516131442e-08 1.85360173639952e-08 3.09754518183732e-08 2.53932058235296e-08 8.29956152929555e-09
"2546" 36465 7.70074900166834e-09 3.95408511603509e-09 1.78619270072155e-08 8.37638739394679e-08 1.85748884686073e-08 3.1006267473262e-08 2.55938379397397e-08 8.29626383690365e-09
"2547" 36466 7.77094552295419e-09 3.91152118323866e-09 1.75265401956408e-08 8.36541816979983e-08 1.90662019132513e-08 3.10671864087544e-08 2.55875687312609e-08 8.37183154018949e-09
"2548" 36467 7.84114204424003e-09 3.86895725044223e-09 1.71911533840662e-08 8.35444894565288e-08 1.95575153578954e-08 3.11281053442469e-08 2.5581299522782e-08 8.44739924347533e-09
"2549" 36468 7.91133856552588e-09 3.82639331764579e-09 1.68557665724915e-08 8.34347972150593e-08 2.00488288025394e-08 3.11890242797394e-08 2.55750303143031e-08 8.52296694676117e-09
"2550" 36469 7.97022821589134e-09 3.80943708670879e-09 1.68811708790674e-08 8.3572716852696e-08 2.05299548600269e-08 3.11309548413873e-08 2.5503734690613e-08 8.58691894002377e-09
"2551" 36470 8.0291178662568e-09 3.79248085577179e-09 1.69065751856433e-08 8.37106364903328e-08 2.10110809175144e-08 3.10728854030352e-08 2.54324390669229e-08 8.65087093328636e-09
"2552" 36471 8.09294960494167e-09 3.77693386269744e-09 1.69347490874718e-08 8.30044958778375e-08 2.15025217570459e-08 3.11446255731295e-08 2.54051787105643e-08 8.72339692676789e-09
"2553" 36472 8.15678134362655e-09 3.76138686962308e-09 1.69629229893002e-08 8.22983552653422e-08 2.19939625965773e-08 3.12163657432237e-08 2.53779183542057e-08 8.79592292024942e-09
"2554" 36473 8.20403522152088e-09 3.79064201065642e-09 1.70094657478479e-08 8.16749324402654e-08 2.20465123601664e-08 3.18616369260976e-08 2.53441046182959e-08 8.79592292024942e-09
"2555" 36474 8.2512890994152e-09 3.81989715168975e-09 1.70560085063955e-08 8.10515096151886e-08 2.20990621237554e-08 3.25069081089715e-08 2.5310290882386e-08 8.79592292024942e-09
"2556" 36475 8.29854297730953e-09 3.84915229272309e-09 1.71025512649432e-08 8.04280867901119e-08 2.21516118873445e-08 3.31521792918454e-08 2.52764771464762e-08 8.79592292024942e-09
"2557" 36476 8.34579685520385e-09 3.87840743375642e-09 1.71490940234908e-08 7.98046639650351e-08 2.22041616509336e-08 3.37974504747193e-08 2.52426634105663e-08 8.79592292024942e-09
"2558" 36477 8.39305073309818e-09 3.90766257478976e-09 1.71956367820385e-08 7.91812411399583e-08 2.22567114145227e-08 3.44427216575932e-08 2.52088496746565e-08 8.79592292024942e-09
"2559" 36478 8.44030461099251e-09 3.93691771582309e-09 1.72421795405862e-08 7.85578183148815e-08 2.23092611781117e-08 3.50879928404671e-08 2.51750359387466e-08 8.79592292024942e-09
"2560" 36479 8.48755848888683e-09 3.96617285685643e-09 1.72887222991338e-08 7.79343954898047e-08 2.23618109417008e-08 3.5733264023341e-08 2.51412222028368e-08 8.79592292024942e-09
"2561" 36480 8.53481236678116e-09 3.99542799788976e-09 1.73352650576815e-08 7.73109726647279e-08 2.24143607052899e-08 3.63785352062149e-08 2.51074084669269e-08 8.79592292024942e-09
"2562" 36481 8.58206624467548e-09 4.02468313892309e-09 1.73818078162291e-08 7.66875498396512e-08 2.24669104688789e-08 3.70238063890888e-08 2.50735947310171e-08 8.79592292024942e-09
"2563" 36482 8.62932012256981e-09 4.05393827995643e-09 1.74283505747768e-08 7.60641270145744e-08 2.2519460232468e-08 3.76690775719627e-08 2.50397809951072e-08 8.79592292024942e-09
"2564" 36483 8.67657400046414e-09 4.08319342098976e-09 1.74748933333244e-08 7.54407041894976e-08 2.25720099960571e-08 3.83143487548366e-08 2.50059672591974e-08 8.79592292024942e-09
"2565" 36484 8.66853444662746e-09 4.12841003682176e-09 1.74961584015419e-08 7.56748125915754e-08 2.2622150923985e-08 3.89607064907305e-08 2.46882817806448e-08 8.63632510771891e-09
"2566" 36485 8.66049489279079e-09 4.17362665265376e-09 1.75174234697594e-08 7.59089209936532e-08 2.2672291851913e-08 3.96070642266244e-08 2.43705963020923e-08 8.4767272951884e-09
"2567" 36486 8.69446094840461e-09 4.21310692011385e-09 1.75357923264786e-08 7.61359010348723e-08 2.27180289317111e-08 4.0122525801052e-08 2.42876322195482e-08 8.45225559837788e-09
"2568" 36487 8.72842700401843e-09 4.25258718757395e-09 1.75541611831978e-08 7.63628810760915e-08 2.27637660115091e-08 4.06379873754795e-08 2.4204668137004e-08 8.42778390156736e-09
"2569" 36488 8.76239305963225e-09 4.29206745503405e-09 1.7572530039917e-08 7.65898611173106e-08 2.28095030913072e-08 4.1153448949907e-08 2.41217040544599e-08 8.40331220475684e-09
"2570" 36489 8.79635911524606e-09 4.33154772249415e-09 1.75908988966362e-08 7.68168411585297e-08 2.28552401711052e-08 4.16689105243345e-08 2.40387399719158e-08 8.37884050794631e-09
"2571" 36490 8.79143108803535e-09 4.34177284892091e-09 1.76055440528576e-08 7.70549061412292e-08 2.28493825285862e-08 4.15505454779894e-08 2.43687609153056e-08 8.35203583091093e-09
"2572" 36491 8.78308535407426e-09 4.34010804678349e-09 1.75765955682455e-08 7.71253575765412e-08 2.31727543940513e-08 4.16606804145183e-08 2.43781299335101e-08 8.32452242429609e-09
"2573" 36492 8.76099848756811e-09 4.34301766914187e-09 1.75502258578368e-08 7.71503704624394e-08 2.31732215086385e-08 4.15339523715608e-08 2.44234266210401e-08 8.29535197296847e-09
"2574" 36493 8.73891162106196e-09 4.34592729150025e-09 1.75238561474282e-08 7.71753833483376e-08 2.31736886232257e-08 4.14072243286033e-08 2.44687233085701e-08 8.26618152164084e-09
"2575" 36494 8.7168247545558e-09 4.34883691385863e-09 1.74974864370195e-08 7.72003962342359e-08 2.31741557378128e-08 4.12804962856458e-08 2.45140199961e-08 8.23701107031321e-09
"2576" 36495 8.69473788804965e-09 4.35174653621701e-09 1.74711167266108e-08 7.72254091201341e-08 2.31746228524e-08 4.11537682426883e-08 2.455931668363e-08 8.20784061898559e-09
"2577" 36496 8.6726510215435e-09 4.35465615857539e-09 1.74447470162021e-08 7.72504220060323e-08 2.31750899669872e-08 4.10270401997308e-08 2.460461337116e-08 8.17867016765796e-09
"2578" 36497 8.65056415503734e-09 4.35756578093377e-09 1.74183773057935e-08 7.72754348919305e-08 2.31755570815744e-08 4.09003121567733e-08 2.464991005869e-08 8.14949971633033e-09
"2579" 36498 8.62847728853119e-09 4.36047540329215e-09 1.73920075953848e-08 7.73004477778287e-08 2.31760241961616e-08 4.07735841138158e-08 2.469520674622e-08 8.1203292650027e-09
"2580" 36499 8.60639042202504e-09 4.36338502565053e-09 1.73656378849761e-08 7.7325460663727e-08 2.31764913107488e-08 4.06468560708583e-08 2.474050343375e-08 8.09115881367507e-09
"2581" 36500 8.58430355551889e-09 4.36629464800891e-09 1.73392681745675e-08 7.73504735496252e-08 2.3176958425336e-08 4.05201280279008e-08 2.47858001212799e-08 8.06198836234745e-09
"2582" 36501 8.56221668901273e-09 4.36920427036729e-09 1.73128984641588e-08 7.73754864355234e-08 2.31774255399231e-08 4.03933999849434e-08 2.48310968088099e-08 8.03281791101982e-09
"2583" 36502 8.54012982250658e-09 4.37211389272567e-09 1.72865287537501e-08 7.74004993214216e-08 2.31778926545103e-08 4.02666719419859e-08 2.48763934963399e-08 8.00364745969219e-09
"2584" 36503 8.51804295600042e-09 4.37502351508405e-09 1.72601590433414e-08 7.74255122073199e-08 2.31783597690975e-08 4.01399438990284e-08 2.49216901838699e-08 7.97447700836457e-09
"2585" 36504 8.49595608949427e-09 4.37793313744243e-09 1.72337893329328e-08 7.74505250932181e-08 2.31788268836847e-08 4.00132158560709e-08 2.49669868713999e-08 7.94530655703694e-09
"2586" 36505 8.47386922298812e-09 4.38084275980081e-09 1.72074196225241e-08 7.74755379791163e-08 2.31792939982719e-08 3.98864878131134e-08 2.50122835589299e-08 7.91613610570931e-09
"2587" 36506 8.45178235648197e-09 4.38375238215919e-09 1.71810499121154e-08 7.75005508650145e-08 2.31797611128591e-08 3.97597597701559e-08 2.50575802464598e-08 7.88696565438168e-09
"2588" 36507 8.45485710057289e-09 4.38666200451757e-09 1.7152228043749e-08 7.72030636741876e-08 2.31550466082435e-08 3.94908875443826e-08 2.51828107958358e-08 7.86489252593078e-09
"2589" 36508 8.45793184466382e-09 4.37793726258655e-09 1.70365607215462e-08 7.69184493186281e-08 2.31407209891644e-08 3.93860155917966e-08 2.53113557369823e-08 7.85403155161233e-09
"2590" 36509 8.46100658875475e-09 4.36921252065552e-09 1.69208933993433e-08 7.66338349630685e-08 2.31263953700852e-08 3.92811436392106e-08 2.54399006781288e-08 7.84317057729388e-09
"2591" 36510 8.47782246539074e-09 4.35225628971853e-09 1.68026473029369e-08 7.63305503377747e-08 2.31074960430263e-08 3.92288811446937e-08 2.5951174767407e-08 7.84193030052984e-09
"2592" 36511 8.47658694331089e-09 4.3435315477875e-09 1.67056038633056e-08 7.60216995552958e-08 2.31178849285627e-08 3.91911540013572e-08 2.60580587424687e-08 7.8357680807285e-09
"2593" 36512 8.47535142123103e-09 4.33480680585647e-09 1.66085604236743e-08 7.57128487728168e-08 2.31282738140991e-08 3.91534268580207e-08 2.61649427175305e-08 7.82960586092715e-09
"2594" 36513 8.47411589915118e-09 4.32608206392545e-09 1.6511516984043e-08 7.54039979903379e-08 2.31386626996355e-08 3.91156997146843e-08 2.62718266925923e-08 7.8234436411258e-09
"2595" 36514 8.47288037707132e-09 4.31735732199442e-09 1.64144735444117e-08 7.50951472078589e-08 2.31490515851719e-08 3.90779725713478e-08 2.6378710667654e-08 7.81728142132446e-09
"2596" 36515 8.47164485499147e-09 4.3086325800634e-09 1.63174301047804e-08 7.478629642538e-08 2.31594404707083e-08 3.90402454280114e-08 2.64855946427158e-08 7.81111920152311e-09
"2597" 36516 8.47040933291161e-09 4.29990783813237e-09 1.62203866651491e-08 7.4477445642901e-08 2.31698293562447e-08 3.90025182846749e-08 2.65924786177776e-08 7.80495698172177e-09
"2598" 36517 8.46917381083176e-09 4.29118309620135e-09 1.61233432255177e-08 7.4168594860422e-08 2.31802182417811e-08 3.89647911413385e-08 2.66993625928393e-08 7.79879476192042e-09
"2599" 36518 8.4679382887519e-09 4.28245835427032e-09 1.60262997858864e-08 7.38597440779431e-08 2.31906071273175e-08 3.8927063998002e-08 2.68062465679011e-08 7.79263254211907e-09
"2600" 36519 8.46670276667205e-09 4.2737336123393e-09 1.59292563462551e-08 7.35508932954641e-08 2.32009960128539e-08 3.88893368546655e-08 2.69131305429629e-08 7.78647032231773e-09
"2601" 36520 8.40818420118346e-09 4.27905410393885e-09 1.59390197837361e-08 7.33818299173049e-08 2.31295577486384e-08 3.89585389635751e-08 2.6814516603811e-08 7.79063752965025e-09
"2602" 36521 8.4069486791036e-09 4.2883659955241e-09 1.59363994019043e-08 7.33752049524215e-08 2.31285810545015e-08 3.89991875704215e-08 2.67220182529367e-08 7.79152344162456e-09
"2603" 36522 8.40571315702375e-09 4.29767788710935e-09 1.59337790200725e-08 7.3368579987538e-08 2.31276043603647e-08 3.9039836177268e-08 2.66295199020625e-08 7.79240935359887e-09
"2604" 36523 8.4044776349439e-09 4.30698977869460e-09 1.59311586382407e-08 7.33619550226545e-08 2.31266276662278e-08 3.90804847841145e-08 2.65370215511882e-08 7.79329526557318e-09
"2605" 36524 8.40324211286404e-09 4.31630167027984e-09 1.59285382564089e-08 7.33553300577711e-08 2.3125650972091e-08 3.9121133390961e-08 2.6444523200314e-08 7.79418117754749e-09
"2606" 36525 8.40200659078419e-09 4.32561356186509e-09 1.59259178745771e-08 7.33487050928876e-08 2.31246742779542e-08 3.91617819978074e-08 2.63520248494398e-08 7.7950670895218e-09
"2607" 36526 8.40077106870433e-09 4.33492545345034e-09 1.59232974927453e-08 7.33420801280041e-08 2.31236975838173e-08 3.92024306046539e-08 2.62595264985655e-08 7.79595300149612e-09
"2608" 36527 8.39953554662448e-09 4.34423734503559e-09 1.59206771109135e-08 7.33354551631206e-08 2.31227208896805e-08 3.92430792115004e-08 2.61670281476913e-08 7.79683891347043e-09
"2609" 36528 8.39830002454462e-09 4.35354923662084e-09 1.59180567290818e-08 7.33288301982372e-08 2.31217441955436e-08 3.92837278183468e-08 2.60745297968171e-08 7.79772482544474e-09
"2610" 36529 8.39706450246477e-09 4.36286112820609e-09 1.591543634725e-08 7.33222052333537e-08 2.31207675014068e-08 3.93243764251933e-08 2.59820314459428e-08 7.79861073741905e-09
"2611" 36530 8.39582898038491e-09 4.37217301979134e-09 1.59128159654182e-08 7.33155802684702e-08 2.311979080727e-08 3.93650250320398e-08 2.58895330950686e-08 7.79949664939336e-09
"2612" 36531 8.39459345830506e-09 4.38148491137658e-09 1.59101955835864e-08 7.33089553035868e-08 2.31188141131331e-08 3.94056736388863e-08 2.57970347441943e-08 7.80038256136768e-09
"2613" 36532 8.3933579362252e-09 4.39079680296183e-09 1.59075752017546e-08 7.33023303387033e-08 2.31178374189963e-08 3.94463222457327e-08 2.57045363933201e-08 7.80126847334199e-09
"2614" 36533 8.39212241414535e-09 4.40010869454708e-09 1.59049548199228e-08 7.32957053738198e-08 2.31168607248594e-08 3.94869708525792e-08 2.56120380424459e-08 7.8021543853163e-09
"2615" 36534 8.3908868920655e-09 4.40942058613233e-09 1.5902334438091e-08 7.32890804089364e-08 2.31158840307226e-08 3.95276194594257e-08 2.55195396915716e-08 7.80304029729061e-09
"2616" 36535 8.38965136998564e-09 4.41873247771758e-09 1.58997140562592e-08 7.32824554440529e-08 2.31149073365858e-08 3.95682680662721e-08 2.54270413406974e-08 7.80392620926492e-09
"2617" 36536 8.38841584790579e-09 4.42804436930283e-09 1.58970936744274e-08 7.32758304791694e-08 2.31139306424489e-08 3.96089166731186e-08 2.53345429898231e-08 7.80481212123923e-09
"2618" 36537 8.38718032582593e-09 4.43735626088808e-09 1.58944732925957e-08 7.3269205514286e-08 2.31129539483121e-08 3.96495652799651e-08 2.52420446389489e-08 7.80569803321355e-09
"2619" 36538 8.38594480374608e-09 4.44666815247332e-09 1.58918529107639e-08 7.32625805494025e-08 2.31119772541752e-08 3.96902138868116e-08 2.51495462880747e-08 7.80658394518786e-09
"2620" 36539 8.38470928166622e-09 4.45598004405857e-09 1.58892325289321e-08 7.3255955584519e-08 2.31110005600384e-08 3.9730862493658e-08 2.50570479372004e-08 7.80746985716217e-09
"2621" 36540 8.39087283095679e-09 4.46636958812702e-09 1.59533166551994e-08 7.38074075006423e-08 2.30789846041798e-08 4.00072427757839e-08 2.52622442354551e-08 7.80835576913648e-09
"2622" 36541 8.38919805972109e-09 4.47568147971227e-09 1.59506962733676e-08 7.39833828352625e-08 2.30471809731335e-08 3.99971786666541e-08 2.50913662411897e-08 7.8141636241481e-09
"2623" 36542 8.38752328848538e-09 4.48499337129752e-09 1.59480758915359e-08 7.41593581698827e-08 2.30153773420872e-08 3.99871145575244e-08 2.49204882469242e-08 7.81997147915972e-09
"2624" 36543 8.37004420795681e-09 4.47767786722913e-09 1.59666997741074e-08 7.43494351232865e-08 2.29026807904633e-08 3.97966979051294e-08 2.39185600112612e-08 7.78145270989896e-09
"2625" 36544 8.35256512742824e-09 4.47036236316075e-09 1.5985323656679e-08 7.45395120766903e-08 2.27899842388394e-08 3.96062812527343e-08 2.29166317755982e-08 7.74293394063819e-09
"2626" 36545 8.35298165515776e-09 4.47036236316075e-09 1.59832549341802e-08 7.47750786509457e-08 2.27674029680126e-08 3.96257861434944e-08 2.29919753833291e-08 7.74476816774585e-09
"2627" 36546 8.35339818288729e-09 4.47036236316075e-09 1.59811862116814e-08 7.50106452252012e-08 2.27448216971857e-08 3.96452910342545e-08 2.306731899106e-08 7.7466023948535e-09
"2628" 36547 8.38284733822882e-09 4.49438953427566e-09 1.6040082480501e-08 7.49597584786721e-08 2.26921029145141e-08 3.96542418307697e-08 2.3044527155648e-08 7.74843662196116e-09
"2629" 36548 8.41229649357036e-09 4.51841670539058e-09 1.60989787493206e-08 7.4908871732143e-08 2.26393841318425e-08 3.9663192627285e-08 2.30217353202359e-08 7.75027084906881e-09
"2630" 36549 8.4417456489119e-09 4.54244387650549e-09 1.61578750181401e-08 7.4857984985614e-08 2.25866653491708e-08 3.96721434238002e-08 2.29989434848239e-08 7.75210507617647e-09
"2631" 36550 8.47119480425344e-09 4.5664710476204e-09 1.62167712869597e-08 7.48070982390849e-08 2.25339465664992e-08 3.96810942203154e-08 2.29761516494118e-08 7.75393930328412e-09
"2632" 36551 8.50064395959498e-09 4.59049821873532e-09 1.62756675557793e-08 7.47562114925558e-08 2.24812277838276e-08 3.96900450168306e-08 2.29533598139998e-08 7.75577353039178e-09
"2633" 36552 8.53009311493651e-09 4.61452538985023e-09 1.63345638245988e-08 7.47053247460267e-08 2.2428509001156e-08 3.96989958133458e-08 2.29305679785877e-08 7.75760775749943e-09
"2634" 36553 8.55954227027805e-09 4.63855256096514e-09 1.63934600934184e-08 7.46544379994977e-08 2.23757902184843e-08 3.9707946609861e-08 2.29077761431757e-08 7.75944198460709e-09
"2635" 36554 8.58899142561959e-09 4.66257973208005e-09 1.6452356362238e-08 7.46035512529686e-08 2.23230714358127e-08 3.97168974063762e-08 2.28849843077636e-08 7.76127621171474e-09
"2636" 36555 8.61844058096113e-09 4.68660690319496e-09 1.65112526310576e-08 7.45526645064395e-08 2.22703526531411e-08 3.97258482028914e-08 2.28621924723516e-08 7.7631104388224e-09
"2637" 36556 8.59916772127413e-09 4.70863631174497e-09 1.65737780865308e-08 7.43739465018297e-08 2.21679708835611e-08 3.97225617842368e-08 2.28506573765904e-08 7.76077745859754e-09
"2638" 36557 8.57989486158714e-09 4.73066572029498e-09 1.66363035420041e-08 7.41952284972199e-08 2.20655891139811e-08 3.97192753655821e-08 2.28391222808293e-08 7.75844447837268e-09
"2639" 36558 8.56062200190015e-09 4.75269512884499e-09 1.66988289974774e-08 7.40165104926101e-08 2.19632073444012e-08 3.97159889469275e-08 2.28275871850682e-08 7.75611149814781e-09
"2640" 36559 8.54134914221316e-09 4.77472453739499e-09 1.67613544529507e-08 7.38377924880003e-08 2.18608255748212e-08 3.97127025282728e-08 2.28160520893071e-08 7.75377851792295e-09
"2641" 36560 8.52207628252617e-09 4.796753945945e-09 1.68238799084239e-08 7.36590744833905e-08 2.17584438052412e-08 3.97094161096181e-08 2.2804516993546e-08 7.75144553769809e-09
"2642" 36561 8.50280342283918e-09 4.81878335449501e-09 1.68864053638972e-08 7.34803564787807e-08 2.16560620356613e-08 3.97061296909635e-08 2.27929818977848e-08 7.74911255747323e-09
"2643" 36562 8.48353056315218e-09 4.84081276304502e-09 1.69489308193705e-08 7.33016384741709e-08 2.15536802660813e-08 3.97028432723088e-08 2.27814468020237e-08 7.74677957724836e-09
"2644" 36563 8.50567693361970e-09 4.8728186089872e-09 1.69572717075297e-08 7.28621338907257e-08 2.15751374765536e-08 3.96392612456611e-08 2.27907462312007e-08 7.7491453515406e-09
"2645" 36564 8.52782330408721e-09 4.90482445492939e-09 1.6965612595689e-08 7.24226293072806e-08 2.1596594687026e-08 3.95756792190134e-08 2.28000456603777e-08 7.75151112583285e-09
"2646" 36565 8.54996967455472e-09 4.93683030087157e-09 1.69739534838483e-08 7.19831247238355e-08 2.16180518974983e-08 3.95120971923657e-08 2.28093450895546e-08 7.75387690012509e-09
"2647" 36566 8.57211604502224e-09 4.96883614681376e-09 1.69822943720075e-08 7.15436201403903e-08 2.16395091079707e-08 3.94485151657181e-08 2.28186445187316e-08 7.75624267441733e-09
"2648" 36567 8.59426241548975e-09 5.00084199275594e-09 1.69906352601668e-08 7.11041155569452e-08 2.1660966318443e-08 3.93849331390704e-08 2.28279439479086e-08 7.75860844870958e-09
"2649" 36568 8.65944328338611e-09 5.04515087393858e-09 1.69346578000205e-08 7.07101340386677e-08 2.16668239609621e-08 3.93144843751619e-08 2.32157390339425e-08 7.77188120344561e-09
"2650" 36569 8.68900278633275e-09 5.04847497802127e-09 1.68820336968614e-08 7.0262795222565e-08 2.16837499284171e-08 3.93216542359644e-08 2.34936634411736e-08 7.77024055576651e-09
"2651" 36570 8.71856228927939e-09 5.05179908210396e-09 1.68294095937024e-08 6.98154564064623e-08 2.17006758958721e-08 3.93288240967669e-08 2.37715878484046e-08 7.76859990808741e-09
"2652" 36571 8.74812179222603e-09 5.05512318618664e-09 1.67767854905433e-08 6.93681175903596e-08 2.17176018633271e-08 3.93359939575694e-08 2.40495122556357e-08 7.7669592604083e-09
"2653" 36572 8.77768129517267e-09 5.05844729026933e-09 1.67241613873842e-08 6.89207787742569e-08 2.17345278307822e-08 3.93431638183719e-08 2.43274366628668e-08 7.7653186127292e-09
"2654" 36573 8.80724079811932e-09 5.06177139435202e-09 1.66715372842251e-08 6.84734399581542e-08 2.17514537982372e-08 3.93503336791743e-08 2.46053610700979e-08 7.7636779650501e-09
"2655" 36574 8.83680030106596e-09 5.06509549843471e-09 1.6618913181066e-08 6.80261011420515e-08 2.17683797656922e-08 3.93575035399768e-08 2.4883285477329e-08 7.76203731737099e-09
"2656" 36575 8.8663598040126e-09 5.06841960251739e-09 1.65662890779069e-08 6.75787623259488e-08 2.17853057331472e-08 3.93646734007793e-08 2.516120988456e-08 7.76039666969189e-09
"2657" 36576 8.89591930695924e-09 5.07174370660008e-09 1.65136649747478e-08 6.71314235098461e-08 2.18022317006022e-08 3.93718432615818e-08 2.54391342917911e-08 7.75875602201279e-09
"2658" 36577 8.92547880990588e-09 5.07506781068277e-09 1.64610408715888e-08 6.66840846937434e-08 2.18191576680572e-08 3.93790131223842e-08 2.57170586990222e-08 7.75711537433368e-09
"2659" 36578 8.94666445667401e-09 5.06376365672477e-09 1.64610408715888e-08 6.64066841591065e-08 2.18040676796536e-08 3.89333769843657e-08 2.58653189257038e-08 7.71415701811912e-09
"2660" 36579 8.95270899804186e-09 5.06376365672477e-09 1.64714617808343e-08 6.63746134995296e-08 2.18172051205509e-08 3.90124651088337e-08 2.60872002887956e-08 7.67350203303777e-09
"2661" 36580 8.9587535394097e-09 5.06376365672477e-09 1.64818826900798e-08 6.63425428399526e-08 2.18303425614481e-08 3.90915532333018e-08 2.63090816518873e-08 7.63284704795642e-09
"2662" 36581 8.96479808077754e-09 5.06376365672477e-09 1.64923035993254e-08 6.63104721803756e-08 2.18434800023454e-08 3.91706413577698e-08 2.65309630149791e-08 7.59219206287507e-09
"2663" 36582 8.93398033432472e-09 5.07149364251746e-09 1.65517818365188e-08 6.628003895451e-08 2.18434800023454e-08 3.96994617723956e-08 2.67625061945316e-08 7.63359175657898e-09
"2664" 36583 8.9031625878719e-09 5.07922362831015e-09 1.66112600737122e-08 6.62496057286444e-08 2.18434800023454e-08 4.02282821870215e-08 2.69940493740842e-08 7.67499145028289e-09
"2665" 36584 8.87234484141908e-09 5.08695361410284e-09 1.66707383109055e-08 6.62191725027788e-08 2.18434800023454e-08 4.07571026016473e-08 2.72255925536368e-08 7.71639114398679e-09
"2666" 36585 8.84152709496626e-09 5.09468359989552e-09 1.67302165480989e-08 6.61887392769132e-08 2.18434800023454e-08 4.12859230162732e-08 2.74571357331894e-08 7.7577908376907e-09
"2667" 36586 8.81070934851344e-09 5.10241358568821e-09 1.67896947852923e-08 6.61583060510476e-08 2.18434800023454e-08 4.18147434308991e-08 2.76886789127419e-08 7.79919053139461e-09
"2668" 36587 8.77989160206062e-09 5.1101435714809e-09 1.68491730224857e-08 6.6127872825182e-08 2.18434800023454e-08 4.23435638455249e-08 2.79202220922945e-08 7.84059022509852e-09
"2669" 36588 8.74907385560780e-09 5.11787355727359e-09 1.69086512596791e-08 6.60974395993164e-08 2.18434800023454e-08 4.28723842601508e-08 2.81517652718471e-08 7.88198991880243e-09
"2670" 36589 8.71825610915497e-09 5.12560354306628e-09 1.69681294968725e-08 6.60670063734508e-08 2.18434800023454e-08 4.34012046747766e-08 2.83833084513996e-08 7.92338961250633e-09
"2671" 36590 8.68743836270215e-09 5.13333352885897e-09 1.70276077340658e-08 6.60365731475852e-08 2.18434800023454e-08 4.39300250894025e-08 2.86148516309522e-08 7.96478930621024e-09
"2672" 36591 8.65662061624933e-09 5.14106351465166e-09 1.70870859712592e-08 6.60061399217196e-08 2.18434800023454e-08 4.44588455040283e-08 2.88463948105048e-08 8.00618899991415e-09
"2673" 36592 8.62580286979651e-09 5.14879350044435e-09 1.71465642084526e-08 6.5975706695854e-08 2.18434800023454e-08 4.49876659186542e-08 2.90779379900574e-08 8.04758869361806e-09
"2674" 36593 8.59498512334369e-09 5.15652348623704e-09 1.7206042445646e-08 6.59452734699884e-08 2.18434800023454e-08 4.551648633328e-08 2.93094811696099e-08 8.08898838732196e-09
"2675" 36594 8.56416737689087e-09 5.16425347202973e-09 1.72655206828394e-08 6.59148402441228e-08 2.18434800023454e-08 4.60453067479059e-08 2.95410243491625e-08 8.13038808102587e-09
"2676" 36595 8.53334963043805e-09 5.17198345782241e-09 1.73249989200328e-08 6.58844070182572e-08 2.18434800023454e-08 4.65741271625318e-08 2.97725675287151e-08 8.17178777472978e-09
"2677" 36596 8.50253188398522e-09 5.1797134436151e-09 1.73844771572262e-08 6.58539737923916e-08 2.18434800023454e-08 4.71029475771576e-08 3.00041107082676e-08 8.21318746843369e-09
"2678" 36597 8.4717141375324e-09 5.18744342940779e-09 1.74439553944195e-08 6.5823540566526e-08 2.18434800023454e-08 4.76317679917835e-08 3.02356538878202e-08 8.25458716213760e-09
"2679" 36598 8.44089639107958e-09 5.19517341520048e-09 1.75034336316129e-08 6.57931073406604e-08 2.18434800023454e-08 4.81605884064093e-08 3.04671970673728e-08 8.2959868558415e-09
"2680" 36599 8.43016183834647e-09 5.20489703841396e-09 1.75486388494564e-08 6.57920346043881e-08 2.18303425614481e-08 4.86784094928621e-08 3.05547020721128e-08 8.37474384223486e-09
"2681" 36600 8.41942728561336e-09 5.21462066162744e-09 1.75938440672998e-08 6.57909618681158e-08 2.18172051205509e-08 4.91962305793149e-08 3.06422070768528e-08 8.45350082862823e-09
"2682" 36601 8.40869273288024e-09 5.22559185515795e-09 1.7621328394962e-08 6.50206372064346e-08 2.17538526482331e-08 4.96895149482368e-08 3.08519617421899e-08 8.51489665314575e-09
"2683" 36602 8.39795818014713e-09 5.23656304868847e-09 1.76488127226242e-08 6.42503125447533e-08 2.16905001759154e-08 5.01827993171587e-08 3.1061716407527e-08 8.57629247766328e-09
"2684" 36603 8.38722362741402e-09 5.24753424221898e-09 1.76762970502863e-08 6.34799878830721e-08 2.16271477035977e-08 5.06760836860806e-08 3.12714710728641e-08 8.63768830218081e-09
"2685" 36604 8.3764890746809e-09 5.2585054357495e-09 1.77037813779485e-08 6.27096632213909e-08 2.15637952312799e-08 5.11693680550025e-08 3.14812257382012e-08 8.69908412669834e-09
