"time" "channel1" "channel2" "channel3" "channel4" "channel5" "channel6" "channel7" "channel8"
"2161" 56823 2.00740129983424e-08 2.62389169523407e-09 5.15894605631093e-09 3.58996900473938e-09 9.04293200392795e-08 1.22262273345545e-07 6.83648074948094e-08 1.51093030908446e-07
"2162" 56824 2.00478906640459e-08 2.62862916232351e-09 5.13035840998272e-09 3.56681924266618e-09 8.9957106579307e-08 1.21276345015617e-07 6.8416544455906e-08 1.51064792375218e-07
"2163" 56825 2.00131196751905e-08 2.61532999589669e-09 5.11928002897257e-09 3.55228945794527e-09 9.01692573404023e-08 1.21505184105218e-07 6.83494592541606e-08 1.510529994828e-07
"2164" 56826 1.9978348686335e-08 2.60203082946986e-09 5.10820164796241e-09 3.53775967322437e-09 9.03814081014976e-08 1.21734023194818e-07 6.82823740524151e-08 1.51041206590382e-07
"2165" 56827 1.99435776974796e-08 2.58873166304303e-09 5.09712326695226e-09 3.52322988850346e-09 9.0593558862593e-08 1.21962862284419e-07 6.82152888506697e-08 1.51029413697964e-07
"2166" 56828 1.99088067086241e-08 2.57543249661621e-09 5.0860448859421e-09 3.50870010378256e-09 9.08057096236883e-08 1.22191701374019e-07 6.81482036489243e-08 1.51017620805546e-07
"2167" 56829 1.98740357197687e-08 2.56213333018938e-09 5.07496650493194e-09 3.49417031906165e-09 9.10178603847835e-08 1.2242054046362e-07 6.80811184471788e-08 1.51005827913128e-07
"2168" 56830 1.98392647309133e-08 2.54883416376255e-09 5.06388812392179e-09 3.47964053434075e-09 9.12300111458789e-08 1.22649379553221e-07 6.80140332454334e-08 1.50994035020709e-07
"2169" 56831 1.98044937420578e-08 2.53553499733572e-09 5.05280974291163e-09 3.46511074961984e-09 9.14421619069742e-08 1.22878218642821e-07 6.7946948043688e-08 1.50982242128291e-07
"2170" 56832 1.97697227532024e-08 2.5222358309089e-09 5.04173136190148e-09 3.45058096489894e-09 9.16543126680695e-08 1.23107057732422e-07 6.78798628419425e-08 1.50970449235873e-07
"2171" 56833 1.97349517643469e-08 2.50893666448207e-09 5.03065298089132e-09 3.43605118017803e-09 9.18664634291648e-08 1.23335896822022e-07 6.78127776401971e-08 1.50958656343455e-07
"2172" 56834 1.97001807754915e-08 2.49563749805524e-09 5.01957459988117e-09 3.42152139545712e-09 9.20786141902601e-08 1.23564735911623e-07 6.77456924384517e-08 1.50946863451037e-07
"2173" 56835 1.9665409786636e-08 2.48233833162842e-09 5.00849621887101e-09 3.40699161073622e-09 9.22907649513554e-08 1.23793575001223e-07 6.76786072367062e-08 1.50935070558619e-07
"2174" 56836 1.96306387977806e-08 2.46903916520159e-09 4.99741783786085e-09 3.39246182601531e-09 9.25029157124507e-08 1.24022414090824e-07 6.76115220349608e-08 1.50923277666201e-07
"2175" 56837 1.95958678089252e-08 2.45573999877476e-09 4.9863394568507e-09 3.37793204129441e-09 9.2715066473546e-08 1.24251253180425e-07 6.75444368332154e-08 1.50911484773783e-07
"2176" 56838 1.95610968200697e-08 2.44244083234793e-09 4.97526107584054e-09 3.3634022565735e-09 9.29272172346413e-08 1.24480092270025e-07 6.74773516314699e-08 1.50899691881365e-07
"2177" 56839 1.95263258312143e-08 2.42914166592111e-09 4.96418269483039e-09 3.3488724718526e-09 9.31393679957366e-08 1.24708931359626e-07 6.74102664297245e-08 1.50887898988946e-07
"2178" 56840 1.94915548423588e-08 2.41584249949428e-09 4.95310431382023e-09 3.33434268713169e-09 9.33515187568319e-08 1.24937770449226e-07 6.73431812279791e-08 1.50876106096528e-07
"2179" 56841 1.93365302490862e-08 2.42082865561831e-09 4.93839674615637e-09 3.32337476141113e-09 9.35011563591937e-08 1.25220742015842e-07 6.56150798930684e-08 1.50712275488531e-07
"2180" 56842 1.91212560746545e-08 2.42157472272206e-09 4.9257579009913e-09 3.31866957895861e-09 9.37989444494637e-08 1.25403517725088e-07 6.52516194214956e-08 1.50097365271091e-07
"2181" 56843 1.90329086086299e-08 2.41359604789479e-09 4.91512536688255e-09 3.31631698773235e-09 9.42228854398569e-08 1.25459208748646e-07 6.52677564012962e-08 1.50181247807033e-07
"2182" 56844 1.9000078529073e-08 2.40836120273618e-09 4.90019487576799e-09 3.31353623056878e-09 9.42263875381098e-08 1.26134751626517e-07 6.57012657090254e-08 1.50904029901141e-07
"2183" 56845 1.89672484495161e-08 2.40312635757756e-09 4.88526438465343e-09 3.3107554734052e-09 9.42298896363627e-08 1.26810294504387e-07 6.61347750167545e-08 1.51626811995248e-07
"2184" 56846 1.89344183699593e-08 2.39789151241895e-09 4.87033389353887e-09 3.30797471624163e-09 9.42333917346156e-08 1.27485837382257e-07 6.65682843244837e-08 1.52349594089356e-07
"2185" 56847 1.89015882904024e-08 2.39265666726033e-09 4.85540340242431e-09 3.30519395907805e-09 9.42368938328685e-08 1.28161380260128e-07 6.70017936322129e-08 1.53072376183464e-07
"2186" 56848 1.88687582108455e-08 2.38742182210171e-09 4.84047291130975e-09 3.30241320191447e-09 9.42403959311214e-08 1.28836923137998e-07 6.7435302939942e-08 1.53795158277572e-07
"2187" 56849 1.88359281312886e-08 2.3821869769431e-09 4.82554242019519e-09 3.2996324447509e-09 9.42438980293743e-08 1.29512466015868e-07 6.78688122476712e-08 1.5451794037168e-07
"2188" 56850 1.88030980517317e-08 2.37695213178448e-09 4.81061192908063e-09 3.29685168758732e-09 9.42474001276272e-08 1.30188008893739e-07 6.83023215554004e-08 1.55240722465788e-07
"2189" 56851 1.87702679721748e-08 2.37171728662587e-09 4.79568143796607e-09 3.29407093042375e-09 9.42509022258801e-08 1.30863551771609e-07 6.87358308631295e-08 1.55963504559896e-07
"2190" 56852 1.8737437892618e-08 2.36648244146725e-09 4.78075094685151e-09 3.29129017326017e-09 9.4254404324133e-08 1.31539094649479e-07 6.91693401708587e-08 1.56686286654004e-07
"2191" 56853 1.87046078130611e-08 2.36124759630864e-09 4.76582045573695e-09 3.2885094160966e-09 9.42579064223859e-08 1.3221463752735e-07 6.96028494785879e-08 1.57409068748111e-07
"2192" 56854 1.86717777335042e-08 2.35601275115002e-09 4.75088996462239e-09 3.28572865893302e-09 9.42614085206388e-08 1.3289018040522e-07 7.0036358786317e-08 1.58131850842219e-07
"2193" 56855 1.87309053997151e-08 2.35875658081868e-09 4.75066704117169e-09 3.27782383909558e-09 9.41560333915883e-08 1.33525244001813e-07 7.0490954903024e-08 1.58700121037171e-07
"2194" 56856 1.8790033065926e-08 2.36150041048734e-09 4.75044411772098e-09 3.26991901925815e-09 9.40506582625377e-08 1.34160307598406e-07 7.09455510197309e-08 1.59268391232122e-07
"2195" 56857 1.87883582946903e-08 2.36324535887354e-09 4.75022119427028e-09 3.26991901925815e-09 9.39528493601702e-08 1.34984194684431e-07 7.11100438873112e-08 1.59031824654181e-07
"2196" 56858 1.87866835234546e-08 2.36499030725975e-09 4.74999827081958e-09 3.26991901925815e-09 9.38550404578027e-08 1.35808081770456e-07 7.12745367548915e-08 1.58795258076239e-07
"2197" 56859 1.8725881086008e-08 2.33282279377196e-09 4.726313147046e-09 3.26685591337502e-09 9.38203717029406e-08 1.36673329837613e-07 7.14262070344416e-08 1.58624714119246e-07
"2198" 56860 1.86650786485614e-08 2.30065528028416e-09 4.70262802327241e-09 3.26379280749188e-09 9.37857029480785e-08 1.3753857790477e-07 7.15778773139918e-08 1.58454170162253e-07
"2199" 56861 1.86042762111148e-08 2.26848776679637e-09 4.67894289949883e-09 3.26072970160875e-09 9.37510341932164e-08 1.38403825971927e-07 7.1729547593542e-08 1.5828362620526e-07
"2200" 56862 1.85434737736682e-08 2.23632025330858e-09 4.65525777572525e-09 3.25766659572562e-09 9.37163654383543e-08 1.39269074039083e-07 7.18812178730921e-08 1.58113082248267e-07
"2201" 56863 1.84826713362216e-08 2.20415273982079e-09 4.63157265195167e-09 3.25460348984249e-09 9.36816966834922e-08 1.4013432210624e-07 7.20328881526423e-08 1.57942538291274e-07
"2202" 56864 1.8421868898775e-08 2.17198522633299e-09 4.60788752817808e-09 3.25154038395936e-09 9.36470279286301e-08 1.40999570173397e-07 7.21845584321925e-08 1.5777199433428e-07
"2203" 56865 1.83616842223683e-08 2.15145757732676e-09 4.59371081603308e-09 3.24121238571578e-09 9.36334766645406e-08 1.41001743279437e-07 7.21928226531402e-08 1.5789240381199e-07
"2204" 56866 1.83056313002483e-08 2.11887558211466e-09 4.56988777742625e-09 3.23067262593253e-09 9.35882066993297e-08 1.41036914369996e-07 7.22629641476542e-08 1.57803914533782e-07
"2205" 56867 1.82495783781284e-08 2.08629358690256e-09 4.54606473881942e-09 3.22013286614928e-09 9.35429367341188e-08 1.41072085460555e-07 7.23331056421682e-08 1.57715425255574e-07
"2206" 56868 1.81935254560084e-08 2.05371159169046e-09 4.52224170021258e-09 3.20959310636603e-09 9.34976667689079e-08 1.41107256551115e-07 7.24032471366823e-08 1.57626935977366e-07
"2207" 56869 1.81374725338884e-08 2.02112959647837e-09 4.49841866160575e-09 3.19905334658278e-09 9.34523968036971e-08 1.41142427641674e-07 7.24733886311963e-08 1.57538446699158e-07
"2208" 56870 1.80814196117685e-08 1.98854760126627e-09 4.47459562299891e-09 3.18851358679953e-09 9.34071268384862e-08 1.41177598732233e-07 7.25435301257103e-08 1.5744995742095e-07
"2209" 56871 1.80253666896485e-08 1.95596560605417e-09 4.45077258439208e-09 3.17797382701628e-09 9.33618568732753e-08 1.41212769822792e-07 7.26136716202244e-08 1.57361468142742e-07
"2210" 56872 1.79693137675285e-08 1.92338361084207e-09 4.42694954578524e-09 3.16743406723303e-09 9.33165869080645e-08 1.41247940913352e-07 7.26838131147384e-08 1.57272978864534e-07
"2211" 56873 1.79132608454085e-08 1.89080161562997e-09 4.40312650717841e-09 3.15689430744978e-09 9.32713169428536e-08 1.41283112003911e-07 7.27539546092524e-08 1.57184489586327e-07
"2212" 56874 1.78572079232886e-08 1.85821962041787e-09 4.37930346857157e-09 3.14635454766653e-09 9.32260469776427e-08 1.4131828309447e-07 7.28240961037665e-08 1.57096000308119e-07
"2213" 56875 1.78011550011686e-08 1.82563762520577e-09 4.35548042996474e-09 3.13581478788329e-09 9.31807770124319e-08 1.4135345418503e-07 7.28942375982805e-08 1.57007511029911e-07
"2214" 56876 1.76668205610735e-08 1.81699165447549e-09 4.35548042996474e-09 3.13296808639781e-09 9.19106426540858e-08 1.41011264795439e-07 7.2973034775837e-08 1.55803514162867e-07
"2215" 56877 1.72023082978608e-08 1.81125530610359e-09 4.34248074651571e-09 3.12334595995311e-09 9.03456736222799e-08 1.40863643096336e-07 7.24506750119957e-08 1.54550511971197e-07
"2216" 56878 1.72070578131874e-08 1.81084082437928e-09 4.3310415272216e-09 3.11586930605299e-09 9.03255111727793e-08 1.40817419614003e-07 7.19422396307009e-08 1.53485811612182e-07
"2217" 56879 1.7211807328514e-08 1.81042634265498e-09 4.31960230792749e-09 3.10839265215287e-09 9.03053487232786e-08 1.40771196131669e-07 7.14338042494061e-08 1.52421111253166e-07
"2218" 56880 1.72165568438407e-08 1.80868139426877e-09 4.30830100346663e-09 3.10112775979242e-09 9.03292247550772e-08 1.40915371310139e-07 7.08552273735972e-08 1.52147324928756e-07
"2219" 56881 1.72213063591673e-08 1.80693644588257e-09 4.29699969900577e-09 3.09386286743197e-09 9.03531007868758e-08 1.41059546488608e-07 7.02766504977884e-08 1.51873538604346e-07
"2220" 56882 1.73461818106707e-08 1.80984744328898e-09 4.28747048356304e-09 3.08659797507152e-09 9.0696434444229e-08 1.41145368007953e-07 6.96903835581388e-08 1.51659779836395e-07
"2221" 56883 1.74710572621742e-08 1.8127584406954e-09 4.2779412681203e-09 3.07933308271106e-09 9.10397681015821e-08 1.41231189527297e-07 6.91041166184892e-08 1.51446021068445e-07
"2222" 56884 1.75959327136776e-08 1.81566943810182e-09 4.26841205267757e-09 3.07206819035061e-09 9.13831017589353e-08 1.41317011046642e-07 6.85178496788396e-08 1.51232262300495e-07
"2223" 56885 1.77208081651811e-08 1.81858043550824e-09 4.25888283723483e-09 3.06480329799016e-09 9.17264354162885e-08 1.41402832565986e-07 6.793158273919e-08 1.51018503532544e-07
"2224" 56886 1.78456836166845e-08 1.82149143291466e-09 4.2493536217921e-09 3.05753840562971e-09 9.20697690736417e-08 1.4148865408533e-07 6.73453157995404e-08 1.50804744764594e-07
"2225" 56887 1.79705590681879e-08 1.82440243032108e-09 4.23982440634937e-09 3.05027351326925e-09 9.24131027309949e-08 1.41574475604675e-07 6.67590488598908e-08 1.50590985996644e-07
"2226" 56888 1.80954345196914e-08 1.8273134277275e-09 4.23029519090663e-09 3.0430086209088e-09 9.27564363883481e-08 1.41660297124019e-07 6.61727819202412e-08 1.50377227228693e-07
"2227" 56889 1.82203099711948e-08 1.83022442513392e-09 4.2207659754639e-09 3.03574372854835e-09 9.30997700457013e-08 1.41746118643364e-07 6.55865149805916e-08 1.50163468460743e-07
"2228" 56890 1.83451854226983e-08 1.83313542254034e-09 4.21123676002116e-09 3.02847883618789e-09 9.34431037030544e-08 1.41831940162708e-07 6.5000248040942e-08 1.49949709692793e-07
"2229" 56891 1.84700608742017e-08 1.83604641994676e-09 4.20170754457843e-09 3.02121394382744e-09 9.37864373604076e-08 1.41917761682052e-07 6.44139811012924e-08 1.49735950924842e-07
"2230" 56892 1.85949363257052e-08 1.83895741735318e-09 4.1921783291357e-09 3.01394905146699e-09 9.41297710177608e-08 1.42003583201397e-07 6.38277141616428e-08 1.49522192156892e-07
"2231" 56893 1.87198117772086e-08 1.8418684147596e-09 4.18264911369296e-09 3.00668415910654e-09 9.4473104675114e-08 1.42089404720741e-07 6.32414472219932e-08 1.49308433388942e-07
"2232" 56894 1.8844687228712e-08 1.84477941216602e-09 4.17311989825023e-09 2.99941926674608e-09 9.48164383324672e-08 1.42175226240086e-07 6.26551802823436e-08 1.49094674620991e-07
"2233" 56895 1.89695626802155e-08 1.84769040957243e-09 4.1635906828075e-09 2.99215437438563e-09 9.51597719898204e-08 1.4226104775943e-07 6.2068913342694e-08 1.48880915853041e-07
"2234" 56896 1.90944381317189e-08 1.85060140697885e-09 4.15406146736476e-09 2.98488948202518e-09 9.55031056471736e-08 1.42346869278775e-07 6.14826464030444e-08 1.48667157085091e-07
"2235" 56897 1.92193135832224e-08 1.85351240438527e-09 4.14453225192203e-09 2.97762458966473e-09 9.58464393045268e-08 1.42432690798119e-07 6.08963794633948e-08 1.4845339831714e-07
"2236" 56898 1.93370052577745e-08 1.856837883516e-09 4.13965053318156e-09 2.9735593346892e-09 9.6207452472227e-08 1.42443138309574e-07 6.07296306721221e-08 1.48464206443227e-07
"2237" 56899 1.94590667024588e-08 1.83489137131085e-09 4.00707671784861e-09 2.94205801540930e-09 9.62480438282029e-08 1.41454414457283e-07 6.05356650414478e-08 1.49296018233444e-07
"2238" 56900 1.95811281471431e-08 1.81294485910571e-09 3.87450290251565e-09 2.91055669612939e-09 9.62886351841787e-08 1.40465690604991e-07 6.03416994107736e-08 1.50127830023661e-07
"2239" 56901 1.97031895918274e-08 1.79099834690056e-09 3.7419290871827e-09 2.87905537684949e-09 9.63292265401546e-08 1.394769667527e-07 6.01477337800993e-08 1.50959641813877e-07
"2240" 56902 1.99782124530364e-08 1.76439588890279e-09 3.6312683066052e-09 2.84826921508445e-09 9.63859570006288e-08 1.38442499724011e-07 5.99551890047869e-08 1.51537040323218e-07
"2241" 56903 1.99984373761052e-08 1.73912389756692e-09 3.5987643453693e-09 2.83793657398288e-09 9.60781847031169e-08 1.3729506534207e-07 5.98526083005461e-08 1.51628548544245e-07
"2242" 56904 2.00028071462373e-08 1.71293729634149e-09 3.46505510896868e-09 2.80857608438957e-09 9.59632699877794e-08 1.36428713641477e-07 5.96629487529146e-08 1.51635140744053e-07
"2243" 56905 2.00071769163695e-08 1.68675069511607e-09 3.33134587256806e-09 2.77921559479626e-09 9.58483552724419e-08 1.35562361940885e-07 5.9473289205283e-08 1.51641732943861e-07
"2244" 56906 2.00115466865016e-08 1.66056409389064e-09 3.19763663616744e-09 2.74985510520296e-09 9.57334405571044e-08 1.34696010240292e-07 5.92836296576514e-08 1.51648325143669e-07
"2245" 56907 2.00159164566338e-08 1.63437749266522e-09 3.06392739976682e-09 2.72049461560965e-09 9.56185258417669e-08 1.33829658539699e-07 5.90939701100199e-08 1.51654917343477e-07
"2246" 56908 2.00202862267659e-08 1.6081908914398e-09 2.9302181633662e-09 2.69113412601634e-09 9.55036111264294e-08 1.32963306839106e-07 5.89043105623883e-08 1.51661509543285e-07
"2247" 56909 2.0024655996898e-08 1.58200429021437e-09 2.79650892696558e-09 2.66177363642303e-09 9.53886964110919e-08 1.32096955138514e-07 5.87146510147567e-08 1.51668101743093e-07
"2248" 56910 2.00290257670302e-08 1.55581768898895e-09 2.66279969056496e-09 2.63241314682972e-09 9.52737816957544e-08 1.31230603437921e-07 5.85249914671252e-08 1.51674693942901e-07
"2249" 56911 2.00333955371623e-08 1.52963108776352e-09 2.52909045416434e-09 2.60305265723641e-09 9.51588669804168e-08 1.30364251737328e-07 5.83353319194936e-08 1.51681286142709e-07
"2250" 56912 2.00186709594916e-08 1.52830199614966e-09 2.52418793160972e-09 2.60049294732847e-09 9.53609252699457e-08 1.30169292787689e-07 5.80852536556525e-08 1.49082930447519e-07
"2251" 56913 2.00039463818208e-08 1.5269729045358e-09 2.5192854090551e-09 2.59793323742053e-09 9.55629835594746e-08 1.2997433383805e-07 5.78351753918113e-08 1.46484574752329e-07
"2252" 56914 1.998922180415e-08 1.52564381292194e-09 2.51438288650049e-09 2.5953735275126e-09 9.57650418490035e-08 1.29779374888411e-07 5.75850971279702e-08 1.43886219057139e-07
"2253" 56915 1.99744972264792e-08 1.52431472130808e-09 2.50948036394587e-09 2.59281381760466e-09 9.59671001385323e-08 1.29584415938773e-07 5.7335018864129e-08 1.41287863361949e-07
"2254" 56916 1.99756278017451e-08 1.52589387700457e-09 2.51211204436515e-09 2.58754393771303e-09 9.59754940115999e-08 1.30249753508303e-07 5.7082055372607e-08 1.38774423687978e-07
"2255" 56917 1.99767583770109e-08 1.52747303270105e-09 2.51474372478444e-09 2.58227405782141e-09 9.59838878846675e-08 1.30915091077834e-07 5.68290918810851e-08 1.36260984014007e-07
"2256" 56918 1.99675341447382e-08 1.53079713678374e-09 2.52227792775835e-09 2.57521628414264e-09 9.58806992808006e-08 1.31562196715609e-07 5.6723077864127e-08 1.36241719851913e-07
"2257" 56919 1.99583099124654e-08 1.53412124086642e-09 2.52981213073225e-09 2.56815851046386e-09 9.57775106769336e-08 1.32209302353385e-07 5.66170638471689e-08 1.36222455689819e-07
"2258" 56920 1.99490856801926e-08 1.53744534494911e-09 2.53734633370616e-09 2.56110073678509e-09 9.56743220730667e-08 1.32856407991161e-07 5.65110498302108e-08 1.36203191527725e-07
"2259" 56921 1.99398614479198e-08 1.5407694490318e-09 2.54488053668006e-09 2.55404296310632e-09 9.55711334691998e-08 1.33503513628936e-07 5.64050358132528e-08 1.36183927365631e-07
"2260" 56922 1.9930637215647e-08 1.54409355311449e-09 2.55241473965397e-09 2.54698518942755e-09 9.54679448653329e-08 1.34150619266712e-07 5.62990217962947e-08 1.36164663203537e-07
"2261" 56923 1.99214129833742e-08 1.54741765719717e-09 2.55994894262788e-09 2.53992741574877e-09 9.53647562614659e-08 1.34797724904488e-07 5.61930077793366e-08 1.36145399041443e-07
"2262" 56924 1.99121887511015e-08 1.55074176127986e-09 2.56748314560178e-09 2.53286964207e-09 9.5261567657599e-08 1.35444830542263e-07 5.60869937623786e-08 1.36126134879349e-07
"2263" 56925 1.99029645188287e-08 1.55406586536255e-09 2.57501734857569e-09 2.52581186839123e-09 9.51583790537321e-08 1.36091936180039e-07 5.59809797454205e-08 1.36106870717255e-07
"2264" 56926 1.98937402865559e-08 1.55738996944524e-09 2.58255155154959e-09 2.51875409471246e-09 9.50551904498652e-08 1.36739041817814e-07 5.58749657284624e-08 1.36087606555161e-07
"2265" 56927 1.98845160542831e-08 1.56071407352792e-09 2.5900857545235e-09 2.51169632103368e-09 9.49520018459982e-08 1.3738614745559e-07 5.57689517115044e-08 1.36068342393067e-07
"2266" 56928 1.98752918220103e-08 1.56403817761061e-09 2.5976199574974e-09 2.50463854735491e-09 9.48488132421313e-08 1.38033253093366e-07 5.56629376945463e-08 1.36049078230973e-07
"2267" 56929 1.98660675897375e-08 1.5673622816933e-09 2.60515416047131e-09 2.49758077367614e-09 9.47456246382644e-08 1.38680358731141e-07 5.55569236775882e-08 1.36029814068879e-07
"2268" 56930 1.984392121927e-08 1.58074709456106e-09 2.60515416047131e-09 2.50498219753838e-09 9.53908321671825e-08 1.38418405850641e-07 5.54654430900567e-08 1.35909227408775e-07
"2269" 56931 1.98562710392775e-08 1.59413190742883e-09 2.6548178473288e-09 2.5113248137023e-09 9.53611942492223e-08 1.37940804761935e-07 5.53842217359417e-08 1.35794911377757e-07
"2270" 56932 1.98686208592849e-08 1.6075167202966e-09 2.7044815341863e-09 2.51766742986621e-09 9.5331556331262e-08 1.37463203673228e-07 5.53030003818267e-08 1.35680595346738e-07
"2271" 56933 1.98809706792924e-08 1.62090153316436e-09 2.75414522104379e-09 2.52401004603012e-09 9.53019184133018e-08 1.36985602584521e-07 5.52217790277117e-08 1.3556627931572e-07
"2272" 56934 1.98933204992998e-08 1.63428634603213e-09 2.80380890790129e-09 2.53035266219404e-09 9.52722804953415e-08 1.36508001495815e-07 5.51405576735967e-08 1.35451963284702e-07
"2273" 56935 1.99056703193073e-08 1.64767115889989e-09 2.85347259475878e-09 2.53669527835795e-09 9.52426425773813e-08 1.36030400407108e-07 5.50593363194817e-08 1.35337647253683e-07
"2274" 56936 1.99180201393147e-08 1.66105597176766e-09 2.90313628161627e-09 2.54303789452186e-09 9.52130046594211e-08 1.35552799318401e-07 5.49781149653667e-08 1.35223331222665e-07
"2275" 56937 1.99303699593222e-08 1.67444078463542e-09 2.95279996847377e-09 2.54938051068578e-09 9.51833667414608e-08 1.35075198229695e-07 5.48968936112517e-08 1.35109015191647e-07
"2276" 56938 2.01168495219873e-08 1.6824194594627e-09 2.95556956372631e-09 2.5439601707184e-09 9.51833667414608e-08 1.34858979757589e-07 5.47937648219744e-08 1.3565595696677e-07
"2277" 56939 2.03033290846525e-08 1.69039813428997e-09 2.95833915897885e-09 2.53853983075103e-09 9.51833667414608e-08 1.34642761285484e-07 5.46906360326972e-08 1.36202898741893e-07
"2278" 56940 2.03318683599384e-08 1.70145222416535e-09 2.96900379548924e-09 2.53675193696388e-09 9.54071686697669e-08 1.34165160196777e-07 5.45780686361879e-08 1.36109353159403e-07
"2279" 56941 2.03604076352243e-08 1.71250631404072e-09 2.97966843199964e-09 2.53496404317673e-09 9.5630970598073e-08 1.3368755910807e-07 5.44655012396786e-08 1.36015807576913e-07
"2280" 56942 2.0415925021692e-08 1.70626846245554e-09 2.98146132483192e-09 2.5389494252564e-09 9.46297482590591e-08 1.33640115274744e-07 5.42743598748415e-08 1.36108733257099e-07
"2281" 56943 2.04714424081598e-08 1.70003061087036e-09 2.9832542176642e-09 2.54293480733607e-09 9.36285259200452e-08 1.33592671441419e-07 5.40832185100044e-08 1.36201658937284e-07
"2282" 56944 2.05294308387872e-08 1.71066884397339e-09 2.99347300727319e-09 2.5476353469306e-09 9.35463681954913e-08 1.33496376562201e-07 5.3698766890552e-08 1.36314616727327e-07
"2283" 56945 2.05874192694146e-08 1.72130707707642e-09 3.00369179688219e-09 2.55233588652513e-09 9.34642104709374e-08 1.33400081682984e-07 5.33143152710995e-08 1.3642757451737e-07
"2284" 56946 2.06454077000421e-08 1.73194531017945e-09 3.01391058649118e-09 2.55703642611966e-09 9.33820527463834e-08 1.33303786803766e-07 5.2929863651647e-08 1.36540532307412e-07
"2285" 56947 2.07033961306695e-08 1.74258354328248e-09 3.02412937610017e-09 2.56173696571419e-09 9.32998950218295e-08 1.33207491924548e-07 5.25454120321946e-08 1.36653490097455e-07
"2286" 56948 2.07613845612969e-08 1.75322177638551e-09 3.03434816570917e-09 2.56643750530872e-09 9.32177372972755e-08 1.33111197045331e-07 5.21609604127421e-08 1.36766447887498e-07
"2287" 56949 2.08193729919244e-08 1.76386000948854e-09 3.04456695531816e-09 2.57113804490325e-09 9.31355795727216e-08 1.33014902166113e-07 5.17765087932896e-08 1.3687940567754e-07
"2288" 56950 2.08773614225518e-08 1.77449824259157e-09 3.05478574492715e-09 2.57583858449778e-09 9.30534218481677e-08 1.32918607286896e-07 5.13920571738371e-08 1.36992363467583e-07
"2289" 56951 2.09353498531793e-08 1.7851364756946e-09 3.06500453453615e-09 2.58053912409231e-09 9.29712641236137e-08 1.32822312407678e-07 5.10076055543847e-08 1.37105321257626e-07
"2290" 56952 2.09933382838067e-08 1.79577470879763e-09 3.07522332414514e-09 2.58523966368683e-09 9.28891063990598e-08 1.32726017528461e-07 5.06231539349322e-08 1.37218279047668e-07
"2291" 56953 2.10513267144341e-08 1.80641294190066e-09 3.08544211375414e-09 2.58994020328136e-09 9.28069486745058e-08 1.32629722649243e-07 5.02387023154797e-08 1.37331236837711e-07
"2292" 56954 2.11093151450616e-08 1.81705117500369e-09 3.09566090336313e-09 2.59464074287589e-09 9.27247909499519e-08 1.32533427770026e-07 4.98542506960272e-08 1.37444194627754e-07
"2293" 56955 2.11684428112725e-08 1.8201265900518e-09 3.10673928437329e-09 2.59955304401009e-09 9.29699543323729e-08 1.32538210448032e-07 4.98006637154791e-08 1.37562605908018e-07
"2294" 56956 2.12275704774834e-08 1.8232020050999e-09 3.11781766538344e-09 2.60446534514428e-09 9.3215117714794e-08 1.32542993126038e-07 4.97470767349309e-08 1.37681017188283e-07
"2295" 56957 2.12866981436943e-08 1.826277420148e-09 3.1288960463936e-09 2.60937764627848e-09 9.3460281097215e-08 1.32547775804044e-07 4.96934897543827e-08 1.37799428468548e-07
"2296" 56958 2.13458258099052e-08 1.82935283519611e-09 3.13997442740375e-09 2.61428994741267e-09 9.3705444479636e-08 1.32552558482051e-07 4.96399027738346e-08 1.37917839748812e-07
"2297" 56959 2.14049534761161e-08 1.83242825024421e-09 3.15105280841391e-09 2.61920224854687e-09 9.39506078620571e-08 1.32557341160057e-07 4.95863157932864e-08 1.38036251029077e-07
"2298" 56960 2.1464081142327e-08 1.83550366529231e-09 3.16213118942407e-09 2.62411454968106e-09 9.41957712444781e-08 1.32562123838063e-07 4.95327288127383e-08 1.38154662309341e-07
"2299" 56961 2.15086259602161e-08 1.8302688201337e-09 3.17477003458914e-09 2.62368638374374e-09 9.43101139439732e-08 1.32561322416992e-07 4.95484047414165e-08 1.38157960001733e-07
"2300" 56962 2.10374178715872e-08 1.81654967179041e-09 3.18174127964254e-09 2.62474519144208e-09 9.43604771823787e-08 1.33597153273824e-07 4.95894474900448e-08 1.36450846045745e-07
"2301" 56963 2.04561973789481e-08 1.81721421759734e-09 3.18174127964254e-09 2.6252393017013e-09 9.4226101109805e-08 1.33597153273824e-07 4.9534628164109e-08 1.37206545373434e-07
"2302" 56964 1.98749768863089e-08 1.81787876340427e-09 3.18174127964254e-09 2.62573341196052e-09 9.40917250372313e-08 1.33597153273824e-07 4.94798088381733e-08 1.37962244701122e-07
"2303" 56965 1.92937563936698e-08 1.8185433092112e-09 3.18174127964254e-09 2.62622752221974e-09 9.39573489646575e-08 1.33597153273824e-07 4.94249895122376e-08 1.38717944028811e-07
"2304" 56966 1.87125359010307e-08 1.81920785501813e-09 3.18174127964254e-09 2.62672163247896e-09 9.38229728920838e-08 1.33597153273824e-07 4.93701701863019e-08 1.39473643356499e-07
"2305" 56967 1.81313154083916e-08 1.81987240082506e-09 3.18174127964254e-09 2.62721574273818e-09 9.36885968195101e-08 1.33597153273824e-07 4.93153508603662e-08 1.40229342684188e-07
"2306" 56968 1.75500949157524e-08 1.82053694663199e-09 3.18174127964254e-09 2.6277098529974e-09 9.35542207469364e-08 1.33597153273824e-07 4.92605315344305e-08 1.40985042011876e-07
"2307" 56969 1.75737007630365e-08 1.82078563566657e-09 3.18619795529575e-09 2.6309847204202e-09 9.33259824912031e-08 1.33520043081409e-07 4.91712286543799e-08 1.41586685844531e-07
"2308" 56970 1.75973066103206e-08 1.82103432470116e-09 3.19065463094897e-09 2.63425958784300e-09 9.30977442354697e-08 1.33442932888994e-07 4.90819257743294e-08 1.42188329677186e-07
"2309" 56971 1.76209124576047e-08 1.82128301373574e-09 3.19511130660218e-09 2.63753445526579e-09 9.28695059797364e-08 1.33365822696579e-07 4.89926228942788e-08 1.42789973509841e-07
"2310" 56972 1.76445183048888e-08 1.82153170277032e-09 3.19956798225539e-09 2.64080932268859e-09 9.26412677240031e-08 1.33288712504163e-07 4.89033200142283e-08 1.43391617342495e-07
"2311" 56973 1.76681241521729e-08 1.82178039180491e-09 3.20402465790861e-09 2.64408419011138e-09 9.24130294682697e-08 1.33211602311748e-07 4.88140171341778e-08 1.4399326117515e-07
"2312" 56974 1.7691729999457e-08 1.82202908083949e-09 3.20848133356182e-09 2.64735905753418e-09 9.21847912125364e-08 1.33134492119333e-07 4.87247142541272e-08 1.44594905007805e-07
"2313" 56975 1.76956832418597e-08 1.8243570537358e-09 3.23331317699057e-09 2.66474947231452e-09 9.20645800440897e-08 1.32950211838321e-07 4.89082495862972e-08 1.44768077563785e-07
"2314" 56976 1.76092345018075e-08 1.81604679352909e-09 3.189190473999e-09 2.66354949025642e-09 9.19128849929663e-08 1.32390156838885e-07 4.90558572491417e-08 1.43967903566365e-07
"2315" 56977 1.75227857617553e-08 1.80773653332237e-09 3.14506777100743e-09 2.66234950819831e-09 9.17611899418429e-08 1.31830101839448e-07 4.92034649119862e-08 1.43167729568946e-07
"2316" 56978 1.74363370217031e-08 1.79942627311565e-09 3.10094506801586e-09 2.6611495261402e-09 9.16094948907195e-08 1.31270046840012e-07 4.93510725748308e-08 1.42367555571527e-07
"2317" 56979 1.73498882816509e-08 1.79111601290893e-09 3.05682236502429e-09 2.65994954408209e-09 9.14577998395961e-08 1.30709991840575e-07 4.94986802376753e-08 1.41567381574108e-07
"2318" 56980 1.72634395415988e-08 1.78280575270221e-09 3.01269966203271e-09 2.65874956202398e-09 9.13061047884726e-08 1.30149936841139e-07 4.96462879005198e-08 1.40767207576689e-07
"2319" 56981 1.71769908015466e-08 1.77449549249549e-09 2.96857695904114e-09 2.65754957996587e-09 9.11544097373492e-08 1.29589881841702e-07 4.97938955633643e-08 1.3996703357927e-07
"2320" 56982 1.70905420614944e-08 1.76618523228877e-09 2.92445425604957e-09 2.65634959790777e-09 9.10027146862258e-08 1.29029826842266e-07 4.99415032262088e-08 1.39166859581851e-07
"2321" 56983 1.72156522693168e-08 1.7564616090753e-09 2.87113107349758e-09 2.65956780672463e-09 9.06951863520563e-08 1.28427761230192e-07 4.98343292651125e-08 1.38059230475712e-07
"2322" 56984 1.73089418236608e-08 1.74673798586182e-09 2.80109401222539e-09 2.64810577074484e-09 9.04580454844731e-08 1.27720449486797e-07 4.97112010192277e-08 1.36905909662218e-07
"2323" 56985 1.74022313780048e-08 1.73701436264834e-09 2.73105695095321e-09 2.63664373476506e-09 9.02209046168898e-08 1.27013137743402e-07 4.9588072773343e-08 1.35752588848725e-07
"2324" 56986 1.74955209323489e-08 1.72729073943486e-09 2.66101988968103e-09 2.62518169878527e-09 8.99837637493066e-08 1.26305826000007e-07 4.94649445274582e-08 1.34599268035232e-07
"2325" 56987 1.75888104866929e-08 1.71756711622138e-09 2.59098282840885e-09 2.61371966280548e-09 8.97466228817233e-08 1.25598514256613e-07 4.93418162815734e-08 1.33445947221738e-07
"2326" 56988 1.76821000410369e-08 1.70784349300791e-09 2.52094576713667e-09 2.60225762682569e-09 8.95094820141401e-08 1.24891202513218e-07 4.92186880356887e-08 1.32292626408245e-07
"2327" 56989 1.77753895953809e-08 1.69811986979443e-09 2.45090870586448e-09 2.5907955908459e-09 8.92723411465569e-08 1.24183890769823e-07 4.90955597898039e-08 1.31139305594752e-07
"2328" 56990 1.7868679149725e-08 1.68839624658095e-09 2.3808716445923e-09 2.57933355486611e-09 8.90352002789736e-08 1.23476579026428e-07 4.89724315439191e-08 1.29985984781258e-07
"2329" 56991 1.80040651992248e-08 1.67243477178229e-09 2.33057128978435e-09 2.5836811585612e-09 8.79436004060247e-08 1.22949379445536e-07 4.89779555302033e-08 1.30048246935741e-07
"2330" 56992 1.81394512487246e-08 1.65647329698362e-09 2.2802709349764e-09 2.58802876225628e-09 8.68520005330759e-08 1.22422179864644e-07 4.89834795164874e-08 1.30110509090223e-07
"2331" 56993 1.8175259785876e-08 1.65780376364552e-09 2.28040884980965e-09 2.59515712311494e-09 8.6895137264498e-08 1.21825323261736e-07 4.89193491314504e-08 1.30166254660115e-07
"2332" 56994 1.82110683230275e-08 1.65913423030742e-09 2.2805467646429e-09 2.60228548397361e-09 8.69382739959202e-08 1.21228466658828e-07 4.88552187464133e-08 1.30222000230006e-07
"2333" 56995 1.82468768601789e-08 1.66046469696932e-09 2.28068467947615e-09 2.60941384483227e-09 8.69814107273424e-08 1.20631610055919e-07 4.87910883613762e-08 1.30277745799897e-07
"2334" 56996 1.82826853973303e-08 1.66179516363122e-09 2.2808225943094e-09 2.61654220569093e-09 8.70245474587646e-08 1.20034753453011e-07 4.87269579763392e-08 1.30333491369789e-07
"2335" 56997 1.81534802177563e-08 1.66645110942384e-09 2.28273259816078e-09 2.63969196776413e-09 8.91297119445374e-08 1.19626666364758e-07 4.86618619721004e-08 1.30770435079505e-07
"2336" 56998 1.80242750381822e-08 1.67110705521647e-09 2.28464260201216e-09 2.66284172983733e-09 9.12348764303102e-08 1.19218579276505e-07 4.85967659678616e-08 1.31207378789222e-07
"2337" 56999 1.78962004338741e-08 1.67817387025026e-09 2.28586303169727e-09 2.66454975072862e-09 9.12101619256947e-08 1.18580931956363e-07 4.8548589867613e-08 1.31202680034704e-07
"2338" 57000 1.77681258295659e-08 1.68524068528406e-09 2.28708346138239e-09 2.6662577716199e-09 9.11854474210791e-08 1.17943284636222e-07 4.85004137673644e-08 1.31197981280187e-07
"2339" 57001 1.76400512252577e-08 1.69230750031786e-09 2.28830389106751e-09 2.66796579251119e-09 9.11607329164636e-08 1.17305637316081e-07 4.84522376671157e-08 1.3119328252567e-07
"2340" 57002 1.75119766209495e-08 1.69937431535166e-09 2.28952432075263e-09 2.66967381340248e-09 9.11360184118481e-08 1.1666798999594e-07 4.84040615668671e-08 1.31188583771153e-07
"2341" 57003 1.73839020166413e-08 1.70644113038546e-09 2.29074475043774e-09 2.67138183429377e-09 9.11113039072325e-08 1.16030342675799e-07 4.83558854666185e-08 1.31183885016636e-07
"2342" 57004 1.72558274123331e-08 1.71350794541925e-09 2.29196518012286e-09 2.67308985518505e-09 9.1086589402617e-08 1.15392695355658e-07 4.83077093663699e-08 1.31179186262119e-07
"2343" 57005 1.7127752808025e-08 1.72057476045305e-09 2.29318560980798e-09 2.67479787607634e-09 9.10618748980014e-08 1.14755048035517e-07 4.82595332661212e-08 1.31174487507602e-07
"2344" 57006 1.69996782037168e-08 1.72764157548685e-09 2.29440603949309e-09 2.67650589696763e-09 9.10371603933859e-08 1.14117400715376e-07 4.82113571658726e-08 1.31169788753085e-07
"2345" 57007 1.68716035994086e-08 1.73470839052065e-09 2.29562646917821e-09 2.67821391785891e-09 9.10124458887703e-08 1.13479753395234e-07 4.8163181065624e-08 1.31165089998568e-07
"2346" 57008 1.67435289951004e-08 1.74177520555444e-09 2.29684689886333e-09 2.6799219387502e-09 9.09877313841548e-08 1.12842106075093e-07 4.81150049653754e-08 1.31160391244051e-07
"2347" 57009 1.66154543907922e-08 1.74884202058824e-09 2.29806732854844e-09 2.68162995964149e-09 9.09630168795392e-08 1.12204458754952e-07 4.80668288651268e-08 1.31155692489533e-07
"2348" 57010 1.6487379786484e-08 1.75590883562204e-09 2.29928775823356e-09 2.68333798053278e-09 9.09383023749237e-08 1.11566811434811e-07 4.80186527648781e-08 1.31150993735016e-07
"2349" 57011 1.63593051821759e-08 1.76297565065584e-09 2.30050818791868e-09 2.68504600142406e-09 9.09135878703082e-08 1.1092916411467e-07 4.79704766646295e-08 1.31146294980499e-07
"2350" 57012 1.62312305778677e-08 1.77004246568964e-09 2.30172861760379e-09 2.68675402231535e-09 9.08888733656926e-08 1.10291516794529e-07 4.79223005643809e-08 1.31141596225982e-07
"2351" 57013 1.62542100037942e-08 1.76913060589616e-09 2.29727194195058e-09 2.67841175082462e-09 9.08582162886331e-08 1.10119633830666e-07 4.79430655002914e-08 1.30084200453484e-07
"2352" 57014 1.61712611958801e-08 1.7734535912613e-09 2.29835445680245e-09 2.66915184599534e-09 9.0455233755595e-08 1.10065216221701e-07 4.7957598929718e-08 1.3008500438029e-07
"2353" 57015 1.6088312387966e-08 1.77777657662644e-09 2.29943697165431e-09 2.65989194116606e-09 9.00522512225568e-08 1.10010798612737e-07 4.79721323591445e-08 1.30085808307096e-07
"2354" 57016 1.60053635800519e-08 1.78209956199158e-09 2.30051948650618e-09 2.65063203633678e-09 8.96492686895187e-08 1.09956381003772e-07 4.79866657885711e-08 1.30086612233902e-07
"2355" 57017 1.59224147721378e-08 1.78642254735672e-09 2.30160200135804e-09 2.6413721315075e-09 8.92462861564806e-08 1.09901963394807e-07 4.80011992179976e-08 1.30087416160708e-07
"2356" 57018 1.58394659642237e-08 1.79074553272186e-09 2.30268451620991e-09 2.63211222667822e-09 8.88433036234425e-08 1.09847545785843e-07 4.80157326474242e-08 1.30088220087514e-07
"2357" 57019 1.57565171563096e-08 1.795068518087e-09 2.30376703106177e-09 2.62285232184894e-09 8.84403210904044e-08 1.09793128176878e-07 4.80302660768507e-08 1.3008902401432e-07
"2358" 57020 1.56887181141133e-08 1.8096166298789e-09 2.306207890432e-09 2.61323948112022e-09 8.8056609242655e-08 1.09862944389697e-07 4.8034546087823e-08 1.3008866964953e-07
"2359" 57021 1.5634266398159e-08 1.82150105825093e-09 2.34064265933344e-09 2.61017637523708e-09 8.76487557468998e-08 1.09942388701307e-07 4.80388260987952e-08 1.30266898509792e-07
"2360" 57022 1.5561910413629e-08 1.81917308535462e-09 2.34086558278414e-09 2.60198920668009e-09 8.72409022511445e-08 1.10222304550852e-07 4.80400063000417e-08 1.30285126001633e-07
"2361" 57023 1.54895544290989e-08 1.81684511245831e-09 2.34108850623484e-09 2.5938020381231e-09 8.68330487553893e-08 1.10502220400398e-07 4.80411865012883e-08 1.30303353493473e-07
"2362" 57024 1.54171984445689e-08 1.814517139562e-09 2.34131142968555e-09 2.58561486956611e-09 8.64251952596341e-08 1.10782136249943e-07 4.80423667025349e-08 1.30321580985314e-07
"2363" 57025 1.53900277603943e-08 1.80695432150707e-09 2.34153435313625e-09 2.5877556992527e-09 8.6420324296917e-08 1.11099797234417e-07 4.80423667025349e-08 1.29356788850125e-07
"2364" 57026 1.53628570762196e-08 1.79939150345214e-09 2.34175727658695e-09 2.58989652893929e-09 8.64154533341999e-08 1.1141745821889e-07 4.80423667025349e-08 1.28391996714936e-07
"2365" 57027 1.5335686392045e-08 1.79182868539721e-09 2.34198020003766e-09 2.59203735862588e-09 8.64105823714828e-08 1.11735119203364e-07 4.80423667025349e-08 1.27427204579747e-07
"2366" 57028 1.53085157078704e-08 1.78426586734229e-09 2.34220312348836e-09 2.59417818831247e-09 8.64057114087657e-08 1.12052780187838e-07 4.80423667025349e-08 1.26462412444558e-07
"2367" 57029 1.52813450236958e-08 1.77670304928736e-09 2.34242604693906e-09 2.59631901799907e-09 8.64008404460486e-08 1.12370441172312e-07 4.80423667025349e-08 1.25497620309369e-07
"2368" 57030 1.52541743395212e-08 1.76914023123243e-09 2.34264897038976e-09 2.59845984768566e-09 8.63959694833315e-08 1.12688102156786e-07 4.80423667025349e-08 1.2453282817418e-07
"2369" 57031 1.52270036553465e-08 1.7615774131775e-09 2.34287189384047e-09 2.60060067737225e-09 8.63910985206144e-08 1.1300576314126e-07 4.80423667025349e-08 1.2356803603899e-07
"2370" 57032 1.51998329711719e-08 1.75401459512258e-09 2.34309481729117e-09 2.60274150705884e-09 8.63862275578973e-08 1.13323424125734e-07 4.80423667025349e-08 1.22603243903801e-07
"2371" 57033 1.51637301737402e-08 1.75202095770179e-09 2.32511890125757e-09 2.60274150705884e-09 8.63430908264751e-08 1.13143338722826e-07 4.7787585078594e-08 1.22645670712831e-07
"2372" 57034 1.51181283456553e-08 1.75144068328776e-09 2.31556888200068e-09 2.62811197171449e-09 8.6545902658896e-08 1.13907766693937e-07 4.75809795549018e-08 1.22899788847102e-07
"2373" 57035 1.50725265175703e-08 1.75086040887373e-09 2.3060188627438e-09 2.65348243637015e-09 8.67487144913169e-08 1.14672194665048e-07 4.73743740312096e-08 1.23153906981372e-07
"2374" 57036 1.50269246894854e-08 1.7502801344597e-09 2.29646884348691e-09 2.6788529010258e-09 8.69515263237378e-08 1.15436622636159e-07 4.71677685075173e-08 1.23408025115642e-07
"2375" 57037 1.49813228614004e-08 1.74969986004567e-09 2.28691882423003e-09 2.70422336568145e-09 8.71543381561587e-08 1.16201050607271e-07 4.69611629838251e-08 1.23662143249912e-07
"2376" 57038 1.49357210333155e-08 1.74911958563164e-09 2.27736880497314e-09 2.72959383033711e-09 8.73571499885796e-08 1.16965478578382e-07 4.67545574601329e-08 1.23916261384182e-07
"2377" 57039 1.48901192052305e-08 1.74853931121761e-09 2.26781878571626e-09 2.75496429499276e-09 8.75599618210005e-08 1.17729906549493e-07 4.65479519364407e-08 1.24170379518453e-07
"2378" 57040 1.48445173771456e-08 1.74795903680358e-09 2.25826876645937e-09 2.78033475964841e-09 8.77627736534214e-08 1.18494334520604e-07 4.63413464127485e-08 1.24424497652723e-07
"2379" 57041 1.48157768685493e-08 1.74505078949324e-09 2.23907242074065e-09 2.77940784059389e-09 8.81393863890749e-08 1.18289258398235e-07 4.60821833017752e-08 1.27644345738078e-07
"2380" 57042 1.47701750404643e-08 1.74638263120317e-09 2.22023691330589e-09 2.77848092153936e-09 8.82248322055348e-08 1.1832287139784e-07 4.58157534760886e-08 1.27637248415201e-07
"2381" 57043 1.47245732123794e-08 1.74771447291311e-09 2.20140140587112e-09 2.77755400248484e-09 8.83102780219946e-08 1.18356484397444e-07 4.5549323650402e-08 1.27630151092325e-07
"2382" 57044 1.46789713842944e-08 1.74904631462305e-09 2.18256589843636e-09 2.77662708343031e-09 8.83957238384544e-08 1.18390097397049e-07 4.52828938247155e-08 1.27623053769448e-07
"2383" 57045 1.46333695562095e-08 1.75037815633298e-09 2.16373039100159e-09 2.77570016437579e-09 8.84811696549143e-08 1.18423710396654e-07 4.50164639990289e-08 1.27615956446571e-07
"2384" 57046 1.45877677281245e-08 1.75170999804292e-09 2.14489488356683e-09 2.77477324532126e-09 8.85666154713741e-08 1.18457323396259e-07 4.47500341733423e-08 1.27608859123695e-07
"2385" 57047 1.45421659000396e-08 1.75304183975286e-09 2.12605937613206e-09 2.77384632626674e-09 8.86520612878339e-08 1.18490936395863e-07 4.44836043476558e-08 1.27601761800818e-07
"2386" 57048 1.4446830489583e-08 1.75437368146279e-09 2.12628229958277e-09 2.77384632626674e-09 8.87747012632719e-08 1.18069792679777e-07 4.44916162845637e-08 1.2754661018127e-07
"2387" 57049 1.43514950791264e-08 1.75570552317273e-09 2.12650522303347e-09 2.77384632626674e-09 8.88973412387099e-08 1.17648648963691e-07 4.44996282214717e-08 1.27491458561722e-07
"2388" 57050 1.43124365455265e-08 1.75969692315843e-09 2.12609147853371e-09 2.77099962478126e-09 8.89813007814833e-08 1.18002888706878e-07 4.44261027461597e-08 1.27230243104575e-07
"2389" 57051 1.42733780119266e-08 1.76368832314412e-09 2.12567773403396e-09 2.76815292329578e-09 8.90652603242566e-08 1.18357128450065e-07 4.43525772708476e-08 1.26969027647428e-07
"2390" 57052 1.42343194783267e-08 1.76767972312982e-09 2.1252639895342e-09 2.7653062218103e-09 8.91492198670299e-08 1.18711368193253e-07 4.42790517955355e-08 1.26707812190282e-07
"2391" 57053 1.41952609447268e-08 1.77167112311551e-09 2.12485024503445e-09 2.76245952032482e-09 8.92331794098033e-08 1.1906560793644e-07 4.42055263202235e-08 1.26446596733135e-07
"2392" 57054 1.41562024111269e-08 1.7756625231012e-09 2.12443650053469e-09 2.75961281883934e-09 8.93171389525766e-08 1.19419847679628e-07 4.41320008449114e-08 1.26185381275988e-07
"2393" 57055 1.4117143877527e-08 1.7796539230869e-09 2.12402275603493e-09 2.75676611735387e-09 8.94010984953499e-08 1.19774087422815e-07 4.40584753695993e-08 1.25924165818841e-07
"2394" 57056 1.40791423541228e-08 1.77898937727997e-09 2.12582694745471e-09 2.75627200709464e-09 8.93832382987205e-08 1.199783538117e-07 4.39863446775787e-08 1.25679891570645e-07
"2395" 57057 1.40411408307187e-08 1.77832483147304e-09 2.12763113887448e-09 2.75577789683542e-09 8.93653781020911e-08 1.20182620200585e-07 4.3914213985558e-08 1.2543561732245e-07
"2396" 57058 1.40019037852347e-08 1.7809843897488e-09 2.13650288255261e-09 2.7988777835969e-09 9.00312884578223e-08 1.20194055994684e-07 4.38309657319415e-08 1.25458937097616e-07
"2397" 57059 1.39626667397508e-08 1.78364394802455e-09 2.14537462623073e-09 2.84197767035839e-09 9.06971988135534e-08 1.20205491788783e-07 4.3747717478325e-08 1.25482256872782e-07
"2398" 57060 1.39234296942668e-08 1.78630350630031e-09 2.15424636990885e-09 2.88507755711987e-09 9.13631091692846e-08 1.20216927582882e-07 4.36644692247084e-08 1.25505576647949e-07
"2399" 57061 1.38841926487828e-08 1.78896306457607e-09 2.16311811358698e-09 2.92817744388135e-09 9.20290195250157e-08 1.20228363376981e-07 4.35812209710919e-08 1.25528896423115e-07
"2400" 57062 1.38449556032988e-08 1.79162262285183e-09 2.1719898572651e-09 2.97127733064283e-09 9.26949298807469e-08 1.20239799171081e-07 4.34979727174754e-08 1.25552216198282e-07
"2401" 57063 1.38057185578148e-08 1.79428218112759e-09 2.18086160094322e-09 3.01437721740431e-09 9.3360840236478e-08 1.2025123496518e-07 4.34147244638589e-08 1.25575535973448e-07
"2402" 57064 1.37664815123309e-08 1.79694173940334e-09 2.18973334462135e-09 3.05747710416579e-09 9.40267505922091e-08 1.20262670759279e-07 4.33314762102424e-08 1.25598855748614e-07
"2403" 57065 1.37272444668469e-08 1.7996012976791e-09 2.19860508829947e-09 3.10057699092727e-09 9.46926609479403e-08 1.20274106553378e-07 4.32482279566259e-08 1.25622175523781e-07
"2404" 57066 1.36880074213629e-08 1.80226085595486e-09 2.20747683197759e-09 3.14367687768875e-09 9.53585713036714e-08 1.20285542347477e-07 4.31649797030094e-08 1.25645495298947e-07
"2405" 57067 1.36487703758789e-08 1.80492041423062e-09 2.21634857565572e-09 3.18677676445023e-09 9.60244816594026e-08 1.20296978141576e-07 4.30817314493929e-08 1.25668815074113e-07
"2406" 57068 1.36095333303949e-08 1.80757997250637e-09 2.22522031933384e-09 3.22987665121171e-09 9.66903920151337e-08 1.20308413935675e-07 4.29984831957764e-08 1.2569213484928e-07
"2407" 57069 1.3570296284911e-08 1.81023953078213e-09 2.23409206301196e-09 3.27297653797319e-09 9.73563023708648e-08 1.20319849729775e-07 4.29152349421598e-08 1.25715454624446e-07
"2408" 57070 1.3531059239427e-08 1.81289908905789e-09 2.24296380669009e-09 3.31607642473467e-09 9.8022212726596e-08 1.20331285523874e-07 4.28319866885433e-08 1.25738774399613e-07
"2409" 57071 1.35243147116315e-08 1.81156724734795e-09 2.23575833959849e-09 3.35240088653694e-09 9.85032139114981e-08 1.20345980977033e-07 4.27034417473968e-08 1.26030692546482e-07
"2410" 57072 1.35175701838361e-08 1.81023540563802e-09 2.22855287250689e-09 3.3887253483392e-09 9.89842150964002e-08 1.20360676430192e-07 4.25748968062503e-08 1.26322610693351e-07
"2411" 57073 1.35108256560406e-08 1.80890356392808e-09 2.22134740541529e-09 3.42504981014146e-09 9.94652162813022e-08 1.20375371883352e-07 4.24463518651039e-08 1.26614528840221e-07
"2412" 57074 1.35040811282452e-08 1.80757172221814e-09 2.21414193832369e-09 3.46137427194372e-09 9.99462174662043e-08 1.20390067336511e-07 4.23178069239574e-08 1.2690644698709e-07
"2413" 57075 1.34973366004497e-08 1.8062398805082e-09 2.20693647123208e-09 3.49769873374599e-09 1.00427218651106e-07 1.2040476278967e-07 4.21892619828109e-08 1.27198365133959e-07
"2414" 57076 1.34905920726542e-08 1.80490803879827e-09 2.19973100414048e-09 3.53402319554825e-09 1.00908219836009e-07 1.2041945824283e-07 4.20607170416644e-08 1.27490283280828e-07
"2415" 57077 1.34838475448588e-08 1.80357619708833e-09 2.19252553704888e-09 3.57034765735051e-09 1.01389221020911e-07 1.20434153695989e-07 4.19321721005179e-08 1.27782201427698e-07
"2416" 57078 1.34771030170633e-08 1.80224435537839e-09 2.18532006995728e-09 3.60667211915278e-09 1.01870222205813e-07 1.20448849149148e-07 4.18036271593714e-08 1.28074119574567e-07
"2417" 57079 1.34771030170633e-08 1.79767130593063e-09 2.1686061912371e-09 3.59797691176261e-09 1.01903553734741e-07 1.21260702961993e-07 4.17189666775769e-08 1.28816687350871e-07
"2418" 57080 1.34771030170633e-08 1.79309825648287e-09 2.15189231251692e-09 3.58928170437243e-09 1.01936885263669e-07 1.22072556774837e-07 4.16343061957824e-08 1.29559255127175e-07
"2419" 57081 1.34771030170633e-08 1.78852520703511e-09 2.13517843379673e-09 3.58058649698226e-09 1.01970216792596e-07 1.22884410587682e-07 4.1549645713988e-08 1.3030182290348e-07
"2420" 57082 1.34771030170633e-08 1.78395215758734e-09 2.11846455507655e-09 3.57189128959209e-09 1.02003548321524e-07 1.23696264400527e-07 4.14649852321935e-08 1.31044390679784e-07
"2421" 57083 1.34310251572875e-08 1.77298096405683e-09 2.11029368415218e-09 3.55009661251074e-09 1.0228809154734e-07 1.24467460838523e-07 4.1508976982568e-08 1.31755989756696e-07
"2422" 57084 1.33849472975117e-08 1.76200977052631e-09 2.10212281322782e-09 3.52830193542938e-09 1.02572634773155e-07 1.25238657276519e-07 4.15529687329424e-08 1.32467588833608e-07
"2423" 57085 1.33388694377358e-08 1.7510385769958e-09 2.09395194230346e-09 3.50650725834802e-09 1.02857177998971e-07 1.26009853714515e-07 4.15969604833168e-08 1.3317918791052e-07
"2424" 57086 1.329279157796e-08 1.74006738346528e-09 2.08578107137909e-09 3.48471258126666e-09 1.03141721224786e-07 1.26781050152511e-07 4.16409522336913e-08 1.33890786987432e-07
"2425" 57087 1.32467137181842e-08 1.72909618993477e-09 2.07761020045473e-09 3.4629179041853e-09 1.03426264450602e-07 1.27552246590507e-07 4.16849439840657e-08 1.34602386064344e-07
"2426" 57088 1.32006358584083e-08 1.71812499640425e-09 2.06943932953036e-09 3.44112322710395e-09 1.03710807676417e-07 1.28323443028503e-07 4.17289357344402e-08 1.35313985141256e-07
"2427" 57089 1.31545579986325e-08 1.70715380287374e-09 2.061268458606e-09 3.41932855002259e-09 1.03995350902233e-07 1.29094639466499e-07 4.17729274848146e-08 1.36025584218168e-07
"2428" 57090 1.31589277687646e-08 1.70258075342598e-09 2.06140637343925e-09 3.42025546907711e-09 1.04258214607098e-07 1.29065916638867e-07 4.14886121359361e-08 1.36586829048329e-07
"2429" 57091 1.31632975388968e-08 1.69800770397821e-09 2.0615442882725e-09 3.42118238813164e-09 1.04521078311964e-07 1.29037193811234e-07 4.12042967870577e-08 1.3714807387849e-07
"2430" 57092 1.31611012931176e-08 1.69509670657179e-09 2.06345429212388e-09 3.4235349793579e-09 1.04582583978798e-07 1.28363129656712e-07 4.09375567182282e-08 1.37157238644077e-07
"2431" 57093 1.31615178208471e-08 1.69509670657179e-09 2.06603306632736e-09 3.42446189841242e-09 1.04555333243634e-07 1.27571145689772e-07 4.07615578296978e-08 1.37395426287688e-07
"2432" 57094 1.31619343485766e-08 1.69509670657179e-09 2.06861184053085e-09 3.42538881746695e-09 1.0452808250847e-07 1.26779161722832e-07 4.05855589411673e-08 1.37633613931299e-07
"2433" 57095 1.31623508763061e-08 1.69509670657179e-09 2.07119061473433e-09 3.42631573652147e-09 1.04500831773306e-07 1.25987177755892e-07 4.04095600526369e-08 1.37871801574911e-07
"2434" 57096 1.31627674040356e-08 1.69509670657179e-09 2.07376938893782e-09 3.427242655576e-09 1.04473581038142e-07 1.25195193788952e-07 4.02335611641064e-08 1.38109989218522e-07
"2435" 57097 1.31631839317652e-08 1.69509670657179e-09 2.07634816314131e-09 3.42816957463052e-09 1.04446330302978e-07 1.24403209822012e-07 4.0057562275576e-08 1.38348176862133e-07
"2436" 57098 1.31636004594947e-08 1.69509670657179e-09 2.07892693734479e-09 3.42909649368505e-09 1.04419079567814e-07 1.23611225855072e-07 3.98815633870455e-08 1.38586364505744e-07
"2437" 57099 1.31640169872242e-08 1.69509670657179e-09 2.08150571154828e-09 3.43002341273957e-09 1.0439182883265e-07 1.22819241888132e-07 3.97055644985151e-08 1.38824552149356e-07
"2438" 57100 1.31644335149537e-08 1.69509670657179e-09 2.08408448575176e-09 3.4309503317941e-09 1.04364578097486e-07 1.22027257921193e-07 3.95295656099846e-08 1.39062739792967e-07
"2439" 57101 1.31648500426832e-08 1.69509670657179e-09 2.08666325995525e-09 3.43187725084862e-09 1.04337327362322e-07 1.21235273954253e-07 3.93535667214542e-08 1.39300927436578e-07
"2440" 57102 1.31652665704128e-08 1.69509670657179e-09 2.08924203415874e-09 3.43280416990315e-09 1.04310076627157e-07 1.20443289987313e-07 3.91775678329238e-08 1.39539115080189e-07
"2441" 57103 1.31656830981423e-08 1.69509670657179e-09 2.09182080836222e-09 3.43373108895767e-09 1.04282825891993e-07 1.19651306020373e-07 3.90015689443933e-08 1.39777302723801e-07
"2442" 57104 1.31660996258718e-08 1.69509670657179e-09 2.09439958256571e-09 3.4346580080122e-09 1.04255575156829e-07 1.18859322053433e-07 3.88255700558629e-08 1.40015490367412e-07
"2443" 57105 1.31693301604205e-08 1.67805482919386e-09 2.08012656321576e-09 3.43323233584047e-09 1.03053313687386e-07 1.18741402241016e-07 3.88255700558629e-08 1.40258639118079e-07
"2444" 57106 1.31837712793932e-08 1.65677286279564e-09 2.06449519934744e-09 3.43087974461421e-09 1.01853588448491e-07 1.18863774392715e-07 3.8694740116213e-08 1.40082277278992e-07
"2445" 57107 1.3192927347387e-08 1.65652417376106e-09 2.06494104624884e-09 3.39148753407083e-09 1.00398703111966e-07 1.19123882683546e-07 3.85382591855407e-08 1.39145835271291e-07
"2446" 57108 1.32020834153808e-08 1.65627548472647e-09 2.06538689315025e-09 3.35209532352745e-09 9.8943817775441e-08 1.19383990974378e-07 3.83817782548684e-08 1.3820939326359e-07
"2447" 57109 1.32112394833746e-08 1.65602679569189e-09 2.06583274005166e-09 3.31270311298407e-09 9.7488932438916e-08 1.19644099265209e-07 3.82252973241961e-08 1.37272951255889e-07
"2448" 57110 1.32203955513684e-08 1.6557781066573e-09 2.06627858695306e-09 3.27331090244069e-09 9.60340471023911e-08 1.19904207556041e-07 3.80688163935239e-08 1.36336509248188e-07
"2449" 57111 1.32295516193622e-08 1.65552941762272e-09 2.06672443385447e-09 3.23391869189731e-09 9.45791617658661e-08 1.20164315846872e-07 3.79123354628516e-08 1.35400067240487e-07
"2450" 57112 1.3238707687356e-08 1.65528072858813e-09 2.06717028075587e-09 3.19452648135393e-09 9.31242764293411e-08 1.20424424137704e-07 3.77558545321793e-08 1.34463625232786e-07
"2451" 57113 1.32478637553498e-08 1.65503203955355e-09 2.06761612765728e-09 3.15513427081055e-09 9.16693910928161e-08 1.20684532428535e-07 3.75993736015071e-08 1.33527183225085e-07
"2452" 57114 1.32570198233436e-08 1.65478335051897e-09 2.06806197455869e-09 3.11574206026717e-09 9.02145057562911e-08 1.20944640719366e-07 3.74428926708348e-08 1.32590741217384e-07
"2453" 57115 1.32523525334047e-08 1.65744290879472e-09 2.06806197455869e-09 3.07727676877832e-09 8.88680305324824e-08 1.21613094926394e-07 3.72662151463967e-08 1.31663453948188e-07
"2454" 57116 1.32476852434657e-08 1.66010246707048e-09 2.06806197455869e-09 3.03881147728946e-09 8.75215553086736e-08 1.22281549133422e-07 3.70895376219587e-08 1.30736166678991e-07
"2455" 57117 1.32559487520391e-08 1.66010246707048e-09 2.08235579772279e-09 3.05997086975182e-09 8.85819260887205e-08 1.22591613470346e-07 3.6937936931436e-08 1.29783393809716e-07
"2456" 57118 1.32642122606125e-08 1.66010246707048e-09 2.09664962088689e-09 3.08113026221418e-09 8.96422968687675e-08 1.2290167780727e-07 3.67863362409134e-08 1.28830620940441e-07
"2457" 57119 1.32724757691859e-08 1.66010246707048e-09 2.11094344405099e-09 3.10228965467654e-09 9.07026676488144e-08 1.23211742144194e-07 3.66347355503908e-08 1.27877848071166e-07
"2458" 57120 1.32807392777593e-08 1.66010246707048e-09 2.12523726721509e-09 3.1234490471389e-09 9.17630384288614e-08 1.23521806481118e-07 3.64831348598682e-08 1.26925075201891e-07
"2459" 57121 1.32890027863327e-08 1.66010246707048e-09 2.13953109037919e-09 3.14460843960126e-09 9.28234092089083e-08 1.23831870818041e-07 3.63315341693456e-08 1.25972302332616e-07
"2460" 57122 1.32972662949062e-08 1.66010246707048e-09 2.15382491354329e-09 3.16576783206362e-09 9.38837799889553e-08 1.24141935154965e-07 3.6179933478823e-08 1.25019529463341e-07
"2461" 57123 1.33055298034796e-08 1.66010246707048e-09 2.16811873670739e-09 3.18692722452598e-09 9.49441507690022e-08 1.24451999491889e-07 3.60283327883003e-08 1.24066756594066e-07
"2462" 57124 1.3313793312053e-08 1.66010246707048e-09 2.18241255987149e-09 3.20808661698834e-09 9.60045215490492e-08 1.24762063828813e-07 3.58767320977777e-08 1.23113983724791e-07
"2463" 57125 1.33220568206264e-08 1.66010246707048e-09 2.19670638303559e-09 3.2292460094507e-09 9.70648923290961e-08 1.25072128165737e-07 3.57251314072551e-08 1.22161210855516e-07
"2464" 57126 1.33303203291998e-08 1.66010246707048e-09 2.21100020619969e-09 3.25040540191306e-09 9.8125263109143e-08 1.25382192502661e-07 3.55735307167325e-08 1.21208437986241e-07
"2465" 57127 1.33385838377732e-08 1.66010246707048e-09 2.22529402936379e-09 3.27156479437542e-09 9.918563388919e-08 1.25692256839585e-07 3.54219300262099e-08 1.20255665116966e-07
"2466" 57128 1.33075194151573e-08 1.63416455487964e-09 2.23914200562649e-09 3.31073595766316e-09 1.01534667837179e-07 1.25975228406201e-07 3.54196769147391e-08 1.20164294914315e-07
"2467" 57129 1.3260265537263e-08 1.63482910068657e-09 2.25343582879059e-09 3.37164513942633e-09 1.03989107711982e-07 1.25359134508477e-07 3.53284630533934e-08 1.19985229333179e-07
"2468" 57130 1.3265975776289e-08 1.6337486981073e-09 2.26772965195469e-09 3.4309168874781e-09 1.06293868360228e-07 1.25340475789975e-07 3.52851671932945e-08 1.19676980324736e-07
"2469" 57131 1.3271686015315e-08 1.63266829552802e-09 2.28202347511879e-09 3.49018863552987e-09 1.08598629008474e-07 1.25321817071473e-07 3.52418713331955e-08 1.19368731316293e-07
"2470" 57132 1.3277396254341e-08 1.63158789294875e-09 2.29631729828289e-09 3.54946038358164e-09 1.10903389656719e-07 1.2530315835297e-07 3.51985754730965e-08 1.19060482307849e-07
"2471" 57133 1.3283106493367e-08 1.63050749036947e-09 2.31061112144699e-09 3.60873213163341e-09 1.13208150304965e-07 1.25284499634468e-07 3.51552796129976e-08 1.18752233299406e-07
"2472" 57134 1.3288816732393e-08 1.62942708779019e-09 2.32490494461109e-09 3.66800387968518e-09 1.15512910953211e-07 1.25265840915965e-07 3.51119837528986e-08 1.18443984290963e-07
"2473" 57135 1.3294526971419e-08 1.62834668521092e-09 2.33919876777519e-09 3.72727562773695e-09 1.17817671601456e-07 1.25247182197463e-07 3.50686878927996e-08 1.18135735282519e-07
"2474" 57136 1.3300237210445e-08 1.62726628263164e-09 2.35349259093929e-09 3.78654737578872e-09 1.20122432249702e-07 1.2522852347896e-07 3.50253920327007e-08 1.17827486274076e-07
"2475" 57137 1.33108895377905e-08 1.64422251356864e-09 2.40003534948695e-09 3.79936913961834e-09 1.19932099230876e-07 1.24871024076713e-07 3.49874751658686e-08 1.17630734775367e-07
"2476" 57138 1.33036689783041e-08 1.64289342195478e-09 2.39939868153649e-09 3.82980236548393e-09 1.20274465338991e-07 1.24837411077108e-07 3.49367415259685e-08 1.17359121117976e-07
"2477" 57139 1.32964484188178e-08 1.64156433034092e-09 2.39876201358603e-09 3.86023559134953e-09 1.20616831447105e-07 1.24803798077503e-07 3.48860078860685e-08 1.17087507460584e-07
"2478" 57140 1.32892278593314e-08 1.64023523872706e-09 2.39812534563557e-09 3.89066881721513e-09 1.20959197555219e-07 1.24770185077898e-07 3.48352742461685e-08 1.16815893803193e-07
"2479" 57141 1.32820072998451e-08 1.6389061471132e-09 2.39748867768511e-09 3.92110204308073e-09 1.21301563663333e-07 1.24736572078294e-07 3.47845406062685e-08 1.16544280145802e-07
"2480" 57142 1.31889925438815e-08 1.63657817421689e-09 2.37843024679964e-09 3.95317270265772e-09 1.21848493493762e-07 1.24410467818424e-07 3.47525943346968e-08 1.16540260511772e-07
"2481" 57143 1.3095977787918e-08 1.63425020132058e-09 2.35937181591418e-09 3.98524336223472e-09 1.22395423324191e-07 1.24084363558554e-07 3.4720648063125e-08 1.16536240877743e-07
"2482" 57144 1.30029630319544e-08 1.63192222842427e-09 2.34031338502871e-09 4.01731402181172e-09 1.22942353154619e-07 1.23758259298684e-07 3.46887017915533e-08 1.16532221243714e-07
"2483" 57145 1.29099482759909e-08 1.62959425552796e-09 2.32125495414324e-09 4.04938468138871e-09 1.23489282985048e-07 1.23432155038814e-07 3.46567555199815e-08 1.16528201609684e-07
"2484" 57146 1.28169335200273e-08 1.62726628263164e-09 2.30219652325777e-09 4.08145534096571e-09 1.24036212815477e-07 1.23106050778945e-07 3.46248092484098e-08 1.16524181975655e-07
"2485" 57147 1.27239187640638e-08 1.62493830973533e-09 2.2831380923723e-09 4.11352600054271e-09 1.24583142645906e-07 1.22779946519075e-07 3.45928629768381e-08 1.16520162341626e-07
"2486" 57148 1.26783169359788e-08 1.6199521536113e-09 2.28250142442185e-09 4.12827683251925e-09 1.25049784050897e-07 1.22666711114288e-07 3.4257083208011e-08 1.16427253058474e-07
"2487" 57149 1.26327151078939e-08 1.61496599748727e-09 2.28186475647139e-09 4.14302766449579e-09 1.25516425455888e-07 1.22553475709502e-07 3.39213034391839e-08 1.16334343775321e-07
"2488" 57150 1.25912450340956e-08 1.61230781425955e-09 2.28552604552674e-09 4.12563724971545e-09 1.26368244170217e-07 1.22116531995643e-07 3.35778277915539e-08 1.16211138543313e-07
"2489" 57151 1.25731114099921e-08 1.61488447619045e-09 2.29306024850064e-09 4.11152170235791e-09 1.26334817725699e-07 1.21678795628717e-07 3.3223234582328e-08 1.16087047399331e-07
"2490" 57152 1.25549777858886e-08 1.61746113812134e-09 2.30059445147455e-09 4.09740615500036e-09 1.26301391281181e-07 1.2124105926179e-07 3.28686413731021e-08 1.15962956255348e-07
"2491" 57153 1.2536844161785e-08 1.62003780005224e-09 2.30812865444845e-09 4.08329060764282e-09 1.26267964836663e-07 1.20803322894863e-07 3.25140481638763e-08 1.15838865111366e-07
"2492" 57154 1.25187105376815e-08 1.62261446198314e-09 2.31566285742236e-09 4.06917506028527e-09 1.26234538392145e-07 1.20365586527936e-07 3.21594549546504e-08 1.15714773967384e-07
"2493" 57155 1.2500576913578e-08 1.62519112391403e-09 2.32319706039627e-09 4.05505951292773e-09 1.26201111947627e-07 1.1992785016101e-07 3.18048617454246e-08 1.15590682823401e-07
"2494" 57156 1.24824432894744e-08 1.62776778584493e-09 2.33073126337017e-09 4.04094396557018e-09 1.26167685503109e-07 1.19490113794083e-07 3.14502685361987e-08 1.15466591679419e-07
"2495" 57157 1.24643096653709e-08 1.63034444777582e-09 2.33826546634408e-09 4.02682841821264e-09 1.26134259058591e-07 1.19052377427156e-07 3.10956753269728e-08 1.15342500535437e-07
"2496" 57158 1.24461760412674e-08 1.63292110970672e-09 2.34579966931798e-09 4.01271287085509e-09 1.26100832614073e-07 1.18614641060229e-07 3.0741082117747e-08 1.15218409391454e-07
"2497" 57159 1.26151884432481e-08 1.62751909681034e-09 2.34502508653427e-09 3.99667754106659e-09 1.26014145328037e-07 1.18219334235862e-07 3.04205868155033e-08 1.15109523611518e-07
"2498" 57160 1.27842008452288e-08 1.62211708391397e-09 2.34425050375056e-09 3.98064221127810e-09 1.25927458042e-07 1.17824027411494e-07 3.01000915132597e-08 1.15000637831581e-07
"2499" 57161 1.29532132472095e-08 1.61671507101759e-09 2.34347592096685e-09 3.9646068814896e-09 1.25840770755963e-07 1.17428720587127e-07 2.97795962110161e-08 1.14891752051644e-07
"2500" 57162 1.31222256491902e-08 1.61131305812121e-09 2.34270133818314e-09 3.9485715517011e-09 1.25754083469927e-07 1.17033413762759e-07 2.94591009087724e-08 1.14782866271708e-07
"2501" 57163 1.32125821887924e-08 1.60998259145932e-09 2.34079133433176e-09 3.94202181685551e-09 1.25598153589756e-07 1.16751342343178e-07 2.94931988157547e-08 1.14741440153888e-07
"2502" 57164 1.33029387283945e-08 1.60865212479742e-09 2.33888133048039e-09 3.93547208200991e-09 1.25442223709585e-07 1.16469270923597e-07 2.95272967227369e-08 1.14700014036068e-07
"2503" 57165 1.35037296005274e-08 1.60865212479742e-09 2.33766090079527e-09 3.93511914611047e-09 1.25372419085274e-07 1.16390316597102e-07 2.92331948214886e-08 1.14093139901712e-07
"2504" 57166 1.37045204726604e-08 1.60865212479742e-09 2.33644047111015e-09 3.93476621021103e-09 1.25302614460962e-07 1.16311362270606e-07 2.89390929202403e-08 1.13486265767355e-07
"2505" 57167 1.39053113447933e-08 1.60865212479742e-09 2.33522004142504e-09 3.93441327431158e-09 1.25232809836651e-07 1.16232407944111e-07 2.86449910189921e-08 1.12879391632999e-07
"2506" 57168 1.41061022169262e-08 1.60865212479742e-09 2.33399961173992e-09 3.93406033841214e-09 1.25163005212339e-07 1.16153453617615e-07 2.83508891177438e-08 1.12272517498642e-07
"2507" 57169 1.43068930890591e-08 1.60865212479742e-09 2.3327791820548e-09 3.93370740251269e-09 1.25093200588028e-07 1.1607449929112e-07 2.80567872164955e-08 1.11665643364286e-07
"2508" 57170 1.4507683961192e-08 1.60865212479742e-09 2.33155875236968e-09 3.93335446661325e-09 1.25023395963717e-07 1.15995544964624e-07 2.77626853152472e-08 1.11058769229929e-07
"2509" 57171 1.47084748333249e-08 1.60865212479742e-09 2.33033832268457e-09 3.93300153071381e-09 1.24953591339405e-07 1.15916590638129e-07 2.7468583413999e-08 1.10451895095573e-07
"2510" 57172 1.49092657054578e-08 1.60865212479742e-09 2.32911789299945e-09 3.93264859481436e-09 1.24883786715094e-07 1.15837636311633e-07 2.71744815127507e-08 1.09845020961216e-07
"2511" 57173 1.4900109637464e-08 1.61039707318362e-09 2.32867204609804e-09 3.94547035864398e-09 1.24806755583799e-07 1.15795955126544e-07 2.68696912139962e-08 1.09325264652034e-07
"2512" 57174 1.48909535694702e-08 1.61214202156983e-09 2.32822619919664e-09 3.9582921224736e-09 1.24729724452504e-07 1.15754273941455e-07 2.65649009152418e-08 1.08805508342852e-07
"2513" 57175 1.48769516996534e-08 1.61546612565252e-09 2.32778035229523e-09 3.95658410158231e-09 1.24840032980565e-07 1.15855699373407e-07 2.62478186686071e-08 1.08882831473052e-07
"2514" 57176 1.48629498298366e-08 1.6187902297352e-09 2.32733450539383e-09 3.95487608069103e-09 1.24950341508625e-07 1.1595712480536e-07 2.59307364219725e-08 1.08960154603253e-07
"2515" 57177 1.48489479600197e-08 1.62211433381789e-09 2.32688865849242e-09 3.95316805979974e-09 1.25060650036686e-07 1.16058550237312e-07 2.56136541753378e-08 1.09037477733454e-07
"2516" 57178 1.48349460902029e-08 1.62543843790058e-09 2.32644281159102e-09 3.95146003890845e-09 1.25170958564746e-07 1.16159975669265e-07 2.52965719287031e-08 1.09114800863655e-07
"2517" 57179 1.48209442203861e-08 1.62876254198326e-09 2.32599696468961e-09 3.94975201801716e-09 1.25281267092806e-07 1.16261401101217e-07 2.49794896820685e-08 1.09192123993855e-07
"2518" 57180 1.48069423505693e-08 1.63208664606595e-09 2.3255511177882e-09 3.94804399712588e-09 1.25391575620867e-07 1.1636282653317e-07 2.46624074354338e-08 1.09269447124056e-07
"2519" 57181 1.47929404807524e-08 1.63541075014864e-09 2.3251052708868e-09 3.94633597623459e-09 1.25501884148927e-07 1.16464251965122e-07 2.43453251887991e-08 1.09346770254257e-07
"2520" 57182 1.47789386109356e-08 1.63873485423133e-09 2.32465942398539e-09 3.9446279553433e-09 1.25612192676987e-07 1.16565677397075e-07 2.40282429421645e-08 1.09424093384458e-07
"2521" 57183 1.47649367411188e-08 1.64205895831401e-09 2.32421357708399e-09 3.94291993445202e-09 1.25722501205048e-07 1.16667102829027e-07 2.37111606955298e-08 1.09501416514659e-07
"2522" 57184 1.47509348713019e-08 1.6453830623967e-09 2.32376773018258e-09 3.94121191356073e-09 1.25832809733108e-07 1.1676852826098e-07 2.33940784488952e-08 1.09578739644859e-07
"2523" 57185 1.47369330014851e-08 1.64870716647939e-09 2.32332188328117e-09 3.93950389266944e-09 1.25943118261168e-07 1.16869953692932e-07 2.30769962022605e-08 1.0965606277506e-07
"2524" 57186 1.47295339301147e-08 1.6409771806867e-09 2.31578768030727e-09 3.93779587177815e-09 1.2612763526167e-07 1.16884622386497e-07 2.30826970685946e-08 1.10287680985848e-07
"2525" 57187 1.47018872142492e-08 1.64155745510073e-09 2.30356257964195e-09 3.92040545699781e-09 1.26313606056561e-07 1.1697478134992e-07 2.30905002384199e-08 1.10927617214268e-07
"2526" 57188 1.46848473828765e-08 1.63382746930804e-09 2.30242715857428e-09 3.91976552952083e-09 1.2625492304858e-07 1.16385122278585e-07 2.28878789247032e-08 1.11077774696615e-07
"2527" 57189 1.46678075515037e-08 1.62609748351535e-09 2.30129173750662e-09 3.91912560204384e-09 1.261962400406e-07 1.1579546320725e-07 2.26852576109864e-08 1.11227932178961e-07
"2528" 57190 1.4650767720131e-08 1.61836749772266e-09 2.30015631643895e-09 3.91848567456686e-09 1.26137557032619e-07 1.15205804135915e-07 2.24826362972697e-08 1.11378089661308e-07
"2529" 57191 1.46337278887583e-08 1.61063751192997e-09 2.29902089537128e-09 3.91784574708988e-09 1.26078874024639e-07 1.1461614506458e-07 2.22800149835529e-08 1.11528247143655e-07
"2530" 57192 1.46166880573856e-08 1.60290752613729e-09 2.29788547430362e-09 3.91720581961289e-09 1.26020191016658e-07 1.14026485993246e-07 2.20773936698362e-08 1.11678404626001e-07
"2531" 57193 1.45996482260129e-08 1.5951775403446e-09 2.29675005323595e-09 3.91656589213591e-09 1.25961508008678e-07 1.13436826921911e-07 2.18747723561194e-08 1.11828562108348e-07
"2532" 57194 1.45826083946401e-08 1.58744755455191e-09 2.29561463216829e-09 3.91592596465892e-09 1.25902825000697e-07 1.12847167850576e-07 2.16721510424027e-08 1.11978719590695e-07
"2533" 57195 1.45723130910629e-08 1.57647636102139e-09 2.29492505800203e-09 3.91664112217378e-09 1.25709765920143e-07 1.12040417375284e-07 2.14695297286859e-08 1.12018095134993e-07
"2534" 57196 1.45620177874856e-08 1.56550516749088e-09 2.29423548383577e-09 3.91735627968864e-09 1.25516706839589e-07 1.11233666899991e-07 2.12669084149692e-08 1.12057470679292e-07
"2535" 57197 1.45517224839083e-08 1.55453397396036e-09 2.29354590966951e-09 3.9180714372035e-09 1.25323647759034e-07 1.10426916424699e-07 2.10642871012524e-08 1.1209684622359e-07
"2536" 57198 1.45588467568983e-08 1.55187304063657e-09 2.29285633550325e-09 3.91615165477255e-09 1.25375030156539e-07 1.0944595763435e-07 2.0978603041153e-08 1.12691258372123e-07
"2537" 57199 1.45627999993009e-08 1.55195593698143e-09 2.29407676518836e-09 3.9174361525845e-09 1.25405167668384e-07 1.0914804146581e-07 2.07457723693315e-08 1.12606749563926e-07
"2538" 57200 1.45667532417035e-08 1.55203883332629e-09 2.29529719487348e-09 3.91872065039646e-09 1.25435305180229e-07 1.08850125297271e-07 2.05129416975099e-08 1.12522240755728e-07
"2539" 57201 1.45707064841061e-08 1.55212172967115e-09 2.2965176245586e-09 3.92000514820841e-09 1.25465442692074e-07 1.08552209128731e-07 2.02801110256884e-08 1.12437731947531e-07
"2540" 57202 1.46056646451633e-08 1.55345219633305e-09 2.29909639876208e-09 3.92783938086596e-09 1.2544543927599e-07 1.08347141318776e-07 2.00394771840415e-08 1.1177041030379e-07
"2541" 57203 1.46102724311409e-08 1.55353509267791e-09 2.30100640261346e-09 3.92819695962339e-09 1.25440186128611e-07 1.08058817265843e-07 1.98787772042406e-08 1.11214136607768e-07
"2542" 57204 1.46148802171184e-08 1.55361798902277e-09 2.30291640646484e-09 3.92855453838082e-09 1.25434932981232e-07 1.0777049321291e-07 1.97180772244397e-08 1.10657862911745e-07
"2543" 57205 1.4619488003096e-08 1.55370088536763e-09 2.30482641031621e-09 3.92891211713825e-09 1.25429679833852e-07 1.07482169159978e-07 1.95573772446389e-08 1.10101589215722e-07
"2544" 57206 1.46240957890736e-08 1.55378378171249e-09 2.30673641416759e-09 3.92926969589568e-09 1.25424426686473e-07 1.07193845107045e-07 1.9396677264838e-08 1.09545315519699e-07
"2545" 57207 1.46287035750512e-08 1.55386667805736e-09 2.30864641801897e-09 3.92962727465311e-09 1.25419173539094e-07 1.06905521054113e-07 1.92359772850371e-08 1.08989041823677e-07
"2546" 57208 1.46351646441486e-08 1.54056476153445e-09 2.29755673842131e-09 3.91658446356785e-09 1.25249406807296e-07 1.06841128382804e-07 1.93045094142149e-08 1.09107344694657e-07
"2547" 57209 1.46416257132459e-08 1.52726284501155e-09 2.28646705882366e-09 3.90354165248259e-09 1.25079640075498e-07 1.06776735711495e-07 1.93730415433927e-08 1.09225647565637e-07
"2548" 57210 1.46480867823433e-08 1.51396092848864e-09 2.275377379226e-09 3.89049884139734e-09 1.249098733437e-07 1.06712343040187e-07 1.94415736725705e-08 1.09343950436617e-07
"2549" 57211 1.46545478514407e-08 1.50065901196574e-09 2.26428769962835e-09 3.87745603031208e-09 1.24740106611902e-07 1.06647950368878e-07 1.95101058017483e-08 1.09462253307598e-07
"2550" 57212 1.4661008920538e-08 1.48735709544283e-09 2.2531980200307e-09 3.86441321922683e-09 1.24570339880104e-07 1.06583557697569e-07 1.95786379309262e-08 1.09580556178578e-07
"2551" 57213 1.46674699896354e-08 1.47405517891993e-09 2.24210834043304e-09 3.85137040814157e-09 1.24400573148307e-07 1.0651916502626e-07 1.9647170060104e-08 1.09698859049558e-07
"2552" 57214 1.46739310587327e-08 1.46075326239703e-09 2.23101866083539e-09 3.83832759705631e-09 1.24230806416509e-07 1.06454772354952e-07 1.97157021892818e-08 1.09817161920538e-07
"2553" 57215 1.46803921278301e-08 1.44745134587412e-09 2.21992898123773e-09 3.82528478597106e-09 1.24061039684711e-07 1.06390379683643e-07 1.97842343184596e-08 1.09935464791518e-07
"2554" 57216 1.46868531969275e-08 1.43414942935122e-09 2.20883930164008e-09 3.8122419748858e-09 1.23891272952913e-07 1.06325987012334e-07 1.98527664476374e-08 1.10053767662499e-07
"2555" 57217 1.46871507167343e-08 1.42783143151725e-09 2.19706004787616e-09 3.80882129024524e-09 1.23864923967626e-07 1.06336861310537e-07 1.98550398162164e-08 1.10057869281696e-07
"2556" 57218 1.46874482365411e-08 1.42151343368328e-09 2.18528079411225e-09 3.80540060560468e-09 1.23838574982339e-07 1.06347735608739e-07 1.98573131847954e-08 1.10061970900894e-07
"2557" 57219 1.4696961328303e-08 1.40812862081551e-09 2.17350154034834e-09 3.86096003458036e-09 1.25351974307762e-07 1.06476173532216e-07 1.99169750488859e-08 1.10736547467897e-07
"2558" 57220 1.4706474420065e-08 1.39474380794775e-09 2.16172228658442e-09 3.91651946355605e-09 1.26865373633185e-07 1.06604611455693e-07 1.99766369129764e-08 1.114111240349e-07
"2559" 57221 1.4715987511827e-08 1.38135899507998e-09 2.14994303282051e-09 3.97207889253173e-09 1.28378772958608e-07 1.0673304937917e-07 2.00362987770669e-08 1.12085700601903e-07
"2560" 57222 1.47083872071462e-08 1.37861516541132e-09 2.14437173991378e-09 4.04110929852999e-09 1.29708322214962e-07 1.06668443542282e-07 2.01103925945238e-08 1.11811510721602e-07
"2561" 57223 1.47007869024653e-08 1.37587133574267e-09 2.13880044700705e-09 4.11013970452825e-09 1.31037871471315e-07 1.06603837705394e-07 2.01844864119806e-08 1.11537320841301e-07
"2562" 57224 1.46931865977845e-08 1.37046932284629e-09 2.13966003840821e-09 4.1791701105265e-09 1.32440408542631e-07 1.06472523069594e-07 2.01974046611087e-08 1.12187041737612e-07
"2563" 57225 1.46855862931037e-08 1.36506730994991e-09 2.14051962980938e-09 4.24820051652476e-09 1.33842945613947e-07 1.06341208433793e-07 2.02103229102369e-08 1.12836762633923e-07
"2564" 57226 1.46779859884229e-08 1.35966529705354e-09 2.14137922121054e-09 4.31723092252302e-09 1.35245482685263e-07 1.06209893797993e-07 2.0223241159365e-08 1.13486483530234e-07
"2565" 57227 1.4670385683742e-08 1.35426328415716e-09 2.1422388126117e-09 4.38626132852128e-09 1.36648019756579e-07 1.06078579162193e-07 2.02361594084931e-08 1.14136204426545e-07
"2566" 57228 1.46627853790612e-08 1.34886127126078e-09 2.14309840401286e-09 4.45529173451953e-09 1.38050556827895e-07 1.05947264526393e-07 2.02490776576213e-08 1.14785925322856e-07
"2567" 57229 1.46551850743804e-08 1.34345925836441e-09 2.14395799541402e-09 4.52432214051779e-09 1.3945309389921e-07 1.05815949890593e-07 2.02619959067494e-08 1.15435646219167e-07
"2568" 57230 1.46475847696996e-08 1.33805724546803e-09 2.14481758681518e-09 4.59335254651605e-09 1.40855630970526e-07 1.05684635254793e-07 2.02749141558776e-08 1.16085367115478e-07
"2569" 57231 1.46399844650187e-08 1.33265523257165e-09 2.14567717821635e-09 4.66238295251431e-09 1.42258168041842e-07 1.05553320618993e-07 2.02878324050057e-08 1.16735088011789e-07
"2570" 57232 1.4621493817147e-08 1.34188147771596e-09 2.15099344527072e-09 4.70220332899501e-09 1.4198198536903e-07 1.05407836042745e-07 2.02477436456548e-08 1.16706708275209e-07
"2571" 57233 1.46030031692753e-08 1.35110772286027e-09 2.1563097123251e-09 4.7420237054757e-09 1.41705802696217e-07 1.05262351466498e-07 2.02076548863039e-08 1.16678328538629e-07
"2572" 57234 1.45845125214037e-08 1.36033396800458e-09 2.16162597937947e-09 4.7818440819564e-09 1.41429620023404e-07 1.0511686689025e-07 2.0167566126953e-08 1.1664994880205e-07
"2573" 57235 1.4566021873532e-08 1.36956021314889e-09 2.16694224643385e-09 4.8216644584371e-09 1.41153437350592e-07 1.04971382314002e-07 2.01274773676021e-08 1.1662156906547e-07
"2574" 57236 1.45475312256603e-08 1.3787864582932e-09 2.17225851348822e-09 4.8614848349178e-09 1.40877254677779e-07 1.04825897737755e-07 2.00873886082512e-08 1.1659318932889e-07
"2575" 57237 1.45290405777886e-08 1.38801270343751e-09 2.1775747805426e-09 4.90130521139850e-09 1.40601072004967e-07 1.04680413161507e-07 2.00472998489003e-08 1.16564809592311e-07
"2576" 57238 1.45105499299169e-08 1.39723894858182e-09 2.18289104759697e-09 4.94112558787919e-09 1.40324889332154e-07 1.04534928585259e-07 2.00072110895494e-08 1.16536429855731e-07
"2577" 57239 1.44920592820452e-08 1.40646519372613e-09 2.18820731465135e-09 4.98094596435989e-09 1.40048706659341e-07 1.04389444009011e-07 1.99671223301985e-08 1.16508050119151e-07
"2578" 57240 1.44740078833293e-08 1.40106318082976e-09 2.19749280282923e-09 5.00275457001521e-09 1.39854351136281e-07 1.04696052601712e-07 1.9959533742418e-08 1.16764117259765e-07
"2579" 57241 1.44559564846135e-08 1.39566116793338e-09 2.20677829100711e-09 5.02456317567052e-09 1.3965999561322e-07 1.05002661194412e-07 1.99519451546375e-08 1.17020184400378e-07
"2580" 57242 1.44379050858977e-08 1.390259155037e-09 2.21606377918499e-09 5.04637178132584e-09 1.3946564009016e-07 1.05309269787112e-07 1.9944356566857e-08 1.17276251540992e-07
"2581" 57243 1.44198536871818e-08 1.38485714214062e-09 2.22534926736286e-09 5.06818038698115e-09 1.39271284567099e-07 1.05615878379812e-07 1.99367679790764e-08 1.17532318681606e-07
"2582" 57244 1.44150078853588e-08 1.38485714214062e-09 2.23055972198564e-09 5.08956082669915e-09 1.38943963460124e-07 1.06205458539128e-07 1.99531311708462e-08 1.17651310700156e-07
"2583" 57245 1.4354644697068e-08 1.38211331247197e-09 2.24006813361422e-09 5.11136943235447e-09 1.39037081245289e-07 1.06175186844131e-07 1.95521220346874e-08 1.1713140316054e-07
"2584" 57246 1.42942815087773e-08 1.37936948280331e-09 2.2495765452428e-09 5.13317803800978e-09 1.39130199030455e-07 1.06144915149135e-07 1.91511128985287e-08 1.16611495620924e-07
"2585" 57247 1.42339183204865e-08 1.37662565313465e-09 2.25908495687138e-09 5.1549866436651e-09 1.3922331681562e-07 1.06114643454138e-07 1.87501037623699e-08 1.16091588081307e-07
"2586" 57248 1.41735551321958e-08 1.37388182346599e-09 2.26859336849997e-09 5.17679524932041e-09 1.39316434600786e-07 1.06084371759142e-07 1.83490946262111e-08 1.15571680541691e-07
"2587" 57249 1.4113191943905e-08 1.37113799379734e-09 2.27810178012855e-09 5.19860385497573e-09 1.39409552385951e-07 1.06054100064145e-07 1.79480854900523e-08 1.15051773002075e-07
"2588" 57250 1.40528287556143e-08 1.36839416412868e-09 2.28761019175713e-09 5.22041246063105e-09 1.39502670171116e-07 1.06023828369149e-07 1.75470763538935e-08 1.14531865462459e-07
"2589" 57251 1.39924655673235e-08 1.36565033446002e-09 2.29711860338571e-09 5.24222106628636e-09 1.39595787956282e-07 1.05993556674152e-07 1.71460672177347e-08 1.14011957922843e-07
"2590" 57252 1.39321023790328e-08 1.36290650479136e-09 2.3066270150143e-09 5.26402967194168e-09 1.39688905741447e-07 1.05963284979156e-07 1.67450580815759e-08 1.13492050383227e-07
"2591" 57253 1.3871739190742e-08 1.36016267512271e-09 2.31613542664288e-09 5.28583827759699e-09 1.39782023526613e-07 1.05933013284159e-07 1.63440489454171e-08 1.1297214284361e-07
"2592" 57254 1.38377731351282e-08 1.36207479124667e-09 2.31599751180963e-09 5.29054346004951e-09 1.39804679741699e-07 1.05311825728063e-07 1.58891686576378e-08 1.12176477206256e-07
"2593" 57255 1.38377731351282e-08 1.37038505145339e-09 2.32729881627049e-09 5.30913385688796e-09 1.398167772114e-07 1.05138180275667e-07 1.54341810788361e-08 1.12530443874014e-07
"2594" 57256 1.37988790523037e-08 1.36805707855708e-09 2.32729881627049e-09 5.3104889418798e-09 1.39850840630355e-07 1.04751343941879e-07 1.50407605304578e-08 1.11932425674425e-07
"2595" 57257 1.37599849694791e-08 1.36572910566077e-09 2.32729881627049e-09 5.31184402687165e-09 1.3988490404931e-07 1.0436450760809e-07 1.46473399820795e-08 1.11334407474836e-07
"2596" 57258 1.37818933241012e-08 1.36440001404691e-09 2.32729881627049e-09 5.30529429202605e-09 1.39911401241582e-07 1.03788847784869e-07 1.45440226828279e-08 1.1154122604814e-07
"2597" 57259 1.38038016787233e-08 1.36307092243305e-09 2.32729881627049e-09 5.29874455718046e-09 1.39937898433854e-07 1.03213187961648e-07 1.44407053835764e-08 1.11748044621444e-07
"2598" 57260 1.38257100333453e-08 1.36174183081919e-09 2.32729881627049e-09 5.29219482233487e-09 1.39964395626126e-07 1.02637528138427e-07 1.43373880843248e-08 1.11954863194748e-07
"2599" 57261 1.38476183879674e-08 1.36041273920533e-09 2.32729881627049e-09 5.28564508748927e-09 1.39990892818398e-07 1.02061868315206e-07 1.42340707850732e-08 1.12161681768052e-07
"2600" 57262 1.38695267425895e-08 1.35908364759147e-09 2.32729881627049e-09 5.27909535264368e-09 1.4001739001067e-07 1.01486208491985e-07 1.41307534858216e-08 1.12368500341356e-07
"2601" 57263 1.38914350972116e-08 1.35775455597761e-09 2.32729881627049e-09 5.27254561779808e-09 1.40043887202942e-07 1.00910548668764e-07 1.402743618657e-08 1.1257531891466e-07
"2602" 57264 1.39133434518336e-08 1.35642546436375e-09 2.32729881627049e-09 5.26599588295249e-09 1.40070384395214e-07 1.00334888845543e-07 1.39241188873185e-08 1.12782137487964e-07
"2603" 57265 1.39352518064557e-08 1.35509637274989e-09 2.32729881627049e-09 5.2594461481069e-09 1.40096881587486e-07 9.97592290223215e-08 1.38208015880669e-08 1.12988956061268e-07
"2604" 57266 1.39565424000379e-08 1.34212741665447e-09 2.3177904046419e-09 5.26016130562176e-09 1.40102261288985e-07 1.00046644160217e-07 1.38608903474178e-08 1.1290482119987e-07
"2605" 57267 1.39737012393333e-08 1.34121280676492e-09 2.31792831947516e-09 5.26108822467628e-09 1.40139359691606e-07 1.00301061313593e-07 1.38391018332023e-08 1.13029585094388e-07
"2606" 57268 1.39908600786287e-08 1.34029819687536e-09 2.31806623430841e-09 5.26201514373081e-09 1.40176458094227e-07 1.0055547846697e-07 1.38173133189869e-08 1.13154348988907e-07
"2607" 57269 1.40080189179242e-08 1.33938358698581e-09 2.31820414914166e-09 5.26294206278533e-09 1.40213556496848e-07 1.00809895620346e-07 1.37955248047714e-08 1.13279112883426e-07
"2608" 57270 1.40251777572196e-08 1.33846897709626e-09 2.31834206397491e-09 5.26386898183986e-09 1.40250654899468e-07 1.01064312773723e-07 1.3773736290556e-08 1.13403876777945e-07
"2609" 57271 1.40423365965151e-08 1.33755436720671e-09 2.31847997880816e-09 5.26479590089438e-09 1.40287753302089e-07 1.01318729927099e-07 1.37519477763405e-08 1.13528640672463e-07
"2610" 57272 1.40594954358105e-08 1.33663975731715e-09 2.31861789364142e-09 5.26572281994891e-09 1.4032485170471e-07 1.01573147080475e-07 1.37301592621251e-08 1.13653404566982e-07
"2611" 57273 1.4076654275106e-08 1.3357251474276e-09 2.31875580847467e-09 5.26664973900343e-09 1.40361950107331e-07 1.01827564233852e-07 1.37083707479096e-08 1.13778168461501e-07
"2612" 57274 1.40938131144014e-08 1.33481053753805e-09 2.31889372330792e-09 5.26757665805796e-09 1.40399048509952e-07 1.02081981387228e-07 1.36865822336942e-08 1.1390293235602e-07
"2613" 57275 1.41109719536968e-08 1.3338959276485e-09 2.31903163814117e-09 5.26850357711248e-09 1.40436146912572e-07 1.02336398540604e-07 1.36647937194787e-08 1.14027696250538e-07
"2614" 57276 1.41281307929923e-08 1.33298131775894e-09 2.31916955297442e-09 5.26943049616701e-09 1.40473245315193e-07 1.02590815693981e-07 1.36430052052633e-08 1.14152460145057e-07
"2615" 57277 1.41452896322877e-08 1.33206670786939e-09 2.31930746780768e-09 5.27035741522153e-09 1.40510343717814e-07 1.02845232847357e-07 1.36212166910478e-08 1.14277224039576e-07
"2616" 57278 1.41624484715832e-08 1.33115209797984e-09 2.31944538264093e-09 5.27128433427606e-09 1.40547442120435e-07 1.03099650000734e-07 1.35994281768324e-08 1.14401987934095e-07
"2617" 57279 1.41796073108786e-08 1.33023748809029e-09 2.31958329747418e-09 5.27221125333059e-09 1.40584540523055e-07 1.0335406715411e-07 1.35776396626169e-08 1.14526751828613e-07
"2618" 57280 1.41967661501741e-08 1.32932287820073e-09 2.31972121230743e-09 5.27313817238511e-09 1.40621638925676e-07 1.03608484307486e-07 1.35558511484015e-08 1.14651515723132e-07
"2619" 57281 1.42139249894695e-08 1.32973873497308e-09 2.31972121230743e-09 5.27385332989997e-09 1.40614698846998e-07 1.0367250280006e-07 1.36042041287001e-08 1.13985365583045e-07
"2620" 57282 1.4231083828765e-08 1.33015459174542e-09 2.31972121230743e-09 5.27456848741483e-09 1.40607758768319e-07 1.03736521292634e-07 1.36525571089986e-08 1.13319215442958e-07
"2621" 57283 1.41094389118102e-08 1.33888345882057e-09 2.34386348156992e-09 5.28739953696042e-09 1.40236569039895e-07 1.04348651925014e-07 1.36497037683505e-08 1.12451139063512e-07
"2622" 57284 1.40453658977533e-08 1.33422751302794e-09 2.34272806050225e-09 5.28718777542075e-09 1.3988739855212e-07 1.04272101861731e-07 1.36441797820664e-08 1.11697208374797e-07
"2623" 57285 1.39812928836965e-08 1.32957156723532e-09 2.34159263943459e-09 5.28697601388109e-09 1.39538228064346e-07 1.04195551798447e-07 1.36386557957822e-08 1.10943277686081e-07
"2624" 57286 1.39172198696397e-08 1.32491562144269e-09 2.34045721836692e-09 5.28676425234142e-09 1.39189057576571e-07 1.04119001735164e-07 1.36331318094981e-08 1.10189346997365e-07
"2625" 57287 1.38531468555828e-08 1.32025967565007e-09 2.33932179729926e-09 5.28655249080175e-09 1.38839887088796e-07 1.04042451671881e-07 1.36276078232139e-08 1.0943541630865e-07
"2626" 57288 1.3789073841526e-08 1.31560372985744e-09 2.33818637623159e-09 5.28634072926209e-09 1.38490716601022e-07 1.03965901608598e-07 1.36220838369298e-08 1.08681485619934e-07
"2627" 57289 1.37250008274691e-08 1.31094778406482e-09 2.33705095516392e-09 5.28612896772242e-09 1.38141546113247e-07 1.03889351545314e-07 1.36165598506456e-08 1.07927554931219e-07
"2628" 57290 1.36609278134123e-08 1.3062918382722e-09 2.33591553409626e-09 5.28591720618276e-09 1.37792375625472e-07 1.03812801482031e-07 1.36110358643615e-08 1.07173624242503e-07
"2629" 57291 1.35360523619088e-08 1.30296635914147e-09 2.34700521369391e-09 5.28527727870577e-09 1.37454570717371e-07 1.03681825041781e-07 1.36318703892996e-08 1.06374247801938e-07
"2630" 57292 1.34111769104054e-08 1.29964088001074e-09 2.35809489329157e-09 5.28463735122879e-09 1.37116765809269e-07 1.03550848601531e-07 1.36527049142377e-08 1.05574871361374e-07
"2631" 57293 1.3286301458902e-08 1.29631540088002e-09 2.36918457288922e-09 5.2839974237518e-09 1.36778960901168e-07 1.03419872161281e-07 1.36735394391758e-08 1.04775494920809e-07
"2632" 57294 1.31614260073985e-08 1.29298992174929e-09 2.38027425248687e-09 5.28335749627482e-09 1.36441155993066e-07 1.03288895721031e-07 1.36943739641139e-08 1.03976118480244e-07
"2633" 57295 1.30365505558951e-08 1.28966444261857e-09 2.39136393208453e-09 5.28271756879783e-09 1.36103351084965e-07 1.03157919280781e-07 1.37152084890519e-08 1.03176742039679e-07
"2634" 57296 1.29116751043916e-08 1.28633896348784e-09 2.40245361168218e-09 5.28207764132085e-09 1.35765546176864e-07 1.03026942840531e-07 1.373604301399e-08 1.02377365599115e-07
"2635" 57297 1.27867996528882e-08 1.28301348435711e-09 2.41354329127984e-09 5.28143771384387e-09 1.35427741268762e-07 1.02895966400281e-07 1.37568775389281e-08 1.0157798915855e-07
"2636" 57298 1.26619242013847e-08 1.27968800522639e-09 2.42463297087749e-09 5.28079778636688e-09 1.35089936360661e-07 1.02764989960031e-07 1.37777120638662e-08 1.00778612717985e-07
"2637" 57299 1.25370487498813e-08 1.27636252609566e-09 2.43572265047515e-09 5.2801578588899e-09 1.34752131452559e-07 1.02634013519781e-07 1.37985465888043e-08 9.99792362774205e-08
"2638" 57300 1.24121732983779e-08 1.27303704696494e-09 2.4468123300728e-09 5.27951793141291e-09 1.34414326544458e-07 1.02503037079531e-07 1.38193811137424e-08 9.91798598368558e-08
"2639" 57301 1.22872978468744e-08 1.26971156783421e-09 2.45790200967045e-09 5.27887800393593e-09 1.34076521636356e-07 1.02372060639281e-07 1.38402156386805e-08 9.8380483396291e-08
"2640" 57302 1.2162422395371e-08 1.26638608870348e-09 2.46899168926811e-09 5.27823807645894e-09 1.33738716728255e-07 1.02241084199032e-07 1.38610501636186e-08 9.75811069557263e-08
"2641" 57303 1.18845855273427e-08 1.26771655536538e-09 2.45816833411031e-09 5.2768829914671e-09 1.33384772715655e-07 1.02155850935178e-07 1.38804638331948e-08 9.70361437960382e-08
"2642" 57304 1.18615465974548e-08 1.26771655536538e-09 2.36918815961091e-09 5.25507438581178e-09 1.33395331461042e-07 1.02183585024578e-07 1.38099134316994e-08 9.69770709246633e-08
"2643" 57305 1.18543628205035e-08 1.26863116525493e-09 2.38141326027623e-09 5.25229362864821e-09 1.33213032624253e-07 1.01930236432629e-07 1.38264418735948e-08 9.70029140745074e-08
"2644" 57306 1.18471790435522e-08 1.26954577514449e-09 2.39363836094155e-09 5.24951287148463e-09 1.33030733787465e-07 1.01676887840681e-07 1.38429703154901e-08 9.70287572243515e-08
"2645" 57307 1.18399952666009e-08 1.27046038503404e-09 2.40586346160687e-09 5.24673211432106e-09 1.32848434950677e-07 1.01423539248732e-07 1.38594987573855e-08 9.70546003741955e-08
"2646" 57308 1.18328114896496e-08 1.27137499492359e-09 2.41808856227219e-09 5.24395135715748e-09 1.32666136113889e-07 1.01170190656783e-07 1.38760271992809e-08 9.70804435240396e-08
"2647" 57309 1.18256277126983e-08 1.27228960481314e-09 2.43031366293751e-09 5.2411705999939e-09 1.32483837277101e-07 1.00916842064834e-07 1.38925556411763e-08 9.71062866738837e-08
"2648" 57310 1.1818443935747e-08 1.2732042147027e-09 2.44253876360283e-09 5.23838984283033e-09 1.32301538440313e-07 1.00663493472886e-07 1.39090840830717e-08 9.71321298237278e-08
"2649" 57311 1.18112601587957e-08 1.27411882459225e-09 2.45476386426815e-09 5.23560908566675e-09 1.32119239603525e-07 1.00410144880937e-07 1.3925612524967e-08 9.71579729735719e-08
"2650" 57312 1.18149667250353e-08 1.27702707190259e-09 2.46229806724206e-09 5.23816879557469e-09 1.31903969769607e-07 1.00517573341888e-07 1.39347031870614e-08 9.71122812662174e-08
"2651" 57313 1.18186732912748e-08 1.27993531921293e-09 2.46983227021597e-09 5.24072850548263e-09 1.31688699935688e-07 1.0062500180284e-07 1.39437938491557e-08 9.70665895588629e-08
"2652" 57314 1.18223798575144e-08 1.28284356652327e-09 2.47736647318987e-09 5.24328821539057e-09 1.31473430101769e-07 1.00732430263791e-07 1.395288451125e-08 9.70208978515084e-08
"2653" 57315 1.1826086423754e-08 1.28575181383362e-09 2.48490067616378e-09 5.2458479252985e-09 1.31258160267851e-07 1.00839858724742e-07 1.39619751733444e-08 9.69752061441539e-08
"2654" 57316 1.18297929899935e-08 1.28866006114396e-09 2.49243487913768e-09 5.24840763520644e-09 1.31042890433932e-07 1.00947287185694e-07 1.39710658354387e-08 9.69295144367994e-08
"2655" 57317 1.18176444032965e-08 1.28866006114396e-09 2.49243487913768e-09 5.25367751509807e-09 1.31021285016475e-07 1.00194419127476e-07 1.39830417252138e-08 9.67989067082259e-08
"2656" 57318 1.18047222651017e-08 1.28533595706127e-09 2.48426400821332e-09 5.26707790494075e-09 1.31406502268473e-07 9.90568606263262e-08 1.39764883456626e-08 9.6981722728745e-08
"2657" 57319 1.1791800126907e-08 1.28201185297858e-09 2.47609313728895e-09 5.28047829478344e-09 1.31791719520472e-07 9.79193021251766e-08 1.39699349661114e-08 9.7164538749264e-08
"2658" 57320 1.17788779887123e-08 1.2786877488959e-09 2.46792226636459e-09 5.29387868462612e-09 1.32176936772471e-07 9.6781743624027e-08 1.39633815865601e-08 9.7347354769783e-08
"2659" 57321 1.17659558505175e-08 1.27536364481321e-09 2.45975139544022e-09 5.30727907446881e-09 1.3256215402447e-07 9.56441851228774e-08 1.39568282070089e-08 9.75301707903021e-08
"2660" 57322 1.17530337123228e-08 1.27203954073052e-09 2.45158052451586e-09 5.32067946431149e-09 1.32947371276469e-07 9.45066266217279e-08 1.39502748274576e-08 9.77129868108211e-08
"2661" 57323 1.17401115741281e-08 1.26871543664783e-09 2.44340965359149e-09 5.33407985415418e-09 1.33332588528467e-07 9.33690681205783e-08 1.39437214479064e-08 9.78958028313401e-08
"2662" 57324 1.17271894359334e-08 1.26539133256515e-09 2.43523878266713e-09 5.34748024399687e-09 1.33717805780466e-07 9.22315096194287e-08 1.39371680683552e-08 9.80786188518592e-08
"2663" 57325 1.17142672977386e-08 1.26206722848246e-09 2.42706791174276e-09 5.36088063383955e-09 1.34103023032465e-07 9.10939511182791e-08 1.39306146888039e-08 9.82614348723782e-08
"2664" 57326 1.17013451595439e-08 1.25874312439977e-09 2.4188970408184e-09 5.37428102368224e-09 1.34488240284464e-07 8.99563926171295e-08 1.39240613092527e-08 9.84442508928972e-08
"2665" 57327 1.16884230213492e-08 1.25541902031708e-09 2.41072616989403e-09 5.38768141352492e-09 1.34873457536463e-07 8.88188341159799e-08 1.39175079297015e-08 9.86270669134162e-08
"2666" 57328 1.16755008831544e-08 1.2520949162344e-09 2.40255529896967e-09 5.40108180336761e-09 1.35258674788461e-07 8.76812756148303e-08 1.39109545501502e-08 9.88098829339353e-08
"2667" 57329 1.16625787449597e-08 1.24877081215171e-09 2.3943844280453e-09 5.4144821932103e-09 1.3564389204046e-07 8.65437171136807e-08 1.3904401170599e-08 9.89926989544543e-08
"2668" 57330 1.1649656606765e-08 1.24544670806902e-09 2.38621355712094e-09 5.42788258305298e-09 1.36029109292459e-07 8.54061586125311e-08 1.38978477910477e-08 9.91755149749733e-08
"2669" 57331 1.1649656606765e-08 1.23206189520126e-09 2.38557688917048e-09 5.42682377535465e-09 1.35665930411673e-07 8.51776586296571e-08 1.387676098207e-08 9.94596534935024e-08
"2670" 57332 1.161516041629e-08 1.21867708233349e-09 2.33527653436253e-09 5.42682377535465e-09 1.35977596977765e-07 8.51648068549898e-08 1.38454149396756e-08 9.97375213829457e-08
"2671" 57333 1.15849885530945e-08 1.22399344878893e-09 2.28483826472132e-09 5.41378096426939e-09 1.36018663752458e-07 8.53776946128419e-08 1.38605660431662e-08 9.97219352299942e-08
"2672" 57334 1.15456606219053e-08 1.21102449269351e-09 2.2363099989315e-09 5.4009499147238e-09 1.36511665809936e-07 8.53523117230534e-08 1.39033138182287e-08 9.9667252754472e-08
"2673" 57335 1.15042781742858e-08 1.2003835094944e-09 2.18709215897541e-09 5.39218412015374e-09 1.36475266818045e-07 8.5351421255197e-08 1.3871683604762e-08 9.95696119227353e-08
"2674" 57336 1.14628957266663e-08 1.18974252629529e-09 2.13787431901932e-09 5.38341832558368e-09 1.36438867826154e-07 8.53505307873406e-08 1.38400533912953e-08 9.94719710909986e-08
"2675" 57337 1.14215132790468e-08 1.17910154309618e-09 2.08865647906323e-09 5.37465253101363e-09 1.36402468834263e-07 8.53496403194843e-08 1.38084231778287e-08 9.93743302592618e-08
"2676" 57338 1.13801308314274e-08 1.16846055989708e-09 2.03943863910714e-09 5.36588673644357e-09 1.36366069842372e-07 8.53487498516279e-08 1.3776792964362e-08 9.92766894275251e-08
"2677" 57339 1.11646186411502e-08 1.16322571473846e-09 2.03711489075601e-09 5.36888389800479e-09 1.36300032932521e-07 8.50864767671702e-08 1.37670701860575e-08 9.85177907896469e-08
"2678" 57340 1.0949106450873e-08 1.15799086957984e-09 2.03479114240488e-09 5.37188105956602e-09 1.3623399602267e-07 8.48242036827126e-08 1.37573474077531e-08 9.77588921517686e-08
"2679" 57341 1.08915345479751e-08 1.14968060937313e-09 2.02457235279588e-09 5.37124577494702e-09 1.35944157184512e-07 8.48233132148562e-08 1.37570632366807e-08 9.7640480871504e-08
"2680" 57342 1.08339626450772e-08 1.14137034916641e-09 2.01435356318689e-09 5.37061049032802e-09 1.35654318346355e-07 8.48224227469999e-08 1.37567790656083e-08 9.75220695912395e-08
"2681" 57343 1.07763907421793e-08 1.13306008895969e-09 2.0041347735779e-09 5.36997520570903e-09 1.35364479508198e-07 8.48215322791435e-08 1.3756494894536e-08 9.74036583109749e-08
"2682" 57344 1.07188188392814e-08 1.12474982875297e-09 1.9939159839689e-09 5.36933992109003e-09 1.35074640670041e-07 8.48206418112871e-08 1.37562107234636e-08 9.72852470307103e-08
"2683" 57345 1.06612469363835e-08 1.11643956854625e-09 1.98369719435991e-09 5.36870463647103e-09 1.34784801831883e-07 8.48197513434308e-08 1.37559265523912e-08 9.71668357504458e-08
"2684" 57346 1.06036750334855e-08 1.10812930833953e-09 1.97347840475091e-09 5.36806935185203e-09 1.34494962993726e-07 8.48188608755744e-08 1.37556423813188e-08 9.70484244701812e-08
"2685" 57347 1.05461031305876e-08 1.09981904813281e-09 1.96325961514192e-09 5.36743406723303e-09 1.34205124155569e-07 8.4817970407718e-08 1.37553582102465e-08 9.69300131899166e-08
"2686" 57348 1.04905857441199e-08 1.08942950406437e-09 1.95439917005130e-09 5.36679878261403e-09 1.33869739750328e-07 8.48089038048227e-08 1.37550740391741e-08 9.68660447996203e-08
"2687" 57349 1.04350683576522e-08 1.07903995999592e-09 1.94553872496067e-09 5.36616349799504e-09 1.33534355345088e-07 8.47998372019273e-08 1.37547898681017e-08 9.6802076409324e-08
"2688" 57350 1.03795509711844e-08 1.06865041592748e-09 1.93667827987005e-09 5.36552821337604e-09 1.33198970939847e-07 8.47907705990319e-08 1.37545056970293e-08 9.67381080190278e-08
"2689" 57351 1.03240335847167e-08 1.05826087185903e-09 1.92781783477942e-09 5.36489292875704e-09 1.32863586534606e-07 8.47817039961366e-08 1.37542215259569e-08 9.66741396287315e-08
"2690" 57352 1.0268516198249e-08 1.04787132779058e-09 1.91895738968880e-09 5.36425764413804e-09 1.32528202129366e-07 8.47726373932412e-08 1.37539373548846e-08 9.66101712384352e-08
"2691" 57353 1.02129988117812e-08 1.03748178372214e-09 1.91009694459817e-09 5.36362235951904e-09 1.32192817724125e-07 8.47635707903459e-08 1.37536531838122e-08 9.65462028481389e-08
"2692" 57354 1.01574814253135e-08 1.02709223965369e-09 1.90123649950755e-09 5.36298707490004e-09 1.31857433318885e-07 8.47545041874505e-08 1.37533690127398e-08 9.64822344578426e-08
"2693" 57355 1.01111201068396e-08 1.01645400655066e-09 1.88993519504669e-09 5.36769690021055e-09 1.31511543459653e-07 8.67004704363994e-08 1.37969693010195e-08 9.63801540391521e-08
"2694" 57356 1.00647587883657e-08 1.00581577344763e-09 1.87863389058583e-09 5.37240672552105e-09 1.31165653600421e-07 8.86464366853483e-08 1.38405695892991e-08 9.62780736204616e-08
"2695" 57357 1.00183974698917e-08 9.95177540344597e-10 1.86733258612497e-09 5.37711655083155e-09 1.30819763741189e-07 9.05924029342972e-08 1.38841698775788e-08 9.6175993201771e-08
"2696" 57358 9.97203615141782e-09 9.84539307241566e-10 1.85603128166411e-09 5.38182637614205e-09 1.30473873881957e-07 9.2538369183246e-08 1.39277701658584e-08 9.60739127830805e-08
"2697" 57359 9.9256748329439e-09 9.73901074138535e-10 1.84472997720325e-09 5.38653620145255e-09 1.30127984022725e-07 9.44843354321949e-08 1.39713704541381e-08 9.597183236439e-08
"2698" 57360 9.87931351446997e-09 9.63262841035504e-10 1.83342867274239e-09 5.39124602676305e-09 1.29782094163493e-07 9.64303016811438e-08 1.40149707424177e-08 9.58697519456994e-08
"2699" 57361 9.83295219599605e-09 9.52624607932474e-10 1.82212736828153e-09 5.39595585207355e-09 1.29436204304261e-07 9.83762679300927e-08 1.40585710306974e-08 9.57676715270089e-08
"2700" 57362 9.80117372584385e-09 9.50296635036162e-10 1.80926559966575e-09 5.40600614445557e-09 1.29221135127955e-07 1.00327818278119e-07 1.40329084097506e-08 9.5780704696191e-08
"2701" 57363 9.81238431026784e-09 9.42733816981234e-10 1.78558047589217e-09 5.40152665211667e-09 1.29172522938676e-07 1.01080338917196e-07 1.40072457888038e-08 9.54019146796528e-08
"2702" 57364 9.79998904740774e-09 9.4248512794665e-10 1.78004128538709e-09 5.40830207707589e-09 1.29122679265485e-07 1.02747760090393e-07 1.40478158563854e-08 9.45745424763897e-08
"2703" 57365 9.78759378454763e-09 9.42236438912066e-10 1.77450209488202e-09 5.41507750203511e-09 1.29072835592295e-07 1.0441518126359e-07 1.40883859239669e-08 9.37471702731266e-08
"2704" 57366 9.77519852168753e-09 9.41987749877482e-10 1.76896290437694e-09 5.42185292699433e-09 1.29022991919104e-07 1.06082602436787e-07 1.41289559915485e-08 9.29197980698635e-08
"2705" 57367 9.76280325882742e-09 9.41739060842898e-10 1.76342371387186e-09 5.42862835195354e-09 1.28973148245913e-07 1.07750023609983e-07 1.416952605913e-08 9.20924258666005e-08
"2706" 57368 9.75040799596731e-09 9.41490371808313e-10 1.75788452336678e-09 5.43540377691276e-09 1.28923304572723e-07 1.0941744478318e-07 1.42100961267115e-08 9.12650536633374e-08
"2707" 57369 9.73801273310721e-09 9.41241682773729e-10 1.7523453328617e-09 5.44217920187198e-09 1.28873460899532e-07 1.11084865956377e-07 1.42506661942931e-08 9.04376814600743e-08
"2708" 57370 9.7256174702471e-09 9.40992993739145e-10 1.74680614235663e-09 5.4489546268312e-09 1.28823617226341e-07 1.12752287129574e-07 1.42912362618746e-08 8.96103092568112e-08
"2709" 57371 9.69878108841432e-09 9.40744304704561e-10 1.74234946670341e-09 5.4456797594084e-09 1.28895861484076e-07 1.12497860297019e-07 1.43281121055153e-08 8.88579763946251e-08
"2710" 57372 9.6720042105429e-09 9.43403862980319e-10 1.7378927910502e-09 5.44411291287689e-09 1.28895861484076e-07 1.1222459665239e-07 1.4332815465615e-08 8.81365826227395e-08
"2711" 57373 9.64578558975004e-09 9.43403862980319e-10 1.74052447146949e-09 5.44083804545409e-09 1.29058581554406e-07 1.11956044630575e-07 1.43301071179841e-08 8.72968859798738e-08
"2712" 57374 9.61956696895719e-09 9.43403862980319e-10 1.74315615188877e-09 5.4375631780313e-09 1.29221301624736e-07 1.11687492608759e-07 1.43273987703532e-08 8.6457189337008e-08
"2713" 57375 9.59334834816433e-09 9.43403862980319e-10 1.74578783230806e-09 5.4342883106085e-09 1.29384021695065e-07 1.11418940586944e-07 1.43246904227224e-08 8.56174926941422e-08
"2714" 57376 9.58678233225296e-09 9.41324579118591e-10 1.72804434495181e-09 5.41689789582816e-09 1.29438714678108e-07 1.11257558653725e-07 1.4049143862871e-08 8.52062673279518e-08
"2715" 57377 9.58021631634158e-09 9.39245295256863e-10 1.71030085759557e-09 5.39950748104782e-09 1.29493407661151e-07 1.11096176720506e-07 1.37735973030196e-08 8.47950419617614e-08
"2716" 57378 9.5736503004302e-09 9.37166011395135e-10 1.69255737023932e-09 5.38211706626748e-09 1.29548100644194e-07 1.10934794787287e-07 1.34980507431682e-08 8.4383816595571e-08
"2717" 57379 9.56708428451883e-09 9.35086727533407e-10 1.67481388288307e-09 5.36472665148713e-09 1.29602793627237e-07 1.10773412854068e-07 1.32225041833168e-08 8.39725912293806e-08
"2718" 57380 9.56051826860745e-09 9.33007443671679e-10 1.65707039552683e-09 5.34733623670679e-09 1.2965748661028e-07 1.10612030920849e-07 1.29469576234654e-08 8.35613658631902e-08
"2719" 57381 9.55395225269607e-09 9.30928159809951e-10 1.63932690817058e-09 5.32994582192645e-09 1.29712179593322e-07 1.1045064898763e-07 1.2671411063614e-08 8.31501404969998e-08
"2720" 57382 9.54738623678470e-09 9.28848875948223e-10 1.62158342081433e-09 5.31255540714611e-09 1.29766872576365e-07 1.10289267054411e-07 1.23958645037626e-08 8.27389151308094e-08
"2721" 57383 9.54082022087332e-09 9.26769592086495e-10 1.60383993345809e-09 5.29516499236577e-09 1.29821565559408e-07 1.10127885121192e-07 1.21203179439112e-08 8.23276897646189e-08
"2722" 57384 9.3226952570874e-09 9.26103671231526e-10 1.59529692566227e-09 5.27335638671045e-09 1.30032091825497e-07 1.1000851380061e-07 1.20995530080007e-08 8.22239195071482e-08
"2723" 57385 9.13639094677982e-09 9.25437750376558e-10 1.60346779658663e-09 5.26622802585179e-09 1.30172230625e-07 1.09994388611349e-07 1.20947423568786e-08 8.2165840957032e-08
"2724" 57386 8.95008663647223e-09 9.24771829521589e-10 1.611638667511e-09 5.25909966499313e-09 1.30312369424503e-07 1.09980263422089e-07 1.20899317057565e-08 8.21077624069158e-08
"2725" 57387 8.76378232616464e-09 9.24105908666621e-10 1.61980953843536e-09 5.25197130413447e-09 1.30452508224005e-07 1.09966138232828e-07 1.20851210546344e-08 8.20496838567996e-08
"2726" 57388 8.57747801585705e-09 9.23439987811653e-10 1.62798040935973e-09 5.24484294327581e-09 1.30592647023508e-07 1.09952013043567e-07 1.20803104035123e-08 8.19916053066834e-08
"2727" 57389 8.39117370554947e-09 9.22774066956684e-10 1.63615128028409e-09 5.23771458241715e-09 1.30732785823011e-07 1.09937887854307e-07 1.20754997523902e-08 8.19335267565672e-08
"2728" 57390 8.20486939524188e-09 9.22108146101716e-10 1.64432215120846e-09 5.23058622155849e-09 1.30872924622513e-07 1.09923762665046e-07 1.20706891012681e-08 8.18754482064509e-08
"2729" 57391 8.01856508493429e-09 9.21442225246747e-10 1.65249302213282e-09 5.22345786069982e-09 1.31013063422016e-07 1.09909637475786e-07 1.2065878450146e-08 8.18173696563347e-08
"2730" 57392 8.03247066825472e-09 9.20527615357195e-10 1.68960287244269e-09 5.22980047686374e-09 1.30940341223261e-07 1.09960777434098e-07 1.20604617548842e-08 8.17549467164911e-08
"2731" 57393 8.04637625157516e-09 9.19613005467642e-10 1.72671272275256e-09 5.23614309302765e-09 1.30867619024507e-07 1.1001191739241e-07 1.20550450596225e-08 8.16925237766475e-08
"2732" 57394 7.85989342938349e-09 9.18947084612674e-10 1.72693564620326e-09 5.22901473216899e-09 1.30793655356175e-07 1.09962416259424e-07 1.20730378738368e-08 8.1646769666134e-08
"2733" 57395 7.67341060719182e-09 9.18281163757705e-10 1.72715856965396e-09 5.22188637131033e-09 1.30719691687843e-07 1.09912915126438e-07 1.20910306880511e-08 8.16010155556205e-08
"2734" 57396 7.48692778500015e-09 9.17615242902737e-10 1.72738149310467e-09 5.21475801045167e-09 1.30645728019512e-07 1.09863413993452e-07 1.21090235022655e-08 8.1555261445107e-08
"2735" 57397 7.30044496280849e-09 9.16949322047768e-10 1.72760441655537e-09 5.207629649593e-09 1.3057176435118e-07 1.09813912860467e-07 1.21270163164798e-08 8.15095073345935e-08
"2736" 57398 7.27897585734226e-09 9.12957922062074e-10 1.72605525098795e-09 5.1844798875198e-09 1.28435772928498e-07 1.09575642212826e-07 1.21459747498958e-08 8.10825550842549e-08
"2737" 57399 7.25750675187603e-09 9.08966522076379e-10 1.72450608542053e-09 5.1613301254466e-09 1.26299781505816e-07 1.09337371565185e-07 1.21649331833119e-08 8.06556028339163e-08
"2738" 57400 7.23490707114397e-09 9.02564252849511e-10 1.72364649401936e-09 5.15962210455532e-09 1.26293669073522e-07 1.09328661149433e-07 1.21669717127378e-08 8.06702930478112e-08
"2739" 57401 7.2123073904119e-09 8.96161983622643e-10 1.7227869026182e-09 5.15791408366403e-09 1.26287556641228e-07 1.0931995073368e-07 1.21690102421636e-08 8.06849832617061e-08
"2740" 57402 7.18970770967983e-09 8.89759714395775e-10 1.72192731121704e-09 5.15620606277274e-09 1.26281444208934e-07 1.09311240317927e-07 1.21710487715895e-08 8.06996734756011e-08
"2741" 57403 7.16710802894776e-09 8.83357445168907e-10 1.72106771981588e-09 5.15449804188145e-09 1.2627533177664e-07 1.09302529902174e-07 1.21730873010154e-08 8.0714363689496e-08
"2742" 57404 7.14450834821569e-09 8.76955175942039e-10 1.72020812841472e-09 5.15279002099017e-09 1.26269219344346e-07 1.09293819486421e-07 1.21751258304413e-08 8.07290539033909e-08
"2743" 57405 7.12190866748362e-09 8.70552906715171e-10 1.71934853701355e-09 5.15108200009888e-09 1.26263106912052e-07 1.09285109070669e-07 1.21771643598672e-08 8.07437441172859e-08
"2744" 57406 7.09930898675155e-09 8.64150637488303e-10 1.71848894561239e-09 5.14937397920759e-09 1.26256994479758e-07 1.09276398654916e-07 1.21792028892931e-08 8.07584343311808e-08
"2745" 57407 7.10310643869642e-09 8.59827652123163e-10 1.71740643076053e-09 5.14830588579329e-09 1.26438976090479e-07 1.09450685881991e-07 1.23047755688446e-08 8.17835719364212e-08
"2746" 57408 7.10690389064129e-09 8.55504666758023e-10 1.71632391590866e-09 5.14723779237899e-09 1.26620957701199e-07 1.09624973109066e-07 1.24303482483962e-08 8.28087095416615e-08
"2747" 57409 7.11070134258615e-09 8.51181681392883e-10 1.7152414010568e-09 5.14616969896469e-09 1.2680293931192e-07 1.09799260336141e-07 1.25559209279477e-08 8.38338471469019e-08
"2748" 57410 7.11449879453102e-09 8.46858696027743e-10 1.71415888620493e-09 5.14510160555038e-09 1.2698492092264e-07 1.09973547563217e-07 1.26814936074993e-08 8.48589847521422e-08
"2749" 57411 7.11829624647589e-09 8.42535710662603e-10 1.71307637135307e-09 5.14403351213608e-09 1.27166902533361e-07 1.10147834790292e-07 1.28070662870508e-08 8.58841223573826e-08
"2750" 57412 7.12209369842075e-09 8.38212725297463e-10 1.7119938565012e-09 5.14296541872178e-09 1.27348884144081e-07 1.10322122017367e-07 1.29326389666024e-08 8.6909259962623e-08
"2751" 57413 7.11349588750551e-09 8.33889739932322e-10 1.71077342681609e-09 5.14403815499407e-09 1.27344310436101e-07 1.10468158865921e-07 1.29129788279487e-08 8.7078163271937e-08
"2752" 57414 7.10489807659027e-09 8.29566754567182e-10 1.70955299713097e-09 5.14511089126635e-09 1.27339736728122e-07 1.10614195714475e-07 1.2893318689295e-08 8.7247066581251e-08
"2753" 57415 7.09630026567503e-09 8.25243769202042e-10 1.70833256744585e-09 5.14618362753864e-09 1.27335163020142e-07 1.10760232563029e-07 1.28736585506413e-08 8.74159698905651e-08
"2754" 57416 7.08770245475980e-09 8.20920783836902e-10 1.70711213776074e-09 5.14725636381093e-09 1.27330589312162e-07 1.10906269411583e-07 1.28539984119875e-08 8.75848731998791e-08
"2755" 57417 7.07910464384456e-09 8.16597798471762e-10 1.70589170807562e-09 5.14832910008322e-09 1.27326015604182e-07 1.11052306260137e-07 1.28343382733338e-08 8.77537765091931e-08
"2756" 57418 7.07050683292932e-09 8.12274813106622e-10 1.7046712783905e-09 5.14940183635551e-09 1.27321441896202e-07 1.11198343108691e-07 1.28146781346801e-08 8.79226798185072e-08
"2757" 57419 7.06190902201408e-09 8.07951827741482e-10 1.70345084870538e-09 5.1504745726278e-09 1.27316868188223e-07 1.11344379957244e-07 1.27950179960264e-08 8.80915831278212e-08
"2758" 57420 7.05331121109884e-09 8.03628842376342e-10 1.70223041902027e-09 5.15154730890009e-09 1.27312294480243e-07 1.11490416805798e-07 1.27753578573727e-08 8.82604864371352e-08
"2759" 57421 7.02956363446569e-09 7.89080730584439e-10 1.69965164481678e-09 5.15297298107182e-09 1.27288450086974e-07 1.11512219832569e-07 1.27659511371733e-08 8.84305480380448e-08
"2760" 57422 6.99246873159068e-09 7.77196302212411e-10 1.6650789610821e-09 5.14784891839796e-09 1.27288747341712e-07 1.11524394760548e-07 1.27565444169739e-08 8.84220264139027e-08
"2761" 57423 6.97327809729137e-09 7.79524275108723e-10 1.66471812279814e-09 5.14784891839796e-09 1.27289044596449e-07 1.11336098150592e-07 1.27502375065002e-08 8.85735061581819e-08
"2762" 57424 6.95408746299207e-09 7.81852248005035e-10 1.66435728451419e-09 5.14784891839796e-09 1.27289341851186e-07 1.11147801540636e-07 1.27439305960265e-08 8.8724985902461e-08
"2763" 57425 6.93489682869276e-09 7.84180220901347e-10 1.66399644623023e-09 5.14784891839796e-09 1.27289639105923e-07 1.10959504930681e-07 1.27376236855527e-08 8.88764656467402e-08
"2764" 57426 6.91570619439346e-09 7.86508193797659e-10 1.66363560794628e-09 5.14784891839796e-09 1.27289936360661e-07 1.10771208320725e-07 1.2731316775079e-08 8.90279453910194e-08
"2765" 57427 6.89651556009415e-09 7.88836166693971e-10 1.66327476966232e-09 5.14784891839796e-09 1.27290233615398e-07 1.10582911710769e-07 1.27250098646053e-08 8.91794251352985e-08
"2766" 57428 6.87732492579484e-09 7.91164139590283e-10 1.66291393137837e-09 5.14784891839796e-09 1.27290530870135e-07 1.10394615100813e-07 1.27187029541315e-08 8.93309048795777e-08
"2767" 57429 6.85458351571373e-09 7.90831179162799e-10 1.66609727113066e-09 5.1454963271717e-09 1.27287708211282e-07 1.10391320369745e-07 1.27294986426601e-08 8.93739256389513e-08
"2768" 57430 6.83184210563261e-09 7.90498218735315e-10 1.66928061088296e-09 5.14314373594544e-09 1.27284885552429e-07 1.10388025638676e-07 1.27402943311887e-08 8.94169463983249e-08
"2769" 57431 6.8091006955515e-09 7.90165258307831e-10 1.67246395063525e-09 5.14079114471919e-09 1.27282062893575e-07 1.10384730907608e-07 1.27510900197173e-08 8.94599671576985e-08
"2770" 57432 6.78635928547038e-09 7.89832297880347e-10 1.67564729038755e-09 5.13843855349293e-09 1.27279240234722e-07 1.10381436176539e-07 1.27618857082459e-08 8.95029879170721e-08
"2771" 57433 6.76361787538927e-09 7.89499337452862e-10 1.67883063013984e-09 5.13608596226667e-09 1.27276417575869e-07 1.10378141445471e-07 1.27726813967745e-08 8.95460086764457e-08
"2772" 57434 6.76439142688695e-09 7.88251767135826e-10 1.68115437849098e-09 5.13515904321214e-09 1.27244009449683e-07 1.10573181129481e-07 1.27701238571231e-08 8.95348557404965e-08
"2773" 57435 6.77466400903789e-09 7.85590833812029e-10 1.67505223006539e-09 5.10886165950197e-09 1.26965652759653e-07 1.09823707439472e-07 1.27193902172231e-08 8.93120114793072e-08
"2774" 57436 6.78493659118883e-09 7.90825678970644e-10 1.66895008163981e-09 5.09666589457537e-09 1.26747783418126e-07 1.08799037379557e-07 1.26566806875479e-08 8.90267442782742e-08
"2775" 57437 6.79520917333977e-09 7.9606052412926e-10 1.66284793321422e-09 5.08447012964878e-09 1.26529914076599e-07 1.07774367319642e-07 1.25939711578727e-08 8.87414770772412e-08
"2776" 57438 6.80548175549071e-09 8.01295369287875e-10 1.65674578478864e-09 5.07227436472219e-09 1.26312044735072e-07 1.06749697259727e-07 1.25312616281976e-08 8.84562098762082e-08
"2777" 57439 6.81575433764165e-09 8.0653021444649e-10 1.65064363636305e-09 5.0600785997956e-09 1.26094175393545e-07 1.05725027199811e-07 1.24685520985224e-08 8.81709426751753e-08
"2778" 57440 6.82602691979259e-09 8.11765059605106e-10 1.64454148793747e-09 5.04788283486901e-09 1.25876306052018e-07 1.04700357139896e-07 1.24058425688472e-08 8.78856754741423e-08
"2779" 57441 6.83629950194353e-09 8.16999904763721e-10 1.63843933951188e-09 5.03568706994242e-09 1.2565843671049e-07 1.03675687079981e-07 1.23431330391721e-08 8.76004082731093e-08
"2780" 57442 6.82971076460583e-09 8.24562722818649e-10 1.64198351754813e-09 5.049788688726e-09 1.25266766465731e-07 1.03620521113546e-07 1.23329810967779e-08 8.43494111209912e-08
"2781" 57443 6.83998334675677e-09 8.27885451853297e-10 1.64516685730043e-09 5.06389030750959e-09 1.25166263140164e-07 1.03326666025138e-07 1.23300958690971e-08 8.43253593771051e-08
"2782" 57444 6.85025592890771e-09 8.31208180887946e-10 1.64835019705272e-09 5.07799192629318e-09 1.25065759814598e-07 1.03032810936729e-07 1.23272106414163e-08 8.43013076332191e-08
"2783" 57445 6.86052851105865e-09 8.34530909922595e-10 1.65153353680502e-09 5.09209354507676e-09 1.24965256489032e-07 1.0273895584832e-07 1.23243254137355e-08 8.42772558893331e-08
"2784" 57446 6.87080109320959e-09 8.37853638957244e-10 1.65471687655731e-09 5.10619516386035e-09 1.24864753163466e-07 1.02445100759911e-07 1.23214401860546e-08 8.4253204145447e-08
"2785" 57447 6.88107367536053e-09 8.41176367991892e-10 1.65790021630961e-09 5.12029678264394e-09 1.247642498379e-07 1.02151245671503e-07 1.23185549583738e-08 8.4229152401561e-08
"2786" 57448 6.89134625751147e-09 8.44499097026541e-10 1.6610835560619e-09 5.13439840142752e-09 1.24663746512334e-07 1.01857390583094e-07 1.2315669730693e-08 8.4205100657675e-08
"2787" 57449 6.90161883966241e-09 8.4782182606119e-10 1.6642668958142e-09 5.14850002021111e-09 1.24563243186768e-07 1.01563535494685e-07 1.23127845030122e-08 8.41810489137889e-08
"2788" 57450 6.90144032777833e-09 8.43830426075495e-10 1.66468064031396e-09 5.14814244145368e-09 1.24402666335892e-07 1.01362101066936e-07 1.23218751651065e-08 8.4165443178828e-08
"2789" 57451 6.90126181589425e-09 8.39839026089801e-10 1.66509438481371e-09 5.14778486269625e-09 1.24242089485016e-07 1.01160666639188e-07 1.23309658272008e-08 8.41498374438671e-08
"2790" 57452 6.915085173827e-09 8.42249895330974e-10 1.66509438481371e-09 5.15740698914095e-09 1.24099393642868e-07 1.00814166565113e-07 1.2321849093036e-08 8.42237644994739e-08
"2791" 57453 6.91584466421598e-09 8.40918053621038e-10 1.69368203114191e-09 5.15704941038352e-09 1.2394152288239e-07 1.00817550342967e-07 1.23355358242076e-08 8.42016913710229e-08
"2792" 57454 6.91660415460495e-09 8.39586211911101e-10 1.72226967747011e-09 5.15669183162609e-09 1.23783652121913e-07 1.00820934120822e-07 1.23492225553792e-08 8.41796182425721e-08
"2793" 57455 6.91736364499392e-09 8.38254370201164e-10 1.75085732379832e-09 5.15633425286866e-09 1.23625781361435e-07 1.00824317898676e-07 1.23629092865508e-08 8.41575451141212e-08
"2794" 57456 6.9181231353829e-09 8.36922528491227e-10 1.77944497012652e-09 5.15597667411123e-09 1.23467910600958e-07 1.0082770167653e-07 1.23765960177224e-08 8.41354719856703e-08
"2795" 57457 6.9178256155761e-09 8.40246632573914e-10 1.80581468053519e-09 5.15326650412754e-09 1.23411859579883e-07 1.00981058808687e-07 1.23888879656026e-08 8.4096457648268e-08
"2796" 57458 6.91752809576930e-09 8.43570736656602e-10 1.83218439094386e-09 5.15055633414386e-09 1.23355808558809e-07 1.01134415940843e-07 1.24011799134828e-08 8.40574433108658e-08
"2797" 57459 6.91846609804235e-09 8.43570736656602e-10 1.85148654909418e-09 5.10425216713947e-09 1.22615986985374e-07 1.01480603667786e-07 1.24245894229589e-08 8.37508349501015e-08
"2798" 57460 6.9194041003154e-09 8.43570736656602e-10 1.8707887072445e-09 5.05794800013508e-09 1.21876165411938e-07 1.01826791394728e-07 1.24479989324349e-08 8.34442265893373e-08
"2799" 57461 6.92034210258846e-09 8.43570736656602e-10 1.89009086539482e-09 5.01164383313069e-09 1.21136343838503e-07 1.02172979121671e-07 1.2471408441911e-08 8.31376182285731e-08
"2800" 57462 6.92128010486151e-09 8.43570736656602e-10 1.90939302354515e-09 4.9653396661263e-09 1.20396522265068e-07 1.02519166848613e-07 1.2494817951387e-08 8.28310098678088e-08
"2801" 57463 6.92221810713456e-09 8.43570736656602e-10 1.92869518169547e-09 4.91903549912191e-09 1.19656700691633e-07 1.02865354575556e-07 1.25182274608631e-08 8.25244015070446e-08
"2802" 57464 6.92315610940762e-09 8.43570736656602e-10 1.94799733984579e-09 4.87273133211752e-09 1.18916879118198e-07 1.03211542302498e-07 1.25416369703391e-08 8.22177931462804e-08
"2803" 57465 6.92315610940762e-09 8.41577099235813e-10 1.93957144306907e-09 4.83640687031526e-09 1.18200901938031e-07 1.03238661832401e-07 1.25460880463991e-08 8.21215010005921e-08
"2804" 57466 6.92315610940762e-09 8.39583461815023e-10 1.93114554629235e-09 4.800082408513e-09 1.17484924757865e-07 1.03265781362303e-07 1.25505391224591e-08 8.20252088549037e-08
"2805" 57467 6.92315610940762e-09 8.37589824394234e-10 1.92271964951564e-09 4.76375794671073e-09 1.16768947577698e-07 1.03292900892206e-07 1.25549901985191e-08 8.19289167092154e-08
"2806" 57468 6.92315610940762e-09 8.35596186973445e-10 1.91429375273892e-09 4.72743348490847e-09 1.16052970397531e-07 1.03320020422108e-07 1.25594412745791e-08 8.18326245635271e-08
"2807" 57469 6.92315610940762e-09 8.33602549552656e-10 1.9058678559622e-09 4.69110902310621e-09 1.15336993217365e-07 1.03347139952011e-07 1.25638923506391e-08 8.17363324178387e-08
"2808" 57470 6.92315610940762e-09 8.31608912131866e-10 1.89744195918548e-09 4.65478456130395e-09 1.14621016037198e-07 1.03374259481914e-07 1.25683434266991e-08 8.16400402721504e-08
"2809" 57471 6.92315610940762e-09 8.29615274711077e-10 1.88901606240877e-09 4.61846009950168e-09 1.13905038857031e-07 1.03401379011816e-07 1.25727945027591e-08 8.15437481264621e-08
"2810" 57472 6.92315610940762e-09 8.27621637290288e-10 1.88059016563205e-09 4.58213563769942e-09 1.13189061676865e-07 1.03428498541719e-07 1.25772455788191e-08 8.14474559807738e-08
"2811" 57473 6.92315610940762e-09 8.25627999869498e-10 1.87216426885533e-09 4.54581117589716e-09 1.12473084496698e-07 1.03455618071621e-07 1.25816966548791e-08 8.13511638350854e-08
"2812" 57474 6.92315610940762e-09 8.23634362448709e-10 1.86373837207861e-09 4.50948671409489e-09 1.11757107316532e-07 1.03482737601524e-07 1.25861477309391e-08 8.12548716893971e-08
"2813" 57475 6.92315610940762e-09 8.2164072502792e-10 1.8553124753019e-09 4.47316225229263e-09 1.11041130136365e-07 1.03509857131426e-07 1.25905988069991e-08 8.11585795437088e-08
"2814" 57476 6.92315610940762e-09 8.19647087607131e-10 1.84688657852518e-09 4.43683779049037e-09 1.10325152956198e-07 1.03536976661329e-07 1.25950498830591e-08 8.10622873980204e-08
"2815" 57477 6.92315610940762e-09 8.17653450186341e-10 1.83846068174846e-09 4.4005133286881e-09 1.09609175776032e-07 1.03564096191231e-07 1.25995009591191e-08 8.09659952523321e-08
"2816" 57478 6.92315610940762e-09 8.15659812765552e-10 1.83003478497174e-09 4.36418886688584e-09 1.08893198595865e-07 1.03591215721134e-07 1.26039520351791e-08 8.08697031066438e-08
"2817" 57479 6.93283365194496e-09 8.15079538351522e-10 1.83003478497174e-09 4.32059486986514e-09 1.08150257108839e-07 1.03640164581813e-07 1.26136748134835e-08 8.0604412454415e-08
"2818" 57480 6.93576666668684e-09 8.17740471675319e-10 1.83954319660032e-09 4.32202054203687e-09 1.07854985277788e-07 1.02891955082808e-07 1.25795131324359e-08 7.98884721727513e-08
"2819" 57481 6.93869968142872e-09 8.20401404999115e-10 1.84905160822891e-09 4.3234462142086e-09 1.07559713446736e-07 1.02143745583802e-07 1.25453514513883e-08 7.91725318910877e-08
"2820" 57482 6.9416326961706e-09 8.23062338322912e-10 1.85856001985749e-09 4.32487188638034e-09 1.07264441615684e-07 1.01395536084796e-07 1.25111897703408e-08 7.8456591609424e-08
"2821" 57483 6.94456571091248e-09 8.25723271646708e-10 1.86806843148607e-09 4.32629755855207e-09 1.06969169784633e-07 1.0064732658579e-07 1.24770280892932e-08 7.77406513277603e-08
"2822" 57484 6.94749872565437e-09 8.28384204970504e-10 1.87757684311465e-09 4.3277232307238e-09 1.06673897953581e-07 9.98991170867844e-08 1.24428664082456e-08 7.70247110460966e-08
"2823" 57485 6.95043174039625e-09 8.31045138294301e-10 1.88708525474324e-09 4.32914890289553e-09 1.06378626122529e-07 9.91509075877786e-08 1.2408704727198e-08 7.63087707644329e-08
"2824" 57486 6.95336475513813e-09 8.33706071618097e-10 1.89659366637182e-09 4.33057457506727e-09 1.06083354291478e-07 9.84026980887728e-08 1.23745430461504e-08 7.55928304827693e-08
"2825" 57487 7.0150229694701e-09 8.33623175273236e-10 1.89681658982252e-09 4.332000247239e-09 1.0578945132489e-07 9.76315016507768e-08 1.25085104975208e-08 7.55559919973615e-08
