"time" "channel1" "channel2" "channel3" "channel4" "channel5" "channel6" "channel7" "channel8"
"1" 19406 2.03697792141036e-07 1.56549272598149e-08 7.37380772692838e-08 1.78008724308592e-07 1.57543928526979e-07 4.76852841780025e-09 1.66605764666798e-09 1.33362982383566e-08
"2" 19407 2.04216462406434e-07 1.55517708590088e-08 7.27637270771668e-08 1.77082130893054e-07 1.57676472047921e-07 4.76283313448959e-09 1.66438806719052e-09 1.33517388032329e-08
"3" 19408 2.04397249479611e-07 1.52803778824098e-08 7.18406620835003e-08 1.76172523094287e-07 1.5805442274396e-07 4.76564175885994e-09 1.66499651865267e-09 1.33556724218374e-08
"4" 19409 2.04578036552787e-07 1.50089849058108e-08 7.09175970898337e-08 1.7526291529552e-07 1.5843237344e-07 4.76845038323029e-09 1.66560497011482e-09 1.3359606040442e-08
"5" 19410 2.04758823625964e-07 1.47375919292118e-08 6.99945320961671e-08 1.74353307496752e-07 1.58810324136039e-07 4.77125900760064e-09 1.66621342157697e-09 1.33635396590466e-08
"6" 19411 2.04939610699141e-07 1.44661989526128e-08 6.90714671025006e-08 1.73443699697985e-07 1.59188274832079e-07 4.77406763197099e-09 1.66682187303912e-09 1.33674732776511e-08
"7" 19412 2.05120397772317e-07 1.41948059760138e-08 6.8148402108834e-08 1.72534091899217e-07 1.59566225528118e-07 4.77687625634135e-09 1.66743032450127e-09 1.33714068962557e-08
"8" 19413 2.05301184845494e-07 1.39234129994148e-08 6.72253371151674e-08 1.7162448410045e-07 1.59944176224158e-07 4.7796848807117e-09 1.66803877596342e-09 1.33753405148602e-08
"9" 19414 2.05481971918671e-07 1.36520200228158e-08 6.63022721215009e-08 1.70714876301683e-07 1.60322126920197e-07 4.78249350508205e-09 1.66864722742557e-09 1.33792741334648e-08
"10" 19415 2.05662758991848e-07 1.33806270462168e-08 6.53792071278343e-08 1.69805268502915e-07 1.60700077616237e-07 4.7853021294524e-09 1.66925567888772e-09 1.33832077520693e-08
"11" 19416 2.05843546065024e-07 1.31092340696178e-08 6.44561421341677e-08 1.68895660704148e-07 1.61078028312276e-07 4.78811075382275e-09 1.66986413034986e-09 1.33871413706739e-08
"12" 19417 2.06024333138201e-07 1.28378410930188e-08 6.35330771405012e-08 1.6798605290538e-07 1.61455979008316e-07 4.7909193781931e-09 1.67047258181201e-09 1.33910749892785e-08
"13" 19418 2.06205120211378e-07 1.25664481164198e-08 6.26100121468346e-08 1.67076445106613e-07 1.61833929704355e-07 4.79372800256345e-09 1.67108103327416e-09 1.3395008607883e-08
"14" 19419 2.06385907284555e-07 1.22950551398208e-08 6.1686947153168e-08 1.66166837307845e-07 1.62211880400395e-07 4.7965366269338e-09 1.67168948473631e-09 1.33989422264876e-08
"15" 19420 2.06988217807642e-07 1.2366454177577e-08 6.16862299358467e-08 1.66721709117992e-07 1.62260310816431e-07 4.79966011008847e-09 1.67001990525886e-09 1.34385337235033e-08
"16" 19421 2.07591870096209e-07 1.24379000387912e-08 6.169143424279e-08 1.67921922322252e-07 1.61239945463998e-07 4.76721605278152e-09 1.66260223028164e-09 1.34830355636009e-08
"17" 19422 2.08035495472151e-07 1.24534468798803e-08 6.17394466336241e-08 1.68076154519617e-07 1.60457267893706e-07 4.74228111742564e-09 1.65902246737655e-09 1.34794106973572e-08
"18" 19423 2.08479120848094e-07 1.24689937209695e-08 6.17874590244582e-08 1.68230386716982e-07 1.59674590323414e-07 4.71734618206976e-09 1.65544270447146e-09 1.34757858311134e-08
"19" 19424 2.08922746224036e-07 1.24845405620587e-08 6.18354714152923e-08 1.68384618914347e-07 1.58891912753123e-07 4.69241124671388e-09 1.65186294156636e-09 1.34721609648697e-08
"20" 19425 2.09366371599978e-07 1.25000874031479e-08 6.18834838061264e-08 1.68538851111712e-07 1.58109235182831e-07 4.667476311358e-09 1.64828317866127e-09 1.34685360986259e-08
"21" 19426 2.0980999697592e-07 1.25156342442371e-08 6.19314961969605e-08 1.68693083309077e-07 1.57326557612539e-07 4.64254137600212e-09 1.64470341575618e-09 1.34649112323822e-08
"22" 19427 2.10253622351863e-07 1.25311810853262e-08 6.19795085877946e-08 1.68847315506442e-07 1.56543880042248e-07 4.61760644064624e-09 1.64112365285108e-09 1.34612863661384e-08
"23" 19428 2.10697247727805e-07 1.25467279264154e-08 6.20275209786287e-08 1.69001547703807e-07 1.55761202471956e-07 4.59267150529036e-09 1.63754388994599e-09 1.34576614998947e-08
"24" 19429 2.11140873103747e-07 1.25622747675046e-08 6.20755333694628e-08 1.69155779901172e-07 1.54978524901664e-07 4.56773656993448e-09 1.6339641270409e-09 1.34540366336509e-08
"25" 19430 2.11584498479689e-07 1.25778216085938e-08 6.21235457602969e-08 1.69310012098538e-07 1.54195847331373e-07 4.5428016345786e-09 1.6303843641358e-09 1.34504117674072e-08
"26" 19431 2.12028123855632e-07 1.25933684496829e-08 6.2171558151131e-08 1.69464244295903e-07 1.53413169761081e-07 4.51786669922272e-09 1.62680460123071e-09 1.34467869011634e-08
"27" 19432 2.12471749231574e-07 1.26089152907721e-08 6.22195705419651e-08 1.69618476493268e-07 1.52630492190789e-07 4.49293176386684e-09 1.62322483832562e-09 1.34431620349197e-08
"28" 19433 2.12915374607516e-07 1.26244621318613e-08 6.22675829327992e-08 1.69772708690633e-07 1.51847814620498e-07 4.46799682851096e-09 1.61964507542053e-09 1.34395371686759e-08
"29" 19434 2.13358999983458e-07 1.26400089729505e-08 6.23155953236333e-08 1.69926940887998e-07 1.51065137050206e-07 4.44306189315508e-09 1.61606531251543e-09 1.34359123024322e-08
"30" 19435 2.13802625359401e-07 1.26555558140397e-08 6.23636077144674e-08 1.70081173085363e-07 1.50282459479915e-07 4.4181269577992e-09 1.61248554961034e-09 1.34322874361884e-08
"31" 19436 2.14246250735343e-07 1.26711026551288e-08 6.24116201053015e-08 1.70235405282728e-07 1.49499781909623e-07 4.39319202244333e-09 1.60890578670525e-09 1.34286625699447e-08
"32" 19437 2.14689876111285e-07 1.2686649496218e-08 6.24596324961356e-08 1.70389637480093e-07 1.48717104339331e-07 4.36825708708745e-09 1.60532602380015e-09 1.34250377037009e-08
"33" 19438 2.15133501487227e-07 1.27021963373072e-08 6.25076448869697e-08 1.70543869677458e-07 1.4793442676904e-07 4.34332215173157e-09 1.60174626089506e-09 1.34214128374572e-08
"34" 19439 2.1557712686317e-07 1.27177431783964e-08 6.25556572778038e-08 1.70698101874823e-07 1.47151749198748e-07 4.31838721637569e-09 1.59816649798997e-09 1.34177879712134e-08
"35" 19440 2.16020752239112e-07 1.27332900194855e-08 6.26036696686379e-08 1.70852334072188e-07 1.46369071628456e-07 4.29345228101981e-09 1.59458673508487e-09 1.34141631049697e-08
"36" 19441 2.16433799181032e-07 1.26765950005753e-08 6.2295720531117e-08 1.7091848888718e-07 1.46170568847453e-07 4.29865153171773e-09 1.59458673508487e-09 1.34083324437436e-08
"37" 19442 2.16846846122952e-07 1.26198999816651e-08 6.19877713935962e-08 1.70984643702172e-07 1.4597206606645e-07 4.30385078241566e-09 1.59458673508487e-09 1.34025017825175e-08
"38" 19443 2.17557942322841e-07 1.25709203768028e-08 6.19617058283521e-08 1.71435034492906e-07 1.45936301291678e-07 4.31540013868138e-09 1.59541092119345e-09 1.33835699458208e-08
"39" 19444 2.17271719758688e-07 1.25579059722974e-08 6.22294727391504e-08 1.71218379564545e-07 1.46755658097427e-07 4.32285633075099e-09 1.59593088157096e-09 1.33647924853044e-08
"40" 19445 2.16985497194534e-07 1.25448915677921e-08 6.24972396499488e-08 1.71001724636184e-07 1.47575014903177e-07 4.3303125228206e-09 1.59645084194846e-09 1.33460150247881e-08
"41" 19446 2.1669927463038e-07 1.25318771632867e-08 6.27650065607472e-08 1.70785069707822e-07 1.48394371708926e-07 4.3377687148902e-09 1.59697080232597e-09 1.33272375642717e-08
"42" 19447 2.16413052066226e-07 1.25188627587814e-08 6.30327734715455e-08 1.70568414779461e-07 1.49213728514675e-07 4.34522490695981e-09 1.59749076270347e-09 1.33084601037553e-08
"43" 19448 2.16126829502073e-07 1.25058483542761e-08 6.33005403823439e-08 1.703517598511e-07 1.50033085320425e-07 4.35268109902942e-09 1.59801072308098e-09 1.3289682643239e-08
"44" 19449 2.15840606937919e-07 1.24928339497707e-08 6.35683072931423e-08 1.70135104922738e-07 1.50852442126174e-07 4.36013729109903e-09 1.59853068345848e-09 1.32709051827226e-08
"45" 19450 2.15554384373765e-07 1.24798195452654e-08 6.38360742039407e-08 1.69918449994377e-07 1.51671798931923e-07 4.36759348316863e-09 1.59905064383598e-09 1.32521277222063e-08
"46" 19451 2.15268161809611e-07 1.24668051407601e-08 6.4103841114739e-08 1.69701795066016e-07 1.52491155737673e-07 4.37504967523824e-09 1.59957060421349e-09 1.32333502616899e-08
"47" 19452 2.14981939245457e-07 1.24537907362547e-08 6.43716080255374e-08 1.69485140137654e-07 1.53310512543422e-07 4.38250586730785e-09 1.60009056459099e-09 1.32145728011735e-08
"48" 19453 2.14695716681304e-07 1.24407763317494e-08 6.46393749363358e-08 1.69268485209293e-07 1.54129869349171e-07 4.38996205937746e-09 1.6006105249685e-09 1.31957953406572e-08
"49" 19454 2.1440949411715e-07 1.24277619272441e-08 6.49071418471341e-08 1.69051830280932e-07 1.54949226154921e-07 4.39741825144706e-09 1.601130485346e-09 1.31770178801408e-08
"50" 19455 2.14316434685353e-07 1.24630024096542e-08 6.51408631428131e-08 1.68734107819374e-07 1.56077914060142e-07 4.38951895664618e-09 1.59768162804615e-09 1.31770178801408e-08
"51" 19456 2.14223375253557e-07 1.24982428920644e-08 6.53745844384921e-08 1.68416385357816e-07 1.57206601965363e-07 4.3816196618453e-09 1.5942327707463e-09 1.31770178801408e-08
"52" 19457 2.1413031582176e-07 1.25334833744746e-08 6.5608305734171e-08 1.68098662896259e-07 1.58335289870584e-07 4.37372036704442e-09 1.59078391344644e-09 1.31770178801408e-08
"53" 19458 2.14037256389963e-07 1.25687238568847e-08 6.584202702985e-08 1.67780940434701e-07 1.59463977775805e-07 4.36582107224354e-09 1.58733505614659e-09 1.31770178801408e-08
"54" 19459 2.13944196958167e-07 1.26039643392949e-08 6.60757483255289e-08 1.67463217973143e-07 1.60592665681026e-07 4.35792177744266e-09 1.58388619884673e-09 1.31770178801408e-08
"55" 19460 2.1385113752637e-07 1.26392048217051e-08 6.63094696212079e-08 1.67145495511586e-07 1.61721353586247e-07 4.35002248264178e-09 1.58043734154688e-09 1.31770178801408e-08
"56" 19461 2.13758078094574e-07 1.26744453041153e-08 6.65431909168868e-08 1.66827773050028e-07 1.62850041491468e-07 4.3421231878409e-09 1.57698848424703e-09 1.31770178801408e-08
"57" 19462 2.13824564458034e-07 1.27159436122195e-08 6.6981726998494e-08 1.66367043056747e-07 1.62893973048646e-07 4.33220105537822e-09 1.57301966656967e-09 1.3196490033469e-08
"58" 19463 2.1288928966377e-07 1.27460092696258e-08 6.74984597758335e-08 1.66361848165193e-07 1.62866074076141e-07 4.33451092663137e-09 1.57317177943521e-09 1.31615060661125e-08
"59" 19464 2.12446668316936e-07 1.2742743962635e-08 6.76686878514305e-08 1.66386012401097e-07 1.63266583869708e-07 4.33112551457385e-09 1.57668425851595e-09 1.31258274059442e-08
"60" 19465 2.12004046970101e-07 1.27394786556441e-08 6.78389159270276e-08 1.66410176637002e-07 1.63667093663275e-07 4.32774010251633e-09 1.5801967375967e-09 1.30901487457759e-08
"61" 19466 2.11561425623267e-07 1.27362133486533e-08 6.80091440026247e-08 1.66434340872906e-07 1.64067603456842e-07 4.32435469045881e-09 1.58370921667745e-09 1.30544700856076e-08
"62" 19467 2.11118804276433e-07 1.27329480416625e-08 6.81793720782217e-08 1.6645850510881e-07 1.64468113250409e-07 4.32096927840129e-09 1.58722169575819e-09 1.30187914254393e-08
"63" 19468 2.10676182929598e-07 1.27296827346717e-08 6.83496001538188e-08 1.66482669344714e-07 1.64868623043976e-07 4.31758386634377e-09 1.59073417483894e-09 1.2983112765271e-08
"64" 19469 2.10233561582764e-07 1.27264174276809e-08 6.85198282294159e-08 1.66506833580619e-07 1.65269132837543e-07 4.31419845428625e-09 1.59424665391969e-09 1.29474341051027e-08
"65" 19470 2.09790940235929e-07 1.272315212069e-08 6.8690056305013e-08 1.66530997816523e-07 1.65669642631111e-07 4.31081304222873e-09 1.59775913300043e-09 1.29117554449344e-08
"66" 19471 2.09348318889095e-07 1.27198868136992e-08 6.886028438061e-08 1.66555162052427e-07 1.66070152424678e-07 4.30742763017121e-09 1.60127161208118e-09 1.28760767847661e-08
"67" 19472 2.08905697542261e-07 1.27166215067084e-08 6.90305124562071e-08 1.66579326288331e-07 1.66470662218245e-07 4.30404221811369e-09 1.60478409116193e-09 1.28403981245978e-08
"68" 19473 2.08463076195426e-07 1.27133561997176e-08 6.92007405318042e-08 1.66603490524235e-07 1.66871172011812e-07 4.30065680605617e-09 1.60829657024267e-09 1.28047194644295e-08
"69" 19474 2.08020454848592e-07 1.27100908927267e-08 6.93709686074012e-08 1.6662765476014e-07 1.67271681805379e-07 4.29727139399865e-09 1.61180904932342e-09 1.27690408042612e-08
"70" 19475 2.07577833501757e-07 1.27068255857359e-08 6.95411966829983e-08 1.66651818996044e-07 1.67672191598946e-07 4.29388598194112e-09 1.61532152840417e-09 1.2733362144093e-08
"71" 19476 2.07135212154923e-07 1.27035602787451e-08 6.97114247585954e-08 1.66675983231948e-07 1.68072701392513e-07 4.2905005698836e-09 1.61883400748491e-09 1.26976834839247e-08
"72" 19477 2.07129253571141e-07 1.27035602787451e-08 6.94544771537461e-08 1.65308267974522e-07 1.67344386472529e-07 4.26123020510832e-09 1.61981030645903e-09 1.28763766332463e-08
"73" 19478 2.07144814209397e-07 1.273585506591e-08 6.94396432749463e-08 1.65263296161619e-07 1.67534712870145e-07 4.24493014188488e-09 1.62095992555898e-09 1.30570855767938e-08
"74" 19479 2.07160374847654e-07 1.27681498530749e-08 6.94248093961466e-08 1.65218324348716e-07 1.67725039267761e-07 4.22863007866144e-09 1.62210954465893e-09 1.32377945203413e-08
"75" 19480 2.0717593548591e-07 1.28004446402398e-08 6.94099755173468e-08 1.65173352535813e-07 1.67915365665377e-07 4.212330015438e-09 1.62325916375888e-09 1.34185034638889e-08
"76" 19481 2.07191496124167e-07 1.28327394274046e-08 6.9395141638547e-08 1.6512838072291e-07 1.68105692062994e-07 4.19602995221457e-09 1.62440878285883e-09 1.35992124074364e-08
"77" 19482 2.07207056762424e-07 1.28650342145695e-08 6.93803077597473e-08 1.65083408910007e-07 1.6829601846061e-07 4.17972988899113e-09 1.62555840195878e-09 1.3779921350984e-08
"78" 19483 2.0722261740068e-07 1.28973290017344e-08 6.93654738809475e-08 1.65038437097104e-07 1.68486344858226e-07 4.16342982576769e-09 1.62670802105874e-09 1.39606302945315e-08
"79" 19484 2.0739381546513e-07 1.2895747247927e-08 6.94163255278554e-08 1.64999349563356e-07 1.6891038821501e-07 4.17253834632884e-09 1.65240624124677e-09 1.39882517167343e-08
"80" 19485 2.07565013529579e-07 1.28941654941196e-08 6.94671771747632e-08 1.64960262029608e-07 1.69334431571794e-07 4.18164686688999e-09 1.67810446143481e-09 1.40158731389371e-08
"81" 19486 2.07736211594028e-07 1.28925837403123e-08 6.95180288216711e-08 1.64921174495861e-07 1.69758474928578e-07 4.19075538745115e-09 1.70380268162284e-09 1.40434945611399e-08
"82" 19487 2.07907409658478e-07 1.28910019865049e-08 6.95688804685789e-08 1.64882086962113e-07 1.70182518285361e-07 4.1998639080123e-09 1.72950090181088e-09 1.40711159833426e-08
"83" 19488 2.08078607722927e-07 1.28894202326975e-08 6.96197321154868e-08 1.64842999428365e-07 1.70606561642145e-07 4.20897242857345e-09 1.75519912199891e-09 1.40987374055454e-08
"84" 19489 2.08249805787376e-07 1.28878384788901e-08 6.96705837623946e-08 1.64803911894617e-07 1.71030604998929e-07 4.2180809491346e-09 1.78089734218695e-09 1.41263588277482e-08
"85" 19490 2.08421003851826e-07 1.28862567250827e-08 6.97214354093025e-08 1.6476482436087e-07 1.71454648355713e-07 4.22718946969575e-09 1.80659556237498e-09 1.4153980249951e-08
"86" 19491 2.08592201916275e-07 1.28846749712754e-08 6.97722870562103e-08 1.64725736827122e-07 1.71878691712497e-07 4.23629799025691e-09 1.83229378256302e-09 1.41816016721538e-08
"87" 19492 2.08763399980724e-07 1.2883093217468e-08 6.98231387031182e-08 1.64686649293374e-07 1.72302735069281e-07 4.24540651081806e-09 1.85799200275105e-09 1.42092230943566e-08
"88" 19493 2.08934598045174e-07 1.28815114636606e-08 6.9873990350026e-08 1.64647561759626e-07 1.72726778426064e-07 4.25451503137921e-09 1.88369022293909e-09 1.42368445165593e-08
"89" 19494 2.09105796109623e-07 1.28799297098532e-08 6.99248419969339e-08 1.64608474225879e-07 1.73150821782848e-07 4.26362355194036e-09 1.90938844312712e-09 1.42644659387621e-08
"90" 19495 2.09276994174072e-07 1.28783479560458e-08 6.99756936438417e-08 1.64569386692131e-07 1.73574865139632e-07 4.27273207250151e-09 1.93508666331516e-09 1.42920873609649e-08
"91" 19496 2.09448192238522e-07 1.28767662022384e-08 7.00265452907496e-08 1.64530299158383e-07 1.73998908496416e-07 4.28184059306266e-09 1.96078488350319e-09 1.43197087831677e-08
"92" 19497 2.09619390302971e-07 1.28751844484311e-08 7.00773969376575e-08 1.64491211624636e-07 1.744229518532e-07 4.29094911362382e-09 1.98648310369123e-09 1.43473302053705e-08
"93" 19498 2.11947764209467e-07 1.28736026946237e-08 7.00766797203361e-08 1.65774711158461e-07 1.75590708592661e-07 4.29094911362382e-09 1.99309779982016e-09 1.43705251947897e-08
"94" 19499 2.14243981766716e-07 1.28638617495693e-08 6.99972052294563e-08 1.66565369462149e-07 1.75730650364812e-07 4.30370497514534e-09 1.99886710258021e-09 1.43801974437113e-08
"95" 19500 2.15715912620093e-07 1.28573392880478e-08 6.8909754065567e-08 1.64914003332085e-07 1.77016944255071e-07 4.31160426994622e-09 2.00433217960919e-09 1.44055210400226e-08
"96" 19501 2.14859061287605e-07 1.29042607520631e-08 6.78170985947344e-08 1.62426412612201e-07 1.7702944428506e-07 4.30546044289534e-09 2.00350799350061e-09 1.44078812111853e-08
"97" 19502 2.14002209955117e-07 1.29511822160783e-08 6.67244431239017e-08 1.59938821892317e-07 1.77041944315049e-07 4.29931661584447e-09 2.00268380739203e-09 1.44102413823481e-08
"98" 19503 2.13145358622629e-07 1.29981036800936e-08 6.56317876530691e-08 1.57451231172433e-07 1.77054444345037e-07 4.29317278879359e-09 2.00185962128346e-09 1.44126015535108e-08
"99" 19504 2.1228850729014e-07 1.30450251441089e-08 6.45391321822365e-08 1.54963640452549e-07 1.77066944375026e-07 4.28702896174271e-09 2.00103543517488e-09 1.44149617246735e-08
"100" 19505 2.11431655957652e-07 1.30919466081241e-08 6.34464767114038e-08 1.52476049732666e-07 1.77079444405015e-07 4.28088513469184e-09 2.0002112490663e-09 1.44173218958363e-08
"101" 19506 2.10574804625164e-07 1.31388680721394e-08 6.23538212405712e-08 1.49988459012782e-07 1.77091944435004e-07 4.27474130764096e-09 1.99938706295772e-09 1.4419682066999e-08
"102" 19507 2.09717953292676e-07 1.31857895361547e-08 6.12611657697385e-08 1.47500868292898e-07 1.77104444464993e-07 4.26859748059008e-09 1.99856287684914e-09 1.44220422381617e-08
"103" 19508 2.08861101960188e-07 1.32327110001699e-08 6.01685102989059e-08 1.45013277573014e-07 1.77116944494982e-07 4.26245365353921e-09 1.99773869074056e-09 1.44244024093245e-08
"104" 19509 2.080042506277e-07 1.32796324641852e-08 5.90758548280733e-08 1.4252568685313e-07 1.77129444524971e-07 4.25630982648833e-09 1.99691450463198e-09 1.44267625804872e-08
"105" 19510 2.07147399295211e-07 1.33265539282004e-08 5.79831993572406e-08 1.40038096133246e-07 1.7714194455496e-07 4.25016599943745e-09 1.9960903185234e-09 1.442912275165e-08
"106" 19511 2.06290547962723e-07 1.33734753922157e-08 5.6890543886408e-08 1.37550505413362e-07 1.77154444584949e-07 4.24402217238658e-09 1.99526613241482e-09 1.44314829228127e-08
"107" 19512 2.06291463813084e-07 1.33867849510861e-08 5.68058650885849e-08 1.36892515035981e-07 1.76714430567787e-07 4.22087052997367e-09 1.99129731473746e-09 1.44278016502358e-08
"108" 19513 2.06292379663445e-07 1.34000945099566e-08 5.67211862907618e-08 1.362345246586e-07 1.76274416550626e-07 4.19771888756076e-09 1.98732849706011e-09 1.4424120377659e-08
"109" 19514 2.06293295513805e-07 1.3413404068827e-08 5.66365074929387e-08 1.35576534281219e-07 1.75834402533464e-07 4.17456724514785e-09 1.98335967938275e-09 1.44204391050821e-08
"110" 19515 2.06294211364166e-07 1.34267136276974e-08 5.65518286951156e-08 1.34918543903838e-07 1.75394388516302e-07 4.15141560273494e-09 1.97939086170539e-09 1.44167578325053e-08
"111" 19516 2.06295127214527e-07 1.34400231865678e-08 5.64671498972925e-08 1.34260553526457e-07 1.74954374499141e-07 4.12826396032203e-09 1.97542204402803e-09 1.44130765599284e-08
"112" 19517 2.06296043064887e-07 1.34533327454383e-08 5.63824710994693e-08 1.33602563149075e-07 1.74514360481979e-07 4.10511231790912e-09 1.97145322635067e-09 1.44093952873516e-08
"113" 19518 2.06296958915248e-07 1.34666423043087e-08 5.62977923016462e-08 1.32944572771694e-07 1.74074346464817e-07 4.08196067549621e-09 1.96748440867331e-09 1.44057140147747e-08
"114" 19519 2.06297874765609e-07 1.34799518631791e-08 5.62131135038231e-08 1.32286582394313e-07 1.73634332447656e-07 4.0588090330833e-09 1.96351559099596e-09 1.44020327421979e-08
"115" 19520 2.06298545648348e-07 1.3505793378358e-08 5.6174406365405e-08 1.32812705067518e-07 1.73657690798615e-07 4.06106597445498e-09 1.9595467733186e-09 1.43887415659708e-08
"116" 19521 2.0651247316913e-07 1.34761491320733e-08 5.62101861866946e-08 1.32811528211687e-07 1.73738945794034e-07 4.06293002247239e-09 1.95557795564124e-09 1.4373090218581e-08
"117" 19522 2.0657296797231e-07 1.34714038706511e-08 5.61714790482764e-08 1.32872942151561e-07 1.74365171375639e-07 4.0721165776035e-09 1.95496950417909e-09 1.45123343691908e-08
"118" 19523 2.0663346277549e-07 1.3466658609229e-08 5.61327719098583e-08 1.32934356091435e-07 1.74991396957245e-07 4.08130313273461e-09 1.95436105271694e-09 1.46515785198007e-08
"119" 19524 2.0669395757867e-07 1.34619133478068e-08 5.60940647714402e-08 1.32995770031309e-07 1.7561762253885e-07 4.09048968786573e-09 1.95375260125479e-09 1.47908226704105e-08
"120" 19525 2.0675445238185e-07 1.34571680863847e-08 5.6055357633022e-08 1.33057183971183e-07 1.76243848120455e-07 4.09967624299684e-09 1.95314414979264e-09 1.49300668210204e-08
"121" 19526 2.0681494718503e-07 1.34524228249625e-08 5.60166504946039e-08 1.33118597911057e-07 1.7687007370206e-07 4.10886279812795e-09 1.9525356983305e-09 1.50693109716302e-08
"122" 19527 2.0687544198821e-07 1.34476775635404e-08 5.59779433561857e-08 1.33180011850931e-07 1.77496299283665e-07 4.11804935325907e-09 1.95192724686835e-09 1.52085551222401e-08
"123" 19528 2.0693593679139e-07 1.34429323021183e-08 5.59392362177676e-08 1.33241425790805e-07 1.7812252486527e-07 4.12723590839018e-09 1.9513187954062e-09 1.53477992728499e-08
"124" 19529 2.06996431594571e-07 1.34381870406961e-08 5.59005290793495e-08 1.33302839730679e-07 1.78748750446875e-07 4.13642246352129e-09 1.95071034394405e-09 1.54870434234597e-08
"125" 19530 2.07056926397751e-07 1.3433441779274e-08 5.58618219409313e-08 1.33364253670553e-07 1.79374976028481e-07 4.14560901865241e-09 1.9501018924819e-09 1.56262875740696e-08
"126" 19531 2.07117421200931e-07 1.34286965178518e-08 5.58231148025132e-08 1.33425667610427e-07 1.80001201610086e-07 4.15479557378352e-09 1.94949344101975e-09 1.57655317246794e-08
"127" 19532 2.07177916004111e-07 1.34239512564297e-08 5.57844076640951e-08 1.33487081550301e-07 1.80627427191691e-07 4.16398212891464e-09 1.9488849895576e-09 1.59047758752893e-08
"128" 19533 2.07238410807291e-07 1.34192059950075e-08 5.57457005256769e-08 1.33548495490175e-07 1.81253652773296e-07 4.17316868404575e-09 1.94827653809545e-09 1.60440200258991e-08
"129" 19534 2.10164590755942e-07 1.34696655543012e-08 5.5694372985132e-08 1.33547262612774e-07 1.81555741631853e-07 4.19726762331608e-09 1.94398228742672e-09 1.61729358333473e-08
"130" 19535 2.12756241926069e-07 1.35075931572864e-08 5.57054319263325e-08 1.33528158655508e-07 1.81052603423571e-07 4.200761615641e-09 1.94365685443535e-09 1.63153743812932e-08
"131" 19536 2.14805108618679e-07 1.35679809554663e-08 5.55847531545828e-08 1.33526925778108e-07 1.81298343740511e-07 4.2247295904599e-09 1.94333142144398e-09 1.64535141519407e-08
"132" 19537 2.16853975311289e-07 1.36283687536461e-08 5.54640743828331e-08 1.33525692900707e-07 1.8154408405745e-07 4.2486975652788e-09 1.94300598845261e-09 1.65916539225881e-08
"133" 19538 2.189028420039e-07 1.3688756551826e-08 5.53433956110833e-08 1.33524460023306e-07 1.81789824374389e-07 4.2726655400977e-09 1.94268055546123e-09 1.67297936932356e-08
"134" 19539 2.2095170869651e-07 1.37491443500058e-08 5.52227168393336e-08 1.33523227145906e-07 1.82035564691328e-07 4.2966335149166e-09 1.94235512246986e-09 1.6867933463883e-08
"135" 19540 2.2300057538912e-07 1.38095321481857e-08 5.51020380675839e-08 1.33521994268505e-07 1.82281305008268e-07 4.32060148973551e-09 1.94202968947849e-09 1.70060732345304e-08
"136" 19541 2.22489073204863e-07 1.3791857976714e-08 5.50056694838609e-08 1.33676002379592e-07 1.82527045325207e-07 4.32887129370664e-09 1.94254964985599e-09 1.7064103754064e-08
"137" 19542 2.21977571020606e-07 1.37741838052422e-08 5.49093009001378e-08 1.33830010490679e-07 1.82772785642146e-07 4.33714109767777e-09 1.9430696102335e-09 1.71221342735975e-08
"138" 19543 2.21466068836348e-07 1.37565096337705e-08 5.48129323164148e-08 1.33984018601765e-07 1.83018525959085e-07 4.3454109016489e-09 1.943589570611e-09 1.7180164793131e-08
"139" 19544 2.20954566652091e-07 1.37388354622988e-08 5.47165637326918e-08 1.34138026712852e-07 1.83264266276024e-07 4.35368070562003e-09 1.94410953098851e-09 1.72381953126645e-08
"140" 19545 2.20443064467834e-07 1.37211612908271e-08 5.46201951489688e-08 1.34292034823939e-07 1.83510006592964e-07 4.36195050959116e-09 1.94462949136601e-09 1.7296225832198e-08
"141" 19546 2.19931562283577e-07 1.37034871193554e-08 5.45238265652457e-08 1.34446042935026e-07 1.83755746909903e-07 4.37022031356229e-09 1.94514945174352e-09 1.73542563517315e-08
"142" 19547 2.19420060099319e-07 1.36858129478836e-08 5.44274579815227e-08 1.34600051046112e-07 1.84001487226842e-07 4.37849011753342e-09 1.94566941212102e-09 1.74122868712651e-08
"143" 19548 2.18908557915062e-07 1.36681387764119e-08 5.43310893977997e-08 1.34754059157199e-07 1.84247227543781e-07 4.38675992150455e-09 1.94618937249853e-09 1.74703173907986e-08
"144" 19549 2.18397055730805e-07 1.36504646049402e-08 5.42347208140767e-08 1.34908067268286e-07 1.8449296786072e-07 4.39502972547568e-09 1.94670933287603e-09 1.75283479103321e-08
"145" 19550 2.17885553546547e-07 1.36327904334685e-08 5.41383522303536e-08 1.35062075379373e-07 1.8473870817766e-07 4.40329952944681e-09 1.94722929325354e-09 1.75863784298656e-08
"146" 19551 2.1737405136229e-07 1.36151162619967e-08 5.40419836466306e-08 1.35216083490459e-07 1.84984448494599e-07 4.41156933341794e-09 1.94774925363104e-09 1.76444089493991e-08
"147" 19552 2.16862549178033e-07 1.3597442090525e-08 5.39456150629076e-08 1.35370091601546e-07 1.85230188811538e-07 4.41983913738908e-09 1.94826921400855e-09 1.77024394689326e-08
"148" 19553 2.16351046993776e-07 1.35797679190533e-08 5.38492464791846e-08 1.35524099712633e-07 1.85475929128477e-07 4.42810894136021e-09 1.94878917438605e-09 1.77604699884662e-08
"149" 19554 2.15839544809518e-07 1.35620937475816e-08 5.37528778954615e-08 1.3567810782372e-07 1.85721669445417e-07 4.43637874533134e-09 1.94930913476355e-09 1.78185005079997e-08
"150" 19555 2.15328042625261e-07 1.35444195761099e-08 5.36565093117385e-08 1.35832115934806e-07 1.85967409762356e-07 4.44464854930247e-09 1.94982909514106e-09 1.78765310275332e-08
"151" 19556 2.15173793348922e-07 1.3367152559592e-08 5.2994039834237e-08 1.35522804566914e-07 1.86088451239366e-07 4.43606388654702e-09 1.95318946135627e-09 1.79394659512104e-08
"152" 19557 2.15019544072583e-07 1.31898855430742e-08 5.23315703567354e-08 1.35213493199021e-07 1.86209492716376e-07 4.42747922379157e-09 1.95654982757148e-09 1.80024008748875e-08
"153" 19558 2.17413073327806e-07 1.31657499471563e-08 5.1976629194095e-08 1.34377712146488e-07 1.86007756921359e-07 4.43493541586118e-09 1.95102112876161e-09 1.81850276428137e-08
"154" 19559 2.19806602583029e-07 1.31416143512384e-08 5.16216880314546e-08 1.33541931093955e-07 1.85806021126342e-07 4.44239160793079e-09 1.94549242995173e-09 1.83676544107399e-08
"155" 19560 2.22200131838253e-07 1.31174787553205e-08 5.12667468688142e-08 1.32706150041422e-07 1.85604285331325e-07 4.44984780000039e-09 1.93996373114186e-09 1.8550281178666e-08
"156" 19561 2.24593661093476e-07 1.30933431594026e-08 5.09118057061738e-08 1.3187036898889e-07 1.85402549536308e-07 4.45730399207e-09 1.93443503233199e-09 1.87329079465922e-08
"157" 19562 2.26987190348699e-07 1.30692075634847e-08 5.05568645435334e-08 1.31034587936357e-07 1.85200813741291e-07 4.46476018413961e-09 1.92890633352212e-09 1.89155347145184e-08
"158" 19563 2.29380719603922e-07 1.30450719675668e-08 5.0201923380893e-08 1.30198806883824e-07 1.84999077946273e-07 4.47221637620922e-09 1.92337763471225e-09 1.90981614824445e-08
"159" 19564 2.31774248859145e-07 1.30209363716489e-08 4.98469822182526e-08 1.29363025831291e-07 1.84797342151256e-07 4.47967256827882e-09 1.91784893590237e-09 1.92807882503707e-08
"160" 19565 2.34167778114369e-07 1.2996800775731e-08 4.94920410556122e-08 1.28527244778758e-07 1.84595606356239e-07 4.48712876034843e-09 1.9123202370925e-09 1.94634150182969e-08
"161" 19566 2.36561307369592e-07 1.29726651798131e-08 4.91370998929718e-08 1.27691463726225e-07 1.84393870561222e-07 4.49458495241804e-09 1.90679153828263e-09 1.9646041786223e-08
"162" 19567 2.38954836624815e-07 1.29485295838952e-08 4.87821587303314e-08 1.26855682673692e-07 1.84192134766205e-07 4.50204114448765e-09 1.90126283947276e-09 1.98286685541492e-08
"163" 19568 2.41348365880038e-07 1.29243939879773e-08 4.8427217567691e-08 1.2601990162116e-07 1.83990398971187e-07 4.50949733655725e-09 1.89573414066289e-09 2.00112953220754e-08
"164" 19569 2.42367435425865e-07 1.29060174646363e-08 4.84333330082468e-08 1.25892237549051e-07 1.8358988917762e-07 4.51603405696241e-09 1.89237377444768e-09 2.01577595195349e-08
"165" 19570 2.43386504971691e-07 1.28876409412952e-08 4.84394484488026e-08 1.25764573476943e-07 1.83189379384053e-07 4.52257077736756e-09 1.88901340823247e-09 2.03042237169945e-08
"166" 19571 2.44405574517518e-07 1.28692644179542e-08 4.84455638893584e-08 1.25636909404835e-07 1.82788869590486e-07 4.52910749777272e-09 1.88565304201726e-09 2.0450687914454e-08
"167" 19572 2.45424644063344e-07 1.28508878946131e-08 4.84516793299143e-08 1.25509245332727e-07 1.82388359796919e-07 4.53564421817787e-09 1.88229267580205e-09 2.05971521119136e-08
"168" 19573 2.46443713609171e-07 1.28325113712721e-08 4.84577947704701e-08 1.25381581260619e-07 1.81987850003352e-07 4.54218093858303e-09 1.87893230958684e-09 2.07436163093731e-08
"169" 19574 2.47462783154997e-07 1.2814134847931e-08 4.84639102110259e-08 1.25253917188511e-07 1.81587340209785e-07 4.54871765898818e-09 1.87557194337163e-09 2.08900805068327e-08
"170" 19575 2.48481852700824e-07 1.279575832459e-08 4.84700256515817e-08 1.25126253116403e-07 1.81186830416218e-07 4.55525437939334e-09 1.87221157715642e-09 2.10365447042923e-08
"171" 19576 2.4950092224665e-07 1.27773818012489e-08 4.84761410921376e-08 1.24998589044295e-07 1.8078632062265e-07 4.56179109979849e-09 1.86885121094121e-09 2.11830089017518e-08
"172" 19577 2.50519991792477e-07 1.27590052779079e-08 4.84822565326934e-08 1.24870924972186e-07 1.80385810829083e-07 4.56832782020365e-09 1.865490844726e-09 2.13294730992114e-08
"173" 19578 2.50833608211577e-07 1.26627377738268e-08 4.85125077275992e-08 1.24523478840099e-07 1.81393624308038e-07 4.62337183692484e-09 1.86900332380675e-09 2.13453560108718e-08
"174" 19579 2.50503206316114e-07 1.25506893113667e-08 4.85848497890743e-08 1.24813253998326e-07 1.80993375651213e-07 4.62557584841505e-09 1.86883000368091e-09 2.13017744889184e-08
"175" 19580 2.50172804420651e-07 1.24386408489067e-08 4.86571918505495e-08 1.25103029156553e-07 1.80593126994389e-07 4.62777985990527e-09 1.86865668355508e-09 2.1258192966965e-08
"176" 19581 2.49842402525188e-07 1.23265923864466e-08 4.87295339120246e-08 1.2539280431478e-07 1.80192878337564e-07 4.62998387139549e-09 1.86848336342924e-09 2.12146114450116e-08
"177" 19582 2.49512000629725e-07 1.22145439239866e-08 4.88018759734998e-08 1.25682579473008e-07 1.7979262968074e-07 4.6321878828857e-09 1.86831004330341e-09 2.11710299230582e-08
"178" 19583 2.49181598734262e-07 1.21024954615266e-08 4.8874218034975e-08 1.25972354631235e-07 1.79392381023915e-07 4.63439189437592e-09 1.86813672317757e-09 2.11274484011048e-08
"179" 19584 2.488511968388e-07 1.19904469990665e-08 4.89465600964501e-08 1.26262129789462e-07 1.78992132367091e-07 4.63659590586613e-09 1.86796340305174e-09 2.10838668791514e-08
"180" 19585 2.48520794943337e-07 1.18783985366065e-08 4.90189021579253e-08 1.26551904947689e-07 1.78591883710266e-07 4.63879991735635e-09 1.8677900829259e-09 2.10402853571979e-08
"181" 19586 2.48190393047874e-07 1.17663500741464e-08 4.90912442194005e-08 1.26841680105916e-07 1.78191635053442e-07 4.64100392884656e-09 1.86761676280007e-09 2.09967038352445e-08
"182" 19587 2.47859991152411e-07 1.16543016116864e-08 4.91635862808756e-08 1.27131455264144e-07 1.77791386396617e-07 4.64320794033678e-09 1.86744344267423e-09 2.09531223132911e-08
"183" 19588 2.47529589256948e-07 1.15422531492263e-08 4.92359283423508e-08 1.27421230422371e-07 1.77391137739793e-07 4.645411951827e-09 1.8672701225484e-09 2.09095407913377e-08
"184" 19589 2.47199187361486e-07 1.14302046867663e-08 4.93082704038259e-08 1.27711005580598e-07 1.76990889082968e-07 4.64761596331721e-09 1.86709680242256e-09 2.08659592693843e-08
"185" 19590 2.46868785466023e-07 1.13181562243062e-08 4.93806124653011e-08 1.28000780738825e-07 1.76590640426144e-07 4.64981997480743e-09 1.86692348229673e-09 2.08223777474309e-08
"186" 19591 2.46467737347541e-07 1.12573470150048e-08 4.93888744925224e-08 1.28144505668935e-07 1.74208137588287e-07 4.62461766953976e-09 1.86675016217089e-09 2.07849089183691e-08
"187" 19592 2.46737414812951e-07 1.12027182894018e-08 4.92600640967007e-08 1.28448173569848e-07 1.73218498115786e-07 4.58180565653439e-09 1.87227886098077e-09 2.07456261737141e-08
"188" 19593 2.46601745147196e-07 1.1202437348654e-08 4.90812479860091e-08 1.28367252639703e-07 1.73098558311813e-07 4.58112300908429e-09 1.87780755979064e-09 2.07116129918967e-08
"189" 19594 2.46466075481441e-07 1.12021564079063e-08 4.89024318753174e-08 1.28286331709559e-07 1.72978618507841e-07 4.58044036163419e-09 1.88333625860051e-09 2.06775998100794e-08
"190" 19595 2.46330405815686e-07 1.12018754671586e-08 4.87236157646257e-08 1.28205410779414e-07 1.72858678703868e-07 4.5797577141841e-09 1.88886495741038e-09 2.0643586628262e-08
"191" 19596 2.46194736149931e-07 1.12015945264109e-08 4.8544799653934e-08 1.2812448984927e-07 1.72738738899896e-07 4.579075066734e-09 1.89439365622026e-09 2.06095734464446e-08
"192" 19597 2.46059066484176e-07 1.12013135856631e-08 4.83659835432424e-08 1.28043568919125e-07 1.72618799095923e-07 4.5783924192839e-09 1.89992235503013e-09 2.05755602646272e-08
"193" 19598 2.45516416569781e-07 1.12121843548656e-08 4.8326166289622e-08 1.27605282816118e-07 1.72530634041785e-07 4.57996671320548e-09 1.89977024216459e-09 2.05393976941606e-08
"194" 19599 2.44973766655387e-07 1.12230551240681e-08 4.82863490360016e-08 1.27166996713112e-07 1.72442468987648e-07 4.58154100712707e-09 1.89961812929905e-09 2.0503235123694e-08
"195" 19600 2.44431116740992e-07 1.12339258932706e-08 4.82465317823812e-08 1.26728710610105e-07 1.7235430393351e-07 4.58311530104865e-09 1.89946601643352e-09 2.04670725532274e-08
"196" 19601 2.43888466826597e-07 1.12447966624731e-08 4.82067145287607e-08 1.26290424507098e-07 1.72266138879372e-07 4.58468959497023e-09 1.89931390356798e-09 2.04309099827608e-08
"197" 19602 2.43345816912203e-07 1.12556674316756e-08 4.81668972751403e-08 1.25852138404091e-07 1.72177973825234e-07 4.58626388889181e-09 1.89916179070244e-09 2.03947474122942e-08
"198" 19603 2.42803166997808e-07 1.12665382008781e-08 4.81270800215199e-08 1.25413852301084e-07 1.72089808771096e-07 4.5878381828134e-09 1.8990096778369e-09 2.03585848418276e-08
"199" 19604 2.42260517083413e-07 1.12774089700806e-08 4.80872627678995e-08 1.24975566198077e-07 1.72001643716959e-07 4.58941247673498e-09 1.89885756497137e-09 2.0322422271361e-08
"200" 19605 2.41717867169019e-07 1.12882797392831e-08 4.80474455142791e-08 1.24537280095071e-07 1.71913478662821e-07 4.59098677065656e-09 1.89870545210583e-09 2.02862597008943e-08
"201" 19606 2.41175217254624e-07 1.12991505084856e-08 4.80076282606587e-08 1.24098993992064e-07 1.71825313608683e-07 4.59256106457815e-09 1.89855333924029e-09 2.02500971304277e-08
"202" 19607 2.40632567340229e-07 1.13100212776881e-08 4.79678110070383e-08 1.23660707889057e-07 1.71737148554545e-07 4.59413535849973e-09 1.89840122637475e-09 2.02139345599611e-08
"203" 19608 2.40089917425835e-07 1.13208920468906e-08 4.79279937534179e-08 1.2322242178605e-07 1.71648983500407e-07 4.59570965242131e-09 1.89824911350922e-09 2.01777719894945e-08
"204" 19609 2.3954726751144e-07 1.13317628160931e-08 4.78881764997975e-08 1.22784135683043e-07 1.71560818446269e-07 4.59728394634289e-09 1.89809700064368e-09 2.01416094190279e-08
"205" 19610 2.39004617597045e-07 1.13426335852956e-08 4.78483592461771e-08 1.22345849580037e-07 1.71472653392132e-07 4.59885824026448e-09 1.89794488777814e-09 2.01054468485613e-08
"206" 19611 2.38461967682651e-07 1.13535043544981e-08 4.78085419925566e-08 1.2190756347703e-07 1.71384488337994e-07 4.60043253418606e-09 1.89779277491261e-09 2.00692842780947e-08
"207" 19612 2.37919317768256e-07 1.13643751237006e-08 4.77687247389362e-08 1.21469277374023e-07 1.71296323283856e-07 4.60200682810764e-09 1.89764066204707e-09 2.00331217076281e-08
"208" 19613 2.37376667853861e-07 1.1375245892903e-08 4.77289074853158e-08 1.21030991271016e-07 1.71208158229718e-07 4.60358112202922e-09 1.89748854918153e-09 1.99969591371615e-08
"209" 19614 2.37329793878719e-07 1.13790872950067e-08 4.78224317476664e-08 1.18068824163328e-07 1.70153710614571e-07 4.55089446543371e-09 1.88231022101889e-09 1.99933342709177e-08
"210" 19615 2.37669034177167e-07 1.13829286971103e-08 4.77740298358172e-08 1.15344539722771e-07 1.6924631212345e-07 4.54372802745992e-09 1.86713189285625e-09 2.00321449831508e-08
"211" 19616 2.3755971677075e-07 1.12349476441339e-08 4.77738994326679e-08 1.14430555189088e-07 1.69482700459575e-07 4.58964113943593e-09 1.86713189285625e-09 2.00253732220234e-08
"212" 19617 2.37450399364333e-07 1.10869665911574e-08 4.77737690295185e-08 1.13516570655404e-07 1.69719088795699e-07 4.63555425141194e-09 1.86713189285625e-09 2.0018601460896e-08
"213" 19618 2.37341081957916e-07 1.0938985538181e-08 4.77736386263692e-08 1.12602586121721e-07 1.69955477131824e-07 4.68146736338795e-09 1.86713189285625e-09 2.00118296997686e-08
"214" 19619 2.372317645515e-07 1.07910044852045e-08 4.77735082232198e-08 1.11688601588038e-07 1.70191865467949e-07 4.72738047536395e-09 1.86713189285625e-09 2.00050579386412e-08
"215" 19620 2.37122447145083e-07 1.0643023432228e-08 4.77733778200705e-08 1.10774617054355e-07 1.70428253804073e-07 4.77329358733996e-09 1.86713189285625e-09 1.99982861775138e-08
"216" 19621 2.37013129738666e-07 1.04950423792516e-08 4.77732474169212e-08 1.09860632520672e-07 1.70664642140198e-07 4.81920669931597e-09 1.86713189285625e-09 1.99915144163864e-08
"217" 19622 2.36903812332249e-07 1.03470613262751e-08 4.77731170137718e-08 1.08946647986989e-07 1.70901030476322e-07 4.86511981129198e-09 1.86713189285625e-09 1.9984742655259e-08
"218" 19623 2.36794494925832e-07 1.01990802732987e-08 4.77729866106225e-08 1.08032663453306e-07 1.71137418812447e-07 4.91103292326799e-09 1.86713189285625e-09 1.99779708941316e-08
"219" 19624 2.36685177519416e-07 1.00510992203222e-08 4.77728562074732e-08 1.07118678919623e-07 1.71373807148571e-07 4.956946035244e-09 1.86713189285625e-09 1.99711991330042e-08
"220" 19625 2.36575860112999e-07 9.90311816734573e-09 4.77727258043238e-08 1.06204694385939e-07 1.71610195484696e-07 5.00285914722001e-09 1.86713189285625e-09 1.99644273718768e-08
"221" 19626 2.36466542706582e-07 9.75513711436927e-09 4.77725954011745e-08 1.05290709852256e-07 1.7184658382082e-07 5.04877225919602e-09 1.86713189285625e-09 1.99576556107494e-08
"222" 19627 2.36357225300165e-07 9.60715606139281e-09 4.77724649980251e-08 1.04376725318573e-07 1.72082972156945e-07 5.09468537117203e-09 1.86713189285625e-09 1.9950883849622e-08
"223" 19628 2.36754974207199e-07 9.61099746349645e-09 4.74307945648253e-08 1.04217247649094e-07 1.72456102372556e-07 5.12303626428286e-09 1.85195356469361e-09 1.99935302106123e-08
"224" 19629 2.37152723114233e-07 9.61483886560009e-09 4.70891241316255e-08 1.04057769979615e-07 1.72829232588167e-07 5.1513871573937e-09 1.83677523653097e-09 2.00361765716026e-08
"225" 19630 2.37550472021267e-07 9.61868026770374e-09 4.67474536984257e-08 1.03898292310136e-07 1.73202362803778e-07 5.17973805050454e-09 1.82159690836833e-09 2.00788229325929e-08
"226" 19631 2.37948220928301e-07 9.62252166980738e-09 4.64057832652258e-08 1.03738814640657e-07 1.73575493019389e-07 5.20808894361537e-09 1.80641858020569e-09 2.01214692935832e-08
"227" 19632 2.3813448087789e-07 9.65492431750554e-09 4.60751717732265e-08 1.03345556372122e-07 1.73702872357434e-07 5.1905267247502e-09 1.79221655101717e-09 2.01225439879078e-08
"228" 19633 2.38320740827478e-07 9.68732696520369e-09 4.57445602812272e-08 1.02952298103588e-07 1.73830251695478e-07 5.17296450588503e-09 1.77801452182865e-09 2.01236186822325e-08
"229" 19634 2.38358935121381e-07 9.7276404732417e-09 4.54021743191389e-08 1.02633785496177e-07 1.73830251695478e-07 5.15708244070437e-09 1.76513543186591e-09 2.04482000878062e-08
"230" 19635 2.38397129415284e-07 9.7679539812797e-09 4.50597883570506e-08 1.02315272888767e-07 1.73830251695478e-07 5.1412003755237e-09 1.75225634190317e-09 2.077278149338e-08
"231" 19636 2.38009768077835e-07 9.82418891807052e-09 4.50353934848348e-08 1.02354360422514e-07 1.7319524585092e-07 5.14248763585394e-09 1.75455558010307e-09 2.10676128698588e-08
"232" 19637 2.37622406740386e-07 9.88042385486134e-09 4.50109986126191e-08 1.02393447956262e-07 1.72560240006362e-07 5.14377489618417e-09 1.75685481830298e-09 2.13624442463377e-08
"233" 19638 2.37235045402937e-07 9.93665879165217e-09 4.49866037404034e-08 1.0243253549001e-07 1.71925234161804e-07 5.1450621565144e-09 1.75915405650288e-09 2.16572756228165e-08
"234" 19639 2.36847684065488e-07 9.99289372844299e-09 4.49622088681876e-08 1.02471623023758e-07 1.71290228317247e-07 5.14634941684464e-09 1.76145329470278e-09 2.19521069992953e-08
"235" 19640 2.36460322728039e-07 1.00491286652338e-08 4.49378139959719e-08 1.02510710557505e-07 1.70655222472689e-07 5.14763667717487e-09 1.76375253290268e-09 2.22469383757742e-08
"236" 19641 2.3607296139059e-07 1.01053636020246e-08 4.49134191237562e-08 1.02549798091253e-07 1.70020216628131e-07 5.1489239375051e-09 1.76605177110259e-09 2.2541769752253e-08
"237" 19642 2.35685600053141e-07 1.01615985388155e-08 4.48890242515404e-08 1.02588885625001e-07 1.69385210783573e-07 5.15021119783534e-09 1.76835100930249e-09 2.28366011287319e-08
"238" 19643 2.35298238715692e-07 1.02178334756063e-08 4.48646293793247e-08 1.02627973158748e-07 1.68750204939015e-07 5.15149845816557e-09 1.77065024750239e-09 2.31314325052107e-08
"239" 19644 2.34910877378244e-07 1.02740684123971e-08 4.4840234507109e-08 1.02667060692496e-07 1.68115199094457e-07 5.1527857184958e-09 1.77294948570229e-09 2.34262638816896e-08
"240" 19645 2.34523516040795e-07 1.03303033491879e-08 4.48158396348932e-08 1.02706148226244e-07 1.67480193249899e-07 5.15407297882603e-09 1.7752487239022e-09 2.37210952581684e-08
"241" 19646 2.34987329986173e-07 1.03424607178327e-08 4.48267470018971e-08 1.02873505187347e-07 1.66817475645188e-07 5.20675963542155e-09 1.78676246011855e-09 2.37627589557432e-08
"242" 19647 2.35451143931551e-07 1.03546180864775e-08 4.4837654368901e-08 1.0304086214845e-07 1.66154758040478e-07 5.25944629201707e-09 1.79827619633491e-09 2.3804422653318e-08
"243" 19648 2.3591495787693e-07 1.03667754551223e-08 4.48485617359049e-08 1.03208219109554e-07 1.65492040435768e-07 5.31213294861259e-09 1.80978993255126e-09 2.38460863508928e-08
"244" 19649 2.36378771822308e-07 1.03789328237671e-08 4.48594691029088e-08 1.03375576070657e-07 1.64829322831057e-07 5.36481960520811e-09 1.82130366876762e-09 2.38877500484675e-08
"245" 19650 2.37096263633974e-07 1.01675796063677e-08 4.43688069561121e-08 1.03345678894409e-07 1.646180804844e-07 5.4162190014734e-09 1.81642217389704e-09 2.38145966202992e-08
"246" 19651 2.37813755445641e-07 9.95622638896825e-09 4.38781448093154e-08 1.03315781718162e-07 1.64406838137743e-07 5.46761839773868e-09 1.81154067902646e-09 2.37414431921309e-08
"247" 19652 2.38402224693823e-07 9.9645260505891e-09 4.38043733784961e-08 1.02771507454374e-07 1.6434010938684e-07 5.50626193248244e-09 1.81893348469992e-09 2.38003673091133e-08
"248" 19653 2.3973604961311e-07 9.96956040521913e-09 4.3710782226138e-08 1.02568128225693e-07 1.64287376925278e-07 5.48977797492612e-09 1.81463923403119e-09 2.39427731974257e-08
"249" 19654 2.41069874532397e-07 9.97459475984915e-09 4.36171910737798e-08 1.02364748997011e-07 1.64234644463717e-07 5.47329401736979e-09 1.81034498336246e-09 2.4085179085738e-08
"250" 19655 2.42403699451683e-07 9.97962911447918e-09 4.35235999214217e-08 1.0216136976833e-07 1.64181912002155e-07 5.45681005981346e-09 1.80605073269373e-09 2.42275849740504e-08
"251" 19656 2.4373752437097e-07 9.9846634691092e-09 4.34300087690635e-08 1.01957990539649e-07 1.64129179540593e-07 5.44032610225713e-09 1.801756482025e-09 2.43699908623628e-08
"252" 19657 2.45071349290257e-07 9.98969782373923e-09 4.33364176167053e-08 1.01754611310967e-07 1.64076447079031e-07 5.4238421447008e-09 1.79746223135627e-09 2.45123967506752e-08
"253" 19658 2.46405174209544e-07 9.99473217836925e-09 4.32428264643472e-08 1.01551232082286e-07 1.6402371461747e-07 5.40735818714448e-09 1.79316798068754e-09 2.46548026389876e-08
"254" 19659 2.47738999128831e-07 9.99976653299928e-09 4.3149235311989e-08 1.01347852853605e-07 1.63970982155908e-07 5.39087422958815e-09 1.7888737300188e-09 2.47972085273e-08
"255" 19660 2.49072824048117e-07 1.00048008876293e-08 4.30556441596308e-08 1.01144473624923e-07 1.63918249694346e-07 5.37439027203182e-09 1.78457947935007e-09 2.49396144156123e-08
"256" 19661 2.50406648967404e-07 1.00098352422593e-08 4.29620530072727e-08 1.00941094396242e-07 1.63865517232784e-07 5.35790631447549e-09 1.78028522868134e-09 2.50820203039247e-08
"257" 19662 2.51740473886691e-07 1.00148695968893e-08 4.28684618549145e-08 1.00737715167561e-07 1.63812784771222e-07 5.34142235691917e-09 1.77599097801261e-09 2.52244261922371e-08
"258" 19663 2.53074298805978e-07 1.00199039515194e-08 4.27748707025563e-08 1.00534335938879e-07 1.63760052309661e-07 5.32493839936284e-09 1.77169672734388e-09 2.53668320805495e-08
"259" 19664 2.54408123725265e-07 1.00249383061494e-08 4.26812795501982e-08 1.00330956710198e-07 1.63707319848099e-07 5.30845444180651e-09 1.76740247667515e-09 2.55092379688619e-08
"260" 19665 2.55741948644551e-07 1.00299726607794e-08 4.258768839784e-08 1.00127577481517e-07 1.63654587386537e-07 5.29197048425018e-09 1.76310822600642e-09 2.56516438571742e-08
"261" 19666 2.57075773563838e-07 1.00350070154094e-08 4.24940972454819e-08 9.99241982528356e-08 1.63601854924975e-07 5.27548652669385e-09 1.75881397533769e-09 2.57940497454866e-08
"262" 19667 2.58409598483125e-07 1.00400413700395e-08 4.24005060931237e-08 9.97208190241543e-08 1.63549122463413e-07 5.25900256913753e-09 1.75451972466896e-09 2.5936455633799e-08
"263" 19668 2.58149587092314e-07 1.00563679049936e-08 4.23714268381291e-08 9.89761187547157e-08 1.63843480888565e-07 5.29764610388129e-09 1.75107086736911e-09 2.59242539947154e-08
"264" 19669 2.57889575701503e-07 1.00726944399477e-08 4.23423475831345e-08 9.82314184852771e-08 1.64137839313716e-07 5.33628963862505e-09 1.74762201006926e-09 2.59120523556319e-08
"265" 19670 2.57565006644575e-07 1.00885995637802e-08 4.22352037239898e-08 9.7587505641187e-08 1.64067442639268e-07 5.32917613053273e-09 1.74332775940052e-09 2.59479002347995e-08
"266" 19671 2.57240437587647e-07 1.01045046876127e-08 4.21280598648451e-08 9.6943592797097e-08 1.63997045964819e-07 5.3220626224404e-09 1.73903350873179e-09 2.59837481139671e-08
"267" 19672 2.57240437587647e-07 1.006102767196e-08 4.16266859557685e-08 9.6997374101401e-08 1.64008756342358e-07 5.3277049758696e-09 1.72246495751902e-09 2.60297254316592e-08
"268" 19673 2.57240437587647e-07 1.00175506563072e-08 4.1125312046692e-08 9.7051155405705e-08 1.64020466719897e-07 5.3333473292988e-09 1.70589640630625e-09 2.60757027493513e-08
"269" 19674 2.56296893686514e-07 9.99509046111259e-09 4.10790372388938e-08 9.71405108050304e-08 1.62708558329467e-07 5.31843494515959e-09 1.70004227450501e-09 2.60685094231969e-08
"270" 19675 2.5535334978538e-07 9.97263026591798e-09 4.10327624310956e-08 9.72298662043559e-08 1.61396649939037e-07 5.30352256102037e-09 1.69418814270376e-09 2.60613160970425e-08
"271" 19676 2.54409805884246e-07 9.95017007072337e-09 4.09864876232975e-08 9.73192216036814e-08 1.60084741548608e-07 5.28861017688116e-09 1.68833401090252e-09 2.60541227708881e-08
"272" 19677 2.53466261983112e-07 9.92770987552876e-09 4.09402128154993e-08 9.74085770030068e-08 1.58772833158178e-07 5.27369779274194e-09 1.68247987910127e-09 2.60469294447337e-08
"273" 19678 2.52522718081979e-07 9.90524968033415e-09 4.08939380077011e-08 9.74979324023323e-08 1.57460924767749e-07 5.25878540860273e-09 1.67662574730003e-09 2.60397361185793e-08
"274" 19679 2.51579174180845e-07 9.88278948513954e-09 4.08476631999029e-08 9.75872878016578e-08 1.56149016377319e-07 5.24387302446351e-09 1.67077161549878e-09 2.60325427924249e-08
"275" 19680 2.50635630279711e-07 9.86032928994492e-09 4.08013883921048e-08 9.76766432009832e-08 1.54837107986889e-07 5.2289606403243e-09 1.66491748369754e-09 2.60253494662705e-08
"276" 19681 2.49692086378578e-07 9.83786909475031e-09 4.07551135843066e-08 9.77659986003087e-08 1.5352519959646e-07 5.21404825618509e-09 1.6590633518963e-09 2.60181561401161e-08
"277" 19682 2.48748542477444e-07 9.8154088995557e-09 4.07088387765084e-08 9.78553539996342e-08 1.5221329120603e-07 5.19913587204587e-09 1.65320922009505e-09 2.60109628139617e-08
"278" 19683 2.4780499857631e-07 9.79294870436109e-09 4.06625639687103e-08 9.79447093989596e-08 1.50901382815601e-07 5.18422348790666e-09 1.64735508829381e-09 2.60037694878073e-08
"279" 19684 2.46861454675177e-07 9.77048850916648e-09 4.06162891609121e-08 9.80340647982851e-08 1.49589474425171e-07 5.16931110376744e-09 1.64150095649256e-09 2.59965761616529e-08
"280" 19685 2.46631664051266e-07 9.74127173516060e-09 4.05979428392446e-08 9.69896761737237e-08 1.48766500099898e-07 5.17663361088115e-09 1.63902839816683e-09 2.60329643574519e-08
"281" 19686 2.46401873427356e-07 9.71205496115471e-09 4.05795965175772e-08 9.59452875491624e-08 1.47943525774625e-07 5.18395611799487e-09 1.63655583984109e-09 2.60693525532509e-08
"282" 19687 2.46172082803446e-07 9.68283818714883e-09 4.05612501959097e-08 9.4900898924601e-08 1.47120551449352e-07 5.19127862510858e-09 1.63408328151535e-09 2.61057407490499e-08
"283" 19688 2.45942292179535e-07 9.65362141314295e-09 4.05429038742422e-08 9.38565103000396e-08 1.46297577124079e-07 5.19860113222229e-09 1.63161072318961e-09 2.6142128944849e-08
"284" 19689 2.45713236458488e-07 9.63484793606075e-09 4.06790863347199e-08 9.28127099019587e-08 1.45469490459399e-07 5.19899402557657e-09 1.63343241553261e-09 2.61323082586852e-08
"285" 19690 2.45484180737442e-07 9.61607445897856e-09 4.08152687951975e-08 9.17689095038779e-08 1.44641403794719e-07 5.19938691893085e-09 1.6352541078756e-09 2.61224875725215e-08
"286" 19691 2.45484180737442e-07 9.57322036189656e-09 4.07969224735301e-08 9.09035954152996e-08 1.45204007871555e-07 5.22679323568873e-09 1.63646734875644e-09 2.61224875725215e-08
"287" 19692 2.45484180737442e-07 9.53036626481457e-09 4.07785761518626e-08 9.00382813267213e-08 1.45766611948392e-07 5.25419955244662e-09 1.63768058963729e-09 2.61224875725215e-08
"288" 19693 2.45484180737442e-07 9.48751216773258e-09 4.07602298301951e-08 8.91729672381431e-08 1.46329216025229e-07 5.28160586920451e-09 1.63889383051813e-09 2.61224875725215e-08
"289" 19694 2.4515211927088e-07 9.41264422423342e-09 4.06980144052607e-08 8.93981064105059e-08 1.4769553026812e-07 5.30680817447218e-09 1.64173423635584e-09 2.61145847107364e-08
"290" 19695 2.44820057804318e-07 9.33777628073427e-09 4.06357989803263e-08 8.96232455828686e-08 1.49061844511011e-07 5.33201047973985e-09 1.64457464219354e-09 2.61066818489513e-08
"291" 19696 2.44487996337756e-07 9.26290833723512e-09 4.05735835553919e-08 8.98483847552314e-08 1.50428158753902e-07 5.35721278500752e-09 1.64741504803125e-09 2.60987789871662e-08
"292" 19697 2.44155934871194e-07 9.18804039373597e-09 4.05113681304574e-08 9.00735239275942e-08 1.51794472996793e-07 5.38241509027519e-09 1.65025545386895e-09 2.6090876125381e-08
"293" 19698 2.43823873404632e-07 9.11317245023682e-09 4.0449152705523e-08 9.0298663099957e-08 1.53160787239684e-07 5.40761739554286e-09 1.65309585970666e-09 2.60829732635959e-08
"294" 19699 2.4349181193807e-07 9.03830450673767e-09 4.03869372805886e-08 9.05238022723198e-08 1.54527101482575e-07 5.43281970081053e-09 1.65593626554436e-09 2.60750704018108e-08
"295" 19700 2.43159750471508e-07 8.96343656323852e-09 4.03247218556542e-08 9.07489414446826e-08 1.55893415725466e-07 5.4580220060782e-09 1.65877667138207e-09 2.60671675400257e-08
"296" 19701 2.42827689004946e-07 8.88856861973937e-09 4.02625064307197e-08 9.09740806170454e-08 1.57259729968357e-07 5.48322431134587e-09 1.66161707721977e-09 2.60592646782406e-08
"297" 19702 2.42495627538384e-07 8.81370067624022e-09 4.02002910057853e-08 9.11992197894082e-08 1.58626044211248e-07 5.50842661661354e-09 1.66445748305747e-09 2.60513618164555e-08
"298" 19703 2.42163566071822e-07 8.73883273274107e-09 4.01380755808509e-08 9.1424358961771e-08 1.59992358454139e-07 5.53362892188121e-09 1.66729788889518e-09 2.60434589546704e-08
"299" 19704 2.41757106439922e-07 8.67802352343962e-09 4.00899344753003e-08 9.13696361728021e-08 1.6056370055142e-07 5.53362892188121e-09 1.66677792851767e-09 2.60238947704331e-08
"300" 19705 2.41350646808021e-07 8.61721431413818e-09 4.00417933697498e-08 9.13149133838333e-08 1.61135042648701e-07 5.53362892188121e-09 1.66625796814017e-09 2.60043305861958e-08
"301" 19706 2.4094418717612e-07 8.55640510483673e-09 3.99936522641992e-08 9.12601905948644e-08 1.61706384745982e-07 5.53362892188121e-09 1.66573800776267e-09 2.59847664019586e-08
"302" 19707 2.40537727544219e-07 8.49559589553529e-09 3.99455111586487e-08 9.12054678058956e-08 1.62277726843263e-07 5.53362892188121e-09 1.66521804738516e-09 2.59652022177213e-08
"303" 19708 2.40689809678467e-07 8.49083432919284e-09 3.95411934374048e-08 9.09423280793828e-08 1.61956549517567e-07 5.53583293337143e-09 1.66352726064741e-09 2.59594487445854e-08
"304" 19709 2.40841891812715e-07 8.4860727628504e-09 3.91368757161609e-08 9.067918835287e-08 1.61635372191872e-07 5.53803694486164e-09 1.66183647390965e-09 2.59536952714495e-08
"305" 19710 2.40723698436813e-07 8.47714203019863e-09 3.88058585973979e-08 9.09012288072694e-08 1.62977630118239e-07 5.55247296006768e-09 1.65754222324092e-09 2.58926870760317e-08
"306" 19711 2.40605505060911e-07 8.46821129754686e-09 3.84748414786348e-08 9.11232692616688e-08 1.64319888044605e-07 5.56690897527372e-09 1.65324797257219e-09 2.58316788806138e-08
"307" 19712 2.40487311685009e-07 8.45928056489509e-09 3.81438243598717e-08 9.13453097160682e-08 1.65662145970971e-07 5.58134499047975e-09 1.64895372190346e-09 2.5770670685196e-08
"308" 19713 2.40369118309107e-07 8.45034983224332e-09 3.78128072411087e-08 9.15673501704676e-08 1.67004403897338e-07 5.59578100568579e-09 1.64465947123473e-09 2.57096624897781e-08
"309" 19714 2.40250924933205e-07 8.44141909959154e-09 3.74817901223456e-08 9.1789390624867e-08 1.68346661823704e-07 5.61021702089182e-09 1.640365220566e-09 2.56486542943602e-08
"310" 19715 2.40132731557303e-07 8.43248836693977e-09 3.71507730035826e-08 9.20114310792663e-08 1.6968891975007e-07 5.62465303609786e-09 1.63607096989727e-09 2.55876460989424e-08
"311" 19716 2.40014538181401e-07 8.423557634288e-09 3.68197558848195e-08 9.22334715336657e-08 1.71031177676436e-07 5.63908905130389e-09 1.63177671922854e-09 2.55266379035245e-08
"312" 19717 2.39896344805499e-07 8.41462690163623e-09 3.64887387660565e-08 9.24555119880651e-08 1.72373435602803e-07 5.65352506650993e-09 1.62748246855981e-09 2.54656297081066e-08
"313" 19718 2.39778151429597e-07 8.40569616898446e-09 3.61577216472934e-08 9.26775524424645e-08 1.73715693529169e-07 5.66796108171597e-09 1.62318821789108e-09 2.54046215126888e-08
"314" 19719 2.39659958053695e-07 8.39676543633269e-09 3.58267045285303e-08 9.28995928968639e-08 1.75057951455535e-07 5.682397096922e-09 1.61889396722235e-09 2.53436133172709e-08
"315" 19720 2.39541764677792e-07 8.38783470368092e-09 3.54956874097673e-08 9.31216333512633e-08 1.76400209381902e-07 5.69683311212804e-09 1.61459971655362e-09 2.5282605121853e-08
"316" 19721 2.3942357130189e-07 8.37890397102915e-09 3.51646702910042e-08 9.33436738056627e-08 1.77742467308268e-07 5.71126912733407e-09 1.61030546588489e-09 2.52215969264352e-08
"317" 19722 2.39305377925988e-07 8.36997323837738e-09 3.48336531722412e-08 9.35657142600621e-08 1.79084725234634e-07 5.72570514254011e-09 1.60601121521616e-09 2.51605887310173e-08
"318" 19723 2.39187184550086e-07 8.36104250572561e-09 3.45026360534781e-08 9.37877547144614e-08 1.80426983161001e-07 5.74014115774614e-09 1.60171696454743e-09 2.50995805355994e-08
"319" 19724 2.39068991174184e-07 8.35211177307384e-09 3.41716189347151e-08 9.40097951688608e-08 1.81769241087367e-07 5.75457717295218e-09 1.5974227138787e-09 2.50385723401816e-08
"320" 19725 2.38950797798282e-07 8.34318104042207e-09 3.3840601815952e-08 9.42318356232602e-08 1.83111499013733e-07 5.76901318815822e-09 1.59312846320997e-09 2.49775641447637e-08
"321" 19726 2.40016900403127e-07 8.31870346668112e-09 3.35064829463836e-08 9.4017130567816e-08 1.83449196636768e-07 5.77287224864444e-09 1.59468834434248e-09 2.49760975710499e-08
"322" 19727 2.41083003007971e-07 8.29422589294017e-09 3.31723640768152e-08 9.38024255123718e-08 1.83786894259803e-07 5.77673130913067e-09 1.596248225475e-09 2.4974630997336e-08
"323" 19728 2.40900432913449e-07 8.30515163806077e-09 3.29999047303637e-08 9.366564383023e-08 1.83645175409772e-07 5.81767927411864e-09 1.59227940779764e-09 2.49265191338136e-08
"324" 19729 2.38217752595493e-07 8.10185581253229e-09 3.30782301408125e-08 9.38275538027167e-08 1.83487673591538e-07 5.85823434575233e-09 1.59145522168906e-09 2.48964395706007e-08
"325" 19730 2.35535072277538e-07 7.8985599870038e-09 3.31565555512612e-08 9.39894637752034e-08 1.83330171773304e-07 5.89878941738602e-09 1.59063103558048e-09 2.48663600073879e-08
"326" 19731 2.35567010112788e-07 7.93314494100261e-09 3.33122952385462e-08 9.41554758157669e-08 1.83163660717079e-07 5.92217516350882e-09 1.59095646857185e-09 2.4908086050234e-08
"327" 19732 2.35598947948039e-07 7.96772989500141e-09 3.34680349258313e-08 9.43214878563304e-08 1.82997149660853e-07 5.94556090963161e-09 1.59128190156322e-09 2.49498120930801e-08
"328" 19733 2.3563088578329e-07 8.00231484900022e-09 3.36237746131163e-08 9.44874998968939e-08 1.82830638604628e-07 5.9689466557544e-09 1.5916073345546e-09 2.49915381359262e-08
"329" 19734 2.3566282361854e-07 8.03689980299902e-09 3.37795143004013e-08 9.46535119374574e-08 1.82664127548403e-07 5.9923324018772e-09 1.59193276754597e-09 2.50332641787723e-08
"330" 19735 2.35694761453791e-07 8.07148475699783e-09 3.39352539876864e-08 9.48195239780209e-08 1.82497616492178e-07 6.01571814799999e-09 1.59225820053734e-09 2.50749902216184e-08
"331" 19736 2.35726699289042e-07 8.10606971099663e-09 3.40909936749714e-08 9.49855360185844e-08 1.82331105435953e-07 6.03910389412279e-09 1.59258363352871e-09 2.51167162644645e-08
"332" 19737 2.35758637124292e-07 8.14065466499544e-09 3.42467333622564e-08 9.51515480591479e-08 1.82164594379727e-07 6.06248964024558e-09 1.59290906652008e-09 2.51584423073105e-08
"333" 19738 2.35790574959543e-07 8.17523961899424e-09 3.44024730495414e-08 9.53175600997114e-08 1.81998083323502e-07 6.08587538636838e-09 1.59323449951146e-09 2.52001683501566e-08
"334" 19739 2.35822512794794e-07 8.20982457299305e-09 3.45582127368265e-08 9.54835721402748e-08 1.81831572267277e-07 6.10926113249117e-09 1.59355993250283e-09 2.52418943930027e-08
"335" 19740 2.35854450630044e-07 8.24440952699185e-09 3.47139524241115e-08 9.56495841808383e-08 1.81665061211052e-07 6.13264687861397e-09 1.5938853654942e-09 2.52836204358488e-08
"336" 19741 2.35886388465295e-07 8.27899448099065e-09 3.48696921113965e-08 9.58155962214018e-08 1.81498550154826e-07 6.15603262473676e-09 1.59421079848557e-09 2.53253464786949e-08
"337" 19742 2.35918326300546e-07 8.31357943498946e-09 3.50254317986815e-08 9.59816082619653e-08 1.81332039098601e-07 6.17941837085955e-09 1.59453623147695e-09 2.5367072521541e-08
"338" 19743 2.35950264135796e-07 8.34816438898826e-09 3.51811714859666e-08 9.61476203025288e-08 1.81165528042376e-07 6.20280411698235e-09 1.59486166446832e-09 2.54087985643871e-08
"339" 19744 2.35982201971047e-07 8.38274934298707e-09 3.53369111732516e-08 9.63136323430923e-08 1.80999016986151e-07 6.22618986310514e-09 1.59518709745969e-09 2.54505246072332e-08
"340" 19745 2.36014139806298e-07 8.41733429698587e-09 3.54926508605366e-08 9.64796443836558e-08 1.80832505929926e-07 6.24957560922794e-09 1.59551253045106e-09 2.54922506500793e-08
"341" 19746 2.36046077641549e-07 8.45191925098467e-09 3.56483905478217e-08 9.66456564242193e-08 1.806659948737e-07 6.27296135535073e-09 1.59583796344243e-09 2.55339766929254e-08
"342" 19747 2.36963695198462e-07 8.58333359056003e-09 3.59430266138074e-08 9.68393574243012e-08 1.80514685466834e-07 6.30314575078153e-09 1.59831052176817e-09 2.5652905560153e-08
"343" 19748 2.37881312755376e-07 8.71474793013539e-09 3.62376626797932e-08 9.70330584243831e-08 1.80363376059968e-07 6.33333014621234e-09 1.60078308009391e-09 2.57718344273807e-08
"344" 19749 2.38798930312289e-07 8.74362063501530e-09 3.62381190908159e-08 9.77058985464011e-08 1.80315786660049e-07 6.31484845568271e-09 1.60325563841965e-09 2.57907662640774e-08
"345" 19750 2.39716547869203e-07 8.7724933398952e-09 3.62385755018386e-08 9.83787386684191e-08 1.8026819726013e-07 6.29636676515309e-09 1.60572819674538e-09 2.58096981007742e-08
"346" 19751 2.40634165426117e-07 8.8013660447751e-09 3.62390319128613e-08 9.90515787904371e-08 1.80220607860212e-07 6.27788507462346e-09 1.60820075507112e-09 2.5828629937471e-08
"347" 19752 2.41543893406904e-07 8.80085098673759e-09 3.62159605547533e-08 9.9502602544334e-08 1.80082017377568e-07 6.27882965097641e-09 1.61067331339686e-09 2.58328307449221e-08
"348" 19753 2.41492590445958e-07 8.82972369161750e-09 3.61650894252311e-08 1.00175358633998e-07 1.78766243770436e-07 6.20033879673755e-09 1.60462465420948e-09 2.5848538498645e-08
"349" 19754 2.41441287485013e-07 8.8585963964974e-09 3.61142182957088e-08 1.00848114723661e-07 1.77450470163304e-07 6.1218479424987e-09 1.5985759950221e-09 2.58642462523679e-08
"350" 19755 2.41389984524067e-07 8.8874691013773e-09 3.60633471661866e-08 1.01520870813325e-07 1.76134696556172e-07 6.04335708825984e-09 1.59252733583473e-09 2.58799540060909e-08
"351" 19756 2.41338681563122e-07 8.9163418062572e-09 3.60124760366644e-08 1.02193626902989e-07 1.74818922949039e-07 5.96486623402099e-09 1.58647867664735e-09 2.58956617598138e-08
"352" 19757 2.41287378602176e-07 8.9452145111371e-09 3.59616049071422e-08 1.02866382992652e-07 1.73503149341907e-07 5.88637537978213e-09 1.58043001745997e-09 2.59113695135367e-08
"353" 19758 2.41236075641231e-07 8.974087216017e-09 3.591073377762e-08 1.03539139082316e-07 1.72187375734775e-07 5.80788452554327e-09 1.5743813582726e-09 2.59270772672596e-08
"354" 19759 2.41184772680285e-07 9.0029599208969e-09 3.58598626480977e-08 1.0421189517198e-07 1.70871602127643e-07 5.72939367130442e-09 1.56833269908522e-09 2.59427850209825e-08
"355" 19760 2.4113346971934e-07 9.03183262577681e-09 3.58089915185755e-08 1.04884651261643e-07 1.6955582852051e-07 5.65090281706556e-09 1.56228403989784e-09 2.59584927747054e-08
"356" 19761 2.40292530169357e-07 9.03078829608444e-09 3.58363170847856e-08 1.05751270975089e-07 1.68262852107103e-07 5.57215003392385e-09 1.55376282238473e-09 2.59699997209772e-08
"357" 19762 2.39451590619373e-07 9.02974396639207e-09 3.58636426509957e-08 1.06617890688534e-07 1.66969875693696e-07 5.49339725078215e-09 1.54524160487162e-09 2.59815066672489e-08
"358" 19763 2.3861065106939e-07 9.0286996366997e-09 3.58909682172058e-08 1.07484510401979e-07 1.65676899280288e-07 5.41464446764044e-09 1.5367203873585e-09 2.59930136135207e-08
"359" 19764 2.38735966142058e-07 9.01631630322529e-09 3.5957000921834e-08 1.08263657685429e-07 1.65287768641709e-07 5.40283318247186e-09 1.53654706723267e-09 2.60086649609105e-08
"360" 19765 2.38861281214725e-07 9.00393296975087e-09 3.60230336264622e-08 1.09042804968878e-07 1.6489863800313e-07 5.39102189730329e-09 1.53637374710683e-09 2.60243163083003e-08
"361" 19766 2.37173341944352e-07 9.00161834553651e-09 3.61072805611757e-08 1.09910741592079e-07 1.64486242619767e-07 5.37109959780798e-09 1.5106755269188e-09 2.5814370931594e-08
"362" 19767 2.35485402673978e-07 8.99930372132215e-09 3.61915274958891e-08 1.10778678215279e-07 1.64073847236404e-07 5.35117729831266e-09 1.48497730673076e-09 2.56044255548876e-08
"363" 19768 2.33782897976582e-07 8.99803342680015e-09 3.64894753347199e-08 1.11998673479519e-07 1.63528970256394e-07 5.33629545987088e-09 1.46042870564268e-09 2.53799035251161e-08
"364" 19769 2.32080393279185e-07 8.99676313227816e-09 3.67874231735507e-08 1.13218668743759e-07 1.62984093276384e-07 5.32141362142911e-09 1.43588010455459e-09 2.51553814953445e-08
"365" 19770 2.30377888581788e-07 8.99549283775616e-09 3.70853710123815e-08 1.14438664007999e-07 1.62439216296374e-07 5.30653178298733e-09 1.41133150346651e-09 2.4930859465573e-08
"366" 19771 2.28675383884391e-07 8.99422254323417e-09 3.73833188512123e-08 1.15658659272239e-07 1.61894339316364e-07 5.29164994454555e-09 1.38678290237843e-09 2.47063374358014e-08
"367" 19772 2.26972879186994e-07 8.99295224871217e-09 3.76812666900431e-08 1.16878654536479e-07 1.61349462336354e-07 5.27676810610377e-09 1.36223430129034e-09 2.44818154060299e-08
"368" 19773 2.25270374489597e-07 8.99168195419018e-09 3.79792145288739e-08 1.18098649800719e-07 1.60804585356344e-07 5.26188626766199e-09 1.33768570020226e-09 2.42572933762583e-08
"369" 19774 2.23567869792201e-07 8.99041165966818e-09 3.82771623677047e-08 1.19318645064959e-07 1.60259708376333e-07 5.24700442922021e-09 1.31313709911417e-09 2.40327713464868e-08
"370" 19775 2.21865365094804e-07 8.98914136514619e-09 3.85751102065355e-08 1.20538640329199e-07 1.59714831396323e-07 5.23212259077844e-09 1.28858849802609e-09 2.38082493167152e-08
"371" 19776 2.20162860397407e-07 8.98787107062419e-09 3.88730580453663e-08 1.21758635593439e-07 1.59169954416313e-07 5.21724075233666e-09 1.264039896938e-09 2.35837272869437e-08
"372" 19777 2.1846035570001e-07 8.9866007761022e-09 3.91710058841971e-08 1.22978630857679e-07 1.58625077436303e-07 5.20235891389488e-09 1.23949129584992e-09 2.33592052571721e-08
"373" 19778 2.16757851002613e-07 8.9853304815802e-09 3.94689537230279e-08 1.24198626121919e-07 1.58080200456293e-07 5.1874770754531e-09 1.21494269476184e-09 2.31346832274005e-08
"374" 19779 2.15055346305216e-07 8.9840601870582e-09 3.97669015618587e-08 1.25418621386159e-07 1.57535323476283e-07 5.17259523701132e-09 1.19039409367375e-09 2.2910161197629e-08
"375" 19780 2.1335284160782e-07 8.98278989253621e-09 4.00648494006895e-08 1.26638616650399e-07 1.56990446496273e-07 5.15771339856954e-09 1.16584549258567e-09 2.26856391678574e-08
"376" 19781 2.11650336910423e-07 8.98151959801422e-09 4.03627972395203e-08 1.27858611914639e-07 1.56445569516263e-07 5.14283156012777e-09 1.14129689149758e-09 2.24611171380859e-08
"377" 19782 2.09947832213026e-07 8.98024930349222e-09 4.06607450783511e-08 1.29078607178879e-07 1.55900692536253e-07 5.12794972168599e-09 1.1167482904095e-09 2.22365951083143e-08
"378" 19783 2.08171794588404e-07 9.04140049061671e-09 4.07636381062594e-08 1.29700378810318e-07 1.55476649179469e-07 5.10734477474058e-09 1.09690420202271e-09 2.20197443760573e-08
"379" 19784 2.06395756963782e-07 9.1025516777412e-09 4.08665311341678e-08 1.30322150441758e-07 1.55052605822685e-07 5.08673982779517e-09 1.07706011363592e-09 2.18028936438002e-08
"380" 19785 2.04598445084742e-07 9.11638444710928e-09 4.0992803733876e-08 1.30945322612436e-07 1.54499457893467e-07 5.0824349440732e-09 1.05153521357372e-09 2.15811325684613e-08
"381" 19786 2.02801133205702e-07 9.13021721647736e-09 4.11190763335842e-08 1.31568494783115e-07 1.53946309964248e-07 5.07813006035122e-09 1.02601031351152e-09 2.13593714931224e-08
"382" 19787 2.02553786931066e-07 9.14532028036744e-09 4.11073230345425e-08 1.32010462792427e-07 1.52865968469869e-07 5.08870701507103e-09 1.02249783443077e-09 2.13076763268704e-08
"383" 19788 2.02306440656431e-07 9.16042334425751e-09 4.10955697355007e-08 1.32452430801739e-07 1.5178562697549e-07 5.09928396979083e-09 1.01898535535002e-09 2.12559811606184e-08
"384" 19789 2.01437438301633e-07 9.15186719926938e-09 4.06310840744831e-08 1.31890257044431e-07 1.51322545506702e-07 5.11463945666132e-09 1.01898535535002e-09 2.12352650939663e-08
"385" 19790 2.00568435946834e-07 9.14331105428125e-09 4.01665984134655e-08 1.31328083287123e-07 1.50859464037914e-07 5.12999494353181e-09 1.01898535535002e-09 2.12145490273142e-08
"386" 19791 1.99699433592036e-07 9.13475490929312e-09 3.97021127524479e-08 1.30765909529815e-07 1.50396382569126e-07 5.1453504304023e-09 1.01898535535002e-09 2.11938329606621e-08
"387" 19792 1.98830431237238e-07 9.12619876430499e-09 3.92376270914302e-08 1.30203735772508e-07 1.49933301100338e-07 5.16070591727279e-09 1.01898535535002e-09 2.117311689401e-08
"388" 19793 1.9796142888244e-07 9.11764261931685e-09 3.87731414304126e-08 1.296415620152e-07 1.49470219631549e-07 5.17606140414327e-09 1.01898535535002e-09 2.11524008273579e-08
"389" 19794 1.97092426527642e-07 9.10908647432872e-09 3.8308655769395e-08 1.29079388257892e-07 1.49007138162761e-07 5.19141689101376e-09 1.01898535535002e-09 2.11316847607058e-08
"390" 19795 1.96223424172844e-07 9.10053032934059e-09 3.78441701083773e-08 1.28517214500585e-07 1.48544056693973e-07 5.20677237788425e-09 1.01898535535002e-09 2.11109686940538e-08
"391" 19796 1.95354421818046e-07 9.09197418435246e-09 3.73796844473597e-08 1.27955040743277e-07 1.48080975225185e-07 5.22212786475474e-09 1.01898535535002e-09 2.10902526274017e-08
"392" 19797 1.94485419463248e-07 9.08341803936433e-09 3.69151987863421e-08 1.27392866985969e-07 1.47617893756397e-07 5.23748335162523e-09 1.01898535535002e-09 2.10695365607496e-08
"393" 19798 1.9361641710845e-07 9.0748618943762e-09 3.64507131253245e-08 1.26830693228661e-07 1.47154812287609e-07 5.25283883849571e-09 1.01898535535002e-09 2.10488204940975e-08
"394" 19799 1.92747414753652e-07 9.06630574938806e-09 3.59862274643068e-08 1.26268519471354e-07 1.46691730818821e-07 5.2681943253662e-09 1.01898535535002e-09 2.10281044274454e-08
"395" 19800 1.91878412398854e-07 9.05774960439993e-09 3.55217418032892e-08 1.25706345714046e-07 1.46228649350032e-07 5.28354981223669e-09 1.01898535535002e-09 2.10073883607933e-08
"396" 19801 1.91009410044056e-07 9.0491934594118e-09 3.50572561422716e-08 1.25144171956738e-07 1.45765567881244e-07 5.29890529910718e-09 1.01898535535002e-09 2.09866722941412e-08
"397" 19802 1.90140407689258e-07 9.04063731442367e-09 3.45927704812539e-08 1.2458199819943e-07 1.45302486412456e-07 5.31426078597766e-09 1.01898535535002e-09 2.09659562274891e-08
"398" 19803 1.8927140533446e-07 9.03208116943554e-09 3.41282848202363e-08 1.24019824442123e-07 1.44839404943668e-07 5.32961627284815e-09 1.01898535535002e-09 2.0945240160837e-08
"399" 19804 1.88402402979662e-07 9.02352502444741e-09 3.36637991592187e-08 1.23457650684815e-07 1.4437632347488e-07 5.34497175971864e-09 1.01898535535002e-09 2.0924524094185e-08
"400" 19805 1.88690419678037e-07 9.06303647254297e-09 3.30668602563624e-08 1.22271335261379e-07 1.44010395176966e-07 5.34809524287331e-09 1.01996165432414e-09 2.08999723787756e-08
"401" 19806 1.87889565552799e-07 9.41672162217818e-09 3.35212014866578e-08 1.2195227332029e-07 1.43550451676548e-07 5.34728163097178e-09 1.02093795329826e-09 2.08763409815105e-08
"402" 19807 1.87284794240623e-07 9.6259230518146e-09 3.44913135764212e-08 1.22755462317357e-07 1.43357185083542e-07 5.34672994797311e-09 1.02007135266908e-09 2.08616099522649e-08
"403" 19808 1.86680022928447e-07 9.83512448145101e-09 3.54614256661847e-08 1.23558651314424e-07 1.43163918490535e-07 5.34617826497444e-09 1.01920475203991e-09 2.08468789230193e-08
"404" 19809 1.86413134808491e-07 1.02125624868803e-08 3.63802525574977e-08 1.24344854694721e-07 1.42725244722432e-07 5.33712267429475e-09 1.01606012047113e-09 2.08436548400454e-08
"405" 19810 1.86146246688536e-07 1.05900004923097e-08 3.72990794488107e-08 1.25131058075018e-07 1.42286570954328e-07 5.32806708361507e-09 1.01291548890235e-09 2.08404307570716e-08
"406" 19811 1.85879358568581e-07 1.0967438497739e-08 3.82179063401238e-08 1.25917261455315e-07 1.41847897186224e-07 5.31901149293538e-09 1.00977085733357e-09 2.08372066740977e-08
"407" 19812 1.85612470448625e-07 1.13448765031683e-08 3.91367332314368e-08 1.26703464835612e-07 1.4140922341812e-07 5.30995590225569e-09 1.00662622576479e-09 2.08339825911239e-08
"408" 19813 1.8534558232867e-07 1.17223145085977e-08 4.00555601227499e-08 1.27489668215909e-07 1.40970549650017e-07 5.300900311576e-09 1.00348159419601e-09 2.083075850815e-08
"409" 19814 1.85078694208715e-07 1.2099752514027e-08 4.09743870140629e-08 1.28275871596206e-07 1.40531875881913e-07 5.29184472089632e-09 1.00033696262723e-09 2.08275344251762e-08
"410" 19815 1.84811806088759e-07 1.24771905194563e-08 4.18932139053759e-08 1.29062074976503e-07 1.40093202113809e-07 5.28278913021663e-09 9.97192331058454e-10 2.08243103422024e-08
"411" 19816 1.84544917968804e-07 1.28546285248857e-08 4.2812040796689e-08 1.298482783568e-07 1.39654528345705e-07 5.27373353953694e-09 9.94047699489675e-10 2.08210862592285e-08
"412" 19817 1.84278029848849e-07 1.3232066530315e-08 4.3730867688002e-08 1.30634481737097e-07 1.39215854577602e-07 5.26467794885726e-09 9.90903067920896e-10 2.08178621762547e-08
"413" 19818 1.84392612730556e-07 1.32399529332744e-08 4.36228093183791e-08 1.30749335007978e-07 1.39758093781827e-07 5.27179145694958e-09 9.86934250243537e-10 2.08704064114989e-08
"414" 19819 1.84507195612264e-07 1.32478393362338e-08 4.35147509487561e-08 1.3086418827886e-07 1.40300332986053e-07 5.2789049650419e-09 9.82965432566179e-10 2.09229506467431e-08
"415" 19820 1.84621778493972e-07 1.32557257391932e-08 4.34066925791332e-08 1.30979041549741e-07 1.40842572190279e-07 5.28601847313423e-09 9.78996614888821e-10 2.09754948819874e-08
"416" 19821 1.84483116309513e-07 1.31928909988853e-08 4.34014882721898e-08 1.29918832073613e-07 1.41585860744229e-07 5.29825047685005e-09 9.77305828151068e-10 2.09838460294948e-08
"417" 19822 1.84344454125055e-07 1.31300562585773e-08 4.33962839652465e-08 1.28858622597485e-07 1.4232914929818e-07 5.31048248056587e-09 9.75615041413314e-10 2.09921971770022e-08
"418" 19823 1.84365818853221e-07 1.31231205383944e-08 4.33482715744124e-08 1.28844394128252e-07 1.42834750069988e-07 5.31520536233061e-09 9.70086342603442e-10 2.1048675030851e-08
"419" 19824 1.84387183581388e-07 1.31161848182114e-08 4.33002591835783e-08 1.28830165659019e-07 1.43340350841797e-07 5.31992824409536e-09 9.6455764379357e-10 2.11051528846998e-08
"420" 19825 1.84408548309554e-07 1.31092490980285e-08 4.32522467927442e-08 1.28815937189786e-07 1.43845951613605e-07 5.32465112586011e-09 9.59028944983698e-10 2.11616307385486e-08
"421" 19826 1.8442991303772e-07 1.31023133778456e-08 4.32042344019101e-08 1.28801708720554e-07 1.44351552385414e-07 5.32937400762486e-09 9.53500246173826e-10 2.12181085923974e-08
"422" 19827 1.84458381826902e-07 1.31677599880359e-08 4.31882091005848e-08 1.28592546373838e-07 1.44098579908364e-07 5.31761293183328e-09 9.53500246173826e-10 2.12662352987388e-08
"423" 19828 1.84486850616084e-07 1.32332065982262e-08 4.31721837992595e-08 1.28383384027123e-07 1.43845607431314e-07 5.3058518560417e-09 9.53500246173826e-10 2.13143620050802e-08
"424" 19829 1.84515319405267e-07 1.32986532084165e-08 4.31561584979342e-08 1.28174221680408e-07 1.43592634954263e-07 5.29409078025012e-09 9.53500246173826e-10 2.13624887114215e-08
"425" 19830 1.84543788194449e-07 1.33640998186068e-08 4.31401331966089e-08 1.27965059333692e-07 1.43339662477213e-07 5.28232970445854e-09 9.53500246173826e-10 2.14106154177629e-08
"426" 19831 1.84572256983631e-07 1.34295464287972e-08 4.31241078952836e-08 1.27755896986977e-07 1.43086690000163e-07 5.27056862866696e-09 9.53500246173826e-10 2.14587421241043e-08
"427" 19832 1.84600725772813e-07 1.34949930389875e-08 4.31080825939583e-08 1.27546734640262e-07 1.42833717523113e-07 5.25880755287538e-09 9.53500246173826e-10 2.15068688304456e-08
"428" 19833 1.84629194561995e-07 1.35604396491778e-08 4.3092057292633e-08 1.27337572293547e-07 1.42580745046063e-07 5.2470464770838e-09 9.53500246173826e-10 2.1554995536787e-08
"429" 19834 1.84657663351178e-07 1.36258862593681e-08 4.30760319913077e-08 1.27128409946831e-07 1.42327772569013e-07 5.23528540129222e-09 9.53500246173826e-10 2.16031222431284e-08
"430" 19835 1.8468613214036e-07 1.36913328695585e-08 4.30600066899825e-08 1.26919247600116e-07 1.42074800091963e-07 5.22352432550064e-09 9.53500246173826e-10 2.16512489494697e-08
"431" 19836 1.84714600929542e-07 1.37567794797488e-08 4.30439813886572e-08 1.26710085253401e-07 1.41821827614913e-07 5.21176324970906e-09 9.53500246173826e-10 2.16993756558111e-08
"432" 19837 1.84743069718724e-07 1.38222260899391e-08 4.30279560873319e-08 1.26500922906685e-07 1.41568855137863e-07 5.20000217391748e-09 9.53500246173826e-10 2.17475023621525e-08
"433" 19838 1.84771538507907e-07 1.38876727001294e-08 4.30119307860066e-08 1.2629176055997e-07 1.41315882660813e-07 5.1882410981259e-09 9.53500246173826e-10 2.17956290684938e-08
"434" 19839 1.84800007297089e-07 1.39531193103197e-08 4.29959054846813e-08 1.26082598213255e-07 1.41062910183762e-07 5.17648002233432e-09 9.53500246173826e-10 2.18437557748352e-08
"435" 19840 1.84828476086271e-07 1.40185659205101e-08 4.2979880183356e-08 1.25873435866539e-07 1.40809937706712e-07 5.16471894654274e-09 9.53500246173826e-10 2.18918824811766e-08
"436" 19841 1.84529197762323e-07 1.40274966531618e-08 4.30063547522296e-08 1.25985991850198e-07 1.43752569098138e-07 5.15539870645573e-09 9.51940365041312e-10 2.19122185463159e-08
"437" 19842 1.86072492105833e-07 1.42663362679257e-08 4.32042259597456e-08 1.25919164776372e-07 1.43598786087295e-07 5.14450417244714e-09 9.48558791565805e-10 2.19614258859201e-08
"438" 19843 1.87615786449342e-07 1.45051758826896e-08 4.34020971672617e-08 1.25852337702545e-07 1.43445003076451e-07 5.13360963843855e-09 9.45177218090298e-10 2.20106332255243e-08
"439" 19844 1.88595313050784e-07 1.47595623385427e-08 4.36420592413471e-08 1.25184619724614e-07 1.43467872275275e-07 5.12179835326998e-09 9.46500157316084e-10 2.20591310294977e-08
"440" 19845 1.90572158416269e-07 1.49779835940387e-08 4.35881888393901e-08 1.25183947465779e-07 1.42635619893578e-07 5.11408023229752e-09 9.48127322272945e-10 2.21074744572908e-08
"441" 19846 1.92549003781753e-07 1.51964048495348e-08 4.35343184374331e-08 1.25183275206944e-07 1.4180336751188e-07 5.10636211132506e-09 9.49754487229805e-10 2.21558178850839e-08
"442" 19847 1.94525849147238e-07 1.54148261050309e-08 4.34804480354761e-08 1.25182602948109e-07 1.40971115130183e-07 5.0986439903526e-09 9.51381652186666e-10 2.2204161312877e-08
"443" 19848 1.96502694512723e-07 1.56332473605269e-08 4.3426577633519e-08 1.25181930689275e-07 1.40138862748485e-07 5.09092586938014e-09 9.53008817143526e-10 2.22525047406701e-08
"444" 19849 1.98479539878208e-07 1.5851668616023e-08 4.3372707231562e-08 1.2518125843044e-07 1.39306610366788e-07 5.08320774840768e-09 9.54635982100387e-10 2.23008481684632e-08
"445" 19850 2.00456385243693e-07 1.60700898715191e-08 4.3318836829605e-08 1.25180586171605e-07 1.3847435798509e-07 5.07548962743522e-09 9.56263147057247e-10 2.23491915962562e-08
"446" 19851 2.02433230609178e-07 1.62885111270151e-08 4.3264966427648e-08 1.2517991391277e-07 1.37642105603393e-07 5.06777150646276e-09 9.57890312014108e-10 2.23975350240493e-08
"447" 19852 2.04410075974662e-07 1.65069323825112e-08 4.32110960256909e-08 1.25179241653935e-07 1.36809853221695e-07 5.0600533854903e-09 9.59517476970968e-10 2.24458784518424e-08
"448" 19853 2.06386921340147e-07 1.67253536380073e-08 4.31572256237339e-08 1.251785693951e-07 1.35977600839997e-07 5.05233526451784e-09 9.61144641927829e-10 2.24942218796355e-08
"449" 19854 2.08363766705632e-07 1.69437748935033e-08 4.31033552217769e-08 1.25177897136265e-07 1.351453484583e-07 5.04461714354538e-09 9.62771806884690e-10 2.25425653074286e-08
"450" 19855 2.10340612071117e-07 1.71621961489994e-08 4.30494848198199e-08 1.25177224877431e-07 1.34313096076602e-07 5.03689902257292e-09 9.6439897184155e-10 2.25909087352216e-08
"451" 19856 2.12317457436602e-07 1.73806174044955e-08 4.29956144178628e-08 1.25176552618596e-07 1.33480843694905e-07 5.02918090160046e-09 9.6602613679841e-10 2.26392521630147e-08
"452" 19857 2.14294302802087e-07 1.75990386599915e-08 4.29417440159058e-08 1.25175880359761e-07 1.32648591313207e-07 5.021462780628e-09 9.67653301755271e-10 2.26875955908078e-08
"453" 19858 2.16271148167571e-07 1.78174599154876e-08 4.28878736139488e-08 1.25175208100926e-07 1.3181633893151e-07 5.01374465965554e-09 9.69280466712132e-10 2.27359390186009e-08
"454" 19859 2.18247993533056e-07 1.80358811709836e-08 4.28340032119918e-08 1.25174535842091e-07 1.30984086549812e-07 5.00602653868308e-09 9.70907631668992e-10 2.2784282446394e-08
"455" 19860 2.20224838898541e-07 1.82543024264797e-08 4.27801328100347e-08 1.25173863583256e-07 1.30151834168115e-07 4.99830841771062e-09 9.72534796625853e-10 2.2832625874187e-08
"456" 19861 2.22201684264026e-07 1.84727236819758e-08 4.27262624080777e-08 1.25173191324421e-07 1.29319581786417e-07 4.99059029673817e-09 9.74161961582713e-10 2.28809693019801e-08
"457" 19862 2.22348344134109e-07 1.84388471410035e-08 4.2523312231469e-08 1.25093278782529e-07 1.28163981854298e-07 4.98200563398272e-09 9.75789126539574e-10 2.29804171119989e-08
"458" 19863 2.22335458208935e-07 1.83987127743372e-08 4.21155472689321e-08 1.2515637377236e-07 1.28093138270223e-07 4.97544380888907e-09 9.77936251873939e-10 2.30603927686895e-08
"459" 19864 2.22221144453472e-07 1.83924549486431e-08 4.16770111873249e-08 1.25323618690324e-07 1.28528092271291e-07 4.98155981074698e-09 9.77936251873939e-10 2.31043038247609e-08
"460" 19865 2.21614177250579e-07 1.84195280873462e-08 4.15849798074601e-08 1.25461504480831e-07 1.28534637506287e-07 4.99337109591555e-09 9.7457588565873e-10 2.3148909573644e-08
"461" 19866 2.21007210047686e-07 1.84466012260492e-08 4.14929484275954e-08 1.25599390271337e-07 1.28541182741282e-07 5.00518238108412e-09 9.7121551944352e-10 2.31935153225271e-08
"462" 19867 2.20400242844794e-07 1.84736743647522e-08 4.14009170477306e-08 1.25737276061844e-07 1.28547727976278e-07 5.0169936662527e-09 9.67855153228311e-10 2.32381210714103e-08
"463" 19868 2.19793275641901e-07 1.85007475034553e-08 4.13088856678658e-08 1.2587516185235e-07 1.28554273211274e-07 5.02880495142127e-09 9.64494787013102e-10 2.32827268202934e-08
"464" 19869 2.19186308439008e-07 1.85278206421583e-08 4.12168542880011e-08 1.26013047642856e-07 1.28560818446269e-07 5.04061623658985e-09 9.61134420797892e-10 2.33273325691765e-08
"465" 19870 2.18579341236115e-07 1.85548937808614e-08 4.11248229081363e-08 1.26150933433363e-07 1.28567363681265e-07 5.05242752175842e-09 9.57774054582683e-10 2.33719383180597e-08
"466" 19871 2.17972374033223e-07 1.85819669195644e-08 4.10327915282716e-08 1.26288819223869e-07 1.28573908916261e-07 5.064238806927e-09 9.54413688367474e-10 2.34165440669428e-08
"467" 19872 2.1736540683033e-07 1.86090400582674e-08 4.09407601484068e-08 1.26426705014376e-07 1.28580454151257e-07 5.07605009209557e-09 9.51053322152265e-10 2.34611498158259e-08
"468" 19873 2.16758439627437e-07 1.86361131969705e-08 4.0848728768542e-08 1.26564590804882e-07 1.28586999386252e-07 5.08786137726415e-09 9.47692955937055e-10 2.35057555647091e-08
"469" 19874 2.16151472424544e-07 1.86631863356735e-08 4.07566973886773e-08 1.26702476595388e-07 1.28593544621248e-07 5.09967266243272e-09 9.44332589721846e-10 2.35503613135922e-08
"470" 19875 2.15544505221652e-07 1.86902594743766e-08 4.06646660088125e-08 1.26840362385895e-07 1.28600089856244e-07 5.1114839476013e-09 9.40972223506637e-10 2.35949670624753e-08
"471" 19876 2.15123762696849e-07 1.87011302435791e-08 4.04939815221927e-08 1.26865933407787e-07 1.28153393795756e-07 5.11434550185311e-09 9.39758982625793e-10 2.36004385039457e-08
"472" 19877 2.14703020172046e-07 1.87120010127816e-08 4.0323297035573e-08 1.2689150442968e-07 1.27706697735268e-07 5.11720705610493e-09 9.38545741744949e-10 2.36059099454161e-08
"473" 19878 2.14930568520865e-07 1.8695798643281e-08 4.03195889879813e-08 1.26911325785332e-07 1.27441142662503e-07 5.12075125780684e-09 9.39868680970735e-10 2.34483959912878e-08
"474" 19879 2.15158116869684e-07 1.86795962737805e-08 4.03158809403895e-08 1.26931147140984e-07 1.27175587589737e-07 5.12429545950875e-09 9.41191620196521e-10 2.32908820371595e-08
"475" 19880 2.15385665218503e-07 1.86633939042799e-08 4.03121728927978e-08 1.26950968496637e-07 1.26910032516972e-07 5.12783966121067e-09 9.42514559422307e-10 2.31333680830312e-08
"476" 19881 2.15613213567322e-07 1.86471915347794e-08 4.03084648452061e-08 1.26970789852289e-07 1.26644477444207e-07 5.13138386291258e-09 9.43837498648093e-10 2.29758541289029e-08
"477" 19882 2.15840761916141e-07 1.86309891652788e-08 4.03047567976144e-08 1.26990611207941e-07 1.26378922371441e-07 5.13492806461449e-09 9.45160437873879e-10 2.28183401747745e-08
"478" 19883 2.1606831026496e-07 1.86147867957783e-08 4.03010487500227e-08 1.27010432563593e-07 1.26113367298676e-07 5.13847226631641e-09 9.46483377099665e-10 2.26608262206462e-08
"479" 19884 2.17824697934765e-07 1.85947430241741e-08 4.06466880371129e-08 1.27525885345843e-07 1.25794819587252e-07 5.2010810553746e-09 9.4617915136859e-10 2.26745805254145e-08
"480" 19885 2.19425448178376e-07 1.86085757935422e-08 4.09266417984955e-08 1.28035453848938e-07 1.2524255491666e-07 5.23828126064821e-09 9.21326324549432e-10 2.28414223515276e-08
"481" 19886 2.21026198421988e-07 1.86224085629102e-08 4.12065955598781e-08 1.28545022352033e-07 1.24690290246068e-07 5.27548146592181e-09 8.96473497730273e-10 2.30082641776406e-08
"482" 19887 2.226269486656e-07 1.86362413322783e-08 4.14865493212607e-08 1.29054590855128e-07 1.24138025575476e-07 5.31268167119542e-09 8.71620670911115e-10 2.31751060037537e-08
"483" 19888 2.24227698909212e-07 1.86500741016464e-08 4.17665030826433e-08 1.29564159358222e-07 1.23585760904884e-07 5.34988187646902e-09 8.46767844091956e-10 2.33419478298667e-08
"484" 19889 2.25828449152824e-07 1.86639068710145e-08 4.20464568440259e-08 1.30073727861317e-07 1.23033496234292e-07 5.38708208174263e-09 8.21915017272798e-10 2.35087896559798e-08
"485" 19890 2.27429199396436e-07 1.86777396403826e-08 4.23264106054085e-08 1.30583296364412e-07 1.224812315637e-07 5.42428228701623e-09 7.97062190453639e-10 2.36756314820928e-08
"486" 19891 2.29029949640048e-07 1.86915724097506e-08 4.26063643667911e-08 1.31092864867506e-07 1.21928966893108e-07 5.46148249228984e-09 7.72209363634481e-10 2.38424733082059e-08
"487" 19892 2.3063069988366e-07 1.87054051791187e-08 4.28863181281738e-08 1.31602433370601e-07 1.21376702222516e-07 5.49868269756344e-09 7.47356536815322e-10 2.40093151343189e-08
"488" 19893 2.32231450127272e-07 1.87192379484868e-08 4.31662718895564e-08 1.32112001873696e-07 1.20824437551924e-07 5.53588290283705e-09 7.22503709996163e-10 2.4176156960432e-08
"489" 19894 2.33832200370884e-07 1.87330707178549e-08 4.3446225650939e-08 1.3262157037679e-07 1.20272172881332e-07 5.57308310811065e-09 6.97650883177005e-10 2.4342998786545e-08
"490" 19895 2.35432950614495e-07 1.8746903487223e-08 4.37261794123216e-08 1.33131138879885e-07 1.1971990821074e-07 5.61028331338426e-09 6.72798056357846e-10 2.45098406126581e-08
"491" 19896 2.37033700858107e-07 1.8760736256591e-08 4.40061331737042e-08 1.3364070738298e-07 1.19167643540148e-07 5.64748351865786e-09 6.47945229538688e-10 2.46766824387711e-08
"492" 19897 2.38634451101719e-07 1.87745690259591e-08 4.42860869350868e-08 1.34150275886075e-07 1.18615378869556e-07 5.68468372393147e-09 6.23092402719529e-10 2.48435242648842e-08
"493" 19898 2.3889436779091e-07 1.88147033926255e-08 4.4205634420587e-08 1.34150275886075e-07 1.18067686022568e-07 5.66113918816428e-09 5.97567502657329e-10 2.49127529783286e-08
"494" 19899 2.36997108638053e-07 1.88548377592918e-08 4.41767507703164e-08 1.32827688818502e-07 1.16776279792903e-07 5.64670317295824e-09 5.91126126654233e-10 2.49864081245567e-08
"495" 19900 2.35186959151085e-07 1.89249909599064e-08 4.43875963126114e-08 1.31804017491836e-07 1.1586041353924e-07 5.65100805668022e-09 5.84511430525303e-10 2.49671259719849e-08
"496" 19901 2.33376809664118e-07 1.89951441605211e-08 4.45984418549064e-08 1.3078034616517e-07 1.14944547285577e-07 5.65531294040219e-09 5.77896734396373e-10 2.49478438194131e-08
"497" 19902 2.33895442363015e-07 1.9011853435599e-08 4.48144917041447e-08 1.30592899428324e-07 1.15302474892183e-07 5.67366094597592e-09 5.77571301405e-10 2.495152509199e-08
"498" 19903 2.34414075061913e-07 1.90285627106769e-08 4.5030541553383e-08 1.30405452691479e-07 1.1566040249879e-07 5.69200895154965e-09 5.77245868413628e-10 2.49552063645668e-08
"499" 19904 2.3493270776081e-07 1.90452719857548e-08 4.52465914026214e-08 1.30218005954634e-07 1.16018330105397e-07 5.71035695712338e-09 5.76920435422256e-10 2.49588876371436e-08
"500" 19905 2.35451340459708e-07 1.90619812608327e-08 4.54626412518597e-08 1.30030559217788e-07 1.16376257712003e-07 5.72870496269711e-09 5.76595002430884e-10 2.49625689097205e-08
"501" 19906 2.35969973158605e-07 1.90786905359106e-08 4.5678691101098e-08 1.29843112480943e-07 1.1673418531861e-07 5.74705296827084e-09 5.76269569439512e-10 2.49662501822973e-08
"502" 19907 2.36488605857503e-07 1.90953998109885e-08 4.58947409503364e-08 1.29655665744097e-07 1.17092112925216e-07 5.76540097384457e-09 5.7594413644814e-10 2.49699314548742e-08
"503" 19908 2.370072385564e-07 1.91121090860664e-08 4.61107907995747e-08 1.29468219007252e-07 1.17450040531823e-07 5.7837489794183e-09 5.75618703456768e-10 2.4973612727451e-08
"504" 19909 2.37525871255298e-07 1.91288183611443e-08 4.6326840648813e-08 1.29280772270406e-07 1.17807968138429e-07 5.80209698499203e-09 5.75293270465396e-10 2.49772940000279e-08
"505" 19910 2.38044503954195e-07 1.91455276362222e-08 4.65428904980514e-08 1.29093325533561e-07 1.18165895745036e-07 5.82044499056576e-09 5.74967837474024e-10 2.49809752726047e-08
"506" 19911 2.38563136653093e-07 1.91622369113001e-08 4.67589403472897e-08 1.28905878796716e-07 1.18523823351642e-07 5.83879299613949e-09 5.74642404482652e-10 2.49846565451816e-08
"507" 19912 2.3908176935199e-07 1.9178946186378e-08 4.6974990196528e-08 1.2871843205987e-07 1.18881750958249e-07 5.85714100171322e-09 5.74316971491279e-10 2.49883378177584e-08
"508" 19913 2.39600402050888e-07 1.91956554614559e-08 4.71910400457664e-08 1.28530985323025e-07 1.19239678564855e-07 5.87548900728695e-09 5.73991538499907e-10 2.49920190903353e-08
"509" 19914 2.40119034749785e-07 1.92123647365338e-08 4.74070898950047e-08 1.28343538586179e-07 1.19597606171462e-07 5.89383701286068e-09 5.73666105508535e-10 2.49957003629121e-08
"510" 19915 2.40637667448683e-07 1.92290740116117e-08 4.7623139744243e-08 1.28156091849334e-07 1.19955533778068e-07 5.9121850184344e-09 5.73340672517163e-10 2.4999381635489e-08
"511" 19916 2.4115630014758e-07 1.92457832866896e-08 4.78391895934814e-08 1.27968645112488e-07 1.20313461384675e-07 5.93053302400814e-09 5.73015239525791e-10 2.50030629080658e-08
"512" 19917 2.41674932846478e-07 1.92624925617675e-08 4.80552394427197e-08 1.27781198375643e-07 1.20671388991282e-07 5.94888102958186e-09 5.72689806534419e-10 2.50067441806427e-08
"513" 19918 2.42193565545375e-07 1.92792018368454e-08 4.8271289291958e-08 1.27593751638798e-07 1.21029316597888e-07 5.96722903515559e-09 5.72364373543047e-10 2.50104254532195e-08
"514" 19919 2.42712198244273e-07 1.92959111119234e-08 4.84873391411964e-08 1.27406304901952e-07 1.21387244204495e-07 5.98557704072932e-09 5.72038940551675e-10 2.50141067257964e-08
"515" 19920 2.42971593954594e-07 1.92489896479081e-08 4.84789483992587e-08 1.28066228023483e-07 1.23654306577062e-07 6.19096290626461e-09 5.95890599092966e-10 2.50204925464728e-08
"516" 19921 2.43230989664915e-07 1.92020681838928e-08 4.8470557657321e-08 1.28726151145015e-07 1.25921368949628e-07 6.3963487717999e-09 6.19742257634256e-10 2.50268783671492e-08
"517" 19922 2.44394397444861e-07 1.92017953956052e-08 4.838063221046e-08 1.28726095123445e-07 1.25896462495827e-07 6.39430082944961e-09 6.19590144768719e-10 2.50762964892668e-08
"518" 19923 2.45711237942408e-07 1.91766236224551e-08 4.83651937233067e-08 1.28663448306171e-07 1.25326585455839e-07 6.3849303799856e-09 6.16077665687973e-10 2.49708191133849e-08
"519" 19924 2.47028078439956e-07 1.9151451849305e-08 4.83497552361535e-08 1.28600801488896e-07 1.24756708415851e-07 6.3755599305216e-09 6.12565186607226e-10 2.48653417375029e-08
"520" 19925 2.48344918937503e-07 1.91262800761549e-08 4.83343167490002e-08 1.28538154671621e-07 1.24186831375863e-07 6.36618948105759e-09 6.09052707526479e-10 2.4759864361621e-08
"521" 19926 2.4966175943505e-07 1.91011083030048e-08 4.83188782618469e-08 1.28475507854347e-07 1.23616954335875e-07 6.35681903159359e-09 6.05540228445733e-10 2.4654386985739e-08
"522" 19927 2.50978599932597e-07 1.90759365298546e-08 4.83034397746937e-08 1.28412861037072e-07 1.23047077295887e-07 6.34744858212959e-09 6.02027749364987e-10 2.4548909609857e-08
"523" 19928 2.52295440430144e-07 1.90507647567045e-08 4.82880012875404e-08 1.28350214219798e-07 1.22477200255899e-07 6.33807813266558e-09 5.9851527028424e-10 2.44434322339751e-08
"524" 19929 2.53612280927692e-07 1.90255929835544e-08 4.82725628003871e-08 1.28287567402523e-07 1.21907323215911e-07 6.32870768320158e-09 5.95002791203493e-10 2.43379548580931e-08
"525" 19930 2.54929121425239e-07 1.90004212104043e-08 4.82571243132339e-08 1.28224920585249e-07 1.21337446175923e-07 6.31933723373757e-09 5.91490312122747e-10 2.42324774822111e-08
"526" 19931 2.56245961922786e-07 1.89752494372541e-08 4.82416858260806e-08 1.28162273767974e-07 1.20767569135935e-07 6.30996678427357e-09 5.87977833042e-10 2.41270001063292e-08
"527" 19932 2.56188124196939e-07 1.8956429136714e-08 4.8223145588122e-08 1.29025733300877e-07 1.20792828893188e-07 6.33149120288343e-09 5.90906729964349e-10 2.40084779613096e-08
"528" 19933 2.56130286471093e-07 1.89376088361738e-08 4.82046053501634e-08 1.29889192833781e-07 1.2081808865044e-07 6.35301562149329e-09 5.93835626886698e-10 2.38899558162901e-08
"529" 19934 2.56072448745246e-07 1.89187885356337e-08 4.81860651122048e-08 1.30752652366684e-07 1.20843348407692e-07 6.37454004010316e-09 5.96764523809047e-10 2.37714336712705e-08
"530" 19935 2.53148925873929e-07 1.88447634143777e-08 4.8180145276373e-08 1.31678758716862e-07 1.21192744887993e-07 6.3811520745738e-09 6.03379219937978e-10 2.36632398694126e-08
"531" 19936 2.50225403002612e-07 1.87707382931218e-08 4.81742254405412e-08 1.3260486506704e-07 1.21542141368294e-07 6.38776410904445e-09 6.09993916066908e-10 2.35550460675547e-08
"532" 19937 2.47301880131294e-07 1.86967131718658e-08 4.81683056047094e-08 1.33530971417218e-07 1.21891537848595e-07 6.3943761435151e-09 6.16608612195838e-10 2.34468522656968e-08
"533" 19938 2.44378357259977e-07 1.86226880506098e-08 4.81623857688776e-08 1.34457077767396e-07 1.22240934328896e-07 6.40098817798575e-09 6.23223308324769e-10 2.33386584638389e-08
"534" 19939 2.4145483438866e-07 1.85486629293539e-08 4.81564659330458e-08 1.35383184117574e-07 1.22590330809197e-07 6.40760021245639e-09 6.29838004453699e-10 2.32304646619809e-08
"535" 19940 2.38531311517343e-07 1.84746378080979e-08 4.8150546097214e-08 1.36309290467752e-07 1.22939727289498e-07 6.41421224692704e-09 6.3645270058263e-10 2.3122270860123e-08
"536" 19941 2.35682248536487e-07 1.84298904979231e-08 4.82697252327463e-08 1.36398079807503e-07 1.22667760911131e-07 6.40536565526874e-09 6.4813975692482e-10 2.30074537343799e-08
"537" 19942 2.35393554432499e-07 1.84632051574e-08 4.83645941802519e-08 1.36331628158766e-07 1.22395794532764e-07 6.41221723445821e-09 6.58981419898134e-10 2.29727458597507e-08
"538" 19943 2.35104860328512e-07 1.84965198168768e-08 4.84594631277575e-08 1.3626517651003e-07 1.22123828154396e-07 6.41906881364769e-09 6.69823082871448e-10 2.29380379851215e-08
"539" 19944 2.34816166224524e-07 1.85298344763536e-08 4.85543320752632e-08 1.36198724861293e-07 1.21851861776029e-07 6.42592039283716e-09 6.80664745844762e-10 2.29033301104923e-08
"540" 19945 2.34527472120536e-07 1.85631491358304e-08 4.86492010227688e-08 1.36132273212556e-07 1.21579895397662e-07 6.43277197202663e-09 6.91506408818076e-10 2.28686222358631e-08
"541" 19946 2.34238778016548e-07 1.85964637953072e-08 4.87440699702744e-08 1.3606582156382e-07 1.21307929019295e-07 6.4396235512161e-09 7.0234807179139e-10 2.28339143612339e-08
"542" 19947 2.3395008391256e-07 1.8629778454784e-08 4.883893891778e-08 1.35999369915083e-07 1.21035962640928e-07 6.44647513040557e-09 7.13189734764704e-10 2.27992064866047e-08
"543" 19948 2.33661389808572e-07 1.86630931142608e-08 4.89338078652857e-08 1.35932918266347e-07 1.20763996262561e-07 6.45332670959504e-09 7.24031397738018e-10 2.27644986119755e-08
"544" 19949 2.33372695704585e-07 1.86964077737376e-08 4.90286768127913e-08 1.3586646661761e-07 1.20492029884194e-07 6.46017828878451e-09 7.34873060711332e-10 2.27297907373463e-08
"545" 19950 2.33084001600597e-07 1.87297224332144e-08 4.91235457602969e-08 1.35800014968873e-07 1.20220063505827e-07 6.46702986797399e-09 7.45714723684647e-10 2.26950828627172e-08
"546" 19951 2.32795307496609e-07 1.87630370926912e-08 4.92184147078025e-08 1.35733563320137e-07 1.19948097127459e-07 6.47388144716346e-09 7.56556386657961e-10 2.2660374988088e-08
"547" 19952 2.32506613392621e-07 1.8796351752168e-08 4.93132836553082e-08 1.356671116714e-07 1.19676130749092e-07 6.48073302635293e-09 7.67398049631275e-10 2.26256671134588e-08
"548" 19953 2.32217919288633e-07 1.88296664116449e-08 4.94081526028138e-08 1.35600660022664e-07 1.19404164370725e-07 6.4875846055424e-09 7.78239712604589e-10 2.25909592388296e-08
"549" 19954 2.31929225184646e-07 1.88629810711217e-08 4.95030215503194e-08 1.35534208373927e-07 1.19132197992358e-07 6.49443618473187e-09 7.89081375577903e-10 2.25562513642004e-08
"550" 19955 2.31640531080658e-07 1.88962957305985e-08 4.9597890497825e-08 1.3546775672519e-07 1.18860231613991e-07 6.50128776392134e-09 7.99923038551217e-10 2.25215434895712e-08
"551" 19956 2.31446997235432e-07 1.89358213923114e-08 5.00212844869406e-08 1.35910985622688e-07 1.19542484595467e-07 6.49356964294889e-09 8.0337189585107e-10 2.24824091821584e-08
"552" 19957 2.31601246511771e-07 1.89737653002169e-08 5.04446784760561e-08 1.36221669519035e-07 1.2038578299031e-07 6.49443618473187e-09 8.03980347313219e-10 2.24445098841889e-08
"553" 19958 2.33010208727133e-07 1.90340839088613e-08 5.04208246990521e-08 1.36143045876113e-07 1.20496921889899e-07 6.49868813857238e-09 8.01444167206589e-10 2.24613903020837e-08
"554" 19959 2.31927323303057e-07 1.90862433262587e-08 5.04268749380333e-08 1.3634924371491e-07 1.20648751171136e-07 6.49435542965744e-09 8.02268353315168e-10 2.23586560638198e-08
"555" 19960 2.30844437878981e-07 1.91384027436561e-08 5.04329251770144e-08 1.36555441553706e-07 1.20800580452374e-07 6.4900227207425e-09 8.03092539423747e-10 2.22559218255558e-08
"556" 19961 2.29761552454905e-07 1.91905621610535e-08 5.04389754159956e-08 1.36761639392503e-07 1.20952409733612e-07 6.48569001182756e-09 8.03916725532326e-10 2.21531875872919e-08
"557" 19962 2.2867866703083e-07 1.92427215784509e-08 5.04450256549767e-08 1.369678372313e-07 1.21104239014849e-07 6.48135730291262e-09 8.04740911640905e-10 2.20504533490279e-08
"558" 19963 2.27595781606754e-07 1.92948809958483e-08 5.04510758939579e-08 1.37174035070097e-07 1.21256068296087e-07 6.47702459399768e-09 8.05565097749484e-10 2.1947719110764e-08
"559" 19964 2.26512896182678e-07 1.93470404132457e-08 5.0457126132939e-08 1.37380232908894e-07 1.21407897577325e-07 6.47269188508275e-09 8.06389283858063e-10 2.18449848725e-08
"560" 19965 2.25430010758603e-07 1.93991998306432e-08 5.04631763719202e-08 1.37586430747691e-07 1.21559726858563e-07 6.46835917616781e-09 8.07213469966643e-10 2.17422506342361e-08
"561" 19966 2.24347125334527e-07 1.94513592480406e-08 5.04692266109013e-08 1.37792628586488e-07 1.217115561398e-07 6.46402646725287e-09 8.08037656075222e-10 2.16395163959721e-08
"562" 19967 2.23264239910451e-07 1.9503518665438e-08 5.04752768498825e-08 1.37998826425284e-07 1.21863385421038e-07 6.45969375833793e-09 8.08861842183801e-10 2.15367821577081e-08
"563" 19968 2.22181354486375e-07 1.95556780828354e-08 5.04813270888636e-08 1.38205024264081e-07 1.22015214702276e-07 6.45536104942299e-09 8.0968602829238e-10 2.14340479194442e-08
"564" 19969 2.210984690623e-07 1.96078375002328e-08 5.04873773278448e-08 1.38411222102878e-07 1.22167043983514e-07 6.45102834050805e-09 8.10510214400959e-10 2.13313136811802e-08
"565" 19970 2.20015583638224e-07 1.96599969176302e-08 5.04934275668259e-08 1.38617419941675e-07 1.22318873264751e-07 6.44669563159311e-09 8.11334400509538e-10 2.12285794429163e-08
"566" 19971 2.18932698214148e-07 1.97121563350276e-08 5.04994778058071e-08 1.38823617780472e-07 1.22470702545989e-07 6.44236292267817e-09 8.12158586618117e-10 2.11258452046523e-08
"567" 19972 2.17849812790072e-07 1.9764315752425e-08 5.05055280447882e-08 1.39029815619269e-07 1.22622531827227e-07 6.43803021376323e-09 8.12982772726696e-10 2.10231109663884e-08
"568" 19973 2.16766927365997e-07 1.98164751698224e-08 5.05115782837694e-08 1.39236013458065e-07 1.22774361108465e-07 6.43369750484829e-09 8.13806958835275e-10 2.09203767281244e-08
"569" 19974 2.15684041941921e-07 1.98686345872198e-08 5.05176285227506e-08 1.39442211296862e-07 1.22926190389702e-07 6.42936479593335e-09 8.14631144943854e-10 2.08176424898605e-08
"570" 19975 2.14601156517845e-07 1.99207940046172e-08 5.05236787617317e-08 1.39648409135659e-07 1.2307801967094e-07 6.42503208701841e-09 8.15455331052433e-10 2.07149082515965e-08
"571" 19976 2.1351827109377e-07 1.99729534220146e-08 5.05297290007129e-08 1.39854606974456e-07 1.23229848952178e-07 6.42069937810347e-09 8.16279517161013e-10 2.06121740133326e-08
"572" 19977 2.12105087293726e-07 2.0016656402497e-08 5.05321135341968e-08 1.39950143486681e-07 1.23943013586471e-07 6.41242957413234e-09 8.17103703269592e-10 2.04787545850106e-08
"573" 19978 2.10312674767111e-07 2.00345178678005e-08 5.0706631406259e-08 1.40056478658898e-07 1.2389682731955e-07 6.41560598716848e-09 8.1677827027822e-10 2.03852086853699e-08
"574" 19979 2.10051590737066e-07 2.00282437371862e-08 5.08570135239712e-08 1.40154626420857e-07 1.22389741808663e-07 6.37027510388857e-09 8.13092471071638e-10 2.04030866094991e-08
"575" 19980 2.10434525021583e-07 2.00377505649508e-08 5.0965304775114e-08 1.39615552892502e-07 1.22290718433554e-07 6.37778422583965e-09 8.13092471071638e-10 2.04804289672422e-08
"576" 19981 2.108174593061e-07 2.00472573927154e-08 5.10735960262568e-08 1.39076479364147e-07 1.22191695058446e-07 6.38529334779072e-09 8.13092471071638e-10 2.05577713249853e-08
"577" 19982 2.11200393590617e-07 2.00567642204799e-08 5.11818872773996e-08 1.38537405835791e-07 1.22092671683337e-07 6.39280246974179e-09 8.13092471071638e-10 2.06351136827283e-08
"578" 19983 2.11583327875134e-07 2.00662710482445e-08 5.12901785285424e-08 1.37998332307436e-07 1.21993648308229e-07 6.40031159169286e-09 8.13092471071638e-10 2.07124560404714e-08
"579" 19984 2.11966262159651e-07 2.00757778760091e-08 5.13984697796852e-08 1.37459258779081e-07 1.2189462493312e-07 6.40782071364393e-09 8.13092471071638e-10 2.07897983982145e-08
"580" 19985 2.12349196444168e-07 2.00852847037737e-08 5.1506761030828e-08 1.36920185250725e-07 1.21795601558011e-07 6.415329835595e-09 8.13092471071638e-10 2.08671407559576e-08
"581" 19986 2.12732130728685e-07 2.00947915315383e-08 5.16150522819708e-08 1.3638111172237e-07 1.21696578182903e-07 6.42283895754608e-09 8.13092471071638e-10 2.09444831137007e-08
"582" 19987 2.13115065013202e-07 2.01042983593029e-08 5.17233435331136e-08 1.35842038194015e-07 1.21597554807794e-07 6.43034807949715e-09 8.13092471071638e-10 2.10218254714437e-08
"583" 19988 2.13497999297719e-07 2.01138051870675e-08 5.18316347842564e-08 1.35302964665659e-07 1.21498531432686e-07 6.43785720144822e-09 8.13092471071638e-10 2.10991678291868e-08
"584" 19989 2.14050500824212e-07 2.00957096044742e-08 5.17592275212066e-08 1.3465362196172e-07 1.21435895913879e-07 6.43604608331228e-09 8.15108690800764e-10 2.11226656320286e-08
"585" 19990 2.14603002350705e-07 2.00776140218809e-08 5.16868202581567e-08 1.3400427925778e-07 1.21373260395072e-07 6.43423496517634e-09 8.17124910529889e-10 2.11461634348705e-08
"586" 19991 2.15155503877197e-07 2.00595184392875e-08 5.16144129951069e-08 1.3335493655384e-07 1.21310624876266e-07 6.43242384704041e-09 8.19141130259015e-10 2.11696612377123e-08
"587" 19992 2.1570800540369e-07 2.00414228566942e-08 5.15420057320571e-08 1.32705593849901e-07 1.21247989357459e-07 6.43061272890447e-09 8.2115734998814e-10 2.11931590405541e-08
"588" 19993 2.16148753255431e-07 2.00349003951727e-08 5.153836288604e-08 1.32346026304188e-07 1.21101999663961e-07 6.43286967027615e-09 8.17319437916022e-10 2.12262459652891e-08
"589" 19994 2.16589501107172e-07 2.00283779336512e-08 5.1534720040023e-08 1.31986458758475e-07 1.20956009970463e-07 6.43512661164783e-09 8.13481525843903e-10 2.1259332890024e-08
"590" 19995 2.17030248958912e-07 2.00218554721297e-08 5.15310771940059e-08 1.31626891212763e-07 1.20810020276965e-07 6.43738355301951e-09 8.09643613771785e-10 2.1292419814759e-08
"591" 19996 2.17470996810653e-07 2.00153330106082e-08 5.15274343479889e-08 1.3126732366705e-07 1.20664030583467e-07 6.43964049439119e-09 8.05805701699666e-10 2.1325506739494e-08
"592" 19997 2.17911744662394e-07 2.00088105490867e-08 5.15237915019718e-08 1.30907756121338e-07 1.2051804088997e-07 6.44189743576287e-09 8.01967789627547e-10 2.13585936642289e-08
"593" 19998 2.17561196353998e-07 2.01104401720035e-08 5.18625346180431e-08 1.30620496492733e-07 1.20460476427707e-07 6.4476205442665e-09 7.9695905119518e-10 2.13807852084755e-08
"594" 19999 2.17617628294241e-07 2.02009180849701e-08 5.20622788770431e-08 1.30690602036989e-07 1.20371137215609e-07 6.45108671139845e-09 7.97631124438222e-10 2.14051261413714e-08
"595" 20000 2.17674060234484e-07 2.02913959979367e-08 5.22620231360431e-08 1.30760707581246e-07 1.20281798003512e-07 6.4545528785304e-09 7.98303197681264e-10 2.14294670742672e-08
"596" 20001 2.17730492174728e-07 2.03818739109033e-08 5.24617673950431e-08 1.30830813125503e-07 1.20192458791414e-07 6.45801904566236e-09 7.98975270924305e-10 2.1453808007163e-08
"597" 20002 2.17786924114971e-07 2.04723518238699e-08 5.26615116540431e-08 1.3090091866976e-07 1.20103119579317e-07 6.46148521279431e-09 7.99647344167347e-10 2.14781489400589e-08
"598" 20003 2.17843356055215e-07 2.05628297368364e-08 5.2861255913043e-08 1.30971024214017e-07 1.20013780367219e-07 6.46495137992626e-09 8.00319417410389e-10 2.15024898729547e-08
"599" 20004 2.17899787995458e-07 2.0653307649803e-08 5.3061000172043e-08 1.31041129758274e-07 1.19924441155122e-07 6.46841754705821e-09 8.00991490653431e-10 2.15268308058505e-08
"600" 20005 2.17956219935701e-07 2.07437855627696e-08 5.3260744431043e-08 1.3111123530253e-07 1.19835101943024e-07 6.47188371419016e-09 8.01663563896473e-10 2.15511717387464e-08
"601" 20006 2.18012651875945e-07 2.08342634757362e-08 5.3460488690043e-08 1.31181340846787e-07 1.19745762730926e-07 6.47534988132211e-09 8.02335637139515e-10 2.15755126716422e-08
"602" 20007 2.18069083816188e-07 2.09247413887028e-08 5.3660232949043e-08 1.31251446391044e-07 1.19656423518829e-07 6.47881604845406e-09 8.03007710382557e-10 2.15998536045381e-08
"603" 20008 2.18125515756432e-07 2.10152193016693e-08 5.3859977208043e-08 1.31321551935301e-07 1.19567084306731e-07 6.48228221558601e-09 8.03679783625598e-10 2.16241945374339e-08
"604" 20009 2.18181947696675e-07 2.11056972146359e-08 5.4059721467043e-08 1.31391657479558e-07 1.19477745094634e-07 6.48574838271797e-09 8.0435185686864e-10 2.16485354703297e-08
"605" 20010 2.18238379636919e-07 2.11961751276025e-08 5.4259465726043e-08 1.31461763023815e-07 1.19388405882536e-07 6.48921454984992e-09 8.05023930111682e-10 2.16728764032256e-08
"606" 20011 2.18294811577162e-07 2.12866530405691e-08 5.4459209985043e-08 1.31531868568071e-07 1.19299066670439e-07 6.49268071698187e-09 8.05696003354724e-10 2.16972173361214e-08
"607" 20012 2.18351243517405e-07 2.13771309535357e-08 5.4658954244043e-08 1.31601974112328e-07 1.19209727458341e-07 6.49614688411382e-09 8.06368076597766e-10 2.17215582690172e-08
"608" 20013 2.18314598390103e-07 2.13594567820639e-08 5.45654299816924e-08 1.31648453469471e-07 1.20348753810161e-07 6.5002678735029e-09 8.06194756471931e-10 2.17234760933959e-08
"609" 20014 2.182779532628e-07 2.13417826105922e-08 5.44719057193418e-08 1.31694932826613e-07 1.21487780161982e-07 6.50438886289198e-09 8.06021436346096e-10 2.17253939177745e-08
"610" 20015 2.18591715357898e-07 2.13309118413897e-08 5.43588631954125e-08 1.31964763704031e-07 1.21789681808186e-07 6.50785503002394e-09 8.06021436346096e-10 2.17290187840183e-08
"611" 20016 2.18519363179406e-07 2.13200410721872e-08 5.43877468456831e-08 1.31996711914317e-07 1.21944534330363e-07 6.46580097853416e-09 8.06021436346096e-10 2.16902080717852e-08
"612" 20017 2.18447011000913e-07 2.13091703029847e-08 5.44166304959537e-08 1.32028660124603e-07 1.2209938685254e-07 6.42374692704438e-09 8.06021436346096e-10 2.16513973595522e-08
"613" 20018 2.1837465882242e-07 2.12982995337822e-08 5.44455141462243e-08 1.32060608334889e-07 1.22254239374717e-07 6.3816928755546e-09 8.06021436346096e-10 2.16125866473191e-08
"614" 20019 2.18302306643928e-07 2.12874287645798e-08 5.44743977964949e-08 1.32092556545175e-07 1.22409091896894e-07 6.33963882406482e-09 8.06021436346096e-10 2.15737759350861e-08
"615" 20020 2.18229954465435e-07 2.12765579953773e-08 5.45032814467655e-08 1.32124504755461e-07 1.2256394441907e-07 6.29758477257504e-09 8.06021436346096e-10 2.1534965222853e-08
"616" 20021 2.18157602286943e-07 2.12656872261748e-08 5.45321650970361e-08 1.32156452965747e-07 1.22718796941247e-07 6.25553072108526e-09 8.06021436346096e-10 2.149615451062e-08
"617" 20022 2.1808525010845e-07 2.12548164569723e-08 5.45610487473067e-08 1.32188401176033e-07 1.22873649463424e-07 6.21347666959548e-09 8.06021436346096e-10 2.14573437983869e-08
"618" 20023 2.18012897929957e-07 2.12439456877698e-08 5.45899323975773e-08 1.32220349386319e-07 1.23028501985601e-07 6.1714226181057e-09 8.06021436346096e-10 2.14185330861539e-08
"619" 20024 2.17940545751465e-07 2.12330749185673e-08 5.46188160478479e-08 1.32252297596606e-07 1.23183354507778e-07 6.12936856661592e-09 8.06021436346096e-10 2.13797223739208e-08
"620" 20025 2.17868193572972e-07 2.12222041493648e-08 5.46476996981185e-08 1.32284245806892e-07 1.23338207029955e-07 6.08731451512614e-09 8.06021436346096e-10 2.13409116616878e-08
"621" 20026 2.17795841394479e-07 2.12113333801623e-08 5.46765833483891e-08 1.32316194017178e-07 1.23493059552132e-07 6.04526046363636e-09 8.06021436346096e-10 2.13021009494547e-08
"622" 20027 2.17723489215987e-07 2.12004626109598e-08 5.47054669986597e-08 1.32348142227464e-07 1.23647912074309e-07 6.00320641214658e-09 8.06021436346096e-10 2.12632902372217e-08
"623" 20028 2.17651137037494e-07 2.11895918417573e-08 5.47343506489303e-08 1.3238009043775e-07 1.23802764596486e-07 5.9611523606568e-09 8.06021436346096e-10 2.12244795249886e-08
"624" 20029 2.17578784859002e-07 2.11787210725548e-08 5.47632342992009e-08 1.32412038648036e-07 1.23957617118663e-07 5.91909830916702e-09 8.06021436346096e-10 2.11856688127556e-08
"625" 20030 2.17506432680509e-07 2.11678503033523e-08 5.47921179494715e-08 1.32443986858322e-07 1.2411246964084e-07 5.87704425767724e-09 8.06021436346096e-10 2.11468581005225e-08
"626" 20031 2.17434080502016e-07 2.11569795341498e-08 5.48210015997421e-08 1.32475935068608e-07 1.24267322163017e-07 5.83499020618746e-09 8.06021436346096e-10 2.11080473882895e-08
"627" 20032 2.17361728323524e-07 2.11461087649473e-08 5.48498852500127e-08 1.32507883278894e-07 1.24422174685194e-07 5.79293615469768e-09 8.06021436346096e-10 2.10692366760564e-08
"628" 20033 2.17500865102476e-07 2.11066767501503e-08 5.48677099590828e-08 1.32773612088235e-07 1.24822778084938e-07 5.79679521518391e-09 8.0504513737198e-10 2.1071997630489e-08
"629" 20034 2.17459214808252e-07 2.10781155045558e-08 5.48598391413095e-08 1.32792105249244e-07 1.24673162710403e-07 5.79899922667413e-09 8.0504513737198e-10 2.10718432543086e-08
"630" 20035 2.17565630169714e-07 2.10416433986214e-08 5.48637427936253e-08 1.3273585274913e-07 1.24650926673912e-07 5.79952308447983e-09 8.03722198146194e-10 2.07481821668791e-08
"631" 20036 2.1808172042365e-07 2.09873566508415e-08 5.49361500566751e-08 1.32675128196858e-07 1.2462056513788e-07 5.79692345913087e-09 8.01575072811829e-10 2.0423888731909e-08
"632" 20037 2.18597810677585e-07 2.09330699030615e-08 5.50085573197249e-08 1.32614403644586e-07 1.24590203601848e-07 5.79432383378191e-09 7.99427947477463e-10 2.0099595296939e-08
"633" 20038 2.1911390093152e-07 2.08787831552816e-08 5.50809645827748e-08 1.32553679092314e-07 1.24559842065816e-07 5.79172420843294e-09 7.97280822143098e-10 1.97753018619689e-08
"634" 20039 2.19629991185456e-07 2.08244964075016e-08 5.51533718458246e-08 1.32492954540041e-07 1.24529480529784e-07 5.78912458308398e-09 7.95133696808733e-10 1.94510084269989e-08
"635" 20040 2.20146081439391e-07 2.07702096597217e-08 5.52257791088744e-08 1.32432229987769e-07 1.24499118993752e-07 5.78652495773502e-09 7.92986571474368e-10 1.91267149920288e-08
"636" 20041 2.20662171693326e-07 2.07159229119417e-08 5.52981863719242e-08 1.32371505435497e-07 1.2446875745772e-07 5.78392533238605e-09 7.90839446140003e-10 1.88024215570588e-08
"637" 20042 2.21178261947262e-07 2.06616361641618e-08 5.53705936349741e-08 1.32310780883225e-07 1.24438395921687e-07 5.78132570703709e-09 7.88692320805638e-10 1.84781281220887e-08
"638" 20043 2.21694352201197e-07 2.06073494163818e-08 5.54430008980239e-08 1.32250056330953e-07 1.24408034385655e-07 5.77872608168813e-09 7.86545195471272e-10 1.81538346871187e-08
"639" 20044 2.22210442455132e-07 2.05530626686019e-08 5.55154081610737e-08 1.3218933177868e-07 1.24377672849623e-07 5.77612645633916e-09 7.84398070136907e-10 1.78295412521486e-08
"640" 20045 2.22726532709068e-07 2.04987759208219e-08 5.55878154241236e-08 1.32128607226408e-07 1.24347311313591e-07 5.7735268309902e-09 7.82250944802542e-10 1.75052478171786e-08
"641" 20046 2.23242622963003e-07 2.0444489173042e-08 5.56602226871734e-08 1.32067882674136e-07 1.24316949777559e-07 5.77092720564124e-09 7.80103819468177e-10 1.71809543822085e-08
"642" 20047 2.22907537934111e-07 2.04342799934081e-08 5.56973277110036e-08 1.31878888694508e-07 1.24314300001679e-07 5.71692818402699e-09 7.68742196117358e-10 1.71098286261425e-08
"643" 20048 2.22325029564712e-07 2.04280140152539e-08 5.56628714038218e-08 1.31940678059472e-07 1.25596925968392e-07 5.66836251682055e-09 7.61349390443898e-10 1.70540662468627e-08
"644" 20049 2.21742521195313e-07 2.04217480370997e-08 5.562841509664e-08 1.32002467424437e-07 1.26879551935105e-07 5.61979684961411e-09 7.53956584770437e-10 1.69983038675828e-08
"645" 20050 2.21160012825914e-07 2.04154820589454e-08 5.55939587894582e-08 1.32064256789401e-07 1.28162177901817e-07 5.57123118240767e-09 7.46563779096977e-10 1.69425414883029e-08
"646" 20051 2.20577504456515e-07 2.04092160807912e-08 5.55595024822764e-08 1.32126046154365e-07 1.2944480386853e-07 5.52266551520124e-09 7.39170973423517e-10 1.6886779109023e-08
"647" 20052 2.19994996087117e-07 2.0402950102637e-08 5.55250461750946e-08 1.32187835519329e-07 1.30727429835243e-07 5.4740998479948e-09 7.31778167750056e-10 1.68310167297431e-08
"648" 20053 2.19412487717718e-07 2.03966841244828e-08 5.54905898679128e-08 1.32249624884293e-07 1.32010055801955e-07 5.42553418078836e-09 7.24385362076596e-10 1.67752543504633e-08
"649" 20054 2.18084623677214e-07 2.03936834533194e-08 5.547595328227e-08 1.3197051921415e-07 1.33278685479328e-07 5.43209600588202e-09 7.28679612745326e-10 1.66360101998534e-08
"650" 20055 2.16756759636711e-07 2.0390682782156e-08 5.54613166966271e-08 1.31691413544008e-07 1.345473151567e-07 5.43865783097567e-09 7.32973863414056e-10 1.64967660492436e-08
"651" 20056 2.15428895596208e-07 2.03876821109926e-08 5.54466801109842e-08 1.31412307873866e-07 1.35815944834072e-07 5.44521965606932e-09 7.37268114082787e-10 1.63575218986337e-08
"652" 20057 2.14158134378688e-07 2.0378564084509e-08 5.54472017235816e-08 1.3086613935586e-07 1.35789032807174e-07 5.44634812675516e-09 7.39284333811912e-10 1.6250963889489e-08
"653" 20058 2.12887373161167e-07 2.03694460580254e-08 5.54477233361789e-08 1.30319970837855e-07 1.35762120780277e-07 5.447476597441e-09 7.41300553541038e-10 1.61444058803442e-08
"654" 20059 2.11616611943647e-07 2.03603280315419e-08 5.54482449487763e-08 1.29773802319849e-07 1.35735208753379e-07 5.44860506812684e-09 7.43316773270163e-10 1.60378478711994e-08
"655" 20060 2.10345850726127e-07 2.03512100050583e-08 5.54487665613737e-08 1.29227633801844e-07 1.35708296726482e-07 5.44973353881268e-09 7.45332992999289e-10 1.59312898620546e-08
"656" 20061 2.09075089508606e-07 2.03420919785747e-08 5.5449288173971e-08 1.28681465283839e-07 1.35681384699584e-07 5.45086200949852e-09 7.47349212728415e-10 1.58247318529098e-08
"657" 20062 2.07804328291086e-07 2.03329739520911e-08 5.54498097865684e-08 1.28135296765833e-07 1.35654472672686e-07 5.45199048018436e-09 7.4936543245754e-10 1.5718173843765e-08
"658" 20063 2.06533567073566e-07 2.03238559256075e-08 5.54503313991657e-08 1.27589128247828e-07 1.35627560645789e-07 5.4531189508702e-09 7.51381652186666e-10 1.56116158346202e-08
"659" 20064 2.05262805856045e-07 2.03147378991239e-08 5.54508530117631e-08 1.27042959729822e-07 1.35600648618891e-07 5.45424742155604e-09 7.53397871915791e-10 1.55050578254754e-08
"660" 20065 2.03992044638525e-07 2.03056198726403e-08 5.54513746243604e-08 1.26496791211817e-07 1.35573736591994e-07 5.45537589224188e-09 7.55414091644917e-10 1.53984998163306e-08
"661" 20066 2.02721283421005e-07 2.02965018461567e-08 5.54518962369578e-08 1.25950622693812e-07 1.35546824565096e-07 5.45650436292772e-09 7.57430311374042e-10 1.52919418071859e-08
"662" 20067 2.01450522203484e-07 2.02873838196731e-08 5.54524178495552e-08 1.25404454175806e-07 1.35519912538198e-07 5.45763283361356e-09 7.59446531103168e-10 1.51853837980411e-08
"663" 20068 2.00179760985964e-07 2.02782657931895e-08 5.54529394621525e-08 1.24858285657801e-07 1.35493000511301e-07 5.4587613042994e-09 7.61462750832294e-10 1.50788257888963e-08
"664" 20069 2.00502836078541e-07 2.02578555863819e-08 5.53889491773863e-08 1.24853438180553e-07 1.3511899759769e-07 5.40476228268515e-09 7.62633577192542e-10 1.51268753071475e-08
"665" 20070 2.00471540377405e-07 2.02415290514277e-08 5.54091406257589e-08 1.24893618537777e-07 1.34792428073705e-07 5.35821945314051e-09 7.7030940133678e-10 1.5127507654688e-08
"666" 20071 2.00504802342385e-07 2.02256239275952e-08 5.55073966782816e-08 1.24833011469653e-07 1.34830613649318e-07 5.35743366643195e-09 7.78830618849894e-10 1.50800904839773e-08
"667" 20072 2.0050188266168e-07 2.02117524872293e-08 5.55350660465465e-08 1.24727264523917e-07 1.35320618185454e-07 5.35179131300275e-09 7.78830618849894e-10 1.50409621155028e-08
"668" 20073 2.00498962980976e-07 2.01978810468635e-08 5.55627354148114e-08 1.24621517578181e-07 1.3581062272159e-07 5.34614895957355e-09 7.78830618849894e-10 1.50018337470282e-08
"669" 20074 2.00496043300272e-07 2.01840096064976e-08 5.55904047830763e-08 1.24515770632445e-07 1.36300627257725e-07 5.34050660614435e-09 7.78830618849894e-10 1.49627053785537e-08
"670" 20075 2.00493123619568e-07 2.01701381661317e-08 5.56180741513412e-08 1.2441002368671e-07 1.36790631793861e-07 5.33486425271515e-09 7.78830618849894e-10 1.49235770100791e-08
