"time" "channel1" "channel2" "channel3" "channel4" "channel5" "channel6" "channel7" "channel8"
"1" 765 2.35412786130232e-10 2.49088086551139e-10 1.39107223895981e-10 2.32246482946648e-10 3.11501023136337e-10 2.97964763625374e-10 2.42667499962427e-10 2.35034755063671e-10
"2" 766 2.35508529481178e-10 2.4824614163928e-10 1.39107223895981e-10 2.32123843025733e-10 3.11501023136337e-10 2.98852780779437e-10 2.46048860795545e-10 2.35034755063671e-10
"3" 767 2.35604272832124e-10 2.47404196727422e-10 1.39107223895981e-10 2.32001203104819e-10 3.11501023136337e-10 2.997407979335e-10 2.49430221628662e-10 2.35034755063671e-10
"4" 768 2.35700016183071e-10 2.46562251815563e-10 1.39107223895981e-10 2.31878563183904e-10 3.11501023136337e-10 3.00628815087562e-10 2.5281158246178e-10 2.35034755063671e-10
"5" 769 2.35795759534017e-10 2.45720306903704e-10 1.39107223895981e-10 2.3175592326299e-10 3.11501023136337e-10 3.01516832241625e-10 2.56192943294898e-10 2.35034755063671e-10
"6" 770 2.35891502884964e-10 2.44878361991845e-10 1.39107223895981e-10 2.31633283342076e-10 3.11501023136337e-10 3.02404849395688e-10 2.59574304128016e-10 2.35034755063671e-10
"7" 771 2.3598724623591e-10 2.44036417079987e-10 1.39107223895981e-10 2.31510643421161e-10 3.11501023136337e-10 3.03292866549751e-10 2.62955664961133e-10 2.35034755063671e-10
"8" 772 2.36082989586856e-10 2.43194472168128e-10 1.39107223895981e-10 2.31388003500247e-10 3.11501023136337e-10 3.04180883703813e-10 2.66337025794251e-10 2.35034755063671e-10
"9" 773 2.36178732937803e-10 2.42352527256269e-10 1.39107223895981e-10 2.31265363579333e-10 3.11501023136337e-10 3.05068900857876e-10 2.69718386627369e-10 2.35034755063671e-10
"10" 774 2.36274476288749e-10 2.4151058234441e-10 1.39107223895981e-10 2.31142723658418e-10 3.11501023136337e-10 3.05956918011939e-10 2.73099747460487e-10 2.35034755063671e-10
"11" 775 2.36370219639696e-10 2.40668637432551e-10 1.39107223895981e-10 2.31020083737504e-10 3.11501023136337e-10 3.06844935166002e-10 2.76481108293605e-10 2.35034755063671e-10
"12" 776 2.36465962990642e-10 2.39826692520693e-10 1.39107223895981e-10 2.30897443816589e-10 3.11501023136337e-10 3.07732952320064e-10 2.79862469126722e-10 2.35034755063671e-10
"13" 777 2.36561706341588e-10 2.38984747608834e-10 1.39107223895981e-10 2.30774803895675e-10 3.11501023136337e-10 3.08620969474127e-10 2.8324382995984e-10 2.35034755063671e-10
"14" 778 2.36561706341588e-10 2.39202852422088e-10 1.38100688852197e-10 2.28902431347761e-10 3.06108613150086e-10 3.08807486111797e-10 2.86625190792958e-10 2.35189826974129e-10
"15" 779 2.36868972756903e-10 2.40137815165803e-10 1.37348044771702e-10 2.27030058799848e-10 3.00716203163834e-10 3.08807486111797e-10 2.86625190792958e-10 2.35344898884588e-10
"16" 780 2.37176239172217e-10 2.40355919979057e-10 1.40313477046835e-10 2.26089775809116e-10 2.95323793177583e-10 3.08994002749467e-10 2.86495576749666e-10 2.35344898884588e-10
"17" 781 2.37483505587531e-10 2.40574024792311e-10 1.43278909321968e-10 2.25149492818385e-10 2.89931383191332e-10 3.09180519387136e-10 2.86365962706374e-10 2.35344898884588e-10
"18" 782 2.37790772002845e-10 2.40792129605565e-10 1.46244341597101e-10 2.24209209827653e-10 2.84538973205081e-10 3.09367036024806e-10 2.86236348663082e-10 2.35344898884588e-10
"19" 783 2.38098038418159e-10 2.41010234418819e-10 1.49962417952729e-10 2.25141299384835e-10 2.84640192908626e-10 3.10457800578055e-10 2.8610673461979e-10 2.35344898884588e-10
"20" 784 2.38405304833474e-10 2.41228339232073e-10 1.53680494308357e-10 2.26073388942017e-10 2.84741412612171e-10 3.11548565131304e-10 2.85977120576498e-10 2.35344898884588e-10
"21" 785 2.38712571248788e-10 2.41446444045327e-10 1.57398570663986e-10 2.270054784992e-10 2.84842632315717e-10 3.12639329684552e-10 2.85847506533206e-10 2.35344898884588e-10
"22" 786 2.39019837664102e-10 2.41664548858581e-10 1.61116647019614e-10 2.27937568056382e-10 2.84943852019262e-10 3.13730094237801e-10 2.85717892489914e-10 2.35344898884588e-10
"23" 787 2.39327104079416e-10 2.41882653671835e-10 1.64834723375242e-10 2.28869657613564e-10 2.85045071722807e-10 3.1482085879105e-10 2.85588278446622e-10 2.35344898884588e-10
"24" 788 2.3963437049473e-10 2.42100758485089e-10 1.6855279973087e-10 2.29801747170746e-10 2.85146291426353e-10 3.15911623344299e-10 2.8545866440333e-10 2.35344898884588e-10
"25" 789 2.39941636910044e-10 2.42318863298344e-10 1.72270876086499e-10 2.30733836727928e-10 2.85247511129898e-10 3.17002387897548e-10 2.85329050360038e-10 2.35344898884588e-10
"26" 790 2.40248903325359e-10 2.42536968111598e-10 1.75988952442127e-10 2.3166592628511e-10 2.85348730833444e-10 3.18093152450796e-10 2.85199436316746e-10 2.35344898884588e-10
"27" 791 2.40556169740673e-10 2.42755072924852e-10 1.79707028797755e-10 2.32598015842292e-10 2.85449950536989e-10 3.19183917004045e-10 2.85069822273454e-10 2.35344898884588e-10
"28" 792 2.40556169740673e-10 2.44905646716235e-10 1.80459672878251e-10 2.33284825557645e-10 2.86151143061287e-10 3.20088164919624e-10 2.85309347304077e-10 2.35499970795046e-10
"29" 793 2.40556169740673e-10 2.47056220507618e-10 1.81212316958746e-10 2.33971635272998e-10 2.86852335585584e-10 3.20992412835204e-10 2.855488723347e-10 2.35655042705505e-10
"30" 794 2.40556169740673e-10 2.49206794299001e-10 1.81964961039241e-10 2.34658444988352e-10 2.87553528109882e-10 3.21896660750783e-10 2.85788397365324e-10 2.35810114615963e-10
"31" 795 2.40556169740673e-10 2.51357368090384e-10 1.82717605119736e-10 2.35345254703705e-10 2.8825472063418e-10 3.22800908666362e-10 2.86027922395947e-10 2.35965186526422e-10
"32" 796 2.40556169740673e-10 2.53507941881767e-10 1.83470249200232e-10 2.36032064419058e-10 2.88955913158478e-10 3.23705156581941e-10 2.8626744742657e-10 2.3612025843688e-10
"33" 797 2.40556169740673e-10 2.5565851567315e-10 1.84222893280727e-10 2.36718874134411e-10 2.89657105682775e-10 3.2460940449752e-10 2.86506972457193e-10 2.36275330347339e-10
"34" 798 2.40556169740673e-10 2.57809089464533e-10 1.84975537361222e-10 2.37405683849765e-10 2.90358298207073e-10 3.25513652413099e-10 2.86746497487816e-10 2.36430402257797e-10
"35" 799 2.40651913091619e-10 2.59741558442663e-10 1.84975537361222e-10 2.38280550163264e-10 2.90958271027825e-10 3.26417900328678e-10 2.85878605296694e-10 2.36430402257797e-10
"36" 800 2.40747656442566e-10 2.61674027420792e-10 1.84975537361222e-10 2.39155416476764e-10 2.91558243848578e-10 3.27322148244257e-10 2.85010713105572e-10 2.36430402257797e-10
"37" 801 2.40843399793512e-10 2.63606496398921e-10 1.85737210251087e-10 2.40030282790264e-10 2.91558243848578e-10 3.27930390441816e-10 2.85250238136195e-10 2.36241792961507e-10
"38" 802 2.40939143144458e-10 2.6553896537705e-10 1.86498883140952e-10 2.40905149103763e-10 2.91558243848578e-10 3.28538632639374e-10 2.85489763166818e-10 2.36053183665217e-10
"39" 803 2.41034886495405e-10 2.67471434355179e-10 1.87260556030817e-10 2.41780015417263e-10 2.91558243848578e-10 3.29146874836932e-10 2.85729288197441e-10 2.35864574368928e-10
"40" 804 2.41130629846351e-10 2.69403903333308e-10 1.88022228920682e-10 2.42654881730762e-10 2.91558243848578e-10 3.2975511703449e-10 2.85968813228064e-10 2.35675965072638e-10
"41" 805 2.41533639612612e-10 2.69185798520054e-10 1.88031257730052e-10 2.42842938328909e-10 2.9085705132428e-10 3.31843387822153e-10 2.88442875758138e-10 2.35675965072638e-10
"42" 806 2.41936649378872e-10 2.689676937068e-10 1.88040286539421e-10 2.43030994927055e-10 2.90155858799982e-10 3.33931658609816e-10 2.90916938288212e-10 2.35675965072638e-10
"43" 807 2.42339659145133e-10 2.68749588893546e-10 1.88049315348791e-10 2.43219051525201e-10 2.89454666275685e-10 3.36019929397478e-10 2.93391000818286e-10 2.35675965072638e-10
"44" 808 2.42742668911393e-10 2.68531484080292e-10 1.88058344158161e-10 2.43407108123347e-10 2.88753473751387e-10 3.38108200185141e-10 2.9586506334836e-10 2.35675965072638e-10
"45" 809 2.43145678677654e-10 2.68313379267038e-10 1.8806737296753e-10 2.43595164721494e-10 2.88052281227089e-10 3.40196470972804e-10 2.98339125878434e-10 2.35675965072638e-10
"46" 810 2.43548688443915e-10 2.68095274453784e-10 1.880764017769e-10 2.4378322131964e-10 2.87351088702791e-10 3.42284741760467e-10 3.00813188408508e-10 2.35675965072638e-10
"47" 811 2.43951698210175e-10 2.67877169640529e-10 1.8808543058627e-10 2.43971277917786e-10 2.86649896178494e-10 3.4437301254813e-10 3.03287250938582e-10 2.35675965072638e-10
"48" 812 2.44354707976436e-10 2.67659064827275e-10 1.88094459395639e-10 2.44159334515933e-10 2.85948703654196e-10 3.46461283335792e-10 3.05761313468656e-10 2.35675965072638e-10
"49" 813 2.44757717742696e-10 2.67440960014021e-10 1.88103488205009e-10 2.44347391114079e-10 2.85247511129898e-10 3.48549554123455e-10 3.08235375998731e-10 2.35675965072638e-10
"50" 814 2.45160727508957e-10 2.67222855200767e-10 1.88112517014379e-10 2.44535447712225e-10 2.845463186056e-10 3.50637824911118e-10 3.10709438528805e-10 2.35675965072638e-10
"51" 815 2.45850967328057e-10 2.68064800112626e-10 1.8786765486046e-10 2.45410314025725e-10 2.845463186056e-10 3.50341819193097e-10 3.11337805689304e-10 2.38945090210965e-10
"52" 816 2.46541207147157e-10 2.68906745024485e-10 1.87622792706541e-10 2.46285180339224e-10 2.845463186056e-10 3.50045813475076e-10 3.11966172849802e-10 2.42214215349293e-10
"53" 817 2.46636950498103e-10 2.68906745024485e-10 1.89608776365999e-10 2.46595876858285e-10 2.83845126081303e-10 3.49749807757055e-10 3.13073590071548e-10 2.42214215349293e-10
"54" 818 2.46732693849049e-10 2.68906745024485e-10 1.91594760025458e-10 2.46906573377346e-10 2.83143933557005e-10 3.49453802039034e-10 3.14181007293293e-10 2.42214215349293e-10
"55" 819 2.46828437199996e-10 2.68906745024485e-10 1.93580743684916e-10 2.47217269896406e-10 2.82442741032707e-10 3.49157796321013e-10 3.15288424515038e-10 2.42214215349293e-10
"56" 820 2.46924180550942e-10 2.68906745024485e-10 1.95566727344374e-10 2.47527966415467e-10 2.81741548508409e-10 3.48861790602992e-10 3.16395841736783e-10 2.42214215349293e-10
"57" 821 2.47019923901889e-10 2.68906745024485e-10 1.97552711003833e-10 2.47838662934528e-10 2.81040355984112e-10 3.48565784884971e-10 3.17503258958528e-10 2.42214215349293e-10
"58" 822 2.47019923901889e-10 2.69124849837739e-10 1.98777021773426e-10 2.47838662934528e-10 2.80939136280566e-10 3.48565784884971e-10 3.16136613650199e-10 2.42402824645582e-10
"59" 823 2.45810894603107e-10 2.69342954650993e-10 2.01007867586803e-10 2.44404614357761e-10 2.80237943756269e-10 3.48269779166951e-10 3.17244030871944e-10 2.42591433941872e-10
"60" 824 2.44601865304325e-10 2.69561059464247e-10 2.0323871340018e-10 2.40970565780995e-10 2.79536751231971e-10 3.4797377344893e-10 3.18351448093689e-10 2.42780043238162e-10
"61" 825 2.43392836005543e-10 2.69779164277501e-10 2.05469559213557e-10 2.37536517204229e-10 2.78835558707673e-10 3.47677767730909e-10 3.19458865315434e-10 2.42968652534452e-10
"62" 826 2.42183806706762e-10 2.69997269090755e-10 2.07700405026934e-10 2.34102468627462e-10 2.78134366183375e-10 3.47381762012888e-10 3.20566282537179e-10 2.43157261830742e-10
"63" 827 2.4097477740798e-10 2.70215373904009e-10 2.09931250840311e-10 2.30668420050696e-10 2.77433173659078e-10 3.47085756294867e-10 3.21673699758924e-10 2.43345871127032e-10
"64" 828 2.39765748109198e-10 2.70433478717263e-10 2.12162096653688e-10 2.27234371473929e-10 2.7673198113478e-10 3.46789750576846e-10 3.22781116980669e-10 2.43534480423322e-10
"65" 829 2.38556718810416e-10 2.70651583530517e-10 2.14392942467065e-10 2.23800322897163e-10 2.76030788610482e-10 3.46493744858825e-10 3.23888534202414e-10 2.43723089719612e-10
"66" 830 2.37347689511635e-10 2.70869688343771e-10 2.16623788280442e-10 2.20366274320397e-10 2.75329596086185e-10 3.46197739140804e-10 3.24995951424159e-10 2.43911699015902e-10
"67" 831 2.36138660212853e-10 2.71087793157025e-10 2.18854634093819e-10 2.1693222574363e-10 2.74628403561887e-10 3.45901733422783e-10 3.26103368645904e-10 2.44100308312192e-10
"68" 832 2.34929630914071e-10 2.71305897970279e-10 2.21085479907196e-10 2.13498177166864e-10 2.73927211037589e-10 3.45605727704762e-10 3.2721078586765e-10 2.44288917608482e-10
"69" 833 2.33720601615289e-10 2.71524002783533e-10 2.23316325720572e-10 2.10064128590097e-10 2.73226018513291e-10 3.45309721986741e-10 3.28318203089395e-10 2.44477526904772e-10
"70" 834 2.32511572316508e-10 2.71742107596788e-10 2.25547171533949e-10 2.06630080013331e-10 2.72524825988994e-10 3.45013716268721e-10 3.2942562031114e-10 2.44666136201062e-10
"71" 835 2.31302543017726e-10 2.71960212410042e-10 2.27778017347326e-10 2.03196031436564e-10 2.71823633464696e-10 3.447177105507e-10 3.30533037532885e-10 2.44854745497352e-10
"72" 836 2.31302543017726e-10 2.71960212410042e-10 2.29754972197415e-10 2.03506727955625e-10 2.71722413761151e-10 3.447177105507e-10 3.3164045475463e-10 2.45043354793642e-10
"73" 837 2.31302543017726e-10 2.71742107596788e-10 2.31759013475613e-10 2.03817424474686e-10 2.71722413761151e-10 3.44920457949886e-10 3.34114517284704e-10 2.45231964089932e-10
"74" 838 2.3160980943304e-10 2.71804651087486e-10 2.31505122512324e-10 2.03817424474686e-10 2.72322386581903e-10 3.44920457949886e-10 3.35870004722909e-10 2.4703836726247e-10
"75" 839 2.31917075848354e-10 2.71867194578185e-10 2.31251231549036e-10 2.03817424474686e-10 2.72922359402655e-10 3.44920457949886e-10 3.37625492161114e-10 2.48844770435008e-10
"76" 840 2.32224342263668e-10 2.71929738068884e-10 2.30997340585748e-10 2.03817424474686e-10 2.73522332223408e-10 3.44920457949886e-10 3.39380979599318e-10 2.50651173607546e-10
"77" 841 2.32531608678983e-10 2.71992281559583e-10 2.30743449622459e-10 2.03817424474686e-10 2.7412230504416e-10 3.44920457949886e-10 3.41136467037523e-10 2.52457576780084e-10
"78" 842 2.32838875094297e-10 2.72054825050282e-10 2.30489558659171e-10 2.03817424474686e-10 2.74722277864912e-10 3.44920457949886e-10 3.42891954475728e-10 2.54263979952622e-10
"79" 843 2.33241884860557e-10 2.70184899562852e-10 2.30489558659171e-10 2.02697278319357e-10 2.7542347038921e-10 3.44016210034307e-10 3.42173379383859e-10 2.53698152063752e-10
"80" 844 2.33644894626818e-10 2.68314974075422e-10 2.30489558659171e-10 2.01577132164029e-10 2.76124662913508e-10 3.43111962118727e-10 3.4145480429199e-10 2.53132324174882e-10
"81" 845 2.34047904393079e-10 2.66445048587991e-10 2.30489558659171e-10 2.00456986008701e-10 2.76825855437806e-10 3.42207714203148e-10 3.40736229200121e-10 2.52566496286012e-10
"82" 846 2.34450914159339e-10 2.64575123100561e-10 2.30489558659171e-10 1.99336839853372e-10 2.77527047962103e-10 3.41303466287569e-10 3.40017654108251e-10 2.52000668397142e-10
"83" 847 2.348539239256e-10 2.62705197613131e-10 2.30489558659171e-10 1.98216693698044e-10 2.78228240486401e-10 3.4039921837199e-10 3.39299079016382e-10 2.51434840508272e-10
"84" 848 2.3525693369186e-10 2.60835272125701e-10 2.30489558659171e-10 1.97096547542716e-10 2.78929433010699e-10 3.39494970456411e-10 3.38580503924513e-10 2.50869012619402e-10
"85" 849 2.35659943458121e-10 2.58965346638271e-10 2.30489558659171e-10 1.95976401387387e-10 2.79630625534996e-10 3.38590722540832e-10 3.37861928832644e-10 2.50303184730533e-10
"86" 850 2.36350183277221e-10 2.56814772846887e-10 2.30743449622459e-10 1.95044311830205e-10 2.80028158948658e-10 3.41489982925239e-10 3.3538786630257e-10 2.47775881758666e-10
"87" 851 2.3704042309632e-10 2.54664199055504e-10 2.30997340585748e-10 1.94112222273023e-10 2.8042569236232e-10 3.44389243309646e-10 3.32913803772496e-10 2.452485787868e-10
"88" 852 2.3773066291542e-10 2.52513625264121e-10 2.31251231549036e-10 1.93180132715841e-10 2.80823225775981e-10 3.47288503694053e-10 3.30439741242422e-10 2.42721275814934e-10
"89" 853 2.3842090273452e-10 2.50363051472738e-10 2.31505122512324e-10 1.92248043158659e-10 2.81220759189643e-10 3.5018776407846e-10 3.27965678712348e-10 2.40193972843067e-10
"90" 854 2.3911114255362e-10 2.48212477681355e-10 2.31759013475613e-10 1.91315953601477e-10 2.81618292603304e-10 3.53087024462867e-10 3.25491616182274e-10 2.37666669871201e-10
"91" 855 2.3980138237272e-10 2.46061903889972e-10 2.32012904438901e-10 1.90383864044295e-10 2.82015826016966e-10 3.55986284847274e-10 3.230175536522e-10 2.35139366899334e-10
"92" 856 2.40491622191819e-10 2.43911330098589e-10 2.32266795402189e-10 1.89451774487113e-10 2.82413359430628e-10 3.58885545231681e-10 3.20543491122125e-10 2.32612063927468e-10
"93" 857 2.41181862010919e-10 2.41760756307206e-10 2.32520686365478e-10 1.88519684929931e-10 2.82810892844289e-10 3.61784805616088e-10 3.18069428592051e-10 2.30084760955602e-10
"94" 858 2.41872101830019e-10 2.39610182515823e-10 2.32774577328766e-10 1.87587595372749e-10 2.83208426257951e-10 3.64684066000495e-10 3.15595366061977e-10 2.27557457983735e-10
"95" 859 2.41872101830019e-10 2.3932953421187e-10 2.3376305475381e-10 1.86778145736481e-10 2.82608453437199e-10 3.63593301447246e-10 3.15984208191853e-10 2.2690363295607e-10
"96" 860 2.41872101830019e-10 2.39048885907917e-10 2.34751532178855e-10 1.85968696100214e-10 2.82008480616446e-10 3.62502536893998e-10 3.16373050321729e-10 2.26249807928404e-10
"97" 861 2.41872101830019e-10 2.38768237603964e-10 2.35486118640611e-10 1.86279392619274e-10 2.81408507795694e-10 3.62502536893998e-10 3.1713103152552e-10 2.26404879838863e-10
"98" 862 2.41872101830019e-10 2.38487589300011e-10 2.36220705102367e-10 1.86590089138335e-10 2.80808534974942e-10 3.62502536893998e-10 3.17889012729311e-10 2.26559951749321e-10
"99" 863 2.41872101830019e-10 2.38206940996058e-10 2.36955291564123e-10 1.86900785657396e-10 2.80208562154189e-10 3.62502536893998e-10 3.18646993933102e-10 2.2671502365978e-10
"100" 864 2.41872101830019e-10 2.37926292692105e-10 2.37689878025879e-10 1.87211482176456e-10 2.79608589333437e-10 3.62502536893998e-10 3.19404975136893e-10 2.26870095570238e-10
"101" 865 2.41872101830019e-10 2.37645644388152e-10 2.38424464487635e-10 1.87522178695517e-10 2.79008616512684e-10 3.62502536893998e-10 3.20162956340684e-10 2.27025167480697e-10
"102" 866 2.41872101830019e-10 2.37364996084199e-10 2.39159050949391e-10 1.87832875214578e-10 2.78408643691932e-10 3.62502536893998e-10 3.20920937544475e-10 2.27180239391155e-10
"103" 867 2.41872101830019e-10 2.37084347780246e-10 2.39893637411147e-10 1.88143571733638e-10 2.7780867087118e-10 3.62502536893998e-10 3.21678918748265e-10 2.27335311301614e-10
"104" 868 2.41872101830019e-10 2.36803699476293e-10 2.40628223872903e-10 1.88454268252699e-10 2.77208698050427e-10 3.62502536893998e-10 3.22436899952056e-10 2.27490383212073e-10
"105" 869 2.41872101830019e-10 2.3652305117234e-10 2.41362810334659e-10 1.8876496477176e-10 2.76608725229675e-10 3.62502536893998e-10 3.23194881155847e-10 2.27645455122531e-10
"106" 870 2.41872101830019e-10 2.36242402868387e-10 2.42097396796415e-10 1.8907566129082e-10 2.76008752408923e-10 3.62502536893998e-10 3.23952862359638e-10 2.2780052703299e-10
"107" 871 2.41872101830019e-10 2.35961754564434e-10 2.42831983258171e-10 1.89386357809881e-10 2.7540877958817e-10 3.62502536893998e-10 3.24710843563429e-10 2.27955598943448e-10
"108" 872 2.41872101830019e-10 2.35681106260482e-10 2.43566569719927e-10 1.89697054328942e-10 2.74808806767418e-10 3.62502536893998e-10 3.2546882476722e-10 2.28110670853907e-10
"109" 873 2.41872101830019e-10 2.35400457956529e-10 2.44301156181683e-10 1.90007750848002e-10 2.74208833946666e-10 3.62502536893998e-10 3.26226805971011e-10 2.28265742764365e-10
"110" 874 2.42562341649119e-10 2.36054772396291e-10 2.44047265218394e-10 1.90195807446149e-10 2.73608861125913e-10 3.63593301447246e-10 3.26356420014303e-10 2.28420814674824e-10
"111" 875 2.43252581468219e-10 2.36709086836053e-10 2.43793374255106e-10 1.90383864044295e-10 2.73008888305161e-10 3.64684066000495e-10 3.26486034057595e-10 2.28575886585282e-10
"112" 876 2.43348324819165e-10 2.37488488257213e-10 2.45770329105195e-10 1.90571920642441e-10 2.72408915484409e-10 3.64684066000495e-10 3.29089710630961e-10 2.29762002115986e-10
"113" 877 2.43444068170111e-10 2.38267889678373e-10 2.47747283955283e-10 1.90759977240588e-10 2.71808942663656e-10 3.64684066000495e-10 3.31693387204327e-10 2.3094811764669e-10
"114" 878 2.43539811521058e-10 2.39047291099533e-10 2.49724238805372e-10 1.90948033838734e-10 2.71208969842904e-10 3.64684066000495e-10 3.34297063777693e-10 2.32134233177394e-10
"115" 879 2.43635554872004e-10 2.39826692520693e-10 2.51701193655461e-10 1.9113609043688e-10 2.70608997022151e-10 3.64684066000495e-10 3.36900740351059e-10 2.33320348708098e-10
"116" 880 2.43731298222951e-10 2.40606093941853e-10 2.53678148505549e-10 1.91324147035027e-10 2.70009024201399e-10 3.64684066000495e-10 3.39504416924425e-10 2.34506464238802e-10
"117" 881 2.43827041573897e-10 2.41385495363012e-10 2.55655103355638e-10 1.91512203633173e-10 2.69409051380647e-10 3.64684066000495e-10 3.42108093497791e-10 2.35692579769506e-10
"118" 882 2.43922784924843e-10 2.42227440274871e-10 2.56879414125231e-10 1.9082539391782e-10 2.69510271084192e-10 3.64481318601309e-10 3.4347473880612e-10 2.3687869530021e-10
"119" 883 2.4223503887133e-10 2.43006841696031e-10 2.5886539778469e-10 1.91013450515966e-10 2.69611490787737e-10 3.64481318601309e-10 3.45709276305571e-10 2.37721129624165e-10
"120" 884 2.40547292817816e-10 2.43786243117191e-10 2.60851381444148e-10 1.91201507114112e-10 2.69712710491283e-10 3.64481318601309e-10 3.47943813805022e-10 2.3856356394812e-10
"121" 885 2.38859546764302e-10 2.44565644538351e-10 2.62837365103606e-10 1.91389563712259e-10 2.69813930194828e-10 3.64481318601309e-10 3.50178351304473e-10 2.39405998272076e-10
"122" 886 2.37171800710788e-10 2.45345045959511e-10 2.64823348763064e-10 1.91577620310405e-10 2.69915149898374e-10 3.64481318601309e-10 3.52412888803924e-10 2.40248432596031e-10
"123" 887 2.35484054657275e-10 2.46124447380671e-10 2.66809332422523e-10 1.91765676908551e-10 2.70016369601919e-10 3.64481318601309e-10 3.54647426303375e-10 2.41090866919987e-10
"124" 888 2.33796308603761e-10 2.46903848801831e-10 2.68795316081981e-10 1.91953733506697e-10 2.70117589305464e-10 3.64481318601309e-10 3.56881963802826e-10 2.41933301243942e-10
"125" 889 2.32108562550247e-10 2.47683250222991e-10 2.70781299741439e-10 1.92141790104844e-10 2.7021880900901e-10 3.64481318601309e-10 3.59116501302277e-10 2.42775735567898e-10
"126" 890 2.30420816496733e-10 2.4846265164415e-10 2.72767283400898e-10 1.9232984670299e-10 2.70320028712555e-10 3.64481318601309e-10 3.61351038801728e-10 2.43618169891853e-10
"127" 891 2.2873307044322e-10 2.4924205306531e-10 2.74753267060356e-10 1.92517903301136e-10 2.704212484161e-10 3.64481318601309e-10 3.63585576301179e-10 2.44460604215809e-10
"128" 892 2.27045324389706e-10 2.5002145448647e-10 2.76739250719814e-10 1.92705959899283e-10 2.70522468119646e-10 3.64481318601309e-10 3.6582011380063e-10 2.45303038539764e-10
"129" 893 2.25357578336192e-10 2.5080085590763e-10 2.78725234379272e-10 1.92894016497429e-10 2.70623687823191e-10 3.64481318601309e-10 3.68054651300081e-10 2.46145472863720e-10
"130" 894 2.23669832282678e-10 2.5158025732879e-10 2.80711218038731e-10 1.93082073095575e-10 2.70724907526737e-10 3.64481318601309e-10 3.70289188799532e-10 2.46987907187675e-10
"131" 895 2.21982086229165e-10 2.5235965874995e-10 2.82697201698189e-10 1.93270129693722e-10 2.70826127230282e-10 3.64481318601309e-10 3.72523726298983e-10 2.4783034151163e-10
"132" 896 2.18606594122137e-10 2.52577763563204e-10 2.83966656514631e-10 1.91209700547662e-10 2.70124934705984e-10 3.64278571202123e-10 3.71007763891401e-10 2.4783034151163e-10
"133" 897 2.15326845366056e-10 2.54728337354587e-10 2.83966656514631e-10 1.91577620310405e-10 2.69423742181686e-10 3.68252365378263e-10 3.69122662409904e-10 2.48861385131876e-10
"134" 898 2.12047096609975e-10 2.5687891114597e-10 2.83966656514631e-10 1.91945540073148e-10 2.68722549657389e-10 3.72226159554402e-10 3.67237560928407e-10 2.49892428752121e-10
"135" 899 2.08767347853894e-10 2.59029484937353e-10 2.83966656514631e-10 1.92313459835891e-10 2.68021357133091e-10 3.76199953730542e-10 3.6535245944691e-10 2.50923472372367e-10
"136" 900 2.05487599097813e-10 2.61180058728737e-10 2.83966656514631e-10 1.92681379598634e-10 2.67320164608793e-10 3.80173747906681e-10 3.63467357965414e-10 2.51954515992612e-10
"137" 901 2.02207850341732e-10 2.6333063252012e-10 2.83966656514631e-10 1.93049299361377e-10 2.66618972084496e-10 3.84147542082821e-10 3.61582256483917e-10 2.52985559612857e-10
"138" 902 1.9892810158565e-10 2.65481206311503e-10 2.83966656514631e-10 1.93417219124121e-10 2.65917779560198e-10 3.8812133625896e-10 3.5969715500242e-10 2.54016603233103e-10
"139" 903 1.99023844936597e-10 2.67351131798933e-10 2.84955133939675e-10 1.95657511434777e-10 2.65520246146536e-10 3.92001872116265e-10 3.58939173798629e-10 2.55047646853348e-10
"140" 904 1.99119588287543e-10 2.69221057286363e-10 2.85943611364719e-10 1.97897803745434e-10 2.65122712732875e-10 3.95882407973569e-10 3.58181192594838e-10 2.56078690473594e-10
"141" 905 1.9921533163849e-10 2.71090982773793e-10 2.86932088789764e-10 2.00138096056091e-10 2.64725179319213e-10 3.99762943830874e-10 3.57423211391047e-10 2.57109734093839e-10
"142" 906 1.99311074989436e-10 2.72960908261224e-10 2.87920566214808e-10 2.02378388366747e-10 2.64327645905551e-10 4.03643479688179e-10 3.56665230187256e-10 2.58140777714085e-10
"143" 907 1.99406818340382e-10 2.74830833748654e-10 2.88909043639852e-10 2.04618680677404e-10 2.6393011249189e-10 4.07524015545483e-10 3.55907248983465e-10 2.5917182133433e-10
"144" 908 1.99502561691329e-10 2.76700759236084e-10 2.89897521064897e-10 2.06858972988061e-10 2.63532579078228e-10 4.11404551402788e-10 3.55149267779675e-10 2.60202864954575e-10
"145" 909 1.99598305042275e-10 2.77355073675846e-10 2.9090405610868e-10 2.06858972988061e-10 2.63135045664567e-10 4.11311293083953e-10 3.55628317840921e-10 2.61233908574821e-10
"146" 910 1.99694048393222e-10 2.78009388115608e-10 2.91910591152464e-10 2.06858972988061e-10 2.62737512250905e-10 4.11218034765118e-10 3.56107367902167e-10 2.62264952195066e-10
"147" 911 1.99789791744168e-10 2.7866370255537e-10 2.92917126196247e-10 2.06858972988061e-10 2.62339978837243e-10 4.11124776446283e-10 3.56586417963413e-10 2.63295995815312e-10
"148" 912 1.99885535095114e-10 2.79318016995133e-10 2.93923661240031e-10 2.06858972988061e-10 2.61942445423582e-10 4.11031518127449e-10 3.57065468024659e-10 2.64327039435557e-10
"149" 913 1.99981278446061e-10 2.79972331434895e-10 2.94930196283815e-10 2.06858972988061e-10 2.6154491200992e-10 4.10938259808614e-10 3.57544518085905e-10 2.65358083055802e-10
"150" 914 2.00077021797007e-10 2.80626645874657e-10 2.95936731327598e-10 2.06858972988061e-10 2.61147378596259e-10 4.10845001489779e-10 3.58023568147151e-10 2.66389126676048e-10
"151" 915 2.00172765147954e-10 2.81280960314419e-10 2.96943266371382e-10 2.06858972988061e-10 2.60749845182597e-10 4.10751743170944e-10 3.58502618208397e-10 2.67420170296293e-10
"152" 916 2.002685084989e-10 2.81935274754181e-10 2.97949801415165e-10 2.06858972988061e-10 2.60352311768935e-10 4.10658484852109e-10 3.58981668269644e-10 2.68451213916539e-10
"153" 917 2.00364251849846e-10 2.82589589193943e-10 2.98956336458949e-10 2.06858972988061e-10 2.59954778355274e-10 4.10565226533274e-10 3.5946071833089e-10 2.69482257536784e-10
"154" 918 2.00364251849846e-10 2.82589589193943e-10 2.99201198612868e-10 2.06670916389914e-10 2.62954642459035e-10 4.10565226533274e-10 3.58702737127099e-10 2.70513301157029e-10
"155" 919 2.002685084989e-10 2.82589589193943e-10 2.99192169803498e-10 2.06360219870854e-10 2.66352039976459e-10 4.10565226533274e-10 3.58573123083807e-10 2.70513301157029e-10
"156" 920 2.00172765147954e-10 2.82589589193943e-10 2.99183140994128e-10 2.06049523351793e-10 2.69749437493882e-10 4.10565226533274e-10 3.58443509040515e-10 2.70513301157029e-10
"157" 921 1.98389275743494e-10 2.82652132684642e-10 2.99183140994128e-10 2.03989094205733e-10 2.71346916549049e-10 4.09956984335716e-10 3.580743699666e-10 2.70513301157029e-10
"158" 922 1.96605786339033e-10 2.82714676175341e-10 2.99183140994128e-10 2.01928665059673e-10 2.72944395604215e-10 4.09348742138158e-10 3.57705230892685e-10 2.70513301157029e-10
"159" 923 1.94822296934573e-10 2.8277721966604e-10 2.99183140994128e-10 1.99868235913613e-10 2.74541874659381e-10 4.087404999406e-10 3.5733609181877e-10 2.70513301157029e-10
"160" 924 1.93038807530113e-10 2.82839763156739e-10 2.99183140994128e-10 1.97807806767554e-10 2.76139353714548e-10 4.08132257743042e-10 3.56966952744855e-10 2.70513301157029e-10
"161" 925 1.91255318125653e-10 2.82902306647438e-10 2.99183140994128e-10 1.95747377621494e-10 2.77736832769714e-10 4.07524015545483e-10 3.5659781367094e-10 2.70513301157029e-10
"162" 926 1.89471828721193e-10 2.82964850138137e-10 2.99183140994128e-10 1.93686948475434e-10 2.7933431182488e-10 4.06915773347925e-10 3.56228674597025e-10 2.70513301157029e-10
"163" 927 1.87688339316733e-10 2.83027393628836e-10 2.99183140994128e-10 1.91626519329374e-10 2.80931790880047e-10 4.06307531150367e-10 3.5585953552311e-10 2.70513301157029e-10
"164" 928 1.85904849912272e-10 2.83089937119534e-10 2.99183140994128e-10 1.89566090183314e-10 2.82529269935213e-10 4.05699288952809e-10 3.55490396449195e-10 2.70513301157029e-10
"165" 929 1.84121360507812e-10 2.83152480610233e-10 2.99183140994128e-10 1.87505661037254e-10 2.84126748990379e-10 4.05091046755251e-10 3.5512125737528e-10 2.70513301157029e-10
"166" 930 1.82337871103352e-10 2.83215024100932e-10 2.99183140994128e-10 1.85445231891195e-10 2.85724228045546e-10 4.04482804557692e-10 3.54752118301365e-10 2.70513301157029e-10
"167" 931 1.80554381698892e-10 2.83277567591631e-10 2.99183140994128e-10 1.83384802745135e-10 2.87321707100712e-10 4.03874562360134e-10 3.5438297922745e-10 2.70513301157029e-10
"168" 932 1.79173902060692e-10 2.8411951250349e-10 2.9893827884021e-10 1.81324373599075e-10 2.85521788638455e-10 4.03173061843741e-10 3.54143454196827e-10 2.70136082564450e-10
"169" 933 1.77793422422493e-10 2.84961457415349e-10 2.98693416686291e-10 1.79263944453015e-10 2.83721870176198e-10 4.02471561327348e-10 3.53903929166204e-10 2.6975886397187e-10
"170" 934 1.76009933018033e-10 2.85024000906047e-10 2.99437031957417e-10 1.78323661462283e-10 2.82623144238238e-10 4.01567313411769e-10 3.5366440413558e-10 2.68572748441166e-10
"171" 935 1.74226443613573e-10 2.85086544396746e-10 3.00180647228542e-10 1.77383378471552e-10 2.81524418300279e-10 4.0066306549619e-10 3.53424879104957e-10 2.67386632910462e-10
"172" 936 1.72442954209112e-10 2.85149087887445e-10 3.00924262499668e-10 1.7644309548082e-10 2.8042569236232e-10 3.99758817580611e-10 3.53185354074334e-10 2.66200517379758e-10
"173" 937 1.70659464804652e-10 2.85211631378144e-10 3.01667877770794e-10 1.75502812490089e-10 2.7932696642436e-10 3.98854569665032e-10 3.52945829043711e-10 2.65014401849054e-10
"174" 938 1.68875975400192e-10 2.85274174868843e-10 3.02411493041919e-10 1.74562529499357e-10 2.78228240486401e-10 3.97950321749452e-10 3.52706304013088e-10 2.6382828631835e-10
"175" 939 1.67092485995732e-10 2.85336718359542e-10 3.03155108313045e-10 1.73622246508626e-10 2.77129514548442e-10 3.97046073833873e-10 3.52466778982465e-10 2.62642170787646e-10
"176" 940 1.65308996591272e-10 2.85399261850241e-10 3.03898723584171e-10 1.72681963517894e-10 2.76030788610482e-10 3.96141825918294e-10 3.52227253951842e-10 2.61456055256942e-10
"177" 941 1.63525507186812e-10 2.8546180534094e-10 3.04642338855296e-10 1.71741680527163e-10 2.74932062672523e-10 3.95237578002715e-10 3.51987728921219e-10 2.60269939726238e-10
"178" 942 1.63429763835865e-10 2.8546180534094e-10 3.05385954126422e-10 1.71741680527163e-10 2.75633255196821e-10 3.94941572284694e-10 3.50880311699474e-10 2.6011486781578e-10
"179" 943 1.63334020484919e-10 2.83404249381413e-10 3.04143585738089e-10 1.72861826682491e-10 2.75633255196821e-10 3.94645566566673e-10 3.50880311699474e-10 2.59959795905321e-10
"180" 944 1.63238277133972e-10 2.81346693421886e-10 3.02901217349757e-10 1.7398197283782e-10 2.75633255196821e-10 3.94349560848652e-10 3.50880311699474e-10 2.59804723994863e-10
"181" 945 1.63142533783026e-10 2.79289137462359e-10 3.01658848961424e-10 1.75102118993148e-10 2.75633255196821e-10 3.94053555130631e-10 3.50880311699474e-10 2.59649652084404e-10
"182" 946 1.6304679043208e-10 2.77231581502832e-10 3.00416480573091e-10 1.76222265148476e-10 2.75633255196821e-10 3.93757549412611e-10 3.50880311699474e-10 2.59494580173946e-10
"183" 947 1.62951047081133e-10 2.75174025543305e-10 2.99174112184759e-10 1.77342411303805e-10 2.75633255196821e-10 3.9346154369459e-10 3.50880311699474e-10 2.59339508263487e-10
"184" 948 1.62855303730187e-10 2.73116469583779e-10 2.97931743796426e-10 1.78462557459133e-10 2.75633255196821e-10 3.93165537976569e-10 3.50880311699474e-10 2.59184436353029e-10
"185" 949 1.6275956037924e-10 2.71058913624252e-10 2.96689375408093e-10 1.79582703614461e-10 2.75633255196821e-10 3.92869532258548e-10 3.50880311699474e-10 2.5902936444257e-10
"186" 950 1.62663817028294e-10 2.69001357664725e-10 2.95447007019761e-10 1.8070284976979e-10 2.75633255196821e-10 3.92573526540527e-10 3.50880311699474e-10 2.58874292532112e-10
"187" 951 1.62568073677348e-10 2.66943801705198e-10 2.94204638631428e-10 1.81822995925118e-10 2.75633255196821e-10 3.92277520822506e-10 3.50880311699474e-10 2.58719220621653e-10
"188" 952 1.62472330326401e-10 2.64886245745672e-10 2.92962270243096e-10 1.82943142080446e-10 2.75633255196821e-10 3.91981515104485e-10 3.50880311699474e-10 2.58564148711195e-10
"189" 953 1.62376586975455e-10 2.62828689786145e-10 2.91719901854763e-10 1.84063288235775e-10 2.75633255196821e-10 3.91685509386464e-10 3.50880311699474e-10 2.58409076800736e-10
"190" 954 1.62280843624508e-10 2.60771133826618e-10 2.9047753346643e-10 1.85183434391103e-10 2.75633255196821e-10 3.91389503668443e-10 3.50880311699474e-10 2.58254004890278e-10
"191" 955 1.62875340092662e-10 2.59367892306853e-10 2.88246687653053e-10 1.86303580546431e-10 2.75033282376068e-10 3.91093497950422e-10 3.51119836730097e-10 2.58442614186567e-10
"192" 956 1.62779596741715e-10 2.5721731851547e-10 2.86242646374856e-10 1.86491637144578e-10 2.75329596086185e-10 3.91093497950422e-10 3.51119836730097e-10 2.58442614186567e-10
"193" 957 1.62683853390769e-10 2.55066744724087e-10 2.84238605096658e-10 1.86679693742724e-10 2.75625909796301e-10 3.91093497950422e-10 3.51119836730097e-10 2.58442614186567e-10
"194" 958 1.62588110039823e-10 2.52916170932704e-10 2.82234563818461e-10 1.8686775034087e-10 2.75922223506417e-10 3.91093497950422e-10 3.51119836730097e-10 2.58442614186567e-10
"195" 959 1.62492366688876e-10 2.50765597141321e-10 2.80230522540263e-10 1.87055806939017e-10 2.76218537216533e-10 3.91093497950422e-10 3.51119836730097e-10 2.58442614186567e-10
"196" 960 1.6239662333793e-10 2.48615023349938e-10 2.78226481262065e-10 1.87243863537163e-10 2.7651485092665e-10 3.91093497950422e-10 3.51119836730097e-10 2.58442614186567e-10
"197" 961 1.62300879986983e-10 2.46464449558555e-10 2.76222439983868e-10 1.87431920135309e-10 2.76811164636766e-10 3.91093497950422e-10 3.51119836730097e-10 2.58442614186567e-10
"198" 962 1.62205136636037e-10 2.44313875767171e-10 2.7421839870567e-10 1.87619976733455e-10 2.77107478346882e-10 3.91093497950422e-10 3.51119836730097e-10 2.58442614186567e-10
"199" 963 1.61514896816937e-10 2.43253826042059e-10 2.73483812243914e-10 1.87497336812541e-10 2.76803819236246e-10 3.91093497950422e-10 3.51119836730097e-10 2.57411570566322e-10
"200" 964 1.60824656997837e-10 2.42193776316946e-10 2.72749225782158e-10 1.87374696891627e-10 2.7650016012561e-10 3.91093497950422e-10 3.51119836730097e-10 2.56380526946077e-10
"201" 965 1.60134417178738e-10 2.41133726591833e-10 2.72014639320402e-10 1.87252056970712e-10 2.76196501014974e-10 3.91093497950422e-10 3.51119836730097e-10 2.55349483325831e-10
"202" 966 1.59444177359638e-10 2.4007367686672e-10 2.71280052858646e-10 1.87129417049798e-10 2.75892841904338e-10 3.91093497950422e-10 3.51119836730097e-10 2.54318439705586e-10
"203" 967 1.58753937540538e-10 2.39013627141607e-10 2.7054546639689e-10 1.87006777128884e-10 2.75589182793701e-10 3.91093497950422e-10 3.51119836730097e-10 2.5328739608534e-10
"204" 968 1.58159441072385e-10 2.37953577416494e-10 2.7056352401563e-10 1.86696080609823e-10 2.74989209972949e-10 3.91997745866001e-10 3.50251944538975e-10 2.52444961761385e-10
"205" 969 1.57564944604231e-10 2.36893527691382e-10 2.70581581634369e-10 1.86385384090762e-10 2.74389237152197e-10 3.92901993781581e-10 3.49384052347853e-10 2.5160252743743e-10
"206" 970 1.56970448136078e-10 2.35833477966269e-10 2.70599639253108e-10 1.86074687571702e-10 2.73789264331444e-10 3.9380624169716e-10 3.48516160156731e-10 2.50760093113474e-10
"207" 971 1.56375951667924e-10 2.34773428241156e-10 2.70617696871847e-10 1.85763991052641e-10 2.73189291510692e-10 3.94710489612739e-10 3.47648267965609e-10 2.49917658789519e-10
"208" 972 1.55781455199771e-10 2.33713378516043e-10 2.70635754490587e-10 1.8545329453358e-10 2.7258931868994e-10 3.95614737528318e-10 3.46780375774487e-10 2.49075224465563e-10
"209" 973 1.55186958731618e-10 2.3265332879093e-10 2.70653812109326e-10 1.8514259801452e-10 2.71989345869187e-10 3.96518985443897e-10 3.45912483583365e-10 2.48232790141608e-10
"210" 974 1.54592462263464e-10 2.31593279065817e-10 2.70671869728065e-10 1.84831901495459e-10 2.71389373048435e-10 3.97423233359476e-10 3.45044591392243e-10 2.47390355817652e-10
"211" 975 1.53997965795311e-10 2.30533229340705e-10 2.70689927346805e-10 1.84521204976398e-10 2.70789400227683e-10 3.98327481275055e-10 3.44176699201121e-10 2.46547921493697e-10
"212" 976 1.53403469327158e-10 2.29473179615592e-10 2.70707984965544e-10 1.84210508457337e-10 2.7018942740693e-10 3.99231729190634e-10 3.43308807009999e-10 2.45705487169741e-10
"213" 977 1.52808972859004e-10 2.28413129890479e-10 2.70726042584283e-10 1.83899811938277e-10 2.69589454586178e-10 4.00135977106213e-10 3.42440914818877e-10 2.44863052845786e-10
"214" 978 1.52214476390851e-10 2.28413129890479e-10 2.71732577628067e-10 1.83589115419216e-10 2.68396854345193e-10 4.01040225021793e-10 3.42052072689001e-10 2.45051662142076e-10
"215" 979 1.51619979922697e-10 2.28413129890479e-10 2.7273911267185e-10 1.83278418900155e-10 2.67204254104208e-10 4.01944472937372e-10 3.41663230559125e-10 2.45240271438366e-10
"216" 980 1.51025483454544e-10 2.28195025077225e-10 2.73745647715634e-10 1.83090362302009e-10 2.67204254104208e-10 3.99045212552965e-10 3.41274388429249e-10 2.45583952645114e-10
"217" 981 1.50430986986391e-10 2.27976920263971e-10 2.74752182759417e-10 1.82902305703863e-10 2.67204254104208e-10 3.96145952168558e-10 3.40885546299373e-10 2.45927633851863e-10
"218" 982 1.49836490518237e-10 2.27758815450717e-10 2.75758717803201e-10 1.82714249105716e-10 2.67204254104208e-10 3.93246691784151e-10 3.40496704169498e-10 2.46271315058611e-10
"219" 983 1.49241994050084e-10 2.27540710637463e-10 2.76765252846985e-10 1.8252619250757e-10 2.67204254104208e-10 3.90347431399744e-10 3.40107862039622e-10 2.4661499626536e-10
"220" 984 1.50335243635444e-10 2.27322605824209e-10 2.77753730272029e-10 1.82338135909424e-10 2.67103034400663e-10 3.87448171015336e-10 3.4498548222436e-10 2.47423893203484e-10
"221" 985 1.51428493220805e-10 2.27104501010955e-10 2.78742207697073e-10 1.82150079311278e-10 2.67001814697117e-10 3.84548910630929e-10 3.49863102409099e-10 2.48232790141608e-10
"222" 986 1.52521742806165e-10 2.26886396197701e-10 2.79730685122118e-10 1.81962022713131e-10 2.66900594993572e-10 3.81649650246522e-10 3.54740722593838e-10 2.49041687079732e-10
"223" 987 1.53614992391525e-10 2.26668291384446e-10 2.80719162547162e-10 1.81773966114985e-10 2.66799375290027e-10 3.78750389862115e-10 3.59618342778577e-10 2.49850584017856e-10
"224" 988 1.54708241976886e-10 2.26450186571192e-10 2.81707639972206e-10 1.81585909516839e-10 2.66698155586481e-10 3.75851129477708e-10 3.64495962963315e-10 2.5065948095598e-10
"225" 989 1.55801491562246e-10 2.26232081757938e-10 2.82696117397251e-10 1.81397852918692e-10 2.66596935882936e-10 3.72951869093301e-10 3.69373583148054e-10 2.51468377894104e-10
"226" 990 1.56894741147606e-10 2.26013976944684e-10 2.83684594822295e-10 1.81209796320546e-10 2.66495716179391e-10 3.70052608708894e-10 3.74251203332793e-10 2.52277274832228e-10
"227" 991 1.56300244679453e-10 2.26013976944684e-10 2.83938485785583e-10 1.810217397224e-10 2.66495716179391e-10 3.66249100408908e-10 3.73862361202917e-10 2.52432346742686e-10
"228" 992 1.557057482113e-10 2.26013976944684e-10 2.84192376748872e-10 1.80833683124253e-10 2.66495716179391e-10 3.62445592108922e-10 3.73473519073041e-10 2.52587418653145e-10
"229" 993 1.55111251743146e-10 2.26076520435383e-10 2.8444626771216e-10 1.80645626526107e-10 2.69791893993269e-10 3.58844831208122e-10 3.73084676943165e-10 2.53773534183849e-10
"230" 994 1.54516755274993e-10 2.26139063926082e-10 2.84700158675448e-10 1.80457569927961e-10 2.73088071807147e-10 3.55244070307322e-10 3.72695834813289e-10 2.54959649714553e-10
"231" 995 1.53922258806839e-10 2.26201607416781e-10 2.84954049638737e-10 1.80269513329815e-10 2.76384249621025e-10 3.51643309406522e-10 3.72306992683413e-10 2.56145765245257e-10
"232" 996 1.53327762338686e-10 2.2626415090748e-10 2.85207940602025e-10 1.80081456731668e-10 2.79680427434903e-10 3.48042548505721e-10 3.71918150553537e-10 2.57331880775961e-10
"233" 997 1.52733265870533e-10 2.26326694398179e-10 2.85461831565313e-10 1.79893400133522e-10 2.82976605248781e-10 3.44441787604921e-10 3.71529308423662e-10 2.58517996306664e-10
"234" 998 1.52138769402379e-10 2.26389237888878e-10 2.85715722528601e-10 1.79705343535376e-10 2.86272783062659e-10 3.40841026704121e-10 3.71140466293786e-10 2.59704111837368e-10
"235" 999 1.51544272934226e-10 2.26451781379576e-10 2.8596961349189e-10 1.79517286937229e-10 2.89568960876537e-10 3.37240265803321e-10 3.7075162416391e-10 2.60890227368072e-10
"236" 1000 1.50949776466073e-10 2.26514324870275e-10 2.86223504455178e-10 1.79329230339083e-10 2.92865138690415e-10 3.33639504902521e-10 3.70362782034034e-10 2.62076342898776e-10
"237" 1001 1.51045519817019e-10 2.26794973174228e-10 2.86232533264548e-10 1.79141173740937e-10 2.94462617745581e-10 3.33842252301707e-10 3.69973939904158e-10 2.62076342898776e-10
"238" 1002 1.50451023348866e-10 2.26015571753068e-10 2.86241562073917e-10 1.76712824832134e-10 2.97860015263004e-10 3.33842252301707e-10 3.70213464934781e-10 2.63107386519022e-10
"239" 1003 1.49856526880712e-10 2.25236170331908e-10 2.86250590883287e-10 1.74284475923331e-10 3.01257412780428e-10 3.33842252301707e-10 3.70452989965404e-10 2.64138430139267e-10
"240" 1004 1.49262030412559e-10 2.24456768910748e-10 2.86259619692657e-10 1.71856127014528e-10 3.04654810297851e-10 3.33842252301707e-10 3.70692514996027e-10 2.65169473759512e-10
"241" 1005 1.48667533944405e-10 2.23677367489589e-10 2.86268648502026e-10 1.69427778105725e-10 3.08052207815275e-10 3.33842252301707e-10 3.7093204002665e-10 2.66200517379758e-10
"242" 1006 1.48073037476252e-10 2.22897966068429e-10 2.86277677311396e-10 1.66999429196922e-10 3.11449605332698e-10 3.33842252301707e-10 3.71171565057273e-10 2.67231561000003e-10
"243" 1007 1.47478541008099e-10 2.22118564647269e-10 2.86286706120766e-10 1.64571080288119e-10 3.14847002850121e-10 3.33842252301707e-10 3.71411090087896e-10 2.68262604620249e-10
"244" 1008 1.46884044539945e-10 2.21339163226109e-10 2.86295734930135e-10 1.62142731379316e-10 3.18244400367545e-10 3.33842252301707e-10 3.71650615118519e-10 2.69293648240494e-10
"245" 1009 1.46289548071792e-10 2.20559761804949e-10 2.86304763739505e-10 1.59714382470513e-10 3.21641797884968e-10 3.33842252301707e-10 3.71890140149143e-10 2.70324691860739e-10
"246" 1010 1.45695051603638e-10 2.19780360383789e-10 2.86313792548875e-10 1.5728603356171e-10 3.25039195402392e-10 3.33842252301707e-10 3.72129665179766e-10 2.71355735480985e-10
"247" 1011 1.45100555135485e-10 2.19000958962629e-10 2.86322821358244e-10 1.54857684652907e-10 3.28436592919815e-10 3.33842252301707e-10 3.72369190210389e-10 2.7238677910123e-10
"248" 1012 1.44506058667332e-10 2.18221557541469e-10 2.86331850167614e-10 1.52429335744104e-10 3.31833990437238e-10 3.33842252301707e-10 3.72608715241012e-10 2.73417822721476e-10
"249" 1013 1.43911562199178e-10 2.17442156120309e-10 2.86340878976983e-10 1.50000986835301e-10 3.35231387954662e-10 3.33842252301707e-10 3.72848240271635e-10 2.74448866341721e-10
"250" 1014 1.43911562199178e-10 2.15572230632879e-10 2.87075465438739e-10 1.50123626756215e-10 3.35527701664778e-10 3.33842252301707e-10 3.75322302801709e-10 2.73639969403597e-10
"251" 1015 1.42818312613818e-10 2.13421656841496e-10 2.86821574475451e-10 1.49935570158069e-10 3.36720301905763e-10 3.33842252301707e-10 3.75192688758417e-10 2.73639969403597e-10
"252" 1016 1.41725063028458e-10 2.11271083050113e-10 2.86567683512163e-10 1.49747513559923e-10 3.37912902146748e-10 3.33842252301707e-10 3.75063074715125e-10 2.73639969403597e-10
"253" 1017 1.40631813443097e-10 2.0912050925873e-10 2.86313792548875e-10 1.49559456961776e-10 3.39105502387732e-10 3.33842252301707e-10 3.74933460671833e-10 2.73639969403597e-10
"254" 1018 1.39538563857737e-10 2.06969935467347e-10 2.86059901585586e-10 1.4937140036363e-10 3.40298102628717e-10 3.33842252301707e-10 3.74803846628541e-10 2.73639969403597e-10
"255" 1019 1.38445314272376e-10 2.04819361675964e-10 2.85806010622298e-10 1.49183343765484e-10 3.41490702869702e-10 3.33842252301707e-10 3.74674232585249e-10 2.73639969403597e-10
"256" 1020 1.37352064687016e-10 2.0266878788458e-10 2.8555211965901e-10 1.48995287167337e-10 3.42683303110687e-10 3.33842252301707e-10 3.74544618541957e-10 2.73639969403597e-10
"257" 1021 1.36258815101656e-10 2.00518214093197e-10 2.85298228695721e-10 1.48807230569191e-10 3.43875903351672e-10 3.33842252301707e-10 3.74415004498665e-10 2.73639969403597e-10
"258" 1022 1.35165565516295e-10 1.98367640301814e-10 2.85044337732433e-10 1.48619173971045e-10 3.45068503592657e-10 3.33842252301707e-10 3.74285390455373e-10 2.73639969403597e-10
"259" 1023 1.35760061984449e-10 1.98367640301814e-10 2.84790446769145e-10 1.48308477451984e-10 3.4086869384739e-10 3.33842252301707e-10 3.74155776412081e-10 2.73262750811017e-10
"260" 1024 1.35760061984449e-10 1.98367640301814e-10 2.84790446769145e-10 1.50058210078983e-10 3.35476283861139e-10 3.34637011136935e-10 3.74026162368789e-10 2.72420316487062e-10
"261" 1025 1.35760061984449e-10 1.98367640301814e-10 2.84790446769145e-10 1.51807942705983e-10 3.30083873874887e-10 3.35431769972163e-10 3.73896548325497e-10 2.71577882163106e-10
"262" 1026 1.35760061984449e-10 1.98367640301814e-10 2.84790446769145e-10 1.53557675332982e-10 3.24691463888636e-10 3.36226528807391e-10 3.73766934282205e-10 2.70735447839151e-10
"263" 1027 1.35760061984449e-10 1.98367640301814e-10 2.84790446769145e-10 1.55307407959981e-10 3.19299053902385e-10 3.37021287642619e-10 3.73637320238913e-10 2.69893013515195e-10
"264" 1028 1.35760061984449e-10 1.98367640301814e-10 2.84790446769145e-10 1.5705714058698e-10 3.13906643916134e-10 3.37816046477847e-10 3.73507706195621e-10 2.6905057919124e-10
"265" 1029 1.35760061984449e-10 1.98367640301814e-10 2.84790446769145e-10 1.58806873213979e-10 3.08514233929882e-10 3.38610805313075e-10 3.73378092152329e-10 2.68208144867284e-10
"266" 1030 1.35760061984449e-10 1.98367640301814e-10 2.84790446769145e-10 1.60556605840978e-10 3.03121823943631e-10 3.39405564148302e-10 3.73248478109037e-10 2.67365710543329e-10
"267" 1031 1.35760061984449e-10 1.98367640301814e-10 2.84790446769145e-10 1.62306338467978e-10 2.9772941395738e-10 3.4020032298353e-10 3.73118864065746e-10 2.66523276219374e-10
"268" 1032 1.35664318633502e-10 1.98367640301814e-10 2.84536555805856e-10 1.62183698547063e-10 2.92936976791881e-10 3.4020032298353e-10 3.72989250022454e-10 2.66523276219374e-10
"269" 1033 1.35568575282556e-10 1.98367640301814e-10 2.84282664842568e-10 1.62061058626149e-10 2.88144539626382e-10 3.4020032298353e-10 3.72859635979162e-10 2.66523276219374e-10
"270" 1034 1.3547283193161e-10 1.98367640301814e-10 2.8402877387928e-10 1.61938418705234e-10 2.83352102460883e-10 3.4020032298353e-10 3.7273002193587e-10 2.66523276219374e-10
"271" 1035 1.35377088580663e-10 1.98367640301814e-10 2.83774882915991e-10 1.6181577878432e-10 2.78559665295384e-10 3.4020032298353e-10 3.72600407892578e-10 2.66523276219374e-10
"272" 1036 1.35281345229717e-10 1.98367640301814e-10 2.83520991952703e-10 1.61693138863406e-10 2.73767228129885e-10 3.4020032298353e-10 3.72470793849286e-10 2.66523276219374e-10
"273" 1037 1.3518560187877e-10 1.98367640301814e-10 2.83267100989415e-10 1.61570498942491e-10 2.68974790964386e-10 3.4020032298353e-10 3.72341179805994e-10 2.66523276219374e-10
"274" 1038 1.3478259211251e-10 1.98086991997861e-10 2.8227862356437e-10 1.61447859021577e-10 2.67876065026426e-10 3.40293581302365e-10 3.72211565762702e-10 2.67554319839619e-10
"275" 1039 1.34379582346249e-10 1.97806343693908e-10 2.81290146139326e-10 1.61325219100662e-10 2.66777339088467e-10 3.403868396212e-10 3.7208195171941e-10 2.68585363459864e-10
"276" 1040 1.32596092941789e-10 1.97525695389955e-10 2.81045283985407e-10 1.61202579179748e-10 2.67377311909219e-10 3.38298568833537e-10 3.71712812645495e-10 2.67244176018702e-10
"277" 1041 1.30812603537329e-10 1.97245047086002e-10 2.80800421831489e-10 1.61079939258834e-10 2.67977284729972e-10 3.36210298045875e-10 3.7134367357158e-10 2.65902988577539e-10
"278" 1042 1.29029114132869e-10 1.9696439878205e-10 2.8055555967757e-10 1.60957299337919e-10 2.68577257550724e-10 3.34122027258212e-10 3.70974534497665e-10 2.64561801136377e-10
"279" 1043 1.27245624728409e-10 1.96683750478097e-10 2.80310697523651e-10 1.60834659417005e-10 2.69177230371476e-10 3.32033756470549e-10 3.7060539542375e-10 2.63220613695215e-10
"280" 1044 1.25462135323948e-10 1.96403102174144e-10 2.80065835369733e-10 1.60712019496091e-10 2.69777203192229e-10 3.29945485682886e-10 3.70236256349835e-10 2.61879426254052e-10
"281" 1045 1.23678645919488e-10 1.96122453870191e-10 2.79820973215814e-10 1.60589379575176e-10 2.70377176012981e-10 3.27857214895223e-10 3.6986711727592e-10 2.6053823881289e-10
"282" 1046 1.21895156515028e-10 1.95841805566238e-10 2.79576111061895e-10 1.60466739654262e-10 2.70977148833734e-10 3.25768944107561e-10 3.69497978202005e-10 2.59197051371727e-10
"283" 1047 1.20207410461514e-10 1.95841805566238e-10 2.79331248907977e-10 1.60156043135201e-10 2.70875929130188e-10 3.23680673319898e-10 3.71013940609587e-10 2.5682482031032e-10
"284" 1048 1.18519664408001e-10 1.95841805566238e-10 2.79086386754058e-10 1.5984534661614e-10 2.70774709426643e-10 3.21592402532235e-10 3.72529903017168e-10 2.54452589248912e-10
"285" 1049 1.18519664408001e-10 1.95841805566238e-10 2.79830002025184e-10 1.5984534661614e-10 2.74070887240521e-10 3.2011237394213e-10 3.72529903017168e-10 2.51925286277045e-10
"286" 1050 1.18519664408001e-10 1.95841805566238e-10 2.80573617296309e-10 1.5984534661614e-10 2.77367065054399e-10 3.18632345352026e-10 3.72529903017168e-10 2.49397983305179e-10
"287" 1051 1.18519664408001e-10 1.95841805566238e-10 2.81317232567435e-10 1.5984534661614e-10 2.80663242868277e-10 3.17152316761921e-10 3.72529903017168e-10 2.46870680333313e-10
"288" 1052 1.18519664408001e-10 1.95841805566238e-10 2.82060847838561e-10 1.5984534661614e-10 2.83959420682155e-10 3.15672288171817e-10 3.72529903017168e-10 2.44343377361446e-10
"289" 1053 1.18519664408001e-10 1.95841805566238e-10 2.82804463109686e-10 1.5984534661614e-10 2.87255598496033e-10 3.14192259581712e-10 3.72529903017168e-10 2.4181607438958e-10
"290" 1054 1.18519664408001e-10 1.95841805566238e-10 2.83548078380812e-10 1.5984534661614e-10 2.90551776309911e-10 3.12712230991608e-10 3.72529903017168e-10 2.39288771417714e-10
"291" 1055 1.18519664408001e-10 1.95841805566238e-10 2.84291693651938e-10 1.5984534661614e-10 2.93847954123789e-10 3.11232202401503e-10 3.72529903017168e-10 2.36761468445847e-10
"292" 1056 1.18519664408001e-10 1.95841805566238e-10 2.85035308923063e-10 1.5984534661614e-10 2.97144131937667e-10 3.09752173811398e-10 3.72529903017168e-10 2.34234165473981e-10
"293" 1057 1.18519664408001e-10 1.95841805566238e-10 2.85778924194189e-10 1.5984534661614e-10 3.00440309751545e-10 3.08272145221294e-10 3.72529903017168e-10 2.31706862502114e-10
"294" 1058 1.18519664408001e-10 1.95841805566238e-10 2.86522539465315e-10 1.5984534661614e-10 3.03736487565423e-10 3.06792116631189e-10 3.72529903017168e-10 2.29179559530248e-10
"295" 1059 1.18519664408001e-10 1.95841805566238e-10 2.8726615473644e-10 1.5984534661614e-10 3.07032665379301e-10 3.05312088041085e-10 3.72529903017168e-10 2.26652256558382e-10
"296" 1060 1.18519664408001e-10 1.95841805566238e-10 2.88009770007566e-10 1.5984534661614e-10 3.10328843193179e-10 3.0383205945098e-10 3.72529903017168e-10 2.24124953586515e-10
"297" 1061 1.20207410461514e-10 1.96122453870191e-10 2.87991712388827e-10 1.58095613989141e-10 3.13726240710602e-10 3.04736307366559e-10 3.72769428047791e-10 2.23969881676057e-10
"298" 1062 1.21895156515028e-10 1.96403102174144e-10 2.88735327659952e-10 1.57531444194702e-10 3.16726104814364e-10 3.05437807882952e-10 3.72380585917915e-10 2.23969881676057e-10
"299" 1063 1.23582902568542e-10 1.96683750478097e-10 2.89478942931078e-10 1.56967274400263e-10 3.19725968918126e-10 3.06139308399345e-10 3.7199174378804e-10 2.23969881676057e-10
"300" 1064 1.25270648622056e-10 1.9696439878205e-10 2.90222558202204e-10 1.56403104605825e-10 3.22725833021888e-10 3.06840808915738e-10 3.71602901658164e-10 2.23969881676057e-10
"301" 1065 1.26958394675569e-10 1.97245047086002e-10 2.90966173473329e-10 1.55838934811386e-10 3.2572569712565e-10 3.07542309432131e-10 3.71214059528288e-10 2.23969881676057e-10
"302" 1066 1.28646140729083e-10 1.97525695389955e-10 2.91709788744455e-10 1.55274765016947e-10 3.28725561229411e-10 3.08243809948524e-10 3.70825217398412e-10 2.23969881676057e-10
"303" 1067 1.30333886782597e-10 1.97806343693908e-10 2.92453404015581e-10 1.54710595222508e-10 3.31725425333173e-10 3.08945310464917e-10 3.70436375268536e-10 2.23969881676057e-10
"304" 1068 1.32021632836111e-10 1.98086991997861e-10 2.93197019286706e-10 1.54146425428069e-10 3.34725289436935e-10 3.0964681098131e-10 3.7004753313866e-10 2.23969881676057e-10
"305" 1069 1.33709378889624e-10 1.98367640301814e-10 2.93940634557832e-10 1.5358225563363e-10 3.37725153540697e-10 3.10348311497704e-10 3.69658691008784e-10 2.23969881676057e-10
"306" 1070 1.33613635538678e-10 1.99427690026927e-10 2.93949663367202e-10 1.5270738932013e-10 3.37327620127035e-10 3.10348311497704e-10 3.68900709804993e-10 2.23969881676057e-10
"307" 1071 1.3482266483746e-10 2.00362652770642e-10 2.93704801213283e-10 1.52143219525692e-10 3.36930086713373e-10 3.10145564098517e-10 3.68272342644494e-10 2.24313562882805e-10
"308" 1072 1.36031694136241e-10 2.01297615514357e-10 2.93459939059364e-10 1.51579049731253e-10 3.36532553299712e-10 3.09942816699331e-10 3.67643975483996e-10 2.24657244089554e-10
"309" 1073 1.37240723435023e-10 2.02232578258072e-10 2.93215076905446e-10 1.51014879936814e-10 3.3613501988605e-10 3.09740069300145e-10 3.67015608323497e-10 2.25000925296302e-10
"310" 1074 1.38545496084751e-10 2.02886892697834e-10 2.92961185942157e-10 1.51137519857728e-10 3.3613501988605e-10 3.09740069300145e-10 3.66387241162998e-10 2.25344606503051e-10
"311" 1075 1.39850268734479e-10 2.03541207137597e-10 2.92707294978869e-10 1.51260159778643e-10 3.3613501988605e-10 3.09740069300145e-10 3.65758874002499e-10 2.25688287709799e-10
"312" 1076 1.41155041384208e-10 2.04195521577359e-10 2.92453404015581e-10 1.51382799699557e-10 3.3613501988605e-10 3.09740069300145e-10 3.65130506842e-10 2.26031968916548e-10
"313" 1077 1.42459814033936e-10 2.04849836017121e-10 2.92199513052292e-10 1.51505439620471e-10 3.3613501988605e-10 3.09740069300145e-10 3.64502139681501e-10 2.26375650123296e-10
"314" 1078 1.43764586683664e-10 2.05504150456883e-10 2.91945622089004e-10 1.51628079541386e-10 3.3613501988605e-10 3.09740069300145e-10 3.63873772521002e-10 2.26719331330045e-10
"315" 1079 1.45069359333392e-10 2.06158464896645e-10 2.91691731125716e-10 1.517507194623e-10 3.3613501988605e-10 3.09740069300145e-10 3.63245405360503e-10 2.27063012536793e-10
"316" 1080 1.4637413198312e-10 2.06812779336407e-10 2.91437840162427e-10 1.51873359383214e-10 3.3613501988605e-10 3.09740069300145e-10 3.62617038200004e-10 2.27406693743542e-10
"317" 1081 1.47678904632848e-10 2.0746709377617e-10 2.91183949199139e-10 1.51995999304129e-10 3.3613501988605e-10 3.09740069300145e-10 3.61988671039505e-10 2.2775037495029e-10
"318" 1082 1.4888793393163e-10 2.0746709377617e-10 2.9093908704522e-10 1.52118639225043e-10 3.35433827361752e-10 3.09537321900959e-10 3.62118285082797e-10 2.2793898424658e-10
"319" 1083 1.50096963230412e-10 2.0746709377617e-10 2.90694224891302e-10 1.52241279145958e-10 3.34732634837455e-10 3.09334574501773e-10 3.62247899126089e-10 2.2812759354287e-10
"320" 1084 1.51305992529194e-10 2.0746709377617e-10 2.90449362737383e-10 1.52363919066872e-10 3.34031442313157e-10 3.09131827102587e-10 3.62377513169381e-10 2.2831620283916e-10
"321" 1085 1.52515021827975e-10 2.0746709377617e-10 2.90204500583464e-10 1.52486558987786e-10 3.33330249788859e-10 3.08929079703401e-10 3.62507127212673e-10 2.2850481213545e-10
"322" 1086 1.53724051126757e-10 2.0746709377617e-10 2.89959638429546e-10 1.52609198908701e-10 3.32629057264562e-10 3.08726332304215e-10 3.62636741255965e-10 2.2869342143174e-10
"323" 1087 1.54933080425539e-10 2.0746709377617e-10 2.89714776275627e-10 1.52731838829615e-10 3.31927864740264e-10 3.08523584905029e-10 3.62766355299257e-10 2.2888203072803e-10
"324" 1088 1.56142109724321e-10 2.0746709377617e-10 2.89469914121708e-10 1.52854478750529e-10 3.31226672215966e-10 3.08320837505843e-10 3.62895969342549e-10 2.2907064002432e-10
"325" 1089 1.57351139023102e-10 2.0746709377617e-10 2.8922505196779e-10 1.52977118671444e-10 3.30525479691668e-10 3.08118090106657e-10 3.63025583385841e-10 2.2925924932061e-10
"326" 1090 1.58560168321884e-10 2.0746709377617e-10 2.88980189813871e-10 1.53099758592358e-10 3.29824287167371e-10 3.07915342707471e-10 3.63155197429133e-10 2.294478586169e-10
"327" 1091 1.59769197620666e-10 2.0746709377617e-10 2.88735327659952e-10 1.53222398513273e-10 3.29123094643073e-10 3.07712595308285e-10 3.63284811472425e-10 2.2963646791319e-10
"328" 1092 1.59769197620666e-10 2.0746709377617e-10 2.89497000549817e-10 1.53222398513273e-10 3.30221820581032e-10 3.0780585362712e-10 3.63284811472425e-10 2.29481396002731e-10
"329" 1093 1.59769197620666e-10 2.0746709377617e-10 2.90258673439682e-10 1.53222398513273e-10 3.31320546518992e-10 3.07899111945954e-10 3.63284811472425e-10 2.29326324092273e-10
"330" 1094 1.59769197620666e-10 2.06532131032455e-10 2.90267702249052e-10 1.53222398513273e-10 3.31320546518992e-10 3.07899111945954e-10 3.63284811472425e-10 2.29171252181814e-10
"331" 1095 1.59769197620666e-10 2.05597168288739e-10 2.90276731058421e-10 1.53222398513273e-10 3.31320546518992e-10 3.07899111945954e-10 3.63284811472425e-10 2.29016180271356e-10
"332" 1096 1.59769197620666e-10 2.04662205545024e-10 2.90285759867791e-10 1.53222398513273e-10 3.31320546518992e-10 3.07899111945954e-10 3.63284811472425e-10 2.28861108360897e-10
"333" 1097 1.59174701152512e-10 2.04662205545024e-10 2.90294788677161e-10 1.52290308956091e-10 3.31920519339744e-10 3.0810185934514e-10 3.62526830268634e-10 2.27674992830193e-10
"334" 1098 1.58580204684359e-10 2.04662205545024e-10 2.9030381748653e-10 1.51358219398909e-10 3.32520492160496e-10 3.08304606744327e-10 3.61768849064843e-10 2.26488877299489e-10
"335" 1099 1.58272938269045e-10 2.04662205545024e-10 2.9030381748653e-10 1.51546275997055e-10 3.32520492160496e-10 3.06123077637829e-10 3.60531817799806e-10 2.26145196092741e-10
"336" 1100 1.57965671853731e-10 2.04662205545024e-10 2.9030381748653e-10 1.51734332595201e-10 3.32520492160496e-10 3.03941548531331e-10 3.59294786534769e-10 2.25801514885992e-10
"337" 1101 1.57658405438416e-10 2.04662205545024e-10 2.9030381748653e-10 1.51922389193347e-10 3.32520492160496e-10 3.01760019424834e-10 3.58057755269732e-10 2.25457833679244e-10
"338" 1102 1.57351139023102e-10 2.04662205545024e-10 2.9030381748653e-10 1.52110445791494e-10 3.32520492160496e-10 2.99578490318336e-10 3.56820724004695e-10 2.25114152472495e-10
"339" 1103 1.57043872607788e-10 2.04662205545024e-10 2.9030381748653e-10 1.5229850238964e-10 3.32520492160496e-10 2.97396961211838e-10 3.55583692739658e-10 2.24770471265747e-10
"340" 1104 1.56736606192474e-10 2.04662205545024e-10 2.9030381748653e-10 1.52486558987786e-10 3.32520492160496e-10 2.95215432105341e-10 3.54346661474621e-10 2.24426790058998e-10
"341" 1105 1.5642933977716e-10 2.04662205545024e-10 2.9030381748653e-10 1.52674615585933e-10 3.32520492160496e-10 2.93033902998843e-10 3.53109630209584e-10 2.2408310885225e-10
"342" 1106 1.56122073361846e-10 2.04662205545024e-10 2.9030381748653e-10 1.52862672184079e-10 3.32520492160496e-10 2.90852373892345e-10 3.51872598944547e-10 2.23739427645501e-10
"343" 1107 1.55814806946531e-10 2.04880310358278e-10 2.9030381748653e-10 1.53050728782225e-10 3.31819299636199e-10 2.88468097386662e-10 3.51004706753425e-10 2.25357221521749e-10
"344" 1108 1.55507540531217e-10 2.05098415171532e-10 2.9030381748653e-10 1.53238785380372e-10 3.31118107111901e-10 2.86083820880978e-10 3.50136814562303e-10 2.26975015397997e-10
"345" 1109 1.55200274115903e-10 2.07436619435012e-10 2.9030381748653e-10 1.53238785380372e-10 3.30814448001265e-10 2.84603792290873e-10 3.48899783297266e-10 2.26975015397997e-10
"346" 1110 1.54893007700589e-10 2.09774823698492e-10 2.9030381748653e-10 1.53238785380372e-10 3.30510788890629e-10 2.83123763700769e-10 3.47662752032229e-10 2.26975015397997e-10
"347" 1111 1.54585741285275e-10 2.12113027961972e-10 2.9030381748653e-10 1.53238785380372e-10 3.30207129779992e-10 2.81643735110664e-10 3.46425720767192e-10 2.26975015397997e-10
"348" 1112 1.5427847486996e-10 2.14451232225451e-10 2.9030381748653e-10 1.53238785380372e-10 3.29903470669356e-10 2.8016370652056e-10 3.45188689502155e-10 2.26975015397997e-10
"349" 1113 1.53971208454646e-10 2.16789436488931e-10 2.9030381748653e-10 1.53238785380372e-10 3.2959981155872e-10 2.78683677930455e-10 3.43951658237117e-10 2.26975015397997e-10
"350" 1114 1.53663942039332e-10 2.19127640752411e-10 2.9030381748653e-10 1.53238785380372e-10 3.29296152448084e-10 2.77203649340351e-10 3.4271462697208e-10 2.26975015397997e-10
"351" 1115 1.53356675624018e-10 2.21465845015891e-10 2.9030381748653e-10 1.53238785380372e-10 3.28992493337448e-10 2.75723620750246e-10 3.41477595707043e-10 2.26975015397997e-10
"352" 1116 1.53049409208704e-10 2.2380404927937e-10 2.9030381748653e-10 1.53238785380372e-10 3.28688834226812e-10 2.74243592160141e-10 3.40240564442006e-10 2.26975015397997e-10
"353" 1117 1.5274214279339e-10 2.2614225354285e-10 2.9030381748653e-10 1.53238785380372e-10 3.28385175116176e-10 2.72763563570037e-10 3.39003533176969e-10 2.26975015397997e-10
"354" 1118 1.52434876378075e-10 2.2848045780633e-10 2.9030381748653e-10 1.53238785380372e-10 3.2808151600554e-10 2.71283534979932e-10 3.37766501911932e-10 2.26975015397997e-10
"355" 1119 1.52127609962761e-10 2.30818662069809e-10 2.9030381748653e-10 1.53238785380372e-10 3.27777856894904e-10 2.69803506389828e-10 3.36529470646895e-10 2.26975015397997e-10
"356" 1120 1.37492319224341e-10 2.32096816608176e-10 2.89551173406035e-10 1.52363919066872e-10 3.27474197784267e-10 2.70411748587386e-10 3.35292439381858e-10 2.26975015397997e-10
"357" 1121 1.37588062575287e-10 2.30319908952603e-10 2.89560202215405e-10 1.52053222547811e-10 3.27170538673631e-10 2.69211494953786e-10 3.35162825338566e-10 2.26975015397997e-10
"358" 1122 1.37683805926234e-10 2.28543001297029e-10 2.89569231024774e-10 1.51742526028751e-10 3.26866879562995e-10 2.68011241320186e-10 3.35033211295274e-10 2.26975015397997e-10
"359" 1123 1.3777954927718e-10 2.26766093641455e-10 2.89578259834144e-10 1.5143182950969e-10 3.26563220452359e-10 2.66810987686586e-10 3.34903597251982e-10 2.26975015397997e-10
"360" 1124 1.37875292628127e-10 2.24989185985881e-10 2.89587288643514e-10 1.51121132990629e-10 3.26259561341723e-10 2.65610734052986e-10 3.3477398320869e-10 2.26975015397997e-10
"361" 1125 1.37971035979073e-10 2.23212278330307e-10 2.89596317452883e-10 1.50810436471569e-10 3.25955902231087e-10 2.64410480419386e-10 3.34644369165399e-10 2.26975015397997e-10
"362" 1126 1.38066779330019e-10 2.21435370674733e-10 2.89605346262253e-10 1.50499739952508e-10 3.25652243120451e-10 2.63210226785786e-10 3.34514755122107e-10 2.26975015397997e-10
"363" 1127 1.38162522680966e-10 2.19658463019159e-10 2.89614375071623e-10 1.50189043433447e-10 3.25348584009815e-10 2.62009973152186e-10 3.34385141078815e-10 2.26975015397997e-10
"364" 1128 1.38258266031912e-10 2.17881555363585e-10 2.89623403880992e-10 1.49878346914387e-10 3.25044924899178e-10 2.60809719518586e-10 3.34255527035523e-10 2.26975015397997e-10
"365" 1129 1.38258266031912e-10 2.14047091748485e-10 2.89378541727074e-10 1.49755706993472e-10 3.24343732374881e-10 2.58907965368592e-10 3.35362944257268e-10 2.26786406101708e-10
"366" 1130 1.38354009382859e-10 2.10992029554544e-10 2.90122156998199e-10 1.50319876787911e-10 3.23743759554128e-10 2.57006211218599e-10 3.35991311417767e-10 2.26786406101708e-10
"367" 1131 1.38449752733805e-10 2.07936967360603e-10 2.90865772269325e-10 1.5088404658235e-10 3.23143786733376e-10 2.55104457068606e-10 3.36619678578266e-10 2.26786406101708e-10
"368" 1132 1.38545496084751e-10 2.04881905166662e-10 2.91609387540451e-10 1.51448216376789e-10 3.22543813912624e-10 2.53202702918613e-10 3.37248045738764e-10 2.26786406101708e-10
"369" 1133 1.38641239435698e-10 2.05941954891775e-10 2.92343974002207e-10 1.52135026092142e-10 3.22543813912624e-10 2.53405450317799e-10 3.38006026942555e-10 2.26975015397997e-10
"370" 1134 1.38736982786644e-10 2.07002004616888e-10 2.93078560463963e-10 1.52821835807495e-10 3.22543813912624e-10 2.53608197716985e-10 3.38764008146346e-10 2.27163624694287e-10
"371" 1135 1.38832726137591e-10 2.08062054342001e-10 2.93813146925719e-10 1.53508645522849e-10 3.22543813912624e-10 2.53810945116171e-10 3.39521989350137e-10 2.27352233990577e-10
"372" 1136 1.38928469488537e-10 2.09122104067114e-10 2.94547733387475e-10 1.54195455238202e-10 3.22543813912624e-10 2.54013692515358e-10 3.40279970553928e-10 2.27540843286867e-10
"373" 1137 1.39024212839483e-10 2.10182153792227e-10 2.95282319849231e-10 1.54882264953555e-10 3.22543813912624e-10 2.54216439914544e-10 3.41037951757719e-10 2.27729452583157e-10
"374" 1138 1.3911995619043e-10 2.11242203517339e-10 2.96016906310987e-10 1.55569074668909e-10 3.22543813912624e-10 2.5441918731373e-10 3.4179593296151e-10 2.27918061879447e-10
"375" 1139 1.39215699541376e-10 2.12302253242452e-10 2.96751492772743e-10 1.56255884384262e-10 3.22543813912624e-10 2.54621934712916e-10 3.42553914165301e-10 2.28106671175737e-10
"376" 1140 1.39311442892323e-10 2.13362302967565e-10 2.97486079234499e-10 1.56942694099615e-10 3.22543813912624e-10 2.54824682112102e-10 3.43311895369092e-10 2.28295280472027e-10
"377" 1141 1.39407186243269e-10 2.14422352692678e-10 2.98220665696255e-10 1.57629503814968e-10 3.22543813912624e-10 2.55027429511288e-10 3.44069876572883e-10 2.28483889768317e-10
"378" 1142 1.39407186243269e-10 2.15482402417791e-10 2.99209143121299e-10 1.58504370128468e-10 3.20845115153912e-10 2.55027429511288e-10 3.44458718702758e-10 2.27641455444362e-10
"379" 1143 1.39407186243269e-10 2.16542452142904e-10 3.00197620546343e-10 1.59379236441968e-10 3.191464163952e-10 2.55027429511288e-10 3.44847560832634e-10 2.26799021120406e-10
"380" 1144 1.39407186243269e-10 2.17602501868016e-10 3.01186097971388e-10 1.60254102755467e-10 3.17447717636489e-10 2.55027429511288e-10 3.4523640296251e-10 2.25956586796451e-10
"381" 1145 1.39407186243269e-10 2.18662551593129e-10 3.02174575396432e-10 1.61128969068967e-10 3.15749018877777e-10 2.55027429511288e-10 3.45625245092386e-10 2.25114152472495e-10
"382" 1146 1.39407186243269e-10 2.19722601318242e-10 3.03163052821476e-10 1.62003835382466e-10 3.14050320119065e-10 2.55027429511288e-10 3.46014087222262e-10 2.2427171814854e-10
"383" 1147 1.39407186243269e-10 2.20782651043355e-10 3.04151530246521e-10 1.62878701695966e-10 3.12351621360354e-10 2.55027429511288e-10 3.46402929352138e-10 2.23429283824584e-10
"384" 1148 1.39407186243269e-10 2.21842700768468e-10 3.05140007671565e-10 1.63753568009465e-10 3.10652922601642e-10 2.55027429511288e-10 3.46791771482014e-10 2.22586849500629e-10
"385" 1149 1.39407186243269e-10 2.22902750493581e-10 3.06128485096609e-10 1.64628434322965e-10 3.0895422384293e-10 2.55027429511288e-10 3.4718061361189e-10 2.21744415176673e-10
"386" 1150 1.39407186243269e-10 2.23962800218693e-10 3.07116962521654e-10 1.65503300636465e-10 3.07255525084218e-10 2.55027429511288e-10 3.47569455741766e-10 2.20901980852718e-10
"387" 1151 1.39407186243269e-10 2.23962800218693e-10 3.08123497565437e-10 1.65691357234611e-10 3.05455606621961e-10 2.54824682112102e-10 3.47958297871641e-10 2.20059546528763e-10
"388" 1152 1.39407186243269e-10 2.23962800218693e-10 3.09130032609221e-10 1.65879413832757e-10 3.03655688159704e-10 2.54621934712916e-10 3.48347140001517e-10 2.19217112204807e-10
"389" 1153 1.39407186243269e-10 2.24180905031947e-10 3.09374894763139e-10 1.65879413832757e-10 3.05253167214871e-10 2.5441918731373e-10 3.47978000927602e-10 2.18030996674103e-10
"390" 1154 1.39407186243269e-10 2.24399009845202e-10 3.09619756917058e-10 1.65879413832757e-10 3.06850646270037e-10 2.54216439914544e-10 3.47608861853687e-10 2.16844881143399e-10
"391" 1155 1.39407186243269e-10 2.24617114658456e-10 3.09864619070977e-10 1.65879413832757e-10 3.08448125325203e-10 2.54013692515358e-10 3.47239722779772e-10 2.15658765612695e-10
"392" 1156 1.39407186243269e-10 2.2483521947171e-10 3.10109481224895e-10 1.65879413832757e-10 3.1004560438037e-10 2.53810945116171e-10 3.46870583705857e-10 2.14472650081991e-10
"393" 1157 1.39502929594215e-10 2.24118361541249e-10 3.10354343378814e-10 1.64759267677429e-10 3.13443001897793e-10 2.53514939398151e-10 3.46740969662565e-10 2.13663753143867e-10
"394" 1158 1.39598672945162e-10 2.23401503610788e-10 3.10599205532733e-10 1.63639121522101e-10 3.16840399415216e-10 2.5321893368013e-10 3.46611355619273e-10 2.12854856205743e-10
"395" 1159 1.39598672945162e-10 2.23401503610788e-10 3.10844067686651e-10 1.63451064923954e-10 3.20136577229094e-10 2.52128169126881e-10 3.43100380742864e-10 2.12699784295285e-10
"396" 1160 1.39598672945162e-10 2.23401503610788e-10 3.1108892984057e-10 1.63263008325808e-10 3.23432755042972e-10 2.51037404573632e-10 3.39589405866454e-10 2.12544712384826e-10
"397" 1161 1.39598672945162e-10 2.23401503610788e-10 3.11333791994489e-10 1.63074951727662e-10 3.2672893285685e-10 2.49946640020383e-10 3.36078430990044e-10 2.12389640474368e-10
"398" 1162 1.39598672945162e-10 2.23401503610788e-10 3.11578654148407e-10 1.62886895129515e-10 3.30025110670728e-10 2.48855875467134e-10 3.32567456113634e-10 2.12234568563909e-10
"399" 1163 1.39598672945162e-10 2.23401503610788e-10 3.11823516302326e-10 1.62698838531369e-10 3.33321288484606e-10 2.47765110913886e-10 3.29056481237225e-10 2.12079496653451e-10
"400" 1164 1.41286418998676e-10 2.25333972588917e-10 3.15831598858721e-10 1.62821478452283e-10 3.33220068781061e-10 2.46674346360637e-10 3.29056481237225e-10 2.13885899825989e-10
"401" 1165 1.42974165052189e-10 2.27266441567046e-10 3.19839681415116e-10 1.62944118373198e-10 3.33118849077516e-10 2.45583581807388e-10 3.29056481237225e-10 2.15692302998527e-10
"402" 1166 1.44661911105703e-10 2.29198910545175e-10 3.23847763971512e-10 1.63066758294112e-10 3.3301762937397e-10 2.44492817254139e-10 3.29056481237225e-10 2.17498706171065e-10
"403" 1167 1.46349657159217e-10 2.31131379523304e-10 3.27855846527907e-10 1.63189398215027e-10 3.32916409670425e-10 2.4340205270089e-10 3.29056481237225e-10 2.19305109343603e-10
"404" 1168 1.48037403212731e-10 2.33063848501433e-10 3.31863929084302e-10 1.63312038135941e-10 3.3281518996688e-10 2.42311288147641e-10 3.29056481237225e-10 2.21111512516141e-10
"405" 1169 1.49725149266244e-10 2.34996317479562e-10 3.35872011640697e-10 1.63434678056855e-10 3.32713970263334e-10 2.41220523594393e-10 3.29056481237225e-10 2.22917915688679e-10
"406" 1170 1.51412895319758e-10 2.36928786457691e-10 3.39880094197092e-10 1.6355731797777e-10 3.32612750559789e-10 2.40129759041144e-10 3.29056481237225e-10 2.24724318861217e-10
"407" 1171 1.53100641373272e-10 2.3886125543582e-10 3.43888176753487e-10 1.63679957898684e-10 3.32511530856243e-10 2.39038994487895e-10 3.29056481237225e-10 2.26530722033755e-10
"408" 1172 1.54788387426786e-10 2.40793724413949e-10 3.47896259309882e-10 1.63802597819598e-10 3.32410311152698e-10 2.37948229934646e-10 3.29056481237225e-10 2.28337125206293e-10
"409" 1173 1.58068136182867e-10 2.40793724413949e-10 3.48141121463801e-10 1.63614541221452e-10 3.32410311152698e-10 2.36857465381397e-10 3.25545506360815e-10 2.28525734502583e-10
"410" 1174 1.61347884938948e-10 2.40793724413949e-10 3.4838598361772e-10 1.63426484623306e-10 3.32410311152698e-10 2.35766700828149e-10 3.22034531484405e-10 2.28714343798873e-10
"411" 1175 1.64627633695029e-10 2.40793724413949e-10 3.48630845771638e-10 1.6323842802516e-10 3.32410311152698e-10 2.346759362749e-10 3.18523556607995e-10 2.28902953095163e-10
"412" 1176 1.6790738245111e-10 2.40793724413949e-10 3.48875707925557e-10 1.63050371427013e-10 3.32410311152698e-10 2.33585171721651e-10 3.15012581731586e-10 2.29091562391452e-10
"413" 1177 1.71187131207191e-10 2.40793724413949e-10 3.49120570079476e-10 1.62862314828867e-10 3.32410311152698e-10 2.32494407168402e-10 3.11501606855176e-10 2.29280171687742e-10
"414" 1178 1.74466879963272e-10 2.40793724413949e-10 3.49365432233394e-10 1.62674258230721e-10 3.32410311152698e-10 2.31403642615153e-10 3.07990631978766e-10 2.29468780984032e-10
"415" 1179 1.77746628719353e-10 2.40793724413949e-10 3.49610294387313e-10 1.62486201632574e-10 3.32410311152698e-10 2.30312878061904e-10 3.04479657102356e-10 2.29657390280322e-10
"416" 1180 1.8071911106012e-10 2.40076866483488e-10 3.49601265577943e-10 1.62298145034428e-10 3.32410311152698e-10 2.29408630146325e-10 3.04350043059065e-10 2.29845999576612e-10
"417" 1181 1.83691593400887e-10 2.40076866483488e-10 3.45874160412946e-10 1.611779988791e-10 3.32410311152698e-10 2.28317865593077e-10 3.04350043059065e-10 2.30189680783361e-10
"418" 1182 1.86664075741654e-10 2.40076866483488e-10 3.42147055247948e-10 1.60057852723771e-10 3.32410311152698e-10 2.27227101039828e-10 3.04350043059065e-10 2.30533361990109e-10
"419" 1183 1.89636558082421e-10 2.40076866483488e-10 3.3841995008295e-10 1.58937706568443e-10 3.32410311152698e-10 2.26136336486579e-10 3.04350043059065e-10 2.30877043196858e-10
"420" 1184 1.92609040423188e-10 2.40076866483488e-10 3.34692844917952e-10 1.57817560413115e-10 3.32410311152698e-10 2.2504557193333e-10 3.04350043059065e-10 2.31220724403606e-10
"421" 1185 1.95581522763955e-10 2.40076866483488e-10 3.30965739752954e-10 1.56697414257786e-10 3.32410311152698e-10 2.23954807380081e-10 3.04350043059065e-10 2.31564405610355e-10
"422" 1186 1.98554005104722e-10 2.40076866483488e-10 3.27238634587956e-10 1.55577268102458e-10 3.32410311152698e-10 2.22864042826832e-10 3.04350043059065e-10 2.31908086817103e-10
"423" 1187 1.98554005104722e-10 2.40793724413949e-10 3.23266667269039e-10 1.5476781846619e-10 3.3301028397345e-10 2.22864042826832e-10 3.06953719632431e-10 2.31908086817103e-10
"424" 1188 1.98841235157561e-10 2.40856267904648e-10 3.19294699950123e-10 1.53647672310862e-10 3.3301028397345e-10 2.21773278273584e-10 3.06953719632431e-10 2.338695619001e-10
"425" 1189 1.98841235157561e-10 2.40918811395347e-10 3.15576623594495e-10 1.53647672310862e-10 3.34202884214435e-10 2.21773278273584e-10 3.07711700836221e-10 2.34213243106848e-10
"426" 1190 1.98841235157561e-10 2.40981354886046e-10 3.11858547238866e-10 1.53647672310862e-10 3.3539548445542e-10 2.21773278273584e-10 3.08469682040012e-10 2.34556924313597e-10
"427" 1191 1.98841235157561e-10 2.41043898376745e-10 3.08140470883238e-10 1.53647672310862e-10 3.36588084696405e-10 2.21773278273584e-10 3.09227663243803e-10 2.34900605520345e-10
"428" 1192 1.98841235157561e-10 2.41106441867443e-10 3.0442239452761e-10 1.53647672310862e-10 3.3778068493739e-10 2.21773278273584e-10 3.09985644447594e-10 2.35244286727093e-10
"429" 1193 1.99148501572875e-10 2.39236516380013e-10 3.03669750447115e-10 1.53892952152691e-10 3.38373312357622e-10 2.21959794911253e-10 3.1037448657747e-10 2.35432896023383e-10
"430" 1194 1.99455767988189e-10 2.37366590892583e-10 3.02917106366619e-10 1.54138231994519e-10 3.38965939777855e-10 2.22146311548923e-10 3.10763328707346e-10 2.35621505319673e-10
"431" 1195 1.99763034403504e-10 2.35496665405153e-10 3.02164462286124e-10 1.54383511836348e-10 3.39558567198087e-10 2.22332828186593e-10 3.11152170837222e-10 2.35810114615963e-10
"432" 1196 2.00070300818818e-10 2.33626739917723e-10 3.01411818205629e-10 1.54628791678177e-10 3.4015119461832e-10 2.22519344824262e-10 3.11541012967098e-10 2.35998723912253e-10
"433" 1197 2.00377567234132e-10 2.31756814430293e-10 3.00659174125133e-10 1.54874071520006e-10 3.40743822038552e-10 2.22705861461932e-10 3.11929855096974e-10 2.36187333208543e-10
"434" 1198 2.00684833649446e-10 2.29886888942862e-10 2.99906530044638e-10 1.55119351361835e-10 3.41336449458785e-10 2.22892378099602e-10 3.12318697226849e-10 2.36375942504833e-10
"435" 1199 2.0099210006476e-10 2.28016963455432e-10 2.99153885964143e-10 1.55364631203663e-10 3.41929076879017e-10 2.23078894737272e-10 3.12707539356725e-10 2.36564551801123e-10
"436" 1200 2.01299366480074e-10 2.26147037968002e-10 2.98401241883647e-10 1.55609911045492e-10 3.4252170429925e-10 2.23265411374941e-10 3.13096381486601e-10 2.36753161097413e-10
"437" 1201 2.01606632895389e-10 2.24277112480572e-10 2.97648597803152e-10 1.55855190887321e-10 3.43114331719482e-10 2.23451928012611e-10 3.13485223616477e-10 2.36941770393703e-10
"438" 1202 2.01913899310703e-10 2.22407186993142e-10 2.96895953722657e-10 1.5610047072915e-10 3.43706959139714e-10 2.23638444650281e-10 3.13874065746353e-10 2.37130379689993e-10
"439" 1203 2.02221165726017e-10 2.20537261505711e-10 2.96143309642162e-10 1.56345750570978e-10 3.44299586559947e-10 2.2382496128795e-10 3.14262907876229e-10 2.37318988986283e-10
"440" 1204 2.02528432141331e-10 2.18667336018281e-10 2.95390665561666e-10 1.56591030412807e-10 3.44892213980179e-10 2.2401147792562e-10 3.14651750006105e-10 2.37507598282573e-10
"441" 1205 2.02835698556645e-10 2.16797410530851e-10 2.94638021481171e-10 1.56836310254636e-10 3.45484841400412e-10 2.2419799456329e-10 3.15040592135981e-10 2.37696207578863e-10
"442" 1206 2.02835698556645e-10 2.17078058834804e-10 2.94638021481171e-10 1.57768399811818e-10 3.46778661344942e-10 2.22904482610855e-10 3.13194896766405e-10 2.37696207578863e-10
"443" 1207 2.02835698556645e-10 2.17358707138757e-10 2.94638021481171e-10 1.58700489369e-10 3.48072481289472e-10 2.2161097065842e-10 3.1134920139683e-10 2.37696207578863e-10
"444" 1208 2.02835698556645e-10 2.1763935544271e-10 2.94638021481171e-10 1.59632578926182e-10 3.49366301234002e-10 2.20317458705985e-10 3.09503506027255e-10 2.37696207578863e-10
"445" 1209 2.02528432141331e-10 2.18574318186425e-10 2.95372607942927e-10 1.59444522328036e-10 3.49366301234002e-10 2.18135929599487e-10 3.06899829453889e-10 2.37507598282573e-10
"446" 1210 2.02221165726017e-10 2.1950928093014e-10 2.96107194404683e-10 1.59256465729889e-10 3.49366301234002e-10 2.1595440049299e-10 3.04296152880523e-10 2.37318988986283e-10
"447" 1211 2.01818155959756e-10 2.1950928093014e-10 2.96098165595313e-10 1.59379105650804e-10 3.500674937583e-10 2.14660888540555e-10 3.02929507572194e-10 2.36975307779535e-10
"448" 1212 2.01415146193496e-10 2.1950928093014e-10 2.96089136785944e-10 1.59501745571718e-10 3.50768686282598e-10 2.1336737658812e-10 3.01562862263865e-10 2.36631626572786e-10
"449" 1213 2.01012136427235e-10 2.1950928093014e-10 2.96080107976574e-10 1.59624385492633e-10 3.51469878806896e-10 2.12073864635685e-10 3.00196216955536e-10 2.36287945366038e-10
"450" 1214 2.00609126660975e-10 2.1950928093014e-10 2.96071079167204e-10 1.59747025413547e-10 3.52171071331193e-10 2.1078035268325e-10 2.98829571647207e-10 2.35944264159289e-10
"451" 1215 2.00206116894714e-10 2.1950928093014e-10 2.96062050357835e-10 1.59869665334461e-10 3.52872263855491e-10 2.09486840730815e-10 2.97462926338878e-10 2.35600582952541e-10
"452" 1216 1.99515877075614e-10 2.18449231205027e-10 2.96306912511753e-10 1.59305495540022e-10 3.52872263855491e-10 2.10577605284064e-10 2.97941976400124e-10 2.31987776607465e-10
"453" 1217 1.98825637256514e-10 2.17389181479914e-10 2.96551774665672e-10 1.58741325745584e-10 3.52872263855491e-10 2.11668369837313e-10 2.98421026461371e-10 2.28374970262389e-10
"454" 1218 1.99132903671829e-10 2.17389181479914e-10 2.94574819815584e-10 1.59550775381851e-10 3.53269797269153e-10 2.11668369837313e-10 2.97941976400124e-10 2.28840185993764e-10
"455" 1219 2.00820649725342e-10 2.17451724970613e-10 2.92597864965495e-10 1.60360225018119e-10 3.5397098979345e-10 2.13772871386492e-10 2.97074084209002e-10 2.28651576697474e-10
"456" 1220 2.02508395778856e-10 2.17514268461312e-10 2.90620910115406e-10 1.61169674654386e-10 3.54672182317748e-10 2.15877372935671e-10 2.9620619201788e-10 2.28462967401184e-10
"457" 1221 2.0419614183237e-10 2.17576811952011e-10 2.88643955265318e-10 1.61979124290654e-10 3.55373374842046e-10 2.17981874484851e-10 2.95338299826758e-10 2.28274358104894e-10
"458" 1222 2.05883887885884e-10 2.1763935544271e-10 2.86667000415229e-10 1.62788573926922e-10 3.56074567366344e-10 2.2008637603403e-10 2.94470407635636e-10 2.28085748808604e-10
"459" 1223 2.07571633939397e-10 2.17701898933409e-10 2.8469004556514e-10 1.63598023563189e-10 3.56775759890641e-10 2.22190877583209e-10 2.93602515444514e-10 2.27897139512315e-10
"460" 1224 2.09259379992911e-10 2.17764442424108e-10 2.82713090715052e-10 1.64407473199457e-10 3.57476952414939e-10 2.24295379132388e-10 2.92734623253392e-10 2.27708530216025e-10
"461" 1225 2.09163636641965e-10 2.17764442424108e-10 2.81470722326719e-10 1.64096776680396e-10 3.59276870877196e-10 2.24591384850409e-10 2.9186673106227e-10 2.27519920919735e-10
"462" 1226 2.09067893291018e-10 2.17764442424108e-10 2.80228353938386e-10 1.63786080161336e-10 3.61076789339453e-10 2.2488739056843e-10 2.90998838871148e-10 2.27331311623445e-10
"463" 1227 2.08972149940072e-10 2.17764442424108e-10 2.78985985550054e-10 1.63475383642275e-10 3.6287670780171e-10 2.25183396286451e-10 2.90130946680026e-10 2.27142702327155e-10
"464" 1228 2.08876406589126e-10 2.17764442424108e-10 2.77743617161721e-10 1.63164687123214e-10 3.64676626263967e-10 2.25479402004472e-10 2.89263054488904e-10 2.26954093030865e-10
"465" 1229 2.08780663238179e-10 2.17764442424108e-10 2.76501248773388e-10 1.62853990604154e-10 3.66476544726224e-10 2.25775407722493e-10 2.88395162297782e-10 2.26765483734575e-10
"466" 1230 2.08684919887233e-10 2.17764442424108e-10 2.75258880385056e-10 1.62543294085093e-10 3.68276463188482e-10 2.26071413440513e-10 2.8752727010666e-10 2.26576874438285e-10
"467" 1231 2.08589176536286e-10 2.17764442424108e-10 2.74016511996723e-10 1.62232597566032e-10 3.70076381650739e-10 2.26367419158534e-10 2.86659377915538e-10 2.26388265141995e-10
"468" 1232 2.0849343318534e-10 2.17764442424108e-10 2.72774143608391e-10 1.61921901046972e-10 3.71876300112996e-10 2.26663424876555e-10 2.85791485724416e-10 2.26199655845705e-10
"469" 1233 2.08397689834394e-10 2.17764442424108e-10 2.71531775220058e-10 1.61611204527911e-10 3.73676218575253e-10 2.26959430594576e-10 2.84923593533294e-10 2.26011046549415e-10
"470" 1234 2.08301946483447e-10 2.17764442424108e-10 2.70289406831725e-10 1.6130050800885e-10 3.7547613703751e-10 2.27255436312597e-10 2.84055701342172e-10 2.25822437253125e-10
"471" 1235 2.08206203132501e-10 2.17764442424108e-10 2.69047038443393e-10 1.6098981148979e-10 3.77276055499767e-10 2.27551442030618e-10 2.8318780915105e-10 2.25633827956835e-10
"472" 1236 2.08110459781554e-10 2.17764442424108e-10 2.6780467005506e-10 1.60679114970729e-10 3.79075973962024e-10 2.27847447748639e-10 2.82319916959928e-10 2.25445218660545e-10
"473" 1237 2.08014716430608e-10 2.17764442424108e-10 2.66562301666727e-10 1.60368418451668e-10 3.80875892424281e-10 2.2814345346666e-10 2.81452024768806e-10 2.25256609364255e-10
"474" 1238 2.07918973079661e-10 2.17982547237362e-10 2.65292846850286e-10 1.60057721932608e-10 3.82574591182993e-10 2.28236711785495e-10 2.79217487269355e-10 2.25068000067965e-10
"475" 1239 2.07515963313401e-10 2.17920003746663e-10 2.6628132427533e-10 1.60057721932608e-10 3.83673317120952e-10 2.28532717503516e-10 2.77701524861773e-10 2.23261596895427e-10
"476" 1240 2.0711295354714e-10 2.17857460255964e-10 2.67269801700374e-10 1.60057721932608e-10 3.84772043058911e-10 2.28828723221537e-10 2.76185562454192e-10 2.21455193722889e-10
"477" 1241 2.0670994378088e-10 2.17857460255964e-10 2.67269801700374e-10 1.60057721932608e-10 3.84468383948275e-10 2.29031470620723e-10 2.75058442176486e-10 2.19648790550351e-10
"478" 1242 2.06306934014619e-10 2.18511774695726e-10 2.68276336744158e-10 1.60368418451668e-10 3.83868411127523e-10 2.29031470620723e-10 2.74410371960026e-10 2.17687315467355e-10
"479" 1243 2.05903924248359e-10 2.19166089135488e-10 2.69282871787942e-10 1.60679114970729e-10 3.83268438306771e-10 2.29031470620723e-10 2.73762301743566e-10 2.15725840384358e-10
"480" 1244 2.05500914482098e-10 2.19166089135488e-10 2.6952773394186e-10 1.61799261126057e-10 3.8436716424473e-10 2.29234218019909e-10 2.72246339335984e-10 2.1391943721182e-10
"481" 1245 2.05097904715837e-10 2.19166089135488e-10 2.69772596095779e-10 1.62919407281386e-10 3.85465890182689e-10 2.29436965419095e-10 2.70730376928403e-10 2.12113034039282e-10
"482" 1246 2.04694894949577e-10 2.19166089135488e-10 2.70017458249698e-10 1.64039553436714e-10 3.86564616120649e-10 2.29639712818281e-10 2.69214414520821e-10 2.10306630866744e-10
"483" 1247 2.04291885183316e-10 2.19166089135488e-10 2.70262320403616e-10 1.65159699592042e-10 3.87663342058608e-10 2.29842460217467e-10 2.67698452113239e-10 2.08500227694206e-10
"484" 1248 2.03888875417056e-10 2.19166089135488e-10 2.70507182557535e-10 1.66279845747371e-10 3.88762067996567e-10 2.30045207616653e-10 2.66182489705657e-10 2.06693824521668e-10
"485" 1249 2.03485865650795e-10 2.19166089135488e-10 2.70752044711454e-10 1.67399991902699e-10 3.89860793934527e-10 2.30247955015839e-10 2.64666527298075e-10 2.0488742134913e-10
"486" 1250 2.03082855884535e-10 2.19166089135488e-10 2.70996906865372e-10 1.68520138058027e-10 3.90959519872486e-10 2.30450702415025e-10 2.63150564890494e-10 2.03081018176592e-10
"487" 1251 2.02392616065435e-10 2.19446737439441e-10 2.70987878056003e-10 1.69452227615209e-10 3.92361904921081e-10 2.26849941514225e-10 2.63390089921117e-10 2.03236090087051e-10
"488" 1252 2.01702376246335e-10 2.19727385743394e-10 2.70978849246633e-10 1.70384317172391e-10 3.93764289969677e-10 2.23249180613425e-10 2.6362961495174e-10 2.03391161997509e-10
"489" 1253 2.01012136427235e-10 2.20008034047347e-10 2.70969820437263e-10 1.71316406729574e-10 3.95166675018272e-10 2.19648419712625e-10 2.63869139982363e-10 2.03546233907968e-10
"490" 1254 2.00321896608135e-10 2.202886823513e-10 2.70960791627894e-10 1.72248496286756e-10 3.96569060066868e-10 2.16047658811825e-10 2.64108665012986e-10 2.03701305818427e-10
"491" 1255 1.99631656789036e-10 2.20569330655253e-10 2.70951762818524e-10 1.73180585843938e-10 3.97971445115463e-10 2.12446897911025e-10 2.64348190043609e-10 2.03856377728885e-10
"492" 1256 1.98941416969936e-10 2.20849978959206e-10 2.70942734009154e-10 1.7411267540112e-10 3.99373830164059e-10 2.08846137010225e-10 2.64587715074232e-10 2.04011449639344e-10
"493" 1257 1.98251177150836e-10 2.21130627263159e-10 2.70933705199785e-10 1.75044764958302e-10 4.00776215212654e-10 2.05245376109424e-10 2.64827240104855e-10 2.04166521549802e-10
"494" 1258 1.97560937331736e-10 2.21411275567112e-10 2.70924676390415e-10 1.75976854515484e-10 4.0217860026125e-10 2.01644615208624e-10 2.65066765135478e-10 2.04321593460261e-10
"495" 1259 1.96870697512636e-10 2.21691923871065e-10 2.70915647581046e-10 1.76908944072666e-10 4.03580985309845e-10 1.98043854307824e-10 2.65306290166101e-10 2.04476665370719e-10
"496" 1260 1.96870697512636e-10 2.21972572175017e-10 2.7017203230992e-10 1.77718393708933e-10 4.05279684068557e-10 1.9824660170701e-10 2.64917448036225e-10 2.04476665370719e-10
"497" 1261 1.96870697512636e-10 2.2225322047897e-10 2.69428417038794e-10 1.78527843345201e-10 4.06978382827268e-10 1.98449349106196e-10 2.64528605906349e-10 2.04476665370719e-10
"498" 1262 1.96870697512636e-10 2.22533868782923e-10 2.68684801767669e-10 1.79337292981469e-10 4.0867708158598e-10 1.98652096505382e-10 2.64139763776473e-10 2.04476665370719e-10
"499" 1263 1.96870697512636e-10 2.22814517086876e-10 2.67941186496543e-10 1.80146742617736e-10 4.10375780344692e-10 1.98854843904569e-10 2.63750921646598e-10 2.04476665370719e-10
"500" 1264 1.98654186917097e-10 2.2303262190013e-10 2.67959244115282e-10 1.79836046098676e-10 4.11568380585677e-10 1.98854843904569e-10 2.64878041924304e-10 2.05130490398385e-10
"501" 1265 2.00437676321557e-10 2.23250726713384e-10 2.67977301734022e-10 1.79525349579615e-10 4.12760980826661e-10 1.98854843904569e-10 2.66005162202009e-10 2.0578431542605e-10
"502" 1266 2.00533419672503e-10 2.23531375017337e-10 2.70960791627894e-10 1.79402709658701e-10 4.14459679585373e-10 1.99945608457817e-10 2.65376795041511e-10 2.05629243515592e-10
"503" 1267 2.0062916302345e-10 2.2381202332129e-10 2.73944281521766e-10 1.79280069737786e-10 4.16158378344085e-10 2.01036373011066e-10 2.64748427881012e-10 2.05474171605133e-10
"504" 1268 2.00724906374396e-10 2.24092671625243e-10 2.76927771415638e-10 1.79157429816872e-10 4.17857077102797e-10 2.02127137564315e-10 2.64120060720513e-10 2.05319099694675e-10
"505" 1269 2.00820649725342e-10 2.24373319929196e-10 2.79911261309511e-10 1.79034789895958e-10 4.19555775861508e-10 2.03217902117564e-10 2.63491693560014e-10 2.05164027784216e-10
"506" 1270 2.00916393076289e-10 2.24653968233149e-10 2.82894751203383e-10 1.78912149975043e-10 4.2125447462022e-10 2.04308666670813e-10 2.62863326399515e-10 2.05008955873757e-10
"507" 1271 2.01012136427235e-10 2.24934616537102e-10 2.85878241097255e-10 1.78789510054129e-10 4.22953173378932e-10 2.05399431224061e-10 2.62234959239016e-10 2.04853883963299e-10
"508" 1272 2.01107879778182e-10 2.25215264841055e-10 2.88861730991127e-10 1.78666870133214e-10 4.24651872137643e-10 2.0649019577731e-10 2.61606592078517e-10 2.0469881205284e-10
"509" 1273 2.01203623129128e-10 2.25495913145008e-10 2.91845220885e-10 1.785442302123e-10 4.26350570896355e-10 2.07580960330559e-10 2.60978224918018e-10 2.04543740142382e-10
"510" 1274 2.01299366480074e-10 2.25776561448961e-10 2.94828710778872e-10 1.78421590291386e-10 4.28049269655067e-10 2.08671724883808e-10 2.60349857757519e-10 2.04388668231923e-10
"511" 1275 2.00704870011921e-10 2.25122247009199e-10 2.98800678097788e-10 1.78421590291386e-10 4.29747968413778e-10 2.08671724883808e-10 2.60349857757519e-10 2.04233596321465e-10
"512" 1276 2.00110373543768e-10 2.24467932569436e-10 3.02772645416705e-10 1.78421590291386e-10 4.3144666717249e-10 2.08671724883808e-10 2.60349857757519e-10 2.04078524411006e-10
"513" 1277 2.00110373543768e-10 2.23688531148276e-10 3.04513766922245e-10 1.78421590291386e-10 4.33145365931202e-10 2.09762489437057e-10 2.57875795227445e-10 2.02892408880302e-10
"514" 1278 2.00110373543768e-10 2.23688531148276e-10 3.03289456152651e-10 1.79108400006739e-10 4.33745338751954e-10 2.09762489437057e-10 2.56509149919116e-10 2.01861365260057e-10
"515" 1279 2.00110373543768e-10 2.23688531148276e-10 3.02065145383058e-10 1.79795209722092e-10 4.34345311572706e-10 2.09762489437057e-10 2.55142504610787e-10 2.00830321639812e-10
"516" 1280 2.00110373543768e-10 2.23688531148276e-10 3.00840834613465e-10 1.80482019437446e-10 4.34945284393459e-10 2.09762489437057e-10 2.53775859302458e-10 1.99799278019566e-10
"517" 1281 2.00110373543768e-10 2.23688531148276e-10 2.99616523843871e-10 1.81168829152799e-10 4.35545257214211e-10 2.09762489437057e-10 2.52409213994129e-10 1.98768234399321e-10
"518" 1282 2.00110373543768e-10 2.23688531148276e-10 2.98392213074278e-10 1.81855638868152e-10 4.36145230034964e-10 2.09762489437057e-10 2.510425686858e-10 1.97737190779075e-10
"519" 1283 2.00110373543768e-10 2.23688531148276e-10 2.97167902304684e-10 1.82542448583505e-10 4.36745202855716e-10 2.09762489437057e-10 2.49675923377471e-10 1.9670614715883e-10
"520" 1284 2.00110373543768e-10 2.23688531148276e-10 2.95943591535091e-10 1.83229258298859e-10 4.37345175676468e-10 2.09762489437057e-10 2.48309278069142e-10 1.95675103538585e-10
"521" 1285 2.00417639959082e-10 2.22628481423164e-10 2.93957607875633e-10 1.83041201700712e-10 4.37243955972923e-10 2.10853253990306e-10 2.45705601495776e-10 1.96450463090877e-10
"522" 1286 2.00724906374396e-10 2.21568431698051e-10 2.91971624216175e-10 1.82853145102566e-10 4.37142736269377e-10 2.11944018543554e-10 2.4310192492241e-10 1.9722582264317e-10
"523" 1287 2.0103217278971e-10 2.20508381972938e-10 2.89985640556716e-10 1.8266508850442e-10 4.37041516565832e-10 2.13034783096803e-10 2.40498248349044e-10 1.98001182195462e-10
"524" 1288 2.01339439205024e-10 2.19448332247825e-10 2.87999656897258e-10 1.82477031906273e-10 4.36940296862287e-10 2.14125547650052e-10 2.37894571775678e-10 1.98776541747755e-10
"525" 1289 2.01646705620338e-10 2.18388282522712e-10 2.860136732378e-10 1.82288975308127e-10 4.36839077158741e-10 2.15216312203301e-10 2.35290895202312e-10 1.99551901300047e-10
"526" 1290 2.01953972035653e-10 2.17328232797599e-10 2.84027689578341e-10 1.82100918709981e-10 4.36737857455196e-10 2.1630707675655e-10 2.32687218628946e-10 2.0032726085234e-10
"527" 1291 2.02261238450967e-10 2.16268183072487e-10 2.82041705918883e-10 1.81912862111835e-10 4.36636637751651e-10 2.17397841309798e-10 2.3008354205558e-10 2.01102620404633e-10
"528" 1292 2.02568504866281e-10 2.15208133347374e-10 2.80055722259425e-10 1.81724805513688e-10 4.36535418048105e-10 2.18488605863047e-10 2.27479865482214e-10 2.01877979956925e-10
"529" 1293 2.02875771281595e-10 2.14148083622261e-10 2.78069738599966e-10 1.81536748915542e-10 4.3643419834456e-10 2.19579370416296e-10 2.24876188908848e-10 2.02653339509218e-10
"530" 1294 2.03183037696909e-10 2.13088033897148e-10 2.76083754940508e-10 1.81348692317396e-10 4.36332978641014e-10 2.20670134969545e-10 2.22272512335482e-10 2.0342869906151e-10
"531" 1295 2.03490304112224e-10 2.12027984172035e-10 2.7409777128105e-10 1.81160635719249e-10 4.36231758937469e-10 2.21760899522794e-10 2.19668835762116e-10 2.04204058613803e-10
"532" 1296 2.03797570527538e-10 2.10967934446922e-10 2.72111787621592e-10 1.80972579121103e-10 4.36130539233924e-10 2.22851664076042e-10 2.1706515918875e-10 2.04979418166095e-10
"533" 1297 2.04200580293798e-10 2.10749829633668e-10 2.70098717534024e-10 1.80972579121103e-10 4.36130539233924e-10 2.23942428629291e-10 2.16696020114835e-10 2.06785821338633e-10
"534" 1298 2.04507846709112e-10 2.08599255842285e-10 2.69355102262899e-10 1.785442302123e-10 4.36130539233924e-10 2.20856651607215e-10 2.16696020114835e-10 2.07561180890926e-10
"535" 1299 2.04815113124427e-10 2.06448682050902e-10 2.68611486991773e-10 1.76115881303497e-10 4.36130539233924e-10 2.17770874585138e-10 2.16696020114835e-10 2.08336540443219e-10
"536" 1300 2.05122379539741e-10 2.04298108259519e-10 2.67867871720647e-10 1.73687532394694e-10 4.36130539233924e-10 2.14685097563061e-10 2.16696020114835e-10 2.09111899995511e-10
"537" 1301 2.05122379539741e-10 2.02147534468136e-10 2.67133285258891e-10 1.71447240084037e-10 4.39527936751347e-10 2.11412803903315e-10 2.16696020114835e-10 2.09111899995511e-10
"538" 1302 2.05429645955055e-10 2.02147534468136e-10 2.66398698797135e-10 1.69206947773381e-10 4.42925334268771e-10 2.07236262327989e-10 2.16825634158127e-10 2.08269465671556e-10
"539" 1303 2.05736912370369e-10 2.02147534468136e-10 2.65664112335379e-10 1.66966655462724e-10 4.46322731786194e-10 2.03059720752663e-10 2.16955248201419e-10 2.074270313476e-10
"540" 1304 2.06044178785683e-10 2.02147534468136e-10 2.64929525873623e-10 1.64726363152067e-10 4.49720129303617e-10 1.98883179177338e-10 2.17084862244711e-10 2.06584597023645e-10
"541" 1305 2.06351445200998e-10 2.02147534468136e-10 2.64194939411867e-10 1.62486070841411e-10 4.53117526821041e-10 1.94706637602012e-10 2.17214476288003e-10 2.05742162699689e-10
"542" 1306 2.06658711616312e-10 2.02147534468136e-10 2.63460352950111e-10 1.60245778530754e-10 4.56514924338464e-10 1.90530096026687e-10 2.17344090331295e-10 2.04899728375734e-10
"543" 1307 2.06965978031626e-10 2.02147534468136e-10 2.62725766488355e-10 1.58005486220097e-10 4.59912321855888e-10 1.86353554451361e-10 2.17473704374587e-10 2.04057294051778e-10
"544" 1308 2.0727324444694e-10 2.02147534468136e-10 2.61991180026599e-10 1.55765193909441e-10 4.63309719373311e-10 1.82177012876036e-10 2.17603318417878e-10 2.03214859727823e-10
"545" 1309 2.07580510862254e-10 2.02147534468136e-10 2.61256593564843e-10 1.53524901598784e-10 4.66707116890734e-10 1.7800047130071e-10 2.1773293246117e-10 2.02372425403867e-10
"546" 1310 2.07887777277568e-10 2.03363145515804e-10 2.60503949484348e-10 1.53524901598784e-10 4.70104514408158e-10 1.77797723901524e-10 2.16625515239425e-10 2.01529991079912e-10
"547" 1311 2.08195043692883e-10 2.04578756563472e-10 2.59751305403853e-10 1.53524901598784e-10 4.73501911925581e-10 1.77594976502338e-10 2.1551809801768e-10 2.00687556755957e-10
"548" 1312 2.08502310108197e-10 2.0579436761114e-10 2.58998661323358e-10 1.53524901598784e-10 4.76899309443004e-10 1.77392229103152e-10 2.14410680795935e-10 1.99845122432001e-10
"549" 1313 2.08809576523511e-10 2.07009978658808e-10 2.58246017242862e-10 1.53524901598784e-10 4.80296706960428e-10 1.77189481703966e-10 2.1330326357419e-10 1.99002688108046e-10
"550" 1314 2.09116842938825e-10 2.08225589706476e-10 2.57493373162367e-10 1.53524901598784e-10 4.83694104477851e-10 1.7698673430478e-10 2.12195846352445e-10 1.9816025378409e-10
"551" 1315 2.09424109354139e-10 2.09441200754144e-10 2.56740729081872e-10 1.53524901598784e-10 4.87091501995275e-10 1.76783986905594e-10 2.110884291307e-10 1.97317819460135e-10
"552" 1316 2.09731375769453e-10 2.10656811801812e-10 2.55988085001376e-10 1.53524901598784e-10 4.90488899512698e-10 1.76581239506408e-10 2.09981011908955e-10 1.96475385136179e-10
"553" 1317 2.10038642184768e-10 2.1187242284948e-10 2.55235440920881e-10 1.53524901598784e-10 4.93886297030121e-10 1.76378492107222e-10 2.0887359468721e-10 1.95632950812224e-10
"554" 1318 2.10345908600082e-10 2.13088033897148e-10 2.54482796840386e-10 1.53524901598784e-10 4.97283694547545e-10 1.76175744708035e-10 2.07766177465465e-10 1.94790516488268e-10
"555" 1319 2.10748918366342e-10 2.14957959384578e-10 2.54491825649755e-10 1.5371295819693e-10 4.97283694547545e-10 1.75879738990015e-10 2.07895791508757e-10 1.93948082164313e-10
"556" 1320 2.11151928132603e-10 2.16827884872008e-10 2.54500854459125e-10 1.53901014795076e-10 4.97283694547545e-10 1.75583733271994e-10 2.08025405552049e-10 1.93105647840357e-10
"557" 1321 2.11554937898864e-10 2.18697810359439e-10 2.54509883268495e-10 1.54089071393223e-10 4.97283694547545e-10 1.75287727553973e-10 2.08155019595341e-10 1.92263213516402e-10
"558" 1322 2.11957947665124e-10 2.20567735846869e-10 2.54518912077864e-10 1.54277127991369e-10 4.97283694547545e-10 1.74991721835952e-10 2.08284633638633e-10 1.91420779192447e-10
"559" 1323 2.11957947665124e-10 2.21222050286631e-10 2.56531982165432e-10 1.54277127991369e-10 4.93987516733667e-10 1.74991721835952e-10 2.08414247681925e-10 1.90389735572201e-10
"560" 1324 2.11957947665124e-10 2.21876364726393e-10 2.58545052252999e-10 1.54277127991369e-10 4.90691338919789e-10 1.74991721835952e-10 2.08543861725217e-10 1.89358691951956e-10
"561" 1325 2.13741437069584e-10 2.21876364726393e-10 2.62272157417997e-10 1.55397274146697e-10 4.87995133926663e-10 1.78499224417917e-10 2.10428963206713e-10 1.88172576421252e-10
"562" 1326 2.15524926474045e-10 2.21876364726393e-10 2.65999262582995e-10 1.56517420302026e-10 4.85298928933537e-10 1.82006726999882e-10 2.1231406468821e-10 1.86986460890548e-10
"563" 1327 2.17308415878505e-10 2.21876364726393e-10 2.69726367747992e-10 1.57637566457354e-10 4.82602723940412e-10 1.85514229581848e-10 2.14199166169707e-10 1.85800345359844e-10
"564" 1328 2.19091905282965e-10 2.21876364726393e-10 2.7345347291299e-10 1.58757712612682e-10 4.79906518947286e-10 1.89021732163813e-10 2.16084267651204e-10 1.8461422982914e-10
"565" 1329 2.20875394687425e-10 2.21876364726393e-10 2.77180578077988e-10 1.59877858768011e-10 4.7721031395416e-10 1.92529234745778e-10 2.17969369132701e-10 1.83428114298436e-10
"566" 1330 2.22658884091885e-10 2.21876364726393e-10 2.80907683242986e-10 1.60998004923339e-10 4.74514108961035e-10 1.96036737327743e-10 2.19854470614198e-10 1.82241998767732e-10
"567" 1331 2.24442373496345e-10 2.21876364726393e-10 2.84634788407984e-10 1.62118151078667e-10 4.71817903967909e-10 1.99544239909709e-10 2.21739572095694e-10 1.81055883237028e-10
"568" 1332 2.26225862900805e-10 2.21876364726393e-10 2.88361893572982e-10 1.63238297233996e-10 4.69121698974783e-10 2.03051742491674e-10 2.23624673577191e-10 1.79869767706324e-10
"569" 1333 2.27606342539005e-10 2.21096963305233e-10 2.92333860891899e-10 1.64358443389324e-10 4.69822891499081e-10 2.06652503392474e-10 2.25380161015396e-10 1.790608707682e-10
"570" 1334 2.28986822177205e-10 2.20317561884073e-10 2.96305828210815e-10 1.65478589544652e-10 4.70524084023379e-10 2.10253264293274e-10 2.27135648453601e-10 1.78251973830076e-10
"571" 1335 2.30770311581665e-10 2.20317561884073e-10 2.99289318104687e-10 1.65478589544652e-10 4.70524084023379e-10 2.1405677259326e-10 2.28891135891806e-10 1.78251973830076e-10
"572" 1336 2.30866054932611e-10 2.2003691358012e-10 2.98554731642931e-10 1.66786792298127e-10 4.70524084023379e-10 2.14259519992446e-10 2.28891135891806e-10 1.78407045740535e-10
"573" 1337 2.30961798283558e-10 2.19756265276168e-10 2.97820145181175e-10 1.68094995051602e-10 4.70524084023379e-10 2.14462267391632e-10 2.28891135891806e-10 1.78562117650993e-10
"574" 1338 2.31057541634504e-10 2.19475616972215e-10 2.97085558719419e-10 1.69403197805076e-10 4.70524084023379e-10 2.14665014790818e-10 2.28891135891806e-10 1.78717189561452e-10
"575" 1339 2.3115328498545e-10 2.19194968668262e-10 2.96350972257663e-10 1.70711400558551e-10 4.70524084023379e-10 2.14867762190004e-10 2.28891135891806e-10 1.7887226147191e-10
"576" 1340 2.31249028336397e-10 2.18914320364309e-10 2.95616385795907e-10 1.72019603312026e-10 4.70524084023379e-10 2.1507050958919e-10 2.28891135891806e-10 1.79027333382369e-10
"577" 1341 2.31344771687343e-10 2.18633672060356e-10 2.94881799334151e-10 1.733278060655e-10 4.70524084023379e-10 2.15273256988376e-10 2.28891135891806e-10 1.79182405292827e-10
"578" 1342 2.3144051503829e-10 2.18353023756403e-10 2.94147212872395e-10 1.74636008818975e-10 4.70524084023379e-10 2.15476004387563e-10 2.28891135891806e-10 1.79337477203286e-10
"579" 1343 2.31536258389236e-10 2.18290480265704e-10 2.9340359760127e-10 1.75576291809707e-10 4.69822891499081e-10 2.15476004387563e-10 2.29519503052305e-10 1.79337477203286e-10
"580" 1344 2.31632001740182e-10 2.18227936775005e-10 2.92659982330144e-10 1.76516574800438e-10 4.69121698974783e-10 2.15476004387563e-10 2.30147870212804e-10 1.79337477203286e-10
"581" 1345 2.31727745091129e-10 2.18165393284306e-10 2.91916367059018e-10 1.7745685779117e-10 4.68420506450486e-10 2.15476004387563e-10 2.30776237373303e-10 1.79337477203286e-10
"582" 1346 2.31823488442075e-10 2.18102849793607e-10 2.91172751787893e-10 1.78397140781901e-10 4.67719313926188e-10 2.15476004387563e-10 2.31404604533802e-10 1.79337477203286e-10
"583" 1347 2.31919231793022e-10 2.18040306302909e-10 2.90429136516767e-10 1.79337423772633e-10 4.6701812140189e-10 2.15476004387563e-10 2.320329716943e-10 1.79337477203286e-10
"584" 1348 2.32014975143968e-10 2.1797776281221e-10 2.89685521245641e-10 1.80277706763364e-10 4.66316928877592e-10 2.15476004387563e-10 2.32661338854799e-10 1.79337477203286e-10
"585" 1349 2.32110718494914e-10 2.17915219321511e-10 2.88941905974516e-10 1.81217989754096e-10 4.65615736353295e-10 2.15476004387563e-10 2.33289706015298e-10 1.79337477203286e-10
"586" 1350 2.32206461845861e-10 2.17852675830812e-10 2.8819829070339e-10 1.82158272744827e-10 4.64914543828997e-10 2.15476004387563e-10 2.33918073175797e-10 1.79337477203286e-10
"587" 1351 2.32302205196807e-10 2.17790132340113e-10 2.87454675432264e-10 1.83098555735559e-10 4.64213351304699e-10 2.15476004387563e-10 2.34546440336296e-10 1.79337477203286e-10
"588" 1352 2.32397948547754e-10 2.17727588849414e-10 2.86711060161139e-10 1.8403883872629e-10 4.63512158780402e-10 2.15476004387563e-10 2.35174807496795e-10 1.79337477203286e-10
"589" 1353 2.324936918987e-10 2.17665045358715e-10 2.85967444890013e-10 1.84979121717022e-10 4.62810966256104e-10 2.15476004387563e-10 2.35803174657294e-10 1.79337477203286e-10
"590" 1354 2.32589435249646e-10 2.17602501868016e-10 2.85223829618888e-10 1.85919404707753e-10 4.62109773731806e-10 2.15476004387563e-10 2.36431541817793e-10 1.79337477203286e-10
"591" 1355 2.32685178600593e-10 2.17539958377318e-10 2.84480214347762e-10 1.86859687698485e-10 4.61408581207508e-10 2.15476004387563e-10 2.37059908978292e-10 1.79337477203286e-10
"592" 1356 2.32090682132439e-10 2.16823100446857e-10 2.84725076501681e-10 1.87799970689216e-10 4.61307361503963e-10 2.15476004387563e-10 2.37448751108168e-10 1.78993795996537e-10
"593" 1357 2.32186425483386e-10 2.17041205260111e-10 2.84716047692311e-10 1.8967234323713e-10 4.60909828090301e-10 2.15476004387563e-10 2.36969701046922e-10 1.78838724086079e-10
"594" 1358 2.32282168834332e-10 2.17259310073365e-10 2.84707018882941e-10 1.91544715785043e-10 4.6051229467664e-10 2.15476004387563e-10 2.36490650985676e-10 1.7868365217562e-10
"595" 1359 2.32377912185279e-10 2.17477414886619e-10 2.84697990073572e-10 1.93417088332957e-10 4.60114761262978e-10 2.15476004387563e-10 2.3601160092443e-10 1.78528580265162e-10
"596" 1360 2.33068152004378e-10 2.17477414886619e-10 2.84688961264202e-10 1.9322903173481e-10 4.61011047793847e-10 2.15476004387563e-10 2.34774569659393e-10 1.79559623885407e-10
"597" 1361 2.34851641408839e-10 2.17695519699873e-10 2.84688961264202e-10 1.9322903173481e-10 4.61314706904483e-10 2.15476004387563e-10 2.3390667746827e-10 1.83771795505185e-10
"598" 1362 2.36635130813299e-10 2.17913624513127e-10 2.84688961264202e-10 1.9322903173481e-10 4.61618366015119e-10 2.15476004387563e-10 2.33038785277148e-10 1.87983967124962e-10
"599" 1363 2.38418620217759e-10 2.18131729326381e-10 2.84688961264202e-10 1.9322903173481e-10 4.61922025125755e-10 2.15476004387563e-10 2.32170893086027e-10 1.92196138744739e-10
"600" 1364 2.40202109622219e-10 2.18349834139635e-10 2.84688961264202e-10 1.9322903173481e-10 4.62225684236391e-10 2.15476004387563e-10 2.31303000894904e-10 1.96408310364516e-10
"601" 1365 2.41985599026679e-10 2.18567938952889e-10 2.84688961264202e-10 1.9322903173481e-10 4.62529343347027e-10 2.15476004387563e-10 2.30435108703782e-10 2.00620481984294e-10
"602" 1366 2.43769088431139e-10 2.18786043766143e-10 2.84688961264202e-10 1.9322903173481e-10 4.62833002457664e-10 2.15476004387563e-10 2.2956721651266e-10 2.04832653604071e-10
"603" 1367 2.45552577835599e-10 2.19004148579397e-10 2.84688961264202e-10 1.9322903173481e-10 4.631366615683e-10 2.15476004387563e-10 2.28699324321538e-10 2.09044825223848e-10
"604" 1368 2.4733606724006e-10 2.19222253392651e-10 2.84688961264202e-10 1.9322903173481e-10 4.63440320678936e-10 2.15476004387563e-10 2.27831432130416e-10 2.13256996843625e-10
"605" 1369 2.49023813293573e-10 2.19440358205905e-10 2.83936317183707e-10 1.93417088332957e-10 4.64040293499688e-10 2.14571756471983e-10 2.27831432130416e-10 2.17280559167113e-10
"606" 1370 2.50711559347087e-10 2.19658463019159e-10 2.83183673103211e-10 1.93605144931103e-10 4.64640266320441e-10 2.13667508556404e-10 2.27831432130416e-10 2.213041214906e-10
"607" 1371 2.52399305400601e-10 2.19876567832413e-10 2.82431029022716e-10 1.93793201529249e-10 4.65240239141193e-10 2.12763260640825e-10 2.27831432130416e-10 2.25327683814087e-10
"608" 1372 2.54087051454115e-10 2.20094672645667e-10 2.81678384942221e-10 1.93981258127396e-10 4.65840211961945e-10 2.11859012725246e-10 2.27831432130416e-10 2.29351246137575e-10
"609" 1373 2.55774797507628e-10 2.20312777458921e-10 2.80925740861725e-10 1.94169314725542e-10 4.66440184782698e-10 2.10954764809667e-10 2.27831432130416e-10 2.33374808461062e-10
"610" 1374 2.57462543561142e-10 2.20530882272175e-10 2.8017309678123e-10 1.94357371323688e-10 4.6704015760345e-10 2.10050516894088e-10 2.27831432130416e-10 2.37398370784549e-10
"611" 1375 2.59150289614656e-10 2.2074898708543e-10 2.79420452700735e-10 1.94545427921835e-10 4.67640130424202e-10 2.09146268978509e-10 2.27831432130416e-10 2.41421933108037e-10
"612" 1376 2.6083803566817e-10 2.20967091898684e-10 2.7866780862024e-10 1.94733484519981e-10 4.68240103244955e-10 2.0824202106293e-10 2.27831432130416e-10 2.45445495431524e-10
"613" 1377 2.62525781721683e-10 2.21185196711938e-10 2.77915164539744e-10 1.94921541118127e-10 4.68840076065707e-10 2.07337773147351e-10 2.27831432130416e-10 2.49469057755011e-10
"614" 1378 2.64213527775197e-10 2.21403301525192e-10 2.77162520459249e-10 1.95109597716273e-10 4.69440048886459e-10 2.06433525231771e-10 2.27831432130416e-10 2.53492620078498e-10
"615" 1379 2.65901273828711e-10 2.21621406338446e-10 2.76409876378754e-10 1.9529765431442e-10 4.70040021707212e-10 2.05529277316192e-10 2.27831432130416e-10 2.57516182401986e-10
"616" 1380 2.67589019882225e-10 2.218395111517e-10 2.75657232298258e-10 1.95485710912566e-10 4.70639994527964e-10 2.04625029400613e-10 2.27831432130416e-10 2.61539744725473e-10
"617" 1381 2.67493276531278e-10 2.22057615964954e-10 2.74904588217763e-10 1.95673767510712e-10 4.70639994527964e-10 2.04811546038283e-10 2.27591907099793e-10 2.61351135429183e-10
"618" 1382 2.67397533180332e-10 2.22275720778208e-10 2.74151944137268e-10 1.95861824108859e-10 4.70639994527964e-10 2.04998062675953e-10 2.2735238206917e-10 2.61162526132893e-10
"619" 1383 2.67397533180332e-10 2.22275720778208e-10 2.75376254906861e-10 1.97922253254919e-10 4.70639994527964e-10 2.08270356335699e-10 2.26983242995255e-10 2.61162526132893e-10
"620" 1384 2.67397533180332e-10 2.22275720778208e-10 2.76600565676454e-10 1.99982682400978e-10 4.70639994527964e-10 2.11542649995446e-10 2.2661410392134e-10 2.61162526132893e-10
"621" 1385 2.65709787126818e-10 2.22275720778208e-10 2.77842934064787e-10 2.02043111547038e-10 4.70741214231509e-10 2.14814943655192e-10 2.20978502532811e-10 2.60697310401518e-10
"622" 1386 2.64022041073304e-10 2.22275720778208e-10 2.7908530245312e-10 2.04103540693098e-10 4.70842433935055e-10 2.18087237314938e-10 2.15342901144281e-10 2.60232094670142e-10
"623" 1387 2.62334295019791e-10 2.22275720778208e-10 2.80327670841452e-10 2.06163969839158e-10 4.709436536386e-10 2.21359530974685e-10 2.09707299755751e-10 2.59766878938767e-10
"624" 1388 2.60646548966277e-10 2.22275720778208e-10 2.81570039229785e-10 2.08224398985218e-10 4.71044873342146e-10 2.24631824634431e-10 2.04071698367222e-10 2.59301663207391e-10
"625" 1389 2.58958802912763e-10 2.22275720778208e-10 2.82812407618118e-10 2.10284828131278e-10 4.71146093045691e-10 2.27904118294178e-10 1.98436096978692e-10 2.58836447476015e-10
"626" 1390 2.57271056859249e-10 2.22275720778208e-10 2.8405477600645e-10 2.12345257277337e-10 4.71247312749236e-10 2.31176411953924e-10 1.92800495590163e-10 2.5837123174464e-10
"627" 1391 2.55583310805736e-10 2.22275720778208e-10 2.85297144394783e-10 2.14405686423397e-10 4.71348532452782e-10 2.34448705613671e-10 1.87164894201633e-10 2.57906016013264e-10
"628" 1392 2.55583310805736e-10 2.22057615964954e-10 2.87274099244872e-10 2.16466115569457e-10 4.71348532452782e-10 2.38625247188996e-10 1.86795755127718e-10 2.58094625309554e-10
"629" 1393 2.55583310805736e-10 2.218395111517e-10 2.8925105409496e-10 2.18526544715517e-10 4.71348532452782e-10 2.42801788764322e-10 1.86426616053803e-10 2.58283234605844e-10
"630" 1394 2.55583310805736e-10 2.21558862847747e-10 2.91228008945049e-10 2.20586973861577e-10 4.68052354638904e-10 2.46775582940461e-10 1.86057476979888e-10 2.57440800281889e-10
"631" 1395 2.56177807273889e-10 2.21558862847747e-10 2.93204963795138e-10 2.20897670380638e-10 4.66454875583737e-10 2.46868841259296e-10 1.86057476979888e-10 2.56409756661643e-10
"632" 1396 2.56772303742042e-10 2.21558862847747e-10 2.95181918645226e-10 2.21208366899698e-10 4.64857396528571e-10 2.46962099578131e-10 1.86057476979888e-10 2.55378713041398e-10
"633" 1397 2.57366800210196e-10 2.21558862847747e-10 2.97158873495315e-10 2.21519063418759e-10 4.63259917473405e-10 2.47055357896966e-10 1.86057476979888e-10 2.54347669421153e-10
"634" 1398 2.57961296678349e-10 2.21558862847747e-10 2.99135828345403e-10 2.2182975993782e-10 4.61662438418238e-10 2.47148616215801e-10 1.86057476979888e-10 2.53316625800907e-10
"635" 1399 2.58555793146503e-10 2.21558862847747e-10 3.01112783195492e-10 2.2214045645688e-10 4.60064959363072e-10 2.47241874534636e-10 1.86057476979888e-10 2.52285582180662e-10
"636" 1400 2.59150289614656e-10 2.21558862847747e-10 3.03089738045581e-10 2.22451152975941e-10 4.58467480307906e-10 2.4733513285347e-10 1.86057476979888e-10 2.51254538560416e-10
"637" 1401 2.59744786082809e-10 2.21558862847747e-10 3.05066692895669e-10 2.22761849495002e-10 4.56870001252739e-10 2.47428391172305e-10 1.86057476979888e-10 2.50223494940171e-10
"638" 1402 2.59649042731863e-10 2.21278214543794e-10 3.07070734173867e-10 2.25190198403805e-10 4.54173796259614e-10 2.47428391172305e-10 1.8692536917101e-10 2.49381060616216e-10
"639" 1403 2.59553299380916e-10 2.20997566239841e-10 3.09074775452065e-10 2.27618547312608e-10 4.51477591266488e-10 2.47428391172305e-10 1.87793261362132e-10 2.4853862629226e-10
"640" 1404 2.5945755602997e-10 2.20716917935888e-10 3.11078816730262e-10 2.30046896221411e-10 4.48781386273362e-10 2.47428391172305e-10 1.88661153553254e-10 2.47696191968305e-10
"641" 1405 2.59361812679024e-10 2.20436269631935e-10 3.1308285800846e-10 2.32475245130214e-10 4.46085181280237e-10 2.47428391172305e-10 1.89529045744376e-10 2.46853757644349e-10
"642" 1406 2.59266069328077e-10 2.20155621327982e-10 3.15086899286657e-10 2.34903594039017e-10 4.43388976287111e-10 2.47428391172305e-10 1.90396937935498e-10 2.46011323320394e-10
"643" 1407 2.59170325977131e-10 2.19874973024029e-10 3.17090940564855e-10 2.3733194294782e-10 4.40692771293985e-10 2.47428391172305e-10 1.9126483012662e-10 2.45168888996438e-10
"644" 1408 2.59074582626184e-10 2.19594324720076e-10 3.19094981843052e-10 2.39760291856623e-10 4.3799656630086e-10 2.47428391172305e-10 1.92132722317742e-10 2.44326454672483e-10
"645" 1409 2.58978839275238e-10 2.19313676416123e-10 3.2109902312125e-10 2.42188640765426e-10 4.35300361307734e-10 2.47428391172305e-10 1.93000614508864e-10 2.43484020348527e-10
"646" 1410 2.58883095924292e-10 2.19033028112171e-10 3.23103064399448e-10 2.44616989674229e-10 4.32604156314608e-10 2.47428391172305e-10 1.93868506699986e-10 2.42641586024572e-10
"647" 1411 2.58787352573345e-10 2.18752379808218e-10 3.25107105677645e-10 2.47045338583032e-10 4.29907951321483e-10 2.47428391172305e-10 1.94736398891108e-10 2.41799151700616e-10
"648" 1412 2.58691609222399e-10 2.18471731504265e-10 3.27111146955843e-10 2.49473687491835e-10 4.27211746328357e-10 2.47428391172305e-10 1.9560429108223e-10 2.40956717376661e-10
"649" 1413 2.58595865871452e-10 2.18191083200312e-10 3.2911518823404e-10 2.51902036400638e-10 4.24515541335231e-10 2.47428391172305e-10 1.96472183273352e-10 2.40114283052706e-10
"650" 1414 2.58500122520506e-10 2.17910434896359e-10 3.31119229512238e-10 2.54330385309441e-10 4.21819336342106e-10 2.47428391172305e-10 1.97340075464474e-10 2.3927184872875e-10
"651" 1415 2.56716633116046e-10 2.17629786592406e-10 3.32388684328679e-10 2.56448037699183e-10 4.22122995452742e-10 2.4733513285347e-10 1.95973430156145e-10 2.39615529935499e-10
"652" 1416 2.56026393296946e-10 2.17629786592406e-10 3.34646616570165e-10 2.58876386607986e-10 4.21530368032509e-10 2.47241874534636e-10 1.97210461421182e-10 2.39150314204123e-10
"653" 1417 2.55336153477846e-10 2.17629786592406e-10 3.36904548811651e-10 2.61304735516789e-10 4.20937740612277e-10 2.47148616215801e-10 1.98447492686219e-10 2.38685098472748e-10
"654" 1418 2.54645913658747e-10 2.17629786592406e-10 3.39162481053137e-10 2.63733084425592e-10 4.20345113192045e-10 2.47055357896966e-10 1.99684523951256e-10 2.38219882741372e-10
"655" 1419 2.54358683605907e-10 2.17629786592406e-10 3.40169016096921e-10 2.69660898588393e-10 4.20345113192045e-10 2.46962099578131e-10 1.99814137994548e-10 2.37410985803248e-10
"656" 1420 2.53668443786808e-10 2.18689836317519e-10 3.40413878250839e-10 2.69660898588393e-10 4.19051293247514e-10 2.4666609386011e-10 2.00183277068463e-10 2.37410985803248e-10
"657" 1421 2.52978203967708e-10 2.19749886042632e-10 3.40658740404758e-10 2.69660898588393e-10 4.17757473302984e-10 2.46370088142089e-10 2.00552416142378e-10 2.37410985803248e-10
"658" 1422 2.52287964148608e-10 2.20809935767744e-10 3.40903602558677e-10 2.69660898588393e-10 4.16463653358454e-10 2.46074082424068e-10 2.00921555216293e-10 2.37410985803248e-10
"659" 1423 2.51597724329508e-10 2.21869985492857e-10 3.41148464712595e-10 2.69660898588393e-10 4.15169833413924e-10 2.45778076706047e-10 2.01290694290208e-10 2.37410985803248e-10
"660" 1424 2.50907484510408e-10 2.2293003521797e-10 3.41393326866514e-10 2.69660898588393e-10 4.13876013469393e-10 2.45482070988026e-10 2.01659833364123e-10 2.37410985803248e-10
"661" 1425 2.50811741159462e-10 2.23990084943083e-10 3.41384298057144e-10 2.67600469442333e-10 4.13774793765848e-10 2.44391306434778e-10 2.02028972438038e-10 2.37876201534624e-10
"662" 1426 2.50715997808516e-10 2.25050134668196e-10 3.41375269247775e-10 2.65540040296273e-10 4.13673574062303e-10 2.43300541881529e-10 2.02398111511953e-10 2.38341417265999e-10
"663" 1427 2.50620254457569e-10 2.26110184393309e-10 3.41366240438405e-10 2.63479611150214e-10 4.13572354358757e-10 2.4220977732828e-10 2.02767250585868e-10 2.38806632997375e-10
"664" 1428 2.50524511106623e-10 2.27170234118421e-10 3.41357211629035e-10 2.61419182004154e-10 4.13471134655212e-10 2.41119012775031e-10 2.03136389659783e-10 2.3927184872875e-10
"665" 1429 2.50428767755676e-10 2.28230283843534e-10 3.41348182819666e-10 2.59358752858094e-10 4.13369914951667e-10 2.40028248221782e-10 2.03505528733698e-10 2.39737064460126e-10
"666" 1430 2.5033302440473e-10 2.29290333568647e-10 3.41339154010296e-10 2.57298323712034e-10 4.13268695248121e-10 2.38937483668534e-10 2.03874667807613e-10 2.40202280191501e-10
"667" 1431 2.50237281053784e-10 2.3035038329376e-10 3.41330125200927e-10 2.55237894565974e-10 4.13167475544576e-10 2.37846719115285e-10 2.04243806881528e-10 2.40667495922877e-10
"668" 1432 2.50141537702837e-10 2.31410433018873e-10 3.41321096391557e-10 2.53177465419914e-10 4.13066255841031e-10 2.36755954562036e-10 2.04612945955443e-10 2.41132711654252e-10
"669" 1433 2.50141537702837e-10 2.32470482743986e-10 3.41565958545476e-10 2.52989408821768e-10 4.12365063316733e-10 2.36459948844015e-10 2.04982085029358e-10 2.40755493061672e-10
"670" 1434 2.50141537702837e-10 2.33530532469098e-10 3.41810820699394e-10 2.52801352223622e-10 4.11663870792435e-10 2.36163943125994e-10 2.05351224103273e-10 2.40378274469092e-10
"671" 1435 2.50141537702837e-10 2.34590582194211e-10 3.42055682853313e-10 2.52613295625475e-10 4.10962678268137e-10 2.35867937407973e-10 2.05720363177188e-10 2.40001055876513e-10
"672" 1436 2.50141537702837e-10 2.35650631919324e-10 3.42300545007232e-10 2.52425239027329e-10 4.1026148574384e-10 2.35571931689952e-10 2.06089502251103e-10 2.39623837283933e-10
"673" 1437 2.50141537702837e-10 2.36710681644437e-10 3.4254540716115e-10 2.52237182429183e-10 4.09560293219542e-10 2.35275925971931e-10 2.06458641325018e-10 2.39246618691353e-10
"674" 1438 2.50141537702837e-10 2.3777073136955e-10 3.42790269315069e-10 2.52049125831037e-10 4.08859100695244e-10 2.3497992025391e-10 2.06827780398933e-10 2.38869400098773e-10
