"time" "channel1" "channel2" "channel3" "channel4" "channel5" "channel6" "channel7" "channel8"
"1555" 32154 2.45394251616412e-08 9.26688687811314e-09 6.59946035263843e-08 1.9548880068732e-07 1.0693896720615e-08 8.41869112693697e-08 1.81349753446105e-07 2.66545769321758e-08
"1556" 32155 2.45407492913706e-08 9.34146572840442e-09 6.64489007261523e-08 1.9651148579264e-07 1.07486347552728e-08 8.43925257976059e-08 1.81734989042018e-07 2.66963029750219e-08
"1557" 32156 2.45420734211e-08 9.41604457869569e-09 6.69031979259203e-08 1.97534170897959e-07 1.08033727899306e-08 8.45981403258421e-08 1.82120224637932e-07 2.6738029017868e-08
"1558" 32157 2.45433975508294e-08 9.49062342898696e-09 6.73574951256883e-08 1.98556856003279e-07 1.08581108245884e-08 8.48037548540784e-08 1.82505460233845e-07 2.67797550607141e-08
"1559" 32158 2.45447216805588e-08 9.56520227927824e-09 6.78117923254563e-08 1.99579541108598e-07 1.09128488592461e-08 8.50093693823146e-08 1.82890695829758e-07 2.68214811035602e-08
"1560" 32159 2.45064986380308e-08 9.65813319553011e-09 6.82125239600934e-08 2.00008105052064e-07 1.09535075590143e-08 8.51648161242298e-08 1.83516790428806e-07 2.68009045702696e-08
"1561" 32160 2.44682755955028e-08 9.75106411178198e-09 6.86132555947304e-08 2.0043666899553e-07 1.09941662587824e-08 8.53202628661451e-08 1.84142885027853e-07 2.6780328036979e-08
"1562" 32161 2.44300525529748e-08 9.84399502803385e-09 6.90139872293675e-08 2.00865232938996e-07 1.10348249585506e-08 8.54757096080603e-08 1.847689796269e-07 2.67597515036885e-08
"1563" 32162 2.43918295104468e-08 9.93692594428573e-09 6.94147188640046e-08 2.01293796882462e-07 1.10754836583188e-08 8.56311563499756e-08 1.85395074225947e-07 2.67391749703979e-08
"1564" 32163 2.43536064679188e-08 1.00298568605376e-08 6.98154504986416e-08 2.01722360825928e-07 1.11161423580869e-08 8.57866030918908e-08 1.86021168824994e-07 2.67185984371073e-08
"1565" 32164 2.43153834253908e-08 1.01227877767895e-08 7.02161821332787e-08 2.02150924769393e-07 1.11568010578551e-08 8.59420498338061e-08 1.86647263424042e-07 2.66980219038167e-08
"1566" 32165 2.42771603828628e-08 1.02157186930413e-08 7.06169137679158e-08 2.02579488712859e-07 1.11974597576232e-08 8.60974965757213e-08 1.87273358023089e-07 2.66774453705262e-08
"1567" 32166 2.42376132106054e-08 1.02116818446457e-08 7.04367106299746e-08 2.02656588085645e-07 1.12221170747776e-08 8.60383010239136e-08 1.87342985270068e-07 2.66957151740446e-08
"1568" 32167 2.46099743880379e-08 1.02214777656182e-08 7.02968853234798e-08 2.02214620076333e-07 1.12183037015653e-08 8.62578500937342e-08 1.87366012742501e-07 2.70299510117253e-08
"1569" 32168 2.49823355654705e-08 1.02312736865907e-08 7.01570600169851e-08 2.01772652067021e-07 1.12144903283529e-08 8.64773991635548e-08 1.87389040214934e-07 2.7364186849406e-08
"1570" 32169 2.5354696742903e-08 1.02410696075631e-08 7.00172347104904e-08 2.01330684057709e-07 1.12106769551406e-08 8.66969482333754e-08 1.87412067687366e-07 2.76984226870866e-08
"1571" 32170 2.57270579203355e-08 1.02508655285356e-08 6.98774094039957e-08 2.00888716048398e-07 1.12068635819283e-08 8.6916497303196e-08 1.87435095159799e-07 2.80326585247673e-08
"1572" 32171 2.6099419097768e-08 1.02606614495081e-08 6.9737584097501e-08 2.00446748039086e-07 1.12030502087159e-08 8.71360463730166e-08 1.87458122632232e-07 2.8366894362448e-08
"1573" 32172 2.64717802752006e-08 1.02704573704805e-08 6.95977587910063e-08 2.00004780029774e-07 1.11992368355036e-08 8.73555954428372e-08 1.87481150104665e-07 2.87011302001286e-08
"1574" 32173 2.68441414526331e-08 1.0280253291453e-08 6.94579334845116e-08 1.99562812020462e-07 1.11954234622913e-08 8.75751445126578e-08 1.87504177577097e-07 2.90353660378093e-08
"1575" 32174 2.72165026300656e-08 1.02900492124255e-08 6.93181081780169e-08 1.9912084401115e-07 1.11916100890789e-08 8.77946935824784e-08 1.8752720504953e-07 2.936960187549e-08
"1576" 32175 2.76284109797555e-08 1.0299845133398e-08 6.93725603288473e-08 1.99278220066031e-07 1.10376509063329e-08 8.76052874803733e-08 1.86470117576349e-07 2.97038377131707e-08
"1577" 32176 2.80403193294455e-08 1.03096410543704e-08 6.94270124796777e-08 1.99435596120911e-07 1.0883691723587e-08 8.74158813782682e-08 1.85413030103167e-07 3.00380735508513e-08
"1578" 32177 2.83495397392403e-08 1.03255624831232e-08 6.94410427685342e-08 1.99329966659323e-07 1.08755662240451e-08 8.76267677507633e-08 1.8511127714317e-07 3.03462406320139e-08
"1579" 32178 2.86587601490352e-08 1.03414839118761e-08 6.94550730573906e-08 1.99224337197735e-07 1.08674407245032e-08 8.78376541232585e-08 1.84809524183173e-07 3.06544077131765e-08
"1580" 32179 2.89679805588301e-08 1.03574053406289e-08 6.94691033462471e-08 1.99118707736147e-07 1.08593152249613e-08 8.80485404957537e-08 1.84507771223176e-07 3.09625747943391e-08
"1581" 32180 2.9277200968625e-08 1.03733267693817e-08 6.94831336351036e-08 1.9901307827456e-07 1.08511897254194e-08 8.82594268682489e-08 1.84206018263179e-07 3.12707418755018e-08
"1582" 32181 2.95864213784199e-08 1.03892481981345e-08 6.949716392396e-08 1.98907448812972e-07 1.08430642258776e-08 8.84703132407441e-08 1.83904265303182e-07 3.15789089566644e-08
"1583" 32182 2.98956417882148e-08 1.04051696268873e-08 6.95111942128165e-08 1.98801819351384e-07 1.08349387263357e-08 8.86811996132393e-08 1.83602512343184e-07 3.1887076037827e-08
"1584" 32183 3.02048621980097e-08 1.04210910556401e-08 6.95252245016729e-08 1.98696189889797e-07 1.08268132267938e-08 8.88920859857344e-08 1.83300759383187e-07 3.21952431189896e-08
"1585" 32184 3.05140826078045e-08 1.0437012484393e-08 6.95392547905294e-08 1.98590560428209e-07 1.08186877272519e-08 8.91029723582296e-08 1.8299900642319e-07 3.25034102001522e-08
"1586" 32185 3.08233030175994e-08 1.04529339131458e-08 6.95532850793859e-08 1.98484930966621e-07 1.081056222771e-08 8.93138587307248e-08 1.82697253463193e-07 3.28115772813148e-08
"1587" 32186 3.11325234273943e-08 1.04688553418986e-08 6.95673153682423e-08 1.98379301505033e-07 1.08024367281682e-08 8.952474510322e-08 1.82395500503196e-07 3.31197443624774e-08
"1588" 32187 3.14417438371892e-08 1.04847767706514e-08 6.95813456570988e-08 1.98273672043446e-07 1.07943112286263e-08 8.97356314757152e-08 1.82093747543199e-07 3.342791144364e-08
"1589" 32188 3.13440346105915e-08 1.04855014885982e-08 6.95507684543197e-08 1.98042188731613e-07 1.07976676114073e-08 8.97864262591003e-08 1.8178056933807e-07 3.33548886449525e-08
"1590" 32189 3.12426708004259e-08 1.05014229173511e-08 6.96296154773658e-08 1.98455626652123e-07 1.07805127122654e-08 8.97310897677788e-08 1.81528002071334e-07 3.33470896919529e-08
"1591" 32190 3.11413069902602e-08 1.05173443461039e-08 6.97084625004119e-08 1.98869064572633e-07 1.07633578131234e-08 8.96757532764574e-08 1.81275434804597e-07 3.33392907389533e-08
"1592" 32191 3.10399431800946e-08 1.05332657748567e-08 6.9787309523458e-08 1.99282502493142e-07 1.07462029139815e-08 8.96204167851359e-08 1.81022867537861e-07 3.33314917859537e-08
"1593" 32192 3.09385793699289e-08 1.05491872036095e-08 6.98661565465041e-08 1.99695940413652e-07 1.07290480148396e-08 8.95650802938144e-08 1.80770300271125e-07 3.33236928329541e-08
"1594" 32193 3.08372155597633e-08 1.05651086323623e-08 6.99450035695503e-08 2.00109378334162e-07 1.07118931156976e-08 8.95097438024929e-08 1.80517733004388e-07 3.33158938799545e-08
"1595" 32194 3.07358517495976e-08 1.05810300611151e-08 7.00238505925964e-08 2.00522816254672e-07 1.06947382165557e-08 8.94544073111715e-08 1.80265165737652e-07 3.33080949269549e-08
"1596" 32195 3.0737175879327e-08 1.05910600993774e-08 7.00896453504061e-08 2.01068547079268e-07 1.06867269646216e-08 8.9437396775305e-08 1.8033835520232e-07 3.33854432236362e-08
"1597" 32196 3.07385000090565e-08 1.06010901376396e-08 7.01554401082158e-08 2.01614277903865e-07 1.06787157126876e-08 8.94203862394385e-08 1.80411544666987e-07 3.34627915203175e-08
"1598" 32197 3.07398241387859e-08 1.06111201759019e-08 7.02212348660254e-08 2.02160008728462e-07 1.06707044607535e-08 8.9403375703572e-08 1.80484734131655e-07 3.35401398169988e-08
"1599" 32198 3.07411482685153e-08 1.06211502141641e-08 7.02870296238351e-08 2.02705739553058e-07 1.06626932088195e-08 8.93863651677054e-08 1.80557923596323e-07 3.36174881136801e-08
"1600" 32199 3.07424723982447e-08 1.06311802524264e-08 7.03528243816448e-08 2.03251470377655e-07 1.06546819568854e-08 8.93693546318389e-08 1.8063111306099e-07 3.36948364103613e-08
"1601" 32200 3.07437965279741e-08 1.06412102906886e-08 7.04186191394545e-08 2.03797201202252e-07 1.06466707049513e-08 8.93523440959724e-08 1.80704302525658e-07 3.37721847070426e-08
"1602" 32201 3.07451206577035e-08 1.06512403289508e-08 7.04844138972642e-08 2.04342932026848e-07 1.06386594530173e-08 8.93353335601059e-08 1.80777491990325e-07 3.38495330037239e-08
"1603" 32202 3.07464447874329e-08 1.06612703672131e-08 7.05502086550739e-08 2.04888662851445e-07 1.06306482010832e-08 8.93183230242394e-08 1.80850681454993e-07 3.39268813004052e-08
"1604" 32203 3.07477689171623e-08 1.06713004054753e-08 7.06160034128836e-08 2.05434393676042e-07 1.06226369491492e-08 8.93013124883729e-08 1.80923870919661e-07 3.40042295970865e-08
"1605" 32204 3.07490930468917e-08 1.06813304437376e-08 7.06817981706933e-08 2.05980124500638e-07 1.06146256972151e-08 8.92843019525064e-08 1.80997060384328e-07 3.40815778937678e-08
"1606" 32205 3.07504171766211e-08 1.06913604819998e-08 7.0747592928503e-08 2.06525855325235e-07 1.0606614445281e-08 8.92672914166399e-08 1.81070249848996e-07 3.41589261904491e-08
"1607" 32206 3.07517413063505e-08 1.07013905202621e-08 7.08133876863127e-08 2.07071586149832e-07 1.0598603193347e-08 8.92502808807734e-08 1.81143439313664e-07 3.42362744871304e-08
"1608" 32207 3.07530654360799e-08 1.07114205585243e-08 7.08791824441224e-08 2.07617316974428e-07 1.05905919414129e-08 8.92332703449069e-08 1.81216628778331e-07 3.43136227838117e-08
"1609" 32208 3.07543895658093e-08 1.07214505967865e-08 7.09449772019321e-08 2.08163047799025e-07 1.05825806894789e-08 8.92162598090404e-08 1.81289818242999e-07 3.43909710804929e-08
"1610" 32209 3.07557136955387e-08 1.07314806350488e-08 7.10107719597417e-08 2.08708778623622e-07 1.05745694375448e-08 8.91992492731739e-08 1.81363007707667e-07 3.44683193771742e-08
"1611" 32210 3.07819114610042e-08 1.07317147523386e-08 7.10457955984812e-08 2.08763400251469e-07 1.05687298498049e-08 8.91581397980371e-08 1.81589554983267e-07 3.44894985723675e-08
"1612" 32211 3.08032033511713e-08 1.07503009355889e-08 7.11710901745694e-08 2.08656571767145e-07 1.0562890262065e-08 8.9119287264272e-08 1.81711753159026e-07 3.44864288655741e-08
"1613" 32212 3.08244952413384e-08 1.07688871188393e-08 7.12963847506575e-08 2.0854974328282e-07 1.05570506743251e-08 8.90804347305068e-08 1.81833951334785e-07 3.44833591587806e-08
"1614" 32213 3.08457871315055e-08 1.07874733020897e-08 7.14216793267456e-08 2.08442914798496e-07 1.05512110865852e-08 8.90415821967417e-08 1.81956149510544e-07 3.44802894519872e-08
"1615" 32214 3.08670790216727e-08 1.08060594853401e-08 7.15469739028338e-08 2.08336086314171e-07 1.05453714988452e-08 8.90027296629765e-08 1.82078347686304e-07 3.44772197451938e-08
"1616" 32215 3.08883709118398e-08 1.08246456685904e-08 7.16722684789219e-08 2.08229257829846e-07 1.05395319111053e-08 8.89638771292113e-08 1.82200545862063e-07 3.44741500384003e-08
"1617" 32216 3.08761823230297e-08 1.07051464279099e-08 7.13906846781726e-08 2.08022129791273e-07 1.05417035752995e-08 8.88953613373166e-08 1.81791737964035e-07 3.40544403818633e-08
"1618" 32217 3.08442973950274e-08 1.07098611707944e-08 7.12314096885397e-08 2.07520596956753e-07 1.04742682174959e-08 8.88884317235572e-08 1.8187097608789e-07 3.40467690843488e-08
"1619" 32218 3.0812412467025e-08 1.07145759136789e-08 7.10721346989068e-08 2.07019064122233e-07 1.04068328596923e-08 8.88815021097978e-08 1.81950214211745e-07 3.40390977868343e-08
"1620" 32219 3.07805275390226e-08 1.07192906565634e-08 7.09128597092739e-08 2.06517531287713e-07 1.03393975018887e-08 8.88745724960383e-08 1.820294523356e-07 3.40314264893198e-08
"1621" 32220 3.07486426110203e-08 1.07240053994479e-08 7.0753584719641e-08 2.06015998453193e-07 1.02719621440851e-08 8.88676428822789e-08 1.82108690459455e-07 3.40237551918053e-08
"1622" 32221 3.07167576830179e-08 1.07287201423324e-08 7.05943097300081e-08 2.05514465618673e-07 1.02045267862815e-08 8.88607132685195e-08 1.8218792858331e-07 3.40160838942908e-08
"1623" 32222 3.06848727550155e-08 1.07334348852169e-08 7.04350347403753e-08 2.05012932784154e-07 1.01370914284779e-08 8.885378365476e-08 1.82267166707166e-07 3.40084125967763e-08
"1624" 32223 3.06529878270131e-08 1.07381496281014e-08 7.02757597507424e-08 2.04511399949634e-07 1.00696560706743e-08 8.88468540410006e-08 1.82346404831021e-07 3.40007412992618e-08
"1625" 32224 3.06211028990108e-08 1.07428643709859e-08 7.01164847611095e-08 2.04009867115114e-07 1.00022207128707e-08 8.88399244272412e-08 1.82425642954876e-07 3.39930700017473e-08
"1626" 32225 3.05892179710084e-08 1.07475791138703e-08 6.99572097714766e-08 2.03508334280594e-07 9.93478535506708e-09 8.88329948134817e-08 1.82504881078731e-07 3.39853987042328e-08
"1627" 32226 3.0557333043006e-08 1.07522938567548e-08 6.97979347818437e-08 2.03006801446074e-07 9.86734999726348e-09 8.88260651997223e-08 1.82584119202586e-07 3.39777274067183e-08
"1628" 32227 3.05254481150037e-08 1.07570085996393e-08 6.96386597922108e-08 2.02505268611554e-07 9.79991463945988e-09 8.88191355859629e-08 1.82663357326441e-07 3.39700561092038e-08
"1629" 32228 3.04935631870013e-08 1.07617233425238e-08 6.94793848025779e-08 2.02003735777034e-07 9.73247928165628e-09 8.88122059722034e-08 1.82742595450296e-07 3.39623848116893e-08
"1630" 32229 3.04616782589989e-08 1.07664380854083e-08 6.9320109812945e-08 2.01502202942514e-07 9.66504392385268e-09 8.8805276358444e-08 1.82821833574151e-07 3.39547135141748e-08
"1631" 32230 3.0469993750244e-08 1.07872452459571e-08 6.94019264952143e-08 2.01508922104204e-07 9.58880766166467e-09 8.70843270571949e-08 1.82842933317939e-07 3.39251891104122e-08
"1632" 32231 3.04305458696097e-08 1.05715721481114e-08 6.81399651228469e-08 1.98257988226541e-07 9.59039752719253e-09 8.62728109671311e-08 1.79365155598001e-07 3.39239036335741e-08
"1633" 32232 3.04532059788799e-08 1.03797455529758e-08 6.72942441391433e-08 1.96977062258257e-07 9.59039752719253e-09 8.56388815324904e-08 1.76067830691321e-07 3.40123016869242e-08
"1634" 32233 3.03927111756997e-08 1.02205883326687e-08 6.63138665675253e-08 1.94797836383462e-07 9.62115412936122e-09 8.48445347679375e-08 1.72586706488342e-07 3.40191506361418e-08
"1635" 32234 3.03322163725196e-08 1.00614311123615e-08 6.53334889959074e-08 1.92618610508667e-07 9.6519107315299e-09 8.40501880033846e-08 1.69105582285363e-07 3.40259995853594e-08
"1636" 32235 3.02717215693395e-08 9.90227389205440e-09 6.43531114242894e-08 1.90439384633872e-07 9.68266733369858e-09 8.32558412388317e-08 1.65624458082383e-07 3.4032848534577e-08
"1637" 32236 3.02112267661594e-08 9.74311667174726e-09 6.33727338526715e-08 1.88260158759078e-07 9.71342393586726e-09 8.24614944742787e-08 1.62143333879404e-07 3.40396974837946e-08
"1638" 32237 3.01507319629793e-08 9.58395945144013e-09 6.23923562810535e-08 1.86080932884283e-07 9.74418053803594e-09 8.16671477097258e-08 1.58662209676425e-07 3.40465464330122e-08
"1639" 32238 3.00902371597992e-08 9.424802231133e-09 6.14119787094355e-08 1.83901707009488e-07 9.77493714020462e-09 8.08728009451729e-08 1.55181085473445e-07 3.40533953822297e-08
"1640" 32239 3.00297423566191e-08 9.26564501082587e-09 6.04316011378176e-08 1.81722481134693e-07 9.8056937423733e-09 8.007845418062e-08 1.51699961270466e-07 3.40602443314473e-08
"1641" 32240 2.9969247553439e-08 9.10648779051874e-09 5.94512235661996e-08 1.79543255259898e-07 9.83645034454198e-09 7.9284107416067e-08 1.48218837067487e-07 3.40670932806649e-08
"1642" 32241 2.99087527502589e-08 8.94733057021161e-09 5.84708459945817e-08 1.77364029385103e-07 9.86720694671067e-09 7.84897606515141e-08 1.44737712864507e-07 3.40739422298825e-08
"1643" 32242 2.98482579470788e-08 8.78817334990448e-09 5.74904684229637e-08 1.75184803510308e-07 9.89796354887935e-09 7.76954138869612e-08 1.41256588661528e-07 3.40807911791001e-08
"1644" 32243 2.97877631438987e-08 8.62901612959735e-09 5.65100908513458e-08 1.73005577635513e-07 9.92872015104803e-09 7.69010671224083e-08 1.37775464458549e-07 3.40876401283177e-08
"1645" 32244 2.97272683407186e-08 8.46985890929022e-09 5.55297132797278e-08 1.70826351760718e-07 9.95947675321671e-09 7.61067203578554e-08 1.34294340255569e-07 3.40944890775353e-08
"1646" 32245 2.96667735375385e-08 8.31070168898309e-09 5.45493357081098e-08 1.68647125885923e-07 9.99023335538539e-09 7.53123735933024e-08 1.3081321605259e-07 3.41013380267529e-08
"1647" 32246 2.97828837222246e-08 8.07944307905042e-09 5.31226799518279e-08 1.65529683935083e-07 9.98965155671911e-09 7.46686977590186e-08 1.27286429621561e-07 3.41109271486461e-08
"1648" 32247 2.98085650988234e-08 7.85947664944184e-09 5.17223717381361e-08 1.62250141780142e-07 1.00062246571948e-08 7.39045353898964e-08 1.23687430024838e-07 3.41177760978637e-08
"1649" 32248 2.98342464754222e-08 7.63951021983327e-09 5.03220635244442e-08 1.58970599625201e-07 1.00227977576704e-08 7.31403730207743e-08 1.20088430428116e-07 3.41246250470813e-08
"1650" 32249 2.9859927852021e-08 7.41954379022469e-09 4.89217553107523e-08 1.5569105747026e-07 1.00393708581461e-08 7.23762106516522e-08 1.16489430831393e-07 3.41314739962989e-08
"1651" 32250 2.99235056476528e-08 7.43587032517881e-09 4.87536526507734e-08 1.54417354454923e-07 1.0053626844761e-08 7.23830093009602e-08 1.15959401056581e-07 3.40096505802153e-08
"1652" 32251 2.99354228152174e-08 7.45523620229412e-09 4.86855614205346e-08 1.53682293521281e-07 9.99499191151906e-09 7.22753064528365e-08 1.15815084423539e-07 3.39281014760828e-08
"1653" 32252 2.99473399827821e-08 7.47460207940943e-09 4.86174701902958e-08 1.52947232587639e-07 9.93635697827712e-09 7.21676036047127e-08 1.15670767790497e-07 3.38465523719504e-08
"1654" 32253 2.99592571503467e-08 7.49396795652474e-09 4.85493789600569e-08 1.52212171653997e-07 9.87772204503517e-09 7.2059900756589e-08 1.15526451157455e-07 3.37650032678179e-08
"1655" 32254 2.99711743179114e-08 7.51333383364005e-09 4.84812877298181e-08 1.51477110720355e-07 9.81908711179323e-09 7.19521979084652e-08 1.15382134524412e-07 3.36834541636855e-08
"1656" 32255 2.9983091485476e-08 7.53269971075536e-09 4.84131964995793e-08 1.50742049786713e-07 9.76045217855129e-09 7.18444950603415e-08 1.1523781789137e-07 3.3601905059553e-08
"1657" 32256 2.99950086530407e-08 7.55206558787067e-09 4.83451052693404e-08 1.50006988853072e-07 9.70181724530934e-09 7.17367922122177e-08 1.15093501258328e-07 3.35203559554206e-08
"1658" 32257 3.00069258206053e-08 7.57143146498598e-09 4.82770140391016e-08 1.4927192791943e-07 9.6431823120674e-09 7.1629089364094e-08 1.14949184625286e-07 3.34388068512881e-08
"1659" 32258 3.001884298817e-08 7.59079734210129e-09 4.82089228088628e-08 1.48536866985788e-07 9.58454737882545e-09 7.15213865159703e-08 1.14804867992244e-07 3.33572577471557e-08
"1660" 32259 3.00307601557346e-08 7.61016321921661e-09 4.8140831578624e-08 1.47801806052146e-07 9.52591244558351e-09 7.14136836678465e-08 1.14660551359202e-07 3.32757086430232e-08
"1661" 32260 3.00426773232993e-08 7.62952909633192e-09 4.80727403483851e-08 1.47066745118504e-07 9.46727751234157e-09 7.13059808197228e-08 1.1451623472616e-07 3.31941595388908e-08
"1662" 32261 3.00545944908639e-08 7.64889497344723e-09 4.80046491181463e-08 1.46331684184863e-07 9.40864257909962e-09 7.1198277971599e-08 1.14371918093118e-07 3.31126104347583e-08
"1663" 32262 3.00665116584286e-08 7.66826085056254e-09 4.79365578879075e-08 1.45596623251221e-07 9.35000764585768e-09 7.10905751234753e-08 1.14227601460076e-07 3.30310613306259e-08
"1664" 32263 3.00784288259933e-08 7.68762672767785e-09 4.78684666576687e-08 1.44861562317579e-07 9.29137271261574e-09 7.09828722753516e-08 1.14083284827033e-07 3.29495122264935e-08
"1665" 32264 3.00903459935579e-08 7.70699260479316e-09 4.78003754274298e-08 1.44126501383937e-07 9.23273777937379e-09 7.08751694272278e-08 1.13938968193991e-07 3.2867963122361e-08
"1666" 32265 3.01022631611226e-08 7.72635848190847e-09 4.7732284197191e-08 1.43391440450295e-07 9.17410284613185e-09 7.07674665791041e-08 1.13794651560949e-07 3.27864140182286e-08
"1667" 32266 3.01141803286872e-08 7.74572435902378e-09 4.76641929669522e-08 1.42656379516653e-07 9.1154679128899e-09 7.06597637309803e-08 1.13650334927907e-07 3.27048649140961e-08
"1668" 32267 3.00439201592853e-08 7.74468002933141e-09 4.75787969518077e-08 1.42525386796425e-07 9.03800516942909e-09 7.05842430112607e-08 1.13562119247942e-07 3.26228526814225e-08
"1669" 32268 2.99736599898835e-08 7.74363569963905e-09 4.74934009366632e-08 1.42394394076196e-07 8.96054242596827e-09 7.0508722291541e-08 1.13473903567978e-07 3.25408404487488e-08
"1670" 32269 2.99033998204816e-08 7.74259136994668e-09 4.74080049215187e-08 1.42263401355967e-07 8.88307968250745e-09 7.04332015718214e-08 1.13385687888013e-07 3.24588282160751e-08
"1671" 32270 2.98331396510797e-08 7.74154704025431e-09 4.73226089063743e-08 1.42132408635738e-07 8.80561693904663e-09 7.03576808521018e-08 1.13297472208048e-07 3.23768159834015e-08
"1672" 32271 2.98307275413674e-08 7.69299699897371e-09 4.73440129483197e-08 1.42707476420887e-07 8.78343274604671e-09 7.03092434288423e-08 1.13323711595874e-07 3.23300311602313e-08
"1673" 32272 2.96581213963137e-08 7.68387897249012e-09 4.73387434398016e-08 1.43210611714018e-07 8.7560843701494e-09 6.99747028901344e-08 1.13378489609726e-07 3.22832463370612e-08
"1674" 32273 2.94855152512599e-08 7.67476094600653e-09 4.73334739312836e-08 1.4371374700715e-07 8.72873599425209e-09 6.96401623514265e-08 1.13433267623577e-07 3.2236461513891e-08
"1675" 32274 2.93129091062061e-08 7.66564291952294e-09 4.73282044227656e-08 1.44216882300282e-07 8.70138761835478e-09 6.93056218127187e-08 1.13488045637429e-07 3.21896766907209e-08
"1676" 32275 2.91403029611524e-08 7.65652489303935e-09 4.73229349142476e-08 1.44720017593413e-07 8.67403924245747e-09 6.89710812740108e-08 1.1354282365128e-07 3.21428918675507e-08
"1677" 32276 2.89676968160986e-08 7.64740686655576e-09 4.73176654057296e-08 1.45223152886545e-07 8.64669086656017e-09 6.86365407353029e-08 1.13597601665132e-07 3.20961070443806e-08
"1678" 32277 2.87950906710448e-08 7.63828884007217e-09 4.73123958972116e-08 1.45726288179677e-07 8.61934249066286e-09 6.83020001965951e-08 1.13652379678983e-07 3.20493222212104e-08
"1679" 32278 2.8622484525991e-08 7.62917081358858e-09 4.73071263886936e-08 1.46229423472808e-07 8.59199411476555e-09 6.79674596578872e-08 1.13707157692835e-07 3.20025373980403e-08
"1680" 32279 2.84498783809373e-08 7.62005278710498e-09 4.73018568801756e-08 1.4673255876594e-07 8.56464573886824e-09 6.76329191191793e-08 1.13761935706687e-07 3.19557525748701e-08
"1681" 32280 2.82772722358835e-08 7.61093476062139e-09 4.72965873716576e-08 1.47235694059072e-07 8.53729736297093e-09 6.72983785804715e-08 1.13816713720538e-07 3.19089677517e-08
"1682" 32281 2.81586307191113e-08 7.61065381987366e-09 4.74337851325511e-08 1.48200047619454e-07 8.56512337073112e-09 6.74595680945699e-08 1.13818535412881e-07 3.18787605330021e-08
"1683" 32282 2.80079785290893e-08 7.60765314871027e-09 4.74330679152298e-08 1.490367764034e-07 8.54428998741625e-09 6.75013323919639e-08 1.14435701429426e-07 3.1824150036137e-08
"1684" 32283 2.78573263390674e-08 7.60465247754688e-09 4.74323506979084e-08 1.49873505187347e-07 8.52345660410138e-09 6.75430966893578e-08 1.1505286744597e-07 3.17695395392719e-08
"1685" 32284 2.77066741490455e-08 7.60165180638349e-09 4.7431633480587e-08 1.50710233971294e-07 8.50262322078651e-09 6.75848609867518e-08 1.15670033462515e-07 3.17149290424069e-08
"1686" 32285 2.77159871465249e-08 7.60776916170369e-09 4.74593028488519e-08 1.50829878697854e-07 8.46126847474424e-09 6.7541101676889e-08 1.15002380020744e-07 3.15960001751792e-08
"1687" 32286 2.76982770019267e-08 7.58345442441412e-09 4.70888122785233e-08 1.50947898798896e-07 8.44043509142937e-09 6.79867053710896e-08 1.1469872786345e-07 3.15485830044686e-08
"1688" 32287 2.76805668573285e-08 7.55913968712454e-09 4.67183217081947e-08 1.51065918899939e-07 8.4196017081145e-09 6.84323090652903e-08 1.14395075706155e-07 3.15011658337579e-08
"1689" 32288 2.76628567127303e-08 7.53482494983497e-09 4.6347831137866e-08 1.51183939000982e-07 8.39876832479963e-09 6.88779127594909e-08 1.14091423548861e-07 3.14537486630472e-08
"1690" 32289 2.76451465681321e-08 7.51051021254539e-09 4.59773405675374e-08 1.51301959102024e-07 8.37793494148476e-09 6.93235164536915e-08 1.13787771391566e-07 3.14063314923366e-08
"1691" 32290 2.76274364235339e-08 7.48619547525582e-09 4.56068499972088e-08 1.51419979203067e-07 8.35710155816989e-09 6.97691201478922e-08 1.13484119234272e-07 3.13589143216259e-08
"1692" 32291 2.76097262789357e-08 7.46188073796625e-09 4.52363594268801e-08 1.51537999304109e-07 8.33626817485502e-09 7.02147238420928e-08 1.13180467076978e-07 3.13114971509153e-08
"1693" 32292 2.75920161343374e-08 7.43756600067667e-09 4.48658688565515e-08 1.51656019405152e-07 8.31543479154015e-09 7.06603275362934e-08 1.12876814919683e-07 3.12640799802046e-08
"1694" 32293 2.75743059897392e-08 7.4132512633871e-09 4.44953782862228e-08 1.51774039506194e-07 8.29460140822528e-09 7.11059312304941e-08 1.12573162762389e-07 3.12166628094939e-08
"1695" 32294 2.7556595845141e-08 7.38893652609752e-09 4.41248877158942e-08 1.51892059607237e-07 8.27376802491041e-09 7.15515349246947e-08 1.12269510605094e-07 3.11692456387833e-08
"1696" 32295 2.75388857005428e-08 7.36462178880795e-09 4.37543971455656e-08 1.52010079708279e-07 8.25293464159554e-09 7.19971386188953e-08 1.119658584478e-07 3.11218284680726e-08
"1697" 32296 2.75211755559446e-08 7.34030705151837e-09 4.33839065752369e-08 1.52128099809322e-07 8.23210125828067e-09 7.24427423130959e-08 1.11662206290506e-07 3.1074411297362e-08
"1698" 32297 2.75034654113464e-08 7.3159923142288e-09 4.30134160049083e-08 1.52246119910364e-07 8.2112678749658e-09 7.28883460072966e-08 1.11358554133211e-07 3.10269941266513e-08
"1699" 32298 2.74857552667482e-08 7.29167757693922e-09 4.26429254345796e-08 1.52364140011407e-07 8.19043449165093e-09 7.33339497014972e-08 1.11054901975917e-07 3.09795769559406e-08
"1700" 32299 2.746804512215e-08 7.26736283964965e-09 4.2272434864251e-08 1.52482160112449e-07 8.16960110833606e-09 7.37795533956978e-08 1.10751249818622e-07 3.093215978523e-08
"1701" 32300 2.74503349775518e-08 7.24304810236007e-09 4.19019442939224e-08 1.52600180213492e-07 8.14876772502119e-09 7.42251570898985e-08 1.10447597661328e-07 3.08847426145193e-08
"1702" 32301 2.74326248329536e-08 7.2187333650705e-09 4.15314537235937e-08 1.52718200314534e-07 8.12793434170632e-09 7.46707607840991e-08 1.10143945504034e-07 3.08373254438087e-08
"1703" 32302 2.75017970223726e-08 7.42722638168038e-09 4.27646661355581e-08 1.53206390545787e-07 8.11027012882001e-09 7.47565239360747e-08 1.09387255858233e-07 3.07892759255575e-08
"1704" 32303 2.74747738802949e-08 7.40087796092417e-09 4.24647622494872e-08 1.52766238199347e-07 8.08749357652664e-09 7.47497531119596e-08 1.08552544991501e-07 3.07528877297585e-08
"1705" 32304 2.74477507382173e-08 7.37452954016796e-09 4.21648583634164e-08 1.52326085852907e-07 8.06471702423327e-09 7.47429822878446e-08 1.0771783412477e-07 3.07164995339595e-08
"1706" 32305 2.74207275961396e-08 7.34818111941175e-09 4.18649544773455e-08 1.51885933506468e-07 8.0419404719399e-09 7.47362114637296e-08 1.06883123258038e-07 3.06801113381605e-08
"1707" 32306 2.7344817830701e-08 7.32234775669305e-09 4.191693572207e-08 1.52276434627465e-07 8.04266772027276e-09 7.47178356329629e-08 1.06873473628686e-07 3.06856332470258e-08
"1708" 32307 2.72871986188515e-08 7.30172788997604e-09 4.19818193462672e-08 1.5189473675112e-07 8.03272385998736e-09 7.46686151434993e-08 1.0696003727439e-07 3.04567352518655e-08
"1709" 32308 2.7229579407002e-08 7.28110802325903e-09 4.20467029704644e-08 1.51513038874775e-07 8.02277999970197e-09 7.46193946540357e-08 1.07046600920094e-07 3.02278372567053e-08
"1710" 32309 2.71719601951525e-08 7.26048815654202e-09 4.21115865946616e-08 1.51131340998429e-07 8.01283613941658e-09 7.45701741645722e-08 1.07133164565798e-07 2.99989392615451e-08
"1711" 32310 2.71143409833031e-08 7.23986828982501e-09 4.21764702188588e-08 1.50749643122084e-07 8.00289227913119e-09 7.45209536751086e-08 1.07219728211502e-07 2.97700412663849e-08
"1712" 32311 2.70567217714536e-08 7.219248423108e-09 4.2241353843056e-08 1.50367945245739e-07 7.9929484188458e-09 7.4471733185645e-08 1.07306291857206e-07 2.95411432712247e-08
"1713" 32312 2.69991025596041e-08 7.198628556391e-09 4.23062374672532e-08 1.49986247369394e-07 7.9830045585604e-09 7.44225126961815e-08 1.0739285550291e-07 2.93122452760644e-08
"1714" 32313 2.69414833477546e-08 7.17800868967399e-09 4.23711210914504e-08 1.49604549493048e-07 7.97306069827501e-09 7.43732922067179e-08 1.07479419148615e-07 2.90833472809042e-08
"1715" 32314 2.68838641359051e-08 7.15738882295698e-09 4.24360047156476e-08 1.49222851616703e-07 7.96311683798962e-09 7.43240717172543e-08 1.07565982794319e-07 2.8854449285744e-08
"1716" 32315 2.68262449240556e-08 7.13676895623997e-09 4.25008883398448e-08 1.48841153740358e-07 7.95317297770423e-09 7.42748512277908e-08 1.07652546440023e-07 2.86255512905838e-08
"1717" 32316 2.67686257122061e-08 7.11614908952296e-09 4.2565771964042e-08 1.48459455864013e-07 7.94322911741883e-09 7.42256307383272e-08 1.07739110085727e-07 2.83966532954236e-08
"1718" 32317 2.67110065003567e-08 7.09552922280595e-09 4.26306555882393e-08 1.48077757987667e-07 7.93328525713344e-09 7.41764102488636e-08 1.07825673731431e-07 2.81677553002634e-08
"1719" 32318 2.66533872885072e-08 7.07490935608894e-09 4.26955392124365e-08 1.47696060111322e-07 7.92334139684805e-09 7.41271897594001e-08 1.07912237377135e-07 2.79388573051031e-08
"1720" 32319 2.65957680766577e-08 7.05428948937193e-09 4.27604228366337e-08 1.47314362234977e-07 7.91339753656266e-09 7.40779692699365e-08 1.07998801022839e-07 2.77099593099429e-08
"1721" 32320 2.65381488648082e-08 7.03366962265493e-09 4.28253064608309e-08 1.46932664358632e-07 7.90345367627727e-09 7.40287487804729e-08 1.08085364668544e-07 2.74810613147827e-08
"1722" 32321 2.64805296529587e-08 7.01304975593792e-09 4.28901900850281e-08 1.46550966482286e-07 7.89350981599187e-09 7.39795282910094e-08 1.08171928314248e-07 2.72521633196225e-08
"1723" 32322 2.64229104411092e-08 6.99242988922091e-09 4.29550737092253e-08 1.46169268605941e-07 7.88356595570648e-09 7.39303078015458e-08 1.08258491959952e-07 2.70232653244623e-08
"1724" 32323 2.63652912292597e-08 6.9718100225039e-09 4.30199573334225e-08 1.45787570729596e-07 7.87362209542109e-09 7.38810873120822e-08 1.08345055605656e-07 2.6794367329302e-08
"1725" 32324 2.62974431695702e-08 6.95100286195507e-09 4.3014254273362e-08 1.45012474530793e-07 7.8636782351357e-09 7.38991428430557e-08 1.08465410881812e-07 2.65558802122487e-08
"1726" 32325 2.62295951098806e-08 6.93019570140624e-09 4.30085512133014e-08 1.44237378331989e-07 7.8537343748503e-09 7.39171983740291e-08 1.08585766157968e-07 2.63173930951953e-08
"1727" 32326 2.6161747050191e-08 6.90938854085741e-09 4.30028481532409e-08 1.43462282133186e-07 7.84379051456491e-09 7.39352539050025e-08 1.08706121434124e-07 2.6078905978142e-08
"1728" 32327 2.60938989905014e-08 6.88858138030859e-09 4.29971450931803e-08 1.42687185934382e-07 7.83384665427952e-09 7.3953309435976e-08 1.08826476710279e-07 2.58404188610886e-08
"1729" 32328 2.60260509308118e-08 6.86777421975976e-09 4.29914420331198e-08 1.41912089735579e-07 7.82390279399413e-09 7.39713649669494e-08 1.08946831986435e-07 2.56019317440353e-08
"1730" 32329 2.5926671020239e-08 6.79045118167238e-09 4.28105868794319e-08 1.41294112456454e-07 7.8296487755578e-09 7.40425000478727e-08 1.0863249760312e-07 2.55241886030223e-08
"1731" 32330 2.58801501222154e-08 6.73788665807368e-09 4.26959795177106e-08 1.40700837462022e-07 7.83607016196399e-09 7.40585911120747e-08 1.08584313078137e-07 2.54260262698416e-08
"1732" 32331 2.58336292241918e-08 6.68532213447497e-09 4.25813721559893e-08 1.40107562467591e-07 7.84249154837019e-09 7.40746821762768e-08 1.08536128553154e-07 2.5327863936661e-08
"1733" 32332 2.57871083261682e-08 6.63275761087627e-09 4.24667647942679e-08 1.3951428747316e-07 7.84891293477639e-09 7.40907732404788e-08 1.08487944028171e-07 2.52297016034803e-08
"1734" 32333 2.57405874281446e-08 6.58019308727757e-09 4.23521574325466e-08 1.38921012478729e-07 7.85533432118258e-09 7.41068643046809e-08 1.08439759503188e-07 2.51315392702996e-08
"1735" 32334 2.56940665301211e-08 6.52762856367887e-09 4.22375500708253e-08 1.38327737484298e-07 7.86175570758878e-09 7.41229553688829e-08 1.08391574978205e-07 2.50333769371189e-08
"1736" 32335 2.56475456320975e-08 6.47506404008017e-09 4.2122942709104e-08 1.37734462489867e-07 7.86817709399497e-09 7.41390464330849e-08 1.08343390453222e-07 2.49352146039382e-08
"1737" 32336 2.56010247340739e-08 6.42249951648147e-09 4.20083353473827e-08 1.37141187495436e-07 7.87459848040117e-09 7.4155137497287e-08 1.08295205928239e-07 2.48370522707576e-08
"1738" 32337 2.55545038360503e-08 6.36993499288277e-09 4.18937279856614e-08 1.36547912501005e-07 7.88101986680737e-09 7.41712285614891e-08 1.08247021403256e-07 2.47388899375769e-08
"1739" 32338 2.55155282549091e-08 6.36993499288277e-09 4.1974721595373e-08 1.36410172608301e-07 7.88198617098303e-09 7.41712285614891e-08 1.08133715954566e-07 2.47198601310328e-08
"1740" 32339 2.54939538306206e-08 6.31755776311588e-09 4.19209426313365e-08 1.36190581182806e-07 7.88768030905638e-09 7.41873196256911e-08 1.08096829431153e-07 2.46202579448336e-08
"1741" 32340 2.54723794063321e-08 6.265180533349e-09 4.18671636673001e-08 1.35970989757311e-07 7.89337444712972e-09 7.42034106898932e-08 1.0805994290774e-07 2.45206557586344e-08
"1742" 32341 2.54508049820436e-08 6.21280330358212e-09 4.18133847032637e-08 1.35751398331816e-07 7.89906858520306e-09 7.42195017540952e-08 1.08023056384327e-07 2.44210535724352e-08
"1743" 32342 2.5429230557755e-08 6.16042607381524e-09 4.17596057392273e-08 1.35531806906321e-07 7.9047627232764e-09 7.42355928182973e-08 1.07986169860914e-07 2.4321451386236e-08
"1744" 32343 2.5460832951636e-08 6.16428378083918e-09 4.18303439976816e-08 1.35891581409545e-07 7.90978145650722e-09 7.42674824721011e-08 1.07935990323462e-07 2.43018248567274e-08
"1745" 32344 2.5492435345517e-08 6.16814148786312e-09 4.1901082256136e-08 1.36251355912769e-07 7.91480018973804e-09 7.42993721259049e-08 1.0788581078601e-07 2.42821983272188e-08
"1746" 32345 2.5524037739398e-08 6.17199919488706e-09 4.19718205145903e-08 1.36611130415993e-07 7.91981892296885e-09 7.43312617797087e-08 1.07835631248558e-07 2.42625717977103e-08
"1747" 32346 2.55556401332789e-08 6.175856901911e-09 4.20425587730447e-08 1.36970904919217e-07 7.92483765619967e-09 7.43631514335125e-08 1.07785451711107e-07 2.42429452682017e-08
"1748" 32347 2.55872425271599e-08 6.17971460893494e-09 4.2113297031499e-08 1.37330679422441e-07 7.92985638943049e-09 7.43950410873163e-08 1.07735272173655e-07 2.42233187386931e-08
"1749" 32348 2.56188449210409e-08 6.18357231595888e-09 4.21840352899534e-08 1.37690453925665e-07 7.9348751226613e-09 7.44269307411201e-08 1.07685092636203e-07 2.42036922091845e-08
"1750" 32349 2.56504473149219e-08 6.18743002298282e-09 4.22547735484077e-08 1.38050228428888e-07 7.93989385589212e-09 7.44588203949239e-08 1.07634913098751e-07 2.41840656796759e-08
"1751" 32350 2.56820497088028e-08 6.19128773000676e-09 4.23255118068621e-08 1.38410002932112e-07 7.94491258912294e-09 7.44907100487277e-08 1.075847335613e-07 2.41644391501674e-08
"1752" 32351 2.57136521026838e-08 6.1951454370307e-09 4.23962500653164e-08 1.38769777435336e-07 7.94993132235376e-09 7.45225997025315e-08 1.07534554023848e-07 2.41448126206588e-08
"1753" 32352 2.57452544965648e-08 6.19900314405464e-09 4.24669883237708e-08 1.3912955193856e-07 7.95495005558457e-09 7.45544893563354e-08 1.07484374486396e-07 2.41251860911502e-08
"1754" 32353 2.57768568904458e-08 6.20286085107858e-09 4.25377265822251e-08 1.39489326441784e-07 7.95996878881539e-09 7.45863790101392e-08 1.07434194948944e-07 2.41055595616416e-08
"1755" 32354 2.58084592843267e-08 6.20671855810251e-09 4.26084648406795e-08 1.39849100945008e-07 7.96498752204621e-09 7.4618268663943e-08 1.07384015411492e-07 2.40859330321331e-08
"1756" 32355 2.58400616782077e-08 6.21057626512645e-09 4.26792030991338e-08 1.40208875448232e-07 7.97000625527703e-09 7.46501583177468e-08 1.07333835874041e-07 2.40663065026245e-08
"1757" 32356 2.58716640720887e-08 6.21443397215039e-09 4.27499413575882e-08 1.40568649951456e-07 7.97502498850784e-09 7.46820479715506e-08 1.07283656336589e-07 2.40466799731159e-08
"1758" 32357 2.6022914306851e-08 6.23461821412845e-09 4.27302520391986e-08 1.42143466042411e-07 7.97434958366532e-09 7.50572718258391e-08 1.07115158949971e-07 2.4157165661927e-08
"1759" 32358 2.60690269255059e-08 6.2346650375864e-09 4.27144663731247e-08 1.42127326593064e-07 7.97719665270199e-09 7.50402612899726e-08 1.06937924611193e-07 2.41407632153923e-08
"1760" 32359 2.61151395441607e-08 6.23471186104436e-09 4.26986807070508e-08 1.42111187143717e-07 7.98004372173866e-09 7.50232507541061e-08 1.06760690272415e-07 2.41243607688576e-08
"1761" 32360 2.61612521628156e-08 6.23475868450231e-09 4.2682895040977e-08 1.42095047694369e-07 7.98289079077533e-09 7.50062402182396e-08 1.06583455933637e-07 2.41079583223228e-08
"1762" 32361 2.62073647814704e-08 6.23480550796027e-09 4.26671093749031e-08 1.42078908245022e-07 7.985737859812e-09 7.49892296823731e-08 1.0640622159486e-07 2.40915558757881e-08
"1763" 32362 2.62534774001253e-08 6.23485233141822e-09 4.26513237088292e-08 1.42062768795675e-07 7.98858492884867e-09 7.49722191465066e-08 1.06228987256082e-07 2.40751534292534e-08
"1764" 32363 2.62995900187801e-08 6.23489915487618e-09 4.26355380427553e-08 1.42046629346328e-07 7.99143199788534e-09 7.49552086106401e-08 1.06051752917304e-07 2.40587509827186e-08
"1765" 32364 2.62795958047182e-08 6.22311637389503e-09 4.26335870608139e-08 1.42044398962693e-07 7.9301271271548e-09 7.47220344170105e-08 1.04795860374786e-07 2.38372986597405e-08
"1766" 32365 2.62392872759729e-08 6.21930549032905e-09 4.26366447810918e-08 1.42036015476942e-07 7.77978402446427e-09 7.31555458536085e-08 1.03585853884052e-07 2.37322784734616e-08
"1767" 32366 2.61989787472276e-08 6.21549460676306e-09 4.26397025013697e-08 1.42027631991192e-07 7.62944092177373e-09 7.15890572902064e-08 1.02375847393317e-07 2.36272582871826e-08
"1768" 32367 2.61586702184823e-08 6.21168372319708e-09 4.26427602216477e-08 1.42019248505442e-07 7.4790978190832e-09 7.00225687268043e-08 1.01165840902583e-07 2.35222381009037e-08
"1769" 32368 2.6118361689737e-08 6.20787283963109e-09 4.26458179419256e-08 1.42010865019692e-07 7.32875471639267e-09 6.84560801634022e-08 9.99558344118487e-08 2.34172179146247e-08
"1770" 32369 2.60780531609917e-08 6.20406195606511e-09 4.26488756622035e-08 1.42002481533941e-07 7.17841161370213e-09 6.68895916000001e-08 9.87458279211144e-08 2.33121977283457e-08
"1771" 32370 2.60377446322464e-08 6.20025107249912e-09 4.26519333824814e-08 1.41994098048191e-07 7.0280685110116e-09 6.5323103036598e-08 9.753582143038e-08 2.32071775420668e-08
"1772" 32371 2.59974361035011e-08 6.19644018893314e-09 4.26549911027593e-08 1.41985714562441e-07 6.87772540832106e-09 6.3756614473196e-08 9.63258149396456e-08 2.31021573557878e-08
"1773" 32372 2.59571275747558e-08 6.19262930536715e-09 4.26580488230372e-08 1.41977331076691e-07 6.72738230563053e-09 6.21901259097939e-08 9.51158084489113e-08 2.29971371695088e-08
"1774" 32373 2.59168190460105e-08 6.18881842180117e-09 4.26611065433151e-08 1.4196894759094e-07 6.57703920294e-09 6.06236373463918e-08 9.39058019581769e-08 2.28921169832299e-08
"1775" 32374 2.58765105172652e-08 6.18500753823518e-09 4.2664164263593e-08 1.4196056410519e-07 6.42669610024946e-09 5.90571487829897e-08 9.26957954674425e-08 2.27870967969509e-08
"1776" 32375 2.58362019885199e-08 6.1811966546692e-09 4.26672219838709e-08 1.4195218061944e-07 6.27635299755893e-09 5.74906602195876e-08 9.14857889767081e-08 2.2682076610672e-08
"1777" 32376 2.57958934597746e-08 6.17738577110321e-09 4.26702797041489e-08 1.4194379713369e-07 6.1260098948684e-09 5.59241716561856e-08 9.02757824859738e-08 2.2577056424393e-08
"1778" 32377 2.57555849310294e-08 6.17357488753723e-09 4.26733374244268e-08 1.41935413647939e-07 5.97566679217786e-09 5.43576830927835e-08 8.90657759952394e-08 2.2472036238114e-08
"1779" 32378 2.57152764022841e-08 6.16976400397124e-09 4.26763951447047e-08 1.41927030162189e-07 5.82532368948733e-09 5.27911945293814e-08 8.7855769504505e-08 2.23670160518351e-08
"1780" 32379 2.56749678735388e-08 6.16595312040526e-09 4.26794528649826e-08 1.41918646676439e-07 5.67498058679680e-09 5.12247059659793e-08 8.66457630137706e-08 2.22619958655561e-08
"1781" 32380 2.56346593447935e-08 6.16214223683927e-09 4.26825105852605e-08 1.41910263190689e-07 5.52463748410626e-09 4.96582174025772e-08 8.54357565230363e-08 2.21569756792772e-08
"1782" 32381 2.5549154047754e-08 6.18276210355628e-09 4.30791463397236e-08 1.4405350105544e-07 5.42049120896349e-09 4.82377270970564e-08 8.4269077931718e-08 2.21192248185498e-08
"1783" 32382 2.54636487507145e-08 6.20338197027329e-09 4.34757820941867e-08 1.4619673892019e-07 5.31634493382072e-09 4.68172367915356e-08 8.31023993403997e-08 2.20814739578225e-08
"1784" 32383 2.5378143453675e-08 6.2240018369903e-09 4.38724178486498e-08 1.48339976784941e-07 5.21219865867796e-09 4.53967464860148e-08 8.19357207490815e-08 2.20437230970952e-08
"1785" 32384 2.52926381566355e-08 6.24462170370731e-09 4.42690536031129e-08 1.50483214649692e-07 5.10805238353519e-09 4.3976256180494e-08 8.07690421577632e-08 2.20059722363678e-08
"1786" 32385 2.52071328595961e-08 6.26524157042432e-09 4.46656893575761e-08 1.52626452514442e-07 5.00390610839242e-09 4.25557658749732e-08 7.9602363566445e-08 2.19682213756405e-08
"1787" 32386 2.51216275625566e-08 6.28586143714133e-09 4.50623251120392e-08 1.54769690379193e-07 4.89975983324965e-09 4.11352755694524e-08 7.84356849751267e-08 2.19304705149132e-08
"1788" 32387 2.51149892781601e-08 6.3083908218714e-09 4.5456163952523e-08 1.56373714661665e-07 4.94851283050094e-09 4.13046901191539e-08 7.79147146884222e-08 2.1989934948527e-08
"1789" 32388 2.51083509937636e-08 6.33092020660148e-09 4.58500027930069e-08 1.57977738944136e-07 4.99726582775224e-09 4.14741046688555e-08 7.73937444017177e-08 2.20493993821408e-08
"1790" 32389 2.51017127093672e-08 6.35344959133155e-09 4.62438416334908e-08 1.59581763226608e-07 5.04601882500353e-09 4.1643519218557e-08 7.68727741150132e-08 2.21088638157547e-08
"1791" 32390 2.50950744249707e-08 6.37597897606163e-09 4.66376804739747e-08 1.61185787509079e-07 5.09477182225483e-09 4.18129337682585e-08 7.63518038283087e-08 2.21683282493685e-08
"1792" 32391 2.50884361405742e-08 6.3985083607917e-09 4.70315193144585e-08 1.62789811791551e-07 5.14352481950612e-09 4.198234831796e-08 7.58308335416042e-08 2.22277926829823e-08
"1793" 32392 2.50817978561778e-08 6.42103774552178e-09 4.74253581549424e-08 1.64393836074022e-07 5.19227781675742e-09 4.21517628676615e-08 7.53098632548997e-08 2.22872571165962e-08
"1794" 32393 2.50751595717813e-08 6.44356713025186e-09 4.78191969954263e-08 1.65997860356493e-07 5.24103081400871e-09 4.2321177417363e-08 7.47888929681952e-08 2.234672155021e-08
"1795" 32394 2.50751595717813e-08 6.44234365918782e-09 4.78451533285683e-08 1.6555659846068e-07 5.2515982356463e-09 4.27574608714766e-08 7.47421622880433e-08 2.23504236045439e-08
"1796" 32395 2.50678504046454e-08 6.44248412956168e-09 4.78978924442758e-08 1.65466766878013e-07 5.25415440534983e-09 4.27651789924491e-08 7.4894324403312e-08 2.24374530540275e-08
"1797" 32396 2.50605412375095e-08 6.44262459993554e-09 4.79506315599833e-08 1.65376935295347e-07 5.25671057505336e-09 4.27728971134216e-08 7.50464865185807e-08 2.2524482503511e-08
"1798" 32397 2.50532320703736e-08 6.44276507030941e-09 4.80033706756908e-08 1.6528710371268e-07 5.25926674475689e-09 4.2780615234394e-08 7.51986486338494e-08 2.26115119529945e-08
"1799" 32398 2.50459229032377e-08 6.44290554068327e-09 4.80561097913983e-08 1.65197272130013e-07 5.26182291446042e-09 4.27883333553665e-08 7.53508107491181e-08 2.2698541402478e-08
"1800" 32399 2.50386137361019e-08 6.44304601105714e-09 4.81088489071058e-08 1.65107440547346e-07 5.26437908416395e-09 4.27960514763389e-08 7.55029728643869e-08 2.27855708519615e-08
"1801" 32400 2.5028230394389e-08 6.43900916266153e-09 4.81590502266998e-08 1.65469669520483e-07 5.25953700265845e-09 4.2769511701364e-08 7.59569866518673e-08 2.28845495945009e-08
"1802" 32401 2.49356808285856e-08 6.42926821760716e-09 4.80727904853361e-08 1.6551274123529e-07 5.26305947653765e-09 4.27472014960456e-08 7.65222998894392e-08 2.29108024128371e-08
"1803" 32402 2.48431312627821e-08 6.4195272725528e-09 4.79865307439723e-08 1.65555812950096e-07 5.26658195041684e-09 4.27248912907272e-08 7.70876131270111e-08 2.29370552311734e-08
"1804" 32403 2.47505816969787e-08 6.40978632749843e-09 4.79002710026085e-08 1.65598884664903e-07 5.27010442429604e-09 4.27025810854088e-08 7.76529263645829e-08 2.29633080495097e-08
"1805" 32404 2.46580321311753e-08 6.40004538244407e-09 4.78140112612448e-08 1.65641956379709e-07 5.27362689817524e-09 4.26802708800904e-08 7.82182396021548e-08 2.29895608678459e-08
"1806" 32405 2.45654825653719e-08 6.3903044373897e-09 4.7727751519881e-08 1.65685028094515e-07 5.27714937205443e-09 4.2657960674772e-08 7.87835528397267e-08 2.30158136861822e-08
"1807" 32406 2.44729329995685e-08 6.38056349233534e-09 4.76414917785172e-08 1.65728099809322e-07 5.28067184593363e-09 4.26356504694535e-08 7.93488660772986e-08 2.30420665045184e-08
"1808" 32407 2.43803834337651e-08 6.37082254728097e-09 4.75552320371535e-08 1.65771171524128e-07 5.28419431981282e-09 4.26133402641351e-08 7.99141793148705e-08 2.30683193228547e-08
"1809" 32408 2.42878338679617e-08 6.36108160222661e-09 4.74689722957897e-08 1.65814243238935e-07 5.28771679369202e-09 4.25910300588167e-08 8.04794925524423e-08 2.30945721411909e-08
"1810" 32409 2.41952843021583e-08 6.35134065717224e-09 4.73827125544259e-08 1.65857314953741e-07 5.29123926757122e-09 4.25687198534983e-08 8.10448057900142e-08 2.31208249595272e-08
"1811" 32410 2.41027347363548e-08 6.34159971211788e-09 4.72964528130621e-08 1.65900386668547e-07 5.29476174145041e-09 4.25464096481799e-08 8.16101190275861e-08 2.31470777778634e-08
"1812" 32411 2.40101851705514e-08 6.33185876706351e-09 4.72101930716984e-08 1.65943458383354e-07 5.29828421532961e-09 4.25240994428614e-08 8.2175432265158e-08 2.31733305961997e-08
"1813" 32412 2.3917635604748e-08 6.32211782200915e-09 4.71239333303346e-08 1.6598653009816e-07 5.30180668920881e-09 4.2501789237543e-08 8.27407455027298e-08 2.31995834145359e-08
"1814" 32413 2.38250860389446e-08 6.31237687695478e-09 4.70376735889708e-08 1.66029601812966e-07 5.305329163088e-09 4.24794790322246e-08 8.33060587403017e-08 2.32258362328722e-08
"1815" 32414 2.37325364731412e-08 6.30263593190042e-09 4.69514138476071e-08 1.66072673527773e-07 5.3088516369672e-09 4.24571688269062e-08 8.38713719778736e-08 2.32520890512085e-08
"1816" 32415 2.36979503784317e-08 6.29162469232406e-09 4.68210030256304e-08 1.65754076485138e-07 5.30981794114286e-09 4.25484128221621e-08 8.47081773342889e-08 2.33121709895439e-08
"1817" 32416 2.36885557250785e-08 6.2806134527477e-09 4.67207129954102e-08 1.65347766200332e-07 5.31334041502206e-09 4.27707841188754e-08 8.45872384759746e-08 2.33962702655955e-08
"1818" 32417 2.36791610717253e-08 6.26960221317134e-09 4.662042296519e-08 1.64941455915526e-07 5.31686288890126e-09 4.29931554155887e-08 8.44662996176603e-08 2.34803695416471e-08
"1819" 32418 2.36697664183721e-08 6.25859097359498e-09 4.65201329349697e-08 1.6453514563072e-07 5.32038536278045e-09 4.3215526712302e-08 8.43453607593461e-08 2.35644688176986e-08
"1820" 32419 2.3660371765019e-08 6.24757973401862e-09 4.64198429047495e-08 1.64128835345914e-07 5.32390783665965e-09 4.34378980090153e-08 8.42244219010318e-08 2.36485680937502e-08
"1821" 32420 2.36509771116658e-08 6.23656849444226e-09 4.63195528745293e-08 1.63722525061108e-07 5.32743031053885e-09 4.36602693057285e-08 8.41034830427175e-08 2.37326673698018e-08
"1822" 32421 2.36415824583126e-08 6.2255572548659e-09 4.6219262844309e-08 1.63316214776302e-07 5.33095278441804e-09 4.38826406024418e-08 8.39825441844033e-08 2.38167666458534e-08
"1823" 32422 2.36415824583126e-08 6.14538216844914e-09 4.61174079762967e-08 1.63264467780139e-07 5.3287811202239e-09 4.41064525081208e-08 8.37820739626333e-08 2.39671644619175e-08
"1824" 32423 2.36642425675827e-08 6.14253012011976e-09 4.61043557110603e-08 1.62523191476063e-07 5.30150570907125e-09 4.43167227655697e-08 8.35107486048292e-08 2.41201540134149e-08
"1825" 32424 2.36869026768528e-08 6.13967807179039e-09 4.60913034458239e-08 1.61781915171988e-07 5.2742302979186e-09 4.45269930230186e-08 8.32394232470251e-08 2.42731435649124e-08
"1826" 32425 2.3709562786123e-08 6.13682602346101e-09 4.60782511805875e-08 1.61040638867912e-07 5.24695488676596e-09 4.47372632804675e-08 8.29680978892211e-08 2.44261331164098e-08
"1827" 32426 2.37322228953931e-08 6.13397397513163e-09 4.6065198915351e-08 1.60299362563837e-07 5.21967947561331e-09 4.49475335379164e-08 8.2696772531417e-08 2.45791226679073e-08
"1828" 32427 2.37548830046632e-08 6.13112192680226e-09 4.60521466501146e-08 1.59558086259761e-07 5.19240406446066e-09 4.51578037953653e-08 8.2425447173613e-08 2.47321122194048e-08
"1829" 32428 2.37775431139333e-08 6.12826987847288e-09 4.60390943848782e-08 1.58816809955685e-07 5.16512865330801e-09 4.53680740528142e-08 8.21541218158089e-08 2.48851017709022e-08
"1830" 32429 2.38002032232035e-08 6.1254178301435e-09 4.60260421196418e-08 1.5807553365161e-07 5.13785324215537e-09 4.55783443102631e-08 8.18827964580049e-08 2.50380913223997e-08
"1831" 32430 2.38228633324736e-08 6.12256578181412e-09 4.60129898544054e-08 1.57334257347534e-07 5.11057783100272e-09 4.5788614567712e-08 8.16114711002008e-08 2.51910808738971e-08
"1832" 32431 2.38455234417437e-08 6.11971373348475e-09 4.59999375891689e-08 1.56592981043458e-07 5.08330241985007e-09 4.59988848251609e-08 8.13401457423968e-08 2.53440704253946e-08
"1833" 32432 2.38681835510138e-08 6.11686168515537e-09 4.59868853239325e-08 1.55851704739383e-07 5.05602700869743e-09 4.62091550826098e-08 8.10688203845927e-08 2.5497059976892e-08
"1834" 32433 2.3890843660284e-08 6.11400963682599e-09 4.59738330586961e-08 1.55110428435307e-07 5.02875159754478e-09 4.64194253400587e-08 8.07974950267887e-08 2.56500495283895e-08
"1835" 32434 2.39135037695541e-08 6.11115758849662e-09 4.59607807934597e-08 1.54369152131232e-07 5.00147618639213e-09 4.66296955975076e-08 8.05261696689846e-08 2.58030390798869e-08
"1836" 32435 2.39361638788242e-08 6.10830554016724e-09 4.59477285282232e-08 1.53627875827156e-07 4.97420077523949e-09 4.68399658549565e-08 8.02548443111806e-08 2.59560286313844e-08
"1837" 32436 2.39588239880944e-08 6.10545349183786e-09 4.59346762629868e-08 1.5288659952308e-07 4.94692536408684e-09 4.70502361124054e-08 7.99835189533765e-08 2.61090181828818e-08
"1838" 32437 2.39814840973645e-08 6.10260144350848e-09 4.59216239977504e-08 1.52145323219005e-07 4.91964995293419e-09 4.72605063698543e-08 7.97121935955725e-08 2.62620077343793e-08
"1839" 32438 2.39209892941844e-08 6.12387683863686e-09 4.60624273278652e-08 1.52512119158672e-07 4.95135221784696e-09 4.73185707304717e-08 7.98471399556891e-08 2.62738234330118e-08
"1840" 32439 2.38604944910043e-08 6.14515223376524e-09 4.62032306579799e-08 1.5287891509834e-07 4.98305448275973e-09 4.73766350910891e-08 7.99820863158058e-08 2.62856391316444e-08
"1841" 32440 2.37999996878242e-08 6.16642762889362e-09 4.63440339880947e-08 1.53245711038007e-07 5.01475674767249e-09 4.74346994517065e-08 8.01170326759225e-08 2.6297454830277e-08
"1842" 32441 2.37395048846441e-08 6.18770302402200e-09 4.64848373182094e-08 1.53612506977674e-07 5.04645901258526e-09 4.74927638123239e-08 8.02519790360391e-08 2.63092705289095e-08
"1843" 32442 2.3679010081464e-08 6.20897841915037e-09 4.66256406483242e-08 1.53979302917342e-07 5.07816127749802e-09 4.75508281729413e-08 8.03869253961558e-08 2.63210862275421e-08
"1844" 32443 2.36185152782839e-08 6.23025381427875e-09 4.67664439784389e-08 1.54346098857009e-07 5.10986354241079e-09 4.76088925335587e-08 8.05218717562724e-08 2.63329019261747e-08
"1845" 32444 2.3608131936571e-08 6.25542558742887e-09 4.6960721435764e-08 1.55424526021568e-07 5.1723636923554e-09 4.7638996173915e-08 8.07120385856639e-08 2.63287011187235e-08
"1846" 32445 2.35977485948581e-08 6.280597360579e-09 4.71549988930891e-08 1.56502953186126e-07 5.23486384230001e-09 4.76690998142714e-08 8.09022054150554e-08 2.63245003112723e-08
"1847" 32446 2.35873652531452e-08 6.30576913372912e-09 4.73492763504142e-08 1.57581380350685e-07 5.29736399224462e-09 4.76992034546278e-08 8.10923722444468e-08 2.63202995038212e-08
"1848" 32447 2.35769819114323e-08 6.33094090687925e-09 4.75435538077392e-08 1.58659807515243e-07 5.35986414218923e-09 4.77293070949841e-08 8.12825390738383e-08 2.631609869637e-08
"1849" 32448 2.35665985697195e-08 6.35611268002937e-09 4.77378312650643e-08 1.59738234679802e-07 5.42236429213384e-09 4.77594107353405e-08 8.14727059032298e-08 2.63118978889189e-08
"1850" 32449 2.35562152280066e-08 6.38128445317949e-09 4.79321087223894e-08 1.6081666184436e-07 5.48486444207845e-09 4.77895143756969e-08 8.16628727326212e-08 2.63076970814677e-08
"1851" 32450 2.35458318862937e-08 6.40645622632962e-09 4.81263861797145e-08 1.61895089008919e-07 5.54736459202306e-09 4.78196180160533e-08 8.18530395620127e-08 2.63034962740165e-08
"1852" 32451 2.36482836764422e-08 6.4482965122569e-09 4.81330215444348e-08 1.62526712374675e-07 5.59027800153444e-09 4.77507093308043e-08 8.22025916542639e-08 2.64282112740136e-08
"1853" 32452 2.37768538711837e-08 6.47872860486667e-09 4.81400481186031e-08 1.62484985177539e-07 5.59669938794064e-09 4.77092069623132e-08 8.21335128990092e-08 2.64638899341819e-08
"1854" 32453 2.39054240659252e-08 6.50916069747645e-09 4.81470746927714e-08 1.62443257980402e-07 5.60312077434683e-09 4.7667704593822e-08 8.20644341437546e-08 2.64995685943502e-08
"1855" 32454 2.40339942606667e-08 6.53959279008622e-09 4.81541012669397e-08 1.62401530783265e-07 5.60954216075303e-09 4.76262022253309e-08 8.19953553884999e-08 2.65352472545185e-08
"1856" 32455 2.41336455924849e-08 6.56367341008602e-09 4.81508267708905e-08 1.62397832151064e-07 5.60954216075303e-09 4.76189604732917e-08 8.21767318650808e-08 2.65788287764719e-08
"1857" 32456 2.42686002861269e-08 6.59315481991934e-09 4.81353882837373e-08 1.62143154098776e-07 5.60759899177453e-09 4.7644686636365e-08 8.20346508484578e-08 2.66340716208775e-08
"1858" 32457 2.44035549797689e-08 6.62263622975265e-09 4.8119949796584e-08 1.61888476046489e-07 5.60565582279603e-09 4.76704127994384e-08 8.18925698318347e-08 2.6689314465283e-08
"1859" 32458 2.45385096734109e-08 6.65211763958597e-09 4.81045113094307e-08 1.61633797994202e-07 5.60371265381753e-09 4.76961389625118e-08 8.17504888152116e-08 2.67445573096886e-08
"1860" 32459 2.46734643670529e-08 6.68159904941928e-09 4.80890728222775e-08 1.61379119941915e-07 5.60176948483903e-09 4.77218651255852e-08 8.16084077985885e-08 2.67998001540942e-08
"1861" 32460 2.48084190606949e-08 6.7110804592526e-09 4.80736343351242e-08 1.61124441889628e-07 5.59982631586053e-09 4.77475912886585e-08 8.14663267819654e-08 2.68550429984997e-08
"1862" 32461 2.49433737543369e-08 6.74056186908592e-09 4.80581958479709e-08 1.6086976383734e-07 5.59788314688203e-09 4.77733174517319e-08 8.13242457653423e-08 2.69102858429053e-08
"1863" 32462 2.50783284479789e-08 6.77004327891923e-09 4.80427573608177e-08 1.60615085785053e-07 5.59593997790353e-09 4.77990436148053e-08 8.11821647487192e-08 2.69655286873109e-08
"1864" 32463 2.52132831416209e-08 6.79952468875255e-09 4.80273188736644e-08 1.60360407732766e-07 5.59399680892503e-09 4.78247697778787e-08 8.10400837320961e-08 2.70207715317164e-08
"1865" 32464 2.53482378352629e-08 6.82900609858586e-09 4.80118803865111e-08 1.60105729680479e-07 5.59205363994653e-09 4.7850495940952e-08 8.0898002715473e-08 2.7076014376122e-08
"1866" 32465 2.54831925289049e-08 6.85848750841918e-09 4.79964418993579e-08 1.59851051628192e-07 5.59011047096804e-09 4.78762221040254e-08 8.07559216988499e-08 2.71312572205276e-08
"1867" 32466 2.56181472225469e-08 6.88796891825249e-09 4.79810034122046e-08 1.59596373575905e-07 5.58816730198954e-09 4.79019482670988e-08 8.06138406822268e-08 2.71865000649331e-08
"1868" 32467 2.57531019161889e-08 6.91745032808581e-09 4.79655649250513e-08 1.59341695523617e-07 5.58622413301104e-09 4.79276744301722e-08 8.04717596656037e-08 2.72417429093387e-08
"1869" 32468 2.58880566098309e-08 6.94693173791912e-09 4.79501264378981e-08 1.5908701747133e-07 5.58428096403254e-09 4.79534005932455e-08 8.03296786489806e-08 2.72969857537443e-08
"1870" 32469 2.60230113034729e-08 6.97641314775244e-09 4.79346879507448e-08 1.58832339419043e-07 5.58233779505404e-09 4.79791267563189e-08 8.01875976323575e-08 2.73522285981499e-08
"1871" 32470 2.61579659971149e-08 7.00589455758576e-09 4.79192494635915e-08 1.58577661366756e-07 5.58039462607554e-09 4.80048529193923e-08 8.00455166157344e-08 2.74074714425554e-08
"1872" 32471 2.62929206907569e-08 7.03537596741907e-09 4.79038109764383e-08 1.58322983314469e-07 5.57845145709704e-09 4.80305790824657e-08 7.99034355991113e-08 2.7462714286961e-08
"1873" 32472 2.64278753843989e-08 7.06485737725239e-09 4.7888372489285e-08 1.58068305262181e-07 5.57650828811854e-09 4.8056305245539e-08 7.97613545824882e-08 2.75179571313666e-08
"1874" 32473 2.6424547424326e-08 7.08389549016201e-09 4.79837418783407e-08 1.57815594211578e-07 5.59734167143341e-09 4.80546250918545e-08 7.9565595432506e-08 2.75200293319256e-08
"1875" 32474 2.6421219464253e-08 7.10293360307164e-09 4.80791112673964e-08 1.57562883160975e-07 5.61817505474828e-09 4.805294493817e-08 7.93698362825238e-08 2.75221015324846e-08
"1876" 32475 2.64178915041801e-08 7.12197171598127e-09 4.81744806564522e-08 1.57310172110372e-07 5.63900843806315e-09 4.80512647844855e-08 7.91740771325415e-08 2.75241737330436e-08
"1877" 32476 2.64145635441071e-08 7.14100982889089e-09 4.82698500455079e-08 1.57057461059769e-07 5.65984182137802e-09 4.8049584630801e-08 7.89783179825593e-08 2.75262459336027e-08
"1878" 32477 2.64154793944678e-08 7.15691495272341e-09 4.83535296486637e-08 1.57003343626047e-07 5.68067520469289e-09 4.78438058719114e-08 7.85843066820092e-08 2.73199996462878e-08
"1879" 32478 2.64163952448285e-08 7.17282007655593e-09 4.84372092518195e-08 1.56949226192326e-07 5.70150858800776e-09 4.76380271130219e-08 7.81902953814592e-08 2.71137533589729e-08
"1880" 32479 2.64173110951891e-08 7.18872520038845e-09 4.85208888549753e-08 1.56895108758605e-07 5.72234197132263e-09 4.74322483541323e-08 7.77962840809091e-08 2.6907507071658e-08
"1881" 32480 2.64182269455498e-08 7.20463032422097e-09 4.86045684581311e-08 1.56840991324883e-07 5.7431753546375e-09 4.72264695952427e-08 7.7402272780359e-08 2.67012607843432e-08
"1882" 32481 2.64191427959104e-08 7.22053544805349e-09 4.86882480612869e-08 1.56786873891162e-07 5.76400873795237e-09 4.70206908363532e-08 7.7008261479809e-08 2.64950144970283e-08
"1883" 32482 2.64200586462711e-08 7.23644057188601e-09 4.87719276644427e-08 1.5673275645744e-07 5.78484212126724e-09 4.68149120774636e-08 7.66142501792589e-08 2.62887682097134e-08
"1884" 32483 2.64209744966318e-08 7.25234569571853e-09 4.88556072675985e-08 1.56678639023719e-07 5.80567550458211e-09 4.6609133318574e-08 7.62202388787089e-08 2.60825219223985e-08
"1885" 32484 2.64218903469924e-08 7.26825081955105e-09 4.89392868707543e-08 1.56624521589997e-07 5.82650888789698e-09 4.64033545596845e-08 7.58262275781588e-08 2.58762756350837e-08
"1886" 32485 2.64228061973531e-08 7.28415594338357e-09 4.90229664739101e-08 1.56570404156276e-07 5.84734227121185e-09 4.61975758007949e-08 7.54322162776087e-08 2.56700293477688e-08
"1887" 32486 2.64237220477138e-08 7.30006106721609e-09 4.91066460770659e-08 1.56516286722554e-07 5.86817565452672e-09 4.59917970419053e-08 7.50382049770587e-08 2.54637830604539e-08
"1888" 32487 2.64246378980744e-08 7.31596619104861e-09 4.91903256802217e-08 1.56462169288833e-07 5.88900903784159e-09 4.57860182830158e-08 7.46441936765086e-08 2.5257536773139e-08
"1889" 32488 2.64255537484351e-08 7.33187131488113e-09 4.92740052833775e-08 1.56408051855112e-07 5.90984242115646e-09 4.55802395241262e-08 7.42501823759585e-08 2.50512904858242e-08
"1890" 32489 2.64264695987958e-08 7.34777643871365e-09 4.93576848865333e-08 1.5635393442139e-07 5.93067580447133e-09 4.53744607652366e-08 7.38561710754085e-08 2.48450441985093e-08
"1891" 32490 2.64273854491564e-08 7.36368156254617e-09 4.94413644896891e-08 1.56299816987669e-07 5.9515091877862e-09 4.51686820063471e-08 7.34621597748584e-08 2.46387979111944e-08
"1892" 32491 2.64283012995171e-08 7.37958668637869e-09 4.95250440928449e-08 1.56245699553947e-07 5.97234257110107e-09 4.49629032474575e-08 7.30681484743084e-08 2.44325516238795e-08
"1893" 32492 2.64292171498778e-08 7.39549181021121e-09 4.96087236960007e-08 1.56191582120226e-07 5.99317595441594e-09 4.4757124488568e-08 7.26741371737583e-08 2.42263053365647e-08
"1894" 32493 2.64301330002384e-08 7.41139693404373e-09 4.96924032991565e-08 1.56137464686505e-07 6.01400933773081e-09 4.45513457296784e-08 7.22801258732082e-08 2.40200590492498e-08
"1895" 32494 2.64310488505991e-08 7.42730205787625e-09 4.97760829023124e-08 1.56083347252783e-07 6.03484272104568e-09 4.43455669707888e-08 7.18861145726582e-08 2.38138127619349e-08
"1896" 32495 2.64319647009598e-08 7.44320718170877e-09 4.98597625054682e-08 1.56029229819062e-07 6.05567610436055e-09 4.41397882118993e-08 7.14921032721081e-08 2.360756647462e-08
"1897" 32496 2.64369434142571e-08 7.4412976636957e-09 4.98236778473525e-08 1.55981971600954e-07 6.06251319833488e-09 4.39890534697309e-08 7.13638813064653e-08 2.34031044172605e-08
"1898" 32497 2.64419221275545e-08 7.43938814568264e-09 4.97875931892368e-08 1.55934713382846e-07 6.0693502923092e-09 4.38383187275625e-08 7.12356593408225e-08 2.31986423599009e-08
"1899" 32498 2.6330309538798e-08 7.43938814568264e-09 4.97758187191479e-08 1.55880158658586e-07 6.07813055526203e-09 4.38587146754865e-08 7.15966220300317e-08 2.24229031397641e-08
"1900" 32499 2.62424937186707e-08 7.41164526495087e-09 4.95217171241039e-08 1.55634306823597e-07 6.05230964077509e-09 4.38745132650883e-08 7.18259811801226e-08 2.24210060971426e-08
"1901" 32500 2.61546778985434e-08 7.38390238421910e-09 4.92676155290599e-08 1.55388454988608e-07 6.02648872628815e-09 4.389031185469e-08 7.20553403302134e-08 2.2419109054521e-08
"1902" 32501 2.60668620784161e-08 7.35615950348732e-09 4.90135139340159e-08 1.55142603153618e-07 6.00066781180121e-09 4.39061104442918e-08 7.22846994803043e-08 2.24172120118995e-08
"1903" 32502 2.59790462582888e-08 7.32841662275555e-09 4.87594123389719e-08 1.54896751318629e-07 5.97484689731427e-09 4.39219090338936e-08 7.25140586303951e-08 2.2415314969278e-08
"1904" 32503 2.58912304381615e-08 7.30067374202378e-09 4.85053107439279e-08 1.5465089948364e-07 5.94902598282733e-09 4.39377076234953e-08 7.2743417780486e-08 2.24134179266565e-08
"1905" 32504 2.58034146180342e-08 7.27293086129201e-09 4.82512091488839e-08 1.5440504764865e-07 5.92320506834039e-09 4.39535062130971e-08 7.29727769305769e-08 2.24115208840349e-08
"1906" 32505 2.57155987979069e-08 7.24518798056024e-09 4.79971075538399e-08 1.54159195813661e-07 5.89738415385345e-09 4.39693048026989e-08 7.32021360806678e-08 2.24096238414134e-08
"1907" 32506 2.56277829777796e-08 7.21744509982847e-09 4.7743005958796e-08 1.53913343978672e-07 5.87156323936651e-09 4.39851033923006e-08 7.34314952307586e-08 2.24077267987919e-08
"1908" 32507 2.55399671576523e-08 7.1897022190967e-09 4.7488904363752e-08 1.53667492143682e-07 5.84574232487957e-09 4.40009019819024e-08 7.36608543808495e-08 2.24058297561704e-08
"1909" 32508 2.5452151337525e-08 7.16195933836492e-09 4.7234802768708e-08 1.53421640308693e-07 5.81992141039263e-09 4.40167005715041e-08 7.38902135309403e-08 2.24039327135489e-08
"1910" 32509 2.54985553081759e-08 7.19625729045879e-09 4.70911440767709e-08 1.53921861271597e-07 5.79826717256867e-09 4.39757220608187e-08 7.37321336620895e-08 2.2439534185627e-08
"1911" 32510 2.54226455427373e-08 7.21489029716712e-09 4.69796841848152e-08 1.53822458062461e-07 5.76979648220195e-09 4.40328696702761e-08 7.3638895360519e-08 2.24829108640051e-08
"1912" 32511 2.53467357772986e-08 7.23352330387545e-09 4.68682242928595e-08 1.53723054853325e-07 5.74132579183524e-09 4.40900172797336e-08 7.35456570589485e-08 2.25262875423832e-08
"1913" 32512 2.527082601186e-08 7.25215631058378e-09 4.67567644009038e-08 1.53623651644189e-07 5.71285510146853e-09 4.4147164889191e-08 7.3452418757378e-08 2.25696642207613e-08
"1914" 32513 2.52615130143805e-08 7.29158832538079e-09 4.67889632008852e-08 1.53437247150259e-07 5.71971283687444e-09 4.42291219105618e-08 7.33460395546343e-08 2.25836352469813e-08
"1915" 32514 2.52770736526371e-08 7.30394720147475e-09 4.66911601825195e-08 1.53492726633288e-07 5.73129840617802e-09 4.41572817980044e-08 7.32488463185598e-08 2.25763647327367e-08
"1916" 32515 2.52926342908937e-08 7.31630607756872e-09 4.65933571641537e-08 1.53548206116316e-07 5.74288397548161e-09 4.40854416854471e-08 7.31516530824853e-08 2.25690942184921e-08
"1917" 32516 2.53081949291503e-08 7.32866495366269e-09 4.64955541457879e-08 1.53603685599344e-07 5.75446954478519e-09 4.40136015728897e-08 7.30544598464109e-08 2.25618237042475e-08
"1918" 32517 2.5323755567407e-08 7.34102382975666e-09 4.63977511274222e-08 1.53659165082372e-07 5.76605511408877e-09 4.39417614603323e-08 7.29572666103364e-08 2.25545531900029e-08
"1919" 32518 2.53393162056636e-08 7.35338270585062e-09 4.62999481090564e-08 1.537146445654e-07 5.77764068339236e-09 4.3869921347775e-08 7.28600733742619e-08 2.25472826757583e-08
"1920" 32519 2.53548768439202e-08 7.36574158194459e-09 4.62021450906907e-08 1.53770124048428e-07 5.78922625269594e-09 4.37980812352176e-08 7.27628801381874e-08 2.25400121615137e-08
"1921" 32520 2.53704374821768e-08 7.37810045803856e-09 4.61043420723249e-08 1.53825603531456e-07 5.80081182199953e-09 4.37262411226602e-08 7.2665686902113e-08 2.25327416472691e-08
"1922" 32521 2.53859981204334e-08 7.39045933413253e-09 4.60065390539592e-08 1.53881083014484e-07 5.81239739130311e-09 4.36544010101029e-08 7.25684936660385e-08 2.25254711330245e-08
"1923" 32522 2.540155875869e-08 7.40281821022649e-09 4.59087360355934e-08 1.53936562497512e-07 5.82398296060669e-09 4.35825608975455e-08 7.2471300429964e-08 2.25182006187799e-08
"1924" 32523 2.54171193969466e-08 7.41517708632046e-09 4.58109330172276e-08 1.5399204198054e-07 5.83556852991028e-09 4.35107207849881e-08 7.23741071938896e-08 2.25109301045353e-08
"1925" 32524 2.54326800352032e-08 7.42753596241443e-09 4.57131299988619e-08 1.54047521463569e-07 5.84715409921386e-09 4.34388806724308e-08 7.22769139578151e-08 2.25036595902907e-08
"1926" 32525 2.54482406734598e-08 7.4398948385084e-09 4.56153269804961e-08 1.54103000946597e-07 5.85873966851744e-09 4.33670405598734e-08 7.21797207217406e-08 2.24963890760461e-08
"1927" 32526 2.54638013117164e-08 7.45225371460236e-09 4.55175239621304e-08 1.54158480429625e-07 5.87032523782103e-09 4.32952004473161e-08 7.20825274856662e-08 2.24891185618015e-08
"1928" 32527 2.5479361949973e-08 7.46461259069633e-09 4.54197209437646e-08 1.54213959912653e-07 5.88191080712461e-09 4.32233603347587e-08 7.19853342495917e-08 2.24818480475569e-08
"1929" 32528 2.54949225882296e-08 7.4769714667903e-09 4.53219179253988e-08 1.54269439395681e-07 5.8934963764282e-09 4.31515202222013e-08 7.18881410135172e-08 2.24745775333123e-08
"1930" 32529 2.55104832264862e-08 7.48933034288427e-09 4.52241149070331e-08 1.54324918878709e-07 5.90508194573178e-09 4.3079680109644e-08 7.17909477774428e-08 2.24673070190677e-08
"1931" 32530 2.55260438647428e-08 7.45313917769763e-09 4.50400521473036e-08 1.54381098631357e-07 5.90411564155611e-09 4.29131271141943e-08 7.1632078812917e-08 2.24198275030857e-08
"1932" 32531 2.55416045029994e-08 7.416948012511e-09 4.4855989387574e-08 1.54437278384005e-07 5.90314933738045e-09 4.27465741187446e-08 7.14732098483913e-08 2.23723479871037e-08
"1933" 32532 2.55305767321712e-08 7.41667522422342e-09 4.48920952167369e-08 1.54592463350922e-07 5.90247393253792e-09 4.27460502609389e-08 7.09304494344382e-08 2.23451837545039e-08
"1934" 32533 2.53030283833522e-08 7.41644925939379e-09 4.49476312464237e-08 1.54746387429655e-07 5.89410937715323e-09 4.2569750865846e-08 7.09304494344382e-08 2.2297704238522e-08
"1935" 32534 2.50754800345332e-08 7.41622329456417e-09 4.50031672761104e-08 1.54900311508387e-07 5.88574482176853e-09 4.23934514707531e-08 7.09304494344382e-08 2.225022472254e-08
"1936" 32535 2.48479316857142e-08 7.41599732973454e-09 4.50587033057971e-08 1.5505423558712e-07 5.87738026638384e-09 4.22171520756602e-08 7.09304494344382e-08 2.2202745206558e-08
"1937" 32536 2.46203833368952e-08 7.41577136490492e-09 4.51142393354838e-08 1.55208159665852e-07 5.86901571099914e-09 4.20408526805673e-08 7.09304494344382e-08 2.21552656905761e-08
"1938" 32537 2.43928349880762e-08 7.41554540007529e-09 4.51697753651706e-08 1.55362083744584e-07 5.86065115561445e-09 4.18645532854744e-08 7.09304494344382e-08 2.21077861745941e-08
"1939" 32538 2.41652866392572e-08 7.41531943524566e-09 4.52253113948573e-08 1.55516007823317e-07 5.85228660022975e-09 4.16882538903815e-08 7.09304494344382e-08 2.20603066586121e-08
"1940" 32539 2.39377382904382e-08 7.41509347041604e-09 4.5280847424544e-08 1.55669931902049e-07 5.84392204484505e-09 4.15119544952886e-08 7.09304494344382e-08 2.20128271426302e-08
"1941" 32540 2.37101899416192e-08 7.41486750558641e-09 4.53363834542307e-08 1.55823855980782e-07 5.83555748946036e-09 4.13356551001958e-08 7.09304494344382e-08 2.19653476266482e-08
"1942" 32541 2.34826415928002e-08 7.41464154075679e-09 4.53919194839175e-08 1.55977780059514e-07 5.82719293407566e-09 4.11593557051029e-08 7.09304494344382e-08 2.19178681106662e-08
"1943" 32542 2.32550932439812e-08 7.41441557592716e-09 4.54474555136042e-08 1.56131704138246e-07 5.81882837869097e-09 4.098305631001e-08 7.09304494344382e-08 2.18703885946843e-08
"1944" 32543 2.30275448951621e-08 7.41418961109753e-09 4.55029915432909e-08 1.56285628216979e-07 5.81046382330627e-09 4.08067569149171e-08 7.09304494344382e-08 2.18229090787023e-08
"1945" 32544 2.27999965463431e-08 7.41396364626791e-09 4.55585275729776e-08 1.56439552295711e-07 5.80209926792158e-09 4.06304575198242e-08 7.09304494344382e-08 2.17754295627203e-08
"1946" 32545 2.25724481975241e-08 7.41373768143828e-09 4.56140636026644e-08 1.56593476374444e-07 5.79373471253688e-09 4.04541581247313e-08 7.09304494344382e-08 2.17279500467384e-08
"1947" 32546 2.23448998487051e-08 7.41351171660866e-09 4.56695996323511e-08 1.56747400453176e-07 5.78537015715219e-09 4.02778587296384e-08 7.09304494344382e-08 2.16804705307564e-08
"1948" 32547 2.21173514998861e-08 7.41328575177903e-09 4.57251356620378e-08 1.56901324531908e-07 5.77700560176749e-09 4.01015593345455e-08 7.09304494344382e-08 2.16329910147744e-08
"1949" 32548 2.18898031510671e-08 7.4130597869494e-09 4.57806716917245e-08 1.57055248610641e-07 5.7686410463828e-09 3.99252599394526e-08 7.09304494344382e-08 2.15855114987925e-08
"1950" 32549 2.16622548022481e-08 7.41283382211978e-09 4.58362077214112e-08 1.57209172689373e-07 5.7602764909981e-09 3.97489605443597e-08 7.09304494344382e-08 2.15380319828105e-08
"1951" 32550 2.14347064534291e-08 7.41260785729015e-09 4.5891743751098e-08 1.57363096768106e-07 5.7519119356134e-09 3.95726611492669e-08 7.09304494344382e-08 2.14905524668285e-08
"1952" 32551 2.12071581046101e-08 7.41238189246053e-09 4.59472797807847e-08 1.57517020846838e-07 5.74354738022871e-09 3.9396361754174e-08 7.09304494344382e-08 2.14430729508466e-08
"1953" 32552 2.09796097557911e-08 7.4121559276309e-09 4.60028158104714e-08 1.5767094492557e-07 5.73518282484401e-09 3.92200623590811e-08 7.09304494344382e-08 2.13955934348646e-08
"1954" 32553 2.07365007687155e-08 7.43234016960895e-09 4.60443215513017e-08 1.57724978326937e-07 5.72681826945932e-09 3.90442868217939e-08 7.0918762378096e-08 2.1339192769106e-08
"1955" 32554 2.04933917816398e-08 7.45252441158701e-09 4.60858272921319e-08 1.57779011728304e-07 5.71845371407462e-09 3.88685112845067e-08 7.09070753217538e-08 2.12827921033474e-08
"1956" 32555 2.02502827945642e-08 7.47270865356506e-09 4.61273330329622e-08 1.57833045129672e-07 5.71008915868993e-09 3.86927357472195e-08 7.08953882654116e-08 2.12263914375888e-08
"1957" 32556 2.02502827945642e-08 7.39383647151089e-09 4.5572745802974e-08 1.56836659326649e-07 5.65306521223018e-09 3.84705843315455e-08 7.02681440472645e-08 2.11840330472022e-08
"1958" 32557 2.02502827945642e-08 7.31496428945673e-09 4.50181585729857e-08 1.55840273523626e-07 5.59604126577043e-09 3.82484329158715e-08 6.96408998291173e-08 2.11416746568156e-08
"1959" 32558 2.02502827945642e-08 7.23609210740256e-09 4.44635713429975e-08 1.54843887720604e-07 5.53901731931068e-09 3.80262815001975e-08 6.90136556109702e-08 2.1099316266429e-08
"1960" 32559 2.02502827945642e-08 7.15721992534839e-09 4.39089841130093e-08 1.53847501917581e-07 5.48199337285094e-09 3.78041300845234e-08 6.8386411392823e-08 2.10569578760424e-08
"1961" 32560 2.02502827945642e-08 7.07834774329423e-09 4.3354396883021e-08 1.52851116114559e-07 5.42496942639119e-09 3.75819786688494e-08 6.77591671746758e-08 2.10145994856558e-08
"1962" 32561 2.02502827945642e-08 6.99947556124006e-09 4.27998096530328e-08 1.51854730311536e-07 5.36794547993144e-09 3.73598272531754e-08 6.71319229565287e-08 2.09722410952692e-08
"1963" 32562 2.02502827945642e-08 6.92060337918589e-09 4.22452224230446e-08 1.50858344508514e-07 5.31092153347169e-09 3.71376758375013e-08 6.65046787383815e-08 2.09298827048826e-08
"1964" 32563 2.02502827945642e-08 6.84173119713172e-09 4.16906351930563e-08 1.49861958705491e-07 5.25389758701195e-09 3.69155244218273e-08 6.58774345202344e-08 2.0887524314496e-08
"1965" 32564 2.02502827945642e-08 6.76285901507756e-09 4.11360479630681e-08 1.48865572902469e-07 5.1968736405522e-09 3.66933730061533e-08 6.52501903020872e-08 2.08451659241094e-08
"1966" 32565 2.02502827945642e-08 6.68398683302339e-09 4.05814607330799e-08 1.47869187099446e-07 5.13984969409245e-09 3.64712215904793e-08 6.46229460839401e-08 2.08028075337228e-08
"1967" 32566 2.02489586648348e-08 6.59082179948174e-09 3.99967527113352e-08 1.4736801256125e-07 5.0828257476327e-09 3.6269101054568e-08 6.40015559975941e-08 2.07639968214898e-08
"1968" 32567 2.05092702255167e-08 6.59485864787735e-09 4.00371305427817e-08 1.46906856562318e-07 5.06117150980874e-09 3.62882348468502e-08 6.40644486289697e-08 2.07131032217776e-08
"1969" 32568 2.03576734365087e-08 6.58506272690488e-09 4.00371305427817e-08 1.46964767945483e-07 5.06798796235148e-09 3.60286240175042e-08 6.4173941034892e-08 2.03462435879031e-08
"1970" 32569 2.02060766475006e-08 6.57526680593241e-09 4.00371305427817e-08 1.47022679328649e-07 5.07480441489423e-09 3.57690131881582e-08 6.42834334408142e-08 1.99793839540287e-08
"1971" 32570 2.00544798584926e-08 6.56547088495995e-09 4.00371305427817e-08 1.47080590711814e-07 5.08162086743697e-09 3.55094023588122e-08 6.43929258467365e-08 1.96125243201543e-08
"1972" 32571 1.99028830694846e-08 6.55567496398748e-09 4.00371305427817e-08 1.4713850209498e-07 5.08843731997972e-09 3.52497915294662e-08 6.45024182526588e-08 1.92456646862799e-08
"1973" 32572 1.97512862804765e-08 6.54587904301501e-09 4.00371305427817e-08 1.47196413478146e-07 5.09525377252247e-09 3.49901807001202e-08 6.4611910658581e-08 1.88788050524055e-08
"1974" 32573 1.95996894914685e-08 6.53608312204254e-09 4.00371305427817e-08 1.47254324861311e-07 5.10207022506521e-09 3.47305698707742e-08 6.47214030645033e-08 1.85119454185311e-08
"1975" 32574 1.94480927024604e-08 6.52628720107007e-09 4.00371305427817e-08 1.47312236244477e-07 5.10888667760796e-09 3.44709590414281e-08 6.48308954704256e-08 1.81450857846566e-08
"1976" 32575 1.92964959134524e-08 6.5164912800976e-09 4.00371305427817e-08 1.47370147627642e-07 5.1157031301507e-09 3.42113482120821e-08 6.49403878763478e-08 1.77782261507822e-08
"1977" 32576 1.91448991244444e-08 6.50669535912513e-09 4.00371305427817e-08 1.47428059010808e-07 5.12251958269345e-09 3.39517373827361e-08 6.50498802822701e-08 1.74113665169078e-08
"1978" 32577 1.89933023354363e-08 6.49689943815267e-09 4.00371305427817e-08 1.47485970393974e-07 5.1293360352362e-09 3.36921265533901e-08 6.51593726881923e-08 1.70445068830334e-08
"1979" 32578 1.88417055464283e-08 6.4871035171802e-09 4.00371305427817e-08 1.47543881777139e-07 5.13615248777894e-09 3.34325157240441e-08 6.52688650941146e-08 1.6677647249159e-08
"1980" 32579 1.86901087574202e-08 6.47730759620773e-09 4.00371305427817e-08 1.47601793160305e-07 5.14296894032169e-09 3.31729048946981e-08 6.53783575000369e-08 1.63107876152845e-08
"1981" 32580 1.85385119684122e-08 6.46751167523526e-09 4.00371305427817e-08 1.4765970454347e-07 5.14978539286443e-09 3.29132940653521e-08 6.54878499059591e-08 1.59439279814101e-08
"1982" 32581 1.83869151794042e-08 6.45771575426279e-09 4.00371305427817e-08 1.47717615926636e-07 5.15660184540718e-09 3.2653683236006e-08 6.55973423118814e-08 1.55770683475357e-08
"1983" 32582 1.82353183903961e-08 6.44791983329032e-09 4.00371305427817e-08 1.47775527309801e-07 5.16341829794993e-09 3.239407240666e-08 6.57068347178036e-08 1.52102087136613e-08
"1984" 32583 1.80837216013881e-08 6.43812391231786e-09 4.00371305427817e-08 1.47833438692967e-07 5.17023475049267e-09 3.2134461577314e-08 6.58163271237259e-08 1.48433490797869e-08
"1985" 32584 1.793212481238e-08 6.42832799134539e-09 4.00371305427817e-08 1.47891350076133e-07 5.17705120303542e-09 3.1874850747968e-08 6.59258195296482e-08 1.44764894459125e-08
"1986" 32585 1.7780528023372e-08 6.41853207037292e-09 4.00371305427817e-08 1.47949261459298e-07 5.18386765557816e-09 3.1615239918622e-08 6.60353119355704e-08 1.4109629812038e-08
"1987" 32586 1.7628931234364e-08 6.40873614940045e-09 4.00371305427817e-08 1.48007172842464e-07 5.19068410812091e-09 3.1355629089276e-08 6.61448043414927e-08 1.37427701781636e-08
"1988" 32587 1.74773344453559e-08 6.39894022842798e-09 4.00371305427817e-08 1.48065084225629e-07 5.19750056066366e-09 3.109601825993e-08 6.6254296747415e-08 1.33759105442892e-08
"1989" 32588 1.7097028489547e-08 6.38891019016574e-09 3.99828739966753e-08 1.4788695661532e-07 5.18679824998666e-09 3.08626045215816e-08 6.62732530279123e-08 1.29989986599804e-08
"1990" 32589 1.71428585740804e-08 6.39407686270948e-09 3.99708827508151e-08 1.47855714518533e-07 5.19196243288405e-09 3.10898018393181e-08 6.62758528297998e-08 1.31254444485422e-08
"1991" 32590 1.71923432421818e-08 6.38404682444724e-09 3.98494672791297e-08 1.47179551189403e-07 5.21763789770442e-09 3.14231304317612e-08 6.62178416932948e-08 1.3186666391416e-08
"1992" 32591 1.72418279102832e-08 6.37401678618499e-09 3.97280518074442e-08 1.46503387860273e-07 5.24331336252479e-09 3.17564590242043e-08 6.61598305567898e-08 1.32478883342899e-08
"1993" 32592 1.72913125783846e-08 6.36398674792275e-09 3.96066363357587e-08 1.45827224531143e-07 5.26898882734516e-09 3.20897876166474e-08 6.61018194202848e-08 1.33091102771637e-08
"1994" 32593 1.7340797246486e-08 6.35395670966051e-09 3.94852208640733e-08 1.45151061202014e-07 5.29466429216553e-09 3.24231162090906e-08 6.60438082837798e-08 1.33703322200376e-08
"1995" 32594 1.73902819145874e-08 6.34392667139826e-09 3.93638053923878e-08 1.44474897872884e-07 5.3203397569859e-09 3.27564448015337e-08 6.59857971472748e-08 1.34315541629114e-08
"1996" 32595 1.74397665826888e-08 6.33389663313602e-09 3.92423899207024e-08 1.43798734543754e-07 5.34601522180627e-09 3.30897733939768e-08 6.59277860107698e-08 1.34927761057853e-08
"1997" 32596 1.74892512507902e-08 6.32386659487378e-09 3.91209744490169e-08 1.43122571214624e-07 5.37169068662663e-09 3.342310198642e-08 6.58697748742648e-08 1.35539980486591e-08
"1998" 32597 1.75387359188916e-08 6.31383655661153e-09 3.89995589773315e-08 1.42446407885495e-07 5.397366151447e-09 3.37564305788631e-08 6.58117637377598e-08 1.36152199915329e-08
"1999" 32598 1.7588220586993e-08 6.30380651834929e-09 3.8878143505646e-08 1.41770244556365e-07 5.42304161626737e-09 3.40897591713062e-08 6.57537526012548e-08 1.36764419344068e-08
"2000" 32599 1.76377052550944e-08 6.29377648008705e-09 3.87567280339605e-08 1.41094081227235e-07 5.44871708108774e-09 3.44230877637493e-08 6.56957414647498e-08 1.37376638772806e-08
"2001" 32600 1.76871899231958e-08 6.2837464418248e-09 3.86353125622751e-08 1.40417917898105e-07 5.47439254590811e-09 3.47564163561925e-08 6.56377303282448e-08 1.37988858201545e-08
"2002" 32601 1.77366745912972e-08 6.27371640356256e-09 3.85138970905896e-08 1.39741754568976e-07 5.50006801072848e-09 3.50897449486356e-08 6.55797191917398e-08 1.38601077630283e-08
"2003" 32602 1.77861592593986e-08 6.26368636530032e-09 3.83924816189042e-08 1.39065591239846e-07 5.52574347554885e-09 3.54230735410787e-08 6.55217080552348e-08 1.39213297059022e-08
"2004" 32603 1.78356439275e-08 6.25365632703807e-09 3.82710661472187e-08 1.38389427910716e-07 5.55141894036922e-09 3.57564021335218e-08 6.54636969187298e-08 1.3982551648776e-08
"2005" 32604 1.78851285956014e-08 6.24362628877583e-09 3.81496506755333e-08 1.37713264581586e-07 5.57709440518959e-09 3.6089730725965e-08 6.54056857822248e-08 1.40437735916498e-08
"2006" 32605 1.79346132637028e-08 6.23359625051359e-09 3.80282352038478e-08 1.37037101252457e-07 5.60276987000996e-09 3.64230593184081e-08 6.53476746457198e-08 1.41049955345237e-08
"2007" 32606 1.79840979318042e-08 6.22356621225135e-09 3.79068197321624e-08 1.36360937923327e-07 5.62844533483033e-09 3.67563879108512e-08 6.52896635092148e-08 1.41662174773975e-08
"2008" 32607 1.80335825999056e-08 6.2135361739891e-09 3.77854042604769e-08 1.35684774594197e-07 5.65412079965069e-09 3.70897165032943e-08 6.52316523727098e-08 1.42274394202714e-08
"2009" 32608 1.8083067268007e-08 6.20350613572686e-09 3.76639887887914e-08 1.35008611265067e-07 5.67979626447106e-09 3.74230450957375e-08 6.51736412362048e-08 1.42886613631452e-08
"2010" 32609 1.81325519361084e-08 6.19347609746462e-09 3.7542573317106e-08 1.34332447935938e-07 5.70547172929143e-09 3.77563736881806e-08 6.51156300996998e-08 1.43498833060191e-08
"2011" 32610 1.82950285249452e-08 6.18122508190392e-09 3.76754762162358e-08 1.33886120320477e-07 5.7029155595879e-09 3.77322747489103e-08 6.56131801971558e-08 1.43398043348894e-08
"2012" 32611 1.8432631478046e-08 6.17876998731569e-09 3.78391502344358e-08 1.33930901901765e-07 5.69818772569023e-09 3.77322747489103e-08 6.59573724836792e-08 1.43858944652477e-08
"2013" 32612 1.85751403064452e-08 6.15796282676686e-09 3.79125533152872e-08 1.34137133595226e-07 5.69345989179255e-09 3.77300178075386e-08 6.64059138700438e-08 1.44562334975928e-08
"2014" 32613 1.87176491348443e-08 6.13715566621803e-09 3.79859563961385e-08 1.34343365288687e-07 5.68873205789488e-09 3.77277608661669e-08 6.68544552564083e-08 1.45265725299379e-08
"2015" 32614 1.88601579632434e-08 6.1163485056692e-09 3.80593594769899e-08 1.34549596982147e-07 5.6840042239972e-09 3.77255039247952e-08 6.73029966427729e-08 1.4596911562283e-08
"2016" 32615 1.90026667916426e-08 6.09554134512038e-09 3.81327625578413e-08 1.34755828675608e-07 5.67927639009952e-09 3.77232469834236e-08 6.77515380291374e-08 1.4667250594628e-08
"2017" 32616 1.91451756200417e-08 6.07473418457155e-09 3.82061656386926e-08 1.34962060369068e-07 5.67454855620185e-09 3.77209900420519e-08 6.8200079415502e-08 1.47375896269731e-08
"2018" 32617 1.92876844484408e-08 6.05392702402272e-09 3.8279568719544e-08 1.35168292062529e-07 5.66982072230417e-09 3.77187331006802e-08 6.86486208018665e-08 1.48079286593182e-08
"2019" 32618 1.943019327684e-08 6.03311986347389e-09 3.83529718003953e-08 1.3537452375599e-07 5.6650928884065e-09 3.77164761593085e-08 6.90971621882311e-08 1.48782676916633e-08
"2020" 32619 1.95727021052391e-08 6.01231270292506e-09 3.84263748812467e-08 1.3558075544945e-07 5.66036505450882e-09 3.77142192179368e-08 6.95457035745956e-08 1.49486067240084e-08
"2021" 32620 1.97152109336382e-08 5.99150554237623e-09 3.8499777962098e-08 1.35786987142911e-07 5.65563722061114e-09 3.77119622765652e-08 6.99942449609602e-08 1.50189457563534e-08
"2022" 32621 1.98577197620374e-08 5.9706983818274e-09 3.85731810429494e-08 1.35993218836372e-07 5.65090938671347e-09 3.77097053351935e-08 7.04427863473247e-08 1.50892847886985e-08
"2023" 32622 2.00002285904365e-08 5.94989122127858e-09 3.86465841238008e-08 1.36199450529832e-07 5.64618155281579e-09 3.77074483938218e-08 7.08913277336893e-08 1.51596238210436e-08
"2024" 32623 2.00124171792465e-08 5.98865349404686e-09 3.87700140905694e-08 1.36824354733899e-07 5.67128529977429e-09 3.77869842431676e-08 7.09267179977507e-08 1.51672951185581e-08
"2025" 32624 2.00246057680566e-08 6.02741576681514e-09 3.88934440573381e-08 1.37449258937965e-07 5.69638904673279e-09 3.78665200925134e-08 7.09621082618121e-08 1.51749664160726e-08
"2026" 32625 2.00367943568667e-08 6.06617803958342e-09 3.90168740241067e-08 1.38074163142032e-07 5.7214927936913e-09 3.79460559418592e-08 7.09974985258735e-08 1.51826377135871e-08
"2027" 32626 2.00489829456767e-08 6.1049403123517e-09 3.91403039908754e-08 1.38699067346099e-07 5.7465965406498e-09 3.8025591791205e-08 7.10328887899349e-08 1.51903090111016e-08
"2028" 32627 2.00611715344868e-08 6.14370258511998e-09 3.9263733957644e-08 1.39323971550165e-07 5.7717002876083e-09 3.81051276405508e-08 7.10682790539963e-08 1.51979803086161e-08
"2029" 32628 2.00733601232968e-08 6.18246485788826e-09 3.93871639244127e-08 1.39948875754232e-07 5.7968040345668e-09 3.81846634898966e-08 7.11036693180577e-08 1.52056516061306e-08
"2030" 32629 2.00855487121069e-08 6.22122713065654e-09 3.95105938911813e-08 1.40573779958299e-07 5.8219077815253e-09 3.82641993392424e-08 7.11390595821191e-08 1.52133229036451e-08
"2031" 32630 2.00977373009169e-08 6.25998940342482e-09 3.963402385795e-08 1.41198684162365e-07 5.8470115284838e-09 3.83437351885882e-08 7.11744498461804e-08 1.52209942011596e-08
"2032" 32631 2.01598452908213e-08 6.28383590613484e-09 3.96765694471092e-08 1.42785027596586e-07 6.06776138642684e-09 3.85676977223981e-08 7.12359273852021e-08 1.52926454310381e-08
"2033" 32632 2.02219532807256e-08 6.30768240884487e-09 3.97191150362684e-08 1.44371371030807e-07 6.28851124436989e-09 3.87916602562081e-08 7.12974049242238e-08 1.53642966609166e-08
"2034" 32633 2.02219532807256e-08 6.30768240884487e-09 3.93454202367639e-08 1.43987706555648e-07 6.51085096784079e-09 3.88380361345949e-08 7.11784296499882e-08 1.5346264360607e-08
"2035" 32634 2.03051081931758e-08 6.27501303401634e-09 3.91063820251737e-08 1.44502341987e-07 6.70243408914302e-09 3.9044829342894e-08 7.12432536720517e-08 1.54097811644298e-08
"2036" 32635 2.03882631056261e-08 6.24234365918782e-09 3.88673438135836e-08 1.45016977418352e-07 6.89401721044524e-09 3.92516225511931e-08 7.13080776941152e-08 1.54732979682526e-08
"2037" 32636 2.04714180180763e-08 6.20967428435929e-09 3.86283056019934e-08 1.45531612849705e-07 7.08560033174746e-09 3.94584157594921e-08 7.13729017161787e-08 1.55368147720754e-08
"2038" 32637 2.05545729305265e-08 6.17700490953076e-09 3.83892673904033e-08 1.46046248281057e-07 7.27718345304969e-09 3.96652089677912e-08 7.14377257382422e-08 1.56003315758982e-08
"2039" 32638 2.06377278429768e-08 6.14433553470224e-09 3.81502291788131e-08 1.46560883712409e-07 7.46876657435191e-09 3.98720021760903e-08 7.15025497603058e-08 1.5663848379721e-08
"2040" 32639 2.0720882755427e-08 6.11166615987371e-09 3.7911190967223e-08 1.47075519143761e-07 7.66034969565414e-09 4.00787953843893e-08 7.15673737823693e-08 1.57273651835438e-08
"2041" 32640 2.08040376678772e-08 6.07899678504519e-09 3.76721527556328e-08 1.47590154575114e-07 7.85193281695636e-09 4.02855885926884e-08 7.16321978044328e-08 1.57908819873665e-08
"2042" 32641 2.08871925803274e-08 6.04632741021666e-09 3.74331145440426e-08 1.48104790006466e-07 8.04351593825859e-09 4.04923818009875e-08 7.16970218264963e-08 1.58543987911893e-08
"2043" 32642 2.09703474927777e-08 6.01365803538814e-09 3.71940763324525e-08 1.48619425437818e-07 8.23509905956081e-09 4.06991750092865e-08 7.17618458485598e-08 1.59179155950121e-08
"2044" 32643 2.10535024052279e-08 5.98098866055961e-09 3.69550381208623e-08 1.49134060869171e-07 8.42668218086304e-09 4.09059682175856e-08 7.18266698706233e-08 1.59814323988349e-08
"2045" 32644 2.11366573176781e-08 5.94831928573108e-09 3.67159999092722e-08 1.49648696300523e-07 8.61826530216526e-09 4.11127614258847e-08 7.18914938926869e-08 1.60449492026577e-08
"2046" 32645 2.11759595223143e-08 5.89227164277208e-09 3.64101761873695e-08 1.49177649271601e-07 8.63312372887806e-09 4.16471017472328e-08 7.19061383772986e-08 1.60721134352575e-08
"2047" 32646 2.12716936671939e-08 5.83622399981308e-09 3.6004275834152e-08 1.49047917439558e-07 8.6176311801859e-09 4.1639252661809e-08 7.19207828619104e-08 1.60992776678573e-08
"2048" 32647 2.11908228242073e-08 5.85227774647961e-09 3.60446536655985e-08 1.49856401683559e-07 8.6334770323287e-09 4.1480732646116e-08 7.19810895745718e-08 1.61237017277815e-08
"2049" 32648 2.1200380789308e-08 5.85703931282206e-09 3.6058683954455e-08 1.50826986131662e-07 8.63216798532956e-09 4.14426991652613e-08 7.21136094529268e-08 1.61508659603813e-08
"2050" 32649 2.12099387544087e-08 5.8618008791645e-09 3.60727142433115e-08 1.51797570579765e-07 8.63085893833042e-09 4.14046656844067e-08 7.22461293312817e-08 1.61780301929811e-08
"2051" 32650 2.12194967195094e-08 5.86656244550695e-09 3.60867445321679e-08 1.52768155027867e-07 8.62954989133129e-09 4.1366632203552e-08 7.23786492096367e-08 1.62051944255809e-08
"2052" 32651 2.122905468461e-08 5.87132401184939e-09 3.61007748210244e-08 1.5373873947597e-07 8.62824084433215e-09 4.13285987226973e-08 7.25111690879917e-08 1.62323586581807e-08
"2053" 32652 2.12386126497107e-08 5.87608557819183e-09 3.61148051098809e-08 1.54709323924073e-07 8.62693179733302e-09 4.12905652418426e-08 7.26436889663467e-08 1.62595228907804e-08
"2054" 32653 2.12481706148114e-08 5.88084714453428e-09 3.61288353987373e-08 1.55679908372175e-07 8.62562275033388e-09 4.12525317609879e-08 7.27762088447016e-08 1.62866871233802e-08
"2055" 32654 2.12577285799121e-08 5.88560871087672e-09 3.61428656875938e-08 1.56650492820278e-07 8.62431370333474e-09 4.12144982801332e-08 7.29087287230566e-08 1.631385135598e-08
"2056" 32655 2.12672865450128e-08 5.89037027721916e-09 3.61568959764503e-08 1.57621077268381e-07 8.62300465633561e-09 4.11764647992785e-08 7.30412486014116e-08 1.63410155885798e-08
"2057" 32656 2.12768445101134e-08 5.89513184356161e-09 3.61709262653067e-08 1.58591661716483e-07 8.62169560933647e-09 4.11384313184238e-08 7.31737684797666e-08 1.63681798211796e-08
"2058" 32657 2.12864024752141e-08 5.89989340990405e-09 3.61849565541632e-08 1.59562246164586e-07 8.62038656233733e-09 4.11003978375692e-08 7.33062883581215e-08 1.63953440537794e-08
"2059" 32658 2.12959604403148e-08 5.9046549762465e-09 3.61989868430197e-08 1.60532830612689e-07 8.6190775153382e-09 4.10623643567145e-08 7.34388082364765e-08 1.64225082863791e-08
"2060" 32659 2.13055184054155e-08 5.90941654258894e-09 3.62130171318761e-08 1.61503415060791e-07 8.61776846833906e-09 4.10243308758598e-08 7.35713281148315e-08 1.64496725189789e-08
"2061" 32660 2.13150763705162e-08 5.91417810893138e-09 3.62270474207326e-08 1.62473999508894e-07 8.61645942133992e-09 4.09862973950051e-08 7.37038479931865e-08 1.64768367515787e-08
"2062" 32661 2.13246343356168e-08 5.91893967527383e-09 3.62410777095891e-08 1.63444583956996e-07 8.61515037434079e-09 4.09482639141504e-08 7.38363678715414e-08 1.65040009841785e-08
"2063" 32662 2.13341923007175e-08 5.92370124161627e-09 3.62551079984455e-08 1.64415168405099e-07 8.61384132734165e-09 4.09102304332957e-08 7.39688877498964e-08 1.65311652167783e-08
"2064" 32663 2.13437502658182e-08 5.92846280795872e-09 3.6269138287302e-08 1.65385752853202e-07 8.61253228034251e-09 4.0872196952441e-08 7.41014076282514e-08 1.6558329449378e-08
"2065" 32664 2.13533082309189e-08 5.93322437430116e-09 3.62831685761585e-08 1.66356337301304e-07 8.61122323334338e-09 4.08341634715863e-08 7.42339275066064e-08 1.65854936819778e-08
"2066" 32665 2.13628661960196e-08 5.9379859406436e-09 3.62971988650149e-08 1.67326921749407e-07 8.60991418634424e-09 4.07961299907317e-08 7.43664473849613e-08 1.66126579145776e-08
"2067" 32666 2.13724241611202e-08 5.94274750698605e-09 3.63112291538714e-08 1.6829750619751e-07 8.6086051393451e-09 4.0758096509877e-08 7.44989672633163e-08 1.66398221471774e-08
"2068" 32667 2.13391798318896e-08 5.92233730017837e-09 3.62806519510923e-08 1.68387701920379e-07 8.62278864103813e-09 4.0756263007557e-08 7.45346405458485e-08 1.66316877211217e-08
"2069" 32668 2.14409718521747e-08 5.92623367820011e-09 3.62645614481923e-08 1.6776458577127e-07 8.62322499003784e-09 4.07037405816148e-08 7.49789549653686e-08 1.67539742657465e-08
"2070" 32669 2.15427638724598e-08 5.93013005622186e-09 3.62484709452923e-08 1.67141469622161e-07 8.62366133903756e-09 4.06512181556726e-08 7.54232693848888e-08 1.68762608103713e-08
"2071" 32670 2.16445558927449e-08 5.9340264342436e-09 3.62323804423924e-08 1.66518353473051e-07 8.62409768803727e-09 4.05986957297304e-08 7.5867583804409e-08 1.69985473549961e-08
"2072" 32671 2.174634791303e-08 5.93792281226535e-09 3.62162899394924e-08 1.65895237323942e-07 8.62453403703698e-09 4.05461733037883e-08 7.63118982239291e-08 1.71208338996209e-08
"2073" 32672 2.18481399333151e-08 5.9418191902871e-09 3.62001994365925e-08 1.65272121174833e-07 8.62497038603669e-09 4.04936508778461e-08 7.67562126434493e-08 1.72431204442457e-08
"2074" 32673 2.19499319536002e-08 5.94571556830884e-09 3.61841089336925e-08 1.64649005025724e-07 8.6254067350364e-09 4.04411284519039e-08 7.72005270629695e-08 1.73654069888705e-08
"2075" 32674 2.20517239738853e-08 5.94961194633059e-09 3.61680184307925e-08 1.64025888876615e-07 8.62584308403612e-09 4.03886060259617e-08 7.76448414824896e-08 1.74876935334953e-08
"2076" 32675 2.21535159941704e-08 5.95350832435233e-09 3.61519279278926e-08 1.63402772727505e-07 8.62627943303583e-09 4.03360836000195e-08 7.80891559020098e-08 1.76099800781201e-08
"2077" 32676 2.22553080144554e-08 5.95740470237408e-09 3.61358374249926e-08 1.62779656578396e-07 8.62671578203554e-09 4.02835611740773e-08 7.853347032153e-08 1.77322666227449e-08
"2078" 32677 2.23571000347405e-08 5.96130108039583e-09 3.61197469220926e-08 1.62156540429287e-07 8.62715213103525e-09 4.02310387481351e-08 7.89777847410502e-08 1.78545531673697e-08
"2079" 32678 2.24588920550256e-08 5.96519745841757e-09 3.61036564191927e-08 1.61533424280178e-07 8.62758848003497e-09 4.01785163221929e-08 7.94220991605703e-08 1.79768397119945e-08
"2080" 32679 2.25606840753107e-08 5.96909383643932e-09 3.60875659162927e-08 1.60910308131069e-07 8.62802482903468e-09 4.01259938962508e-08 7.98664135800905e-08 1.80991262566194e-08
"2081" 32680 2.26624760955958e-08 5.97299021446107e-09 3.60714754133928e-08 1.6028719198196e-07 8.62846117803439e-09 4.00734714703086e-08 8.03107279996107e-08 1.82214128012442e-08
"2082" 32681 2.26844300506277e-08 5.97394089723752e-09 3.60624326557084e-08 1.59773319491416e-07 8.63814534104539e-09 4.00000794480136e-08 8.03952929708025e-08 1.82283181567949e-08
"2083" 32682 2.26524193773779e-08 5.96605449427812e-09 3.59109226286124e-08 1.58798228733621e-07 8.5926551203989e-09 3.94309573729124e-08 8.05328142635029e-08 1.82186459078733e-08
"2084" 32683 2.26524193773779e-08 5.96088782173438e-09 3.58973275797314e-08 1.57950762752262e-07 8.59582429082746e-09 3.89812605145157e-08 8.00549912320018e-08 1.82333769371189e-08
"2085" 32684 2.26524193773779e-08 5.95572114919064e-09 3.58837325308503e-08 1.57103296770903e-07 8.59899346125602e-09 3.85315636561189e-08 7.95771682005007e-08 1.82481079663645e-08
"2086" 32685 2.26524193773779e-08 5.9505544766469e-09 3.58701374819693e-08 1.56255830789544e-07 8.60216263168458e-09 3.80818667977222e-08 7.90993451689995e-08 1.82628389956101e-08
"2087" 32686 2.26524193773779e-08 5.94538780410316e-09 3.58565424330883e-08 1.55408364808185e-07 8.60533180211314e-09 3.76321699393254e-08 7.86215221374984e-08 1.82775700248557e-08
"2088" 32687 2.26524193773779e-08 5.94022113155942e-09 3.58429473842072e-08 1.54560898826826e-07 8.6085009725417e-09 3.71824730809287e-08 7.81436991059973e-08 1.82923010541013e-08
"2089" 32688 2.26524193773779e-08 5.93505445901568e-09 3.58293523353262e-08 1.53713432845467e-07 8.61167014297026e-09 3.6732776222532e-08 7.76658760744961e-08 1.83070320833469e-08
"2090" 32689 2.26657687841699e-08 5.93302077554904e-09 3.58004686850556e-08 1.53078385514347e-07 8.60427189176123e-09 3.63096191391101e-08 7.71444669944119e-08 1.83968699897155e-08
"2091" 32690 2.26791181909619e-08 5.93098709208241e-09 3.5771585034785e-08 1.52443338183228e-07 8.5968736405522e-09 3.58864620556883e-08 7.66230579143276e-08 1.84867078960841e-08
"2092" 32691 2.26924675977538e-08 5.92895340861577e-09 3.57427013845144e-08 1.51808290852108e-07 8.58947538934317e-09 3.54633049722664e-08 7.61016488342433e-08 1.85765458024526e-08
"2093" 32692 2.27058170045458e-08 5.92691972514914e-09 3.57138177342438e-08 1.51173243520989e-07 8.58207713813414e-09 3.50401478888446e-08 7.55802397541591e-08 1.86663837088212e-08
"2094" 32693 2.27191664113378e-08 5.9248860416825e-09 3.56849340839732e-08 1.50538196189869e-07 8.57467888692511e-09 3.46169908054227e-08 7.50588306740748e-08 1.87562216151898e-08
"2095" 32694 2.27325158181297e-08 5.92285235821587e-09 3.56560504337026e-08 1.4990314885875e-07 8.56728063571608e-09 3.41938337220009e-08 7.45374215939905e-08 1.88460595215583e-08
"2096" 32695 2.27458652249217e-08 5.92081867474924e-09 3.5627166783432e-08 1.4926810152763e-07 8.55988238450705e-09 3.3770676638579e-08 7.40160125139062e-08 1.89358974279269e-08
"2097" 32696 2.27592146317137e-08 5.9187849912826e-09 3.55982831331614e-08 1.48633054196511e-07 8.55248413329802e-09 3.33475195551572e-08 7.3494603433822e-08 1.90257353342955e-08
"2098" 32697 2.27725640385056e-08 5.91675130781597e-09 3.55693994828908e-08 1.47998006865391e-07 8.545085882089e-09 3.29243624717353e-08 7.29731943537377e-08 1.9115573240664e-08
"2099" 32698 2.27859134452976e-08 5.91471762434933e-09 3.55405158326202e-08 1.47362959534272e-07 8.53768763087997e-09 3.25012053883135e-08 7.24517852736534e-08 1.92054111470326e-08
"2100" 32699 2.27992628520895e-08 5.9126839408827e-09 3.55116321823496e-08 1.46727912203152e-07 8.53028937967094e-09 3.20780483048916e-08 7.19303761935691e-08 1.92952490534012e-08
"2101" 32700 2.28126122588815e-08 5.91065025741606e-09 3.5482748532079e-08 1.46092864872033e-07 8.52289112846191e-09 3.16548912214698e-08 7.14089671134849e-08 1.93850869597697e-08
"2102" 32701 2.28259616656735e-08 5.90861657394943e-09 3.54538648818084e-08 1.45457817540913e-07 8.51549287725288e-09 3.12317341380479e-08 7.08875580334006e-08 1.94749248661383e-08
"2103" 32702 2.28093306831834e-08 5.932931311239e-09 3.56067246593581e-08 1.4451615452686e-07 8.52349356855977e-09 3.08305445759672e-08 7.04256812184767e-08 1.94763647191568e-08
"2104" 32703 2.27038047184579e-08 5.71015359560179e-09 3.39984693858684e-08 1.43218269743981e-07 8.52349356855977e-09 3.07485875545964e-08 7.08372944319081e-08 1.94763647191568e-08
"2105" 32704 2.2694474085229e-08 5.72221731733067e-09 3.3923330410414e-08 1.42848727538795e-07 8.52860590796683e-09 3.07591645093162e-08 7.13269288662701e-08 1.94647033967046e-08
"2106" 32705 2.26851434520002e-08 5.73428103905955e-09 3.38481914349596e-08 1.42479185333608e-07 8.53371824737389e-09 3.0769741464036e-08 7.18165633006322e-08 1.94530420742525e-08
"2107" 32706 2.26758128187713e-08 5.74634476078843e-09 3.37730524595052e-08 1.42109643128421e-07 8.53883058678095e-09 3.07803184187558e-08 7.23061977349943e-08 1.94413807518003e-08
"2108" 32707 2.26664821855424e-08 5.7584084825173e-09 3.36979134840508e-08 1.41740100923235e-07 8.54394292618801e-09 3.07908953734756e-08 7.27958321693564e-08 1.94297194293482e-08
"2109" 32708 2.26571515523135e-08 5.77047220424618e-09 3.36227745085964e-08 1.41370558718048e-07 8.54905526559507e-09 3.08014723281954e-08 7.32854666037185e-08 1.9418058106896e-08
"2110" 32709 2.26478209190847e-08 5.78253592597506e-09 3.3547635533142e-08 1.41001016512862e-07 8.55416760500213e-09 3.08120492829152e-08 7.37751010380805e-08 1.94063967844438e-08
"2111" 32710 2.26384902858558e-08 5.79459964770394e-09 3.34724965576876e-08 1.40631474307675e-07 8.55927994440919e-09 3.0822626237635e-08 7.42647354724426e-08 1.93947354619917e-08
"2112" 32711 2.26291596526269e-08 5.80666336943281e-09 3.33973575822332e-08 1.40261932102488e-07 8.56439228381625e-09 3.08332031923549e-08 7.47543699068047e-08 1.93830741395395e-08
"2113" 32712 2.2619829019398e-08 5.81872709116169e-09 3.33222186067788e-08 1.39892389897302e-07 8.56950462322331e-09 3.08437801470747e-08 7.52440043411668e-08 1.93714128170874e-08
"2114" 32713 2.26104983861692e-08 5.83079081289057e-09 3.32470796313244e-08 1.39522847692115e-07 8.57461696263037e-09 3.08543571017945e-08 7.57336387755289e-08 1.93597514946352e-08
"2115" 32714 2.26011677529403e-08 5.84285453461945e-09 3.317194065587e-08 1.39153305486929e-07 8.57972930203743e-09 3.08649340565143e-08 7.62232732098909e-08 1.9348090172183e-08
"2116" 32715 2.25918371197114e-08 5.85491825634832e-09 3.30968016804157e-08 1.38783763281742e-07 8.58484164144449e-09 3.08755110112341e-08 7.6712907644253e-08 1.93364288497309e-08
"2117" 32716 2.25825064864825e-08 5.8669819780772e-09 3.30216627049613e-08 1.38414221076555e-07 8.58995398085155e-09 3.08860879659539e-08 7.72025420786151e-08 1.93247675272787e-08
"2118" 32717 2.25731758532537e-08 5.87904569980608e-09 3.29465237295069e-08 1.38044678871369e-07 8.59506632025861e-09 3.08966649206737e-08 7.76921765129772e-08 1.93131062048266e-08
"2119" 32718 2.25638452200248e-08 5.89110942153496e-09 3.28713847540525e-08 1.37675136666182e-07 8.60017865966567e-09 3.09072418753935e-08 7.81818109473393e-08 1.93014448823744e-08
"2120" 32719 2.25545145867959e-08 5.90317314326383e-09 3.27962457785981e-08 1.37305594460996e-07 8.60529099907273e-09 3.09178188301133e-08 7.86714453817013e-08 1.92897835599222e-08
"2121" 32720 2.2545183953567e-08 5.91523686499271e-09 3.27211068031437e-08 1.36936052255809e-07 8.61040333847979e-09 3.09283957848331e-08 7.91610798160634e-08 1.92781222374701e-08
"2122" 32721 2.25358533203382e-08 5.92730058672159e-09 3.26459678276893e-08 1.36566510050622e-07 8.61551567788684e-09 3.09389727395529e-08 7.96507142504255e-08 1.92664609150179e-08
"2123" 32722 2.25265226871093e-08 5.93936430845047e-09 3.25708288522349e-08 1.36196967845436e-07 8.6206280172939e-09 3.09495496942727e-08 8.01403486847876e-08 1.92547995925658e-08
"2124" 32723 2.25171920538804e-08 5.95142803017934e-09 3.24956898767805e-08 1.35827425640249e-07 8.62574035670096e-09 3.09601266489925e-08 8.06299831191497e-08 1.92431382701136e-08
"2125" 32724 2.25078614206515e-08 5.96349175190822e-09 3.24205509013261e-08 1.35457883435063e-07 8.63085269610802e-09 3.09707036037123e-08 8.11196175535117e-08 1.92314769476614e-08
"2126" 32725 2.25087596352628e-08 5.97574276746892e-09 3.24159986101294e-08 1.35481739552334e-07 8.63596503551508e-09 3.09140045379951e-08 8.15754603574221e-08 1.92294047471024e-08
"2127" 32726 2.2509657849874e-08 5.98799378302961e-09 3.24114463189328e-08 1.35505595669606e-07 8.64107737492214e-09 3.08573054722779e-08 8.20313031613324e-08 1.92273325465434e-08
"2128" 32727 2.25105560644852e-08 6.00024479859031e-09 3.24068940277362e-08 1.35529451786877e-07 8.6461897143292e-09 3.08006064065607e-08 8.24871459652428e-08 1.92252603459843e-08
"2129" 32728 2.25114542790964e-08 6.01249581415101e-09 3.24023417365395e-08 1.35553307904149e-07 8.65130205373626e-09 3.07439073408435e-08 8.29429887691531e-08 1.92231881454253e-08
"2130" 32729 2.25123524937077e-08 6.02474682971171e-09 3.23977894453429e-08 1.3557716402142e-07 8.65641439314332e-09 3.06872082751263e-08 8.33988315730634e-08 1.92211159448663e-08
"2131" 32730 2.25132507083189e-08 6.0369978452724e-09 3.23932371541462e-08 1.35601020138692e-07 8.66152673255038e-09 3.06305092094091e-08 8.38546743769738e-08 1.92190437443073e-08
"2132" 32731 2.25141489229301e-08 6.0492488608331e-09 3.23886848629496e-08 1.35624876255964e-07 8.66663907195744e-09 3.05738101436919e-08 8.43105171808841e-08 1.92169715437482e-08
"2133" 32732 2.25150471375413e-08 6.0614998763938e-09 3.2384132571753e-08 1.35648732373235e-07 8.6717514113645e-09 3.05171110779747e-08 8.47663599847945e-08 1.92148993431892e-08
"2134" 32733 2.25159453521526e-08 6.07375089195449e-09 3.23795802805563e-08 1.35672588490507e-07 8.67686375077156e-09 3.04604120122575e-08 8.52222027887048e-08 1.92128271426302e-08
"2135" 32734 2.25168435667638e-08 6.08600190751519e-09 3.23750279893597e-08 1.35696444607778e-07 8.68197609017862e-09 3.04037129465403e-08 8.56780455926151e-08 1.92107549420711e-08
"2136" 32735 2.2517741781375e-08 6.09825292307589e-09 3.2370475698163e-08 1.3572030072505e-07 8.68708842958568e-09 3.03470138808231e-08 8.61338883965255e-08 1.92086827415121e-08
"2137" 32736 2.25186399959863e-08 6.11050393863659e-09 3.23659234069664e-08 1.35744156842321e-07 8.69220076899274e-09 3.02903148151059e-08 8.65897312004358e-08 1.92066105409531e-08
"2138" 32737 2.25195382105975e-08 6.12275495419728e-09 3.23613711157697e-08 1.35768012959593e-07 8.6973131083998e-09 3.02336157493887e-08 8.70455740043461e-08 1.92045383403941e-08
"2139" 32738 2.25204364252087e-08 6.13500596975798e-09 3.23568188245731e-08 1.35791869076865e-07 8.70242544780686e-09 3.01769166836715e-08 8.75014168082565e-08 1.9202466139835e-08
"2140" 32739 2.25137893229375e-08 6.09469246171998e-09 3.21566655619436e-08 1.35360190092409e-07 8.71299286944445e-09 3.01363086821563e-08 8.80223805358745e-08 1.91212614126394e-08
"2141" 32740 2.24897410638137e-08 6.10675618344885e-09 3.20912848730621e-08 1.35010362640744e-07 8.71883245718436e-09 3.00796096164391e-08 8.84669253382149e-08 1.91206290650989e-08
"2142" 32741 2.24656928046898e-08 6.11881990517773e-09 3.20259041841806e-08 1.34660535189079e-07 8.72467204492427e-09 3.00229105507219e-08 8.89114701405553e-08 1.91199967175584e-08
"2143" 32742 2.2441644545566e-08 6.13088362690661e-09 3.1960523495299e-08 1.34310707737415e-07 8.73051163266418e-09 2.99662114850047e-08 8.93560149428957e-08 1.91193643700179e-08
"2144" 32743 2.24175962864422e-08 6.14294734863549e-09 3.18951428064175e-08 1.3396088028575e-07 8.7363512204041e-09 2.99095124192875e-08 8.98005597452362e-08 1.91187320224773e-08
"2145" 32744 2.23935480273183e-08 6.15501107036436e-09 3.1829762117536e-08 1.33611052834086e-07 8.74219080814401e-09 2.98528133535703e-08 9.02451045475766e-08 1.91180996749368e-08
"2146" 32745 2.2405853543501e-08 6.15197172820317e-09 3.17482909257545e-08 1.33240098401902e-07 8.76053042587285e-09 3.04249191657131e-08 9.02304600629648e-08 1.91727101718019e-08
"2147" 32746 2.25096118276295e-08 6.14811402117923e-09 3.16587092809484e-08 1.32902213014266e-07 8.75465963607418e-09 3.03725249837179e-08 9.0133613467142e-08 1.9293337177014e-08
"2148" 32747 2.2613370111758e-08 6.14425631415529e-09 3.15691276361422e-08 1.32564327626629e-07 8.74878884627552e-09 3.03201308017226e-08 9.00367668713192e-08 1.94139641822261e-08
"2149" 32748 2.27171283958865e-08 6.14039860713135e-09 3.14795459913361e-08 1.32226442238993e-07 8.74291805647686e-09 3.02677366197274e-08 8.99399202754964e-08 1.95345911874382e-08
"2150" 32749 2.2820886680015e-08 6.13654090010741e-09 3.13899643465299e-08 1.31888556851357e-07 8.7370472666782e-09 3.02153424377322e-08 8.98430736796736e-08 1.96552181926503e-08
"2151" 32750 2.29246449641435e-08 6.13268319308347e-09 3.13003827017238e-08 1.3155067146372e-07 8.73117647687954e-09 3.01629482557369e-08 8.97462270838508e-08 1.97758451978624e-08
"2152" 32751 2.30284032482719e-08 6.12882548605953e-09 3.12108010569177e-08 1.31212786076084e-07 8.72530568708088e-09 3.01105540737417e-08 8.9649380488028e-08 1.98964722030745e-08
"2153" 32752 2.31321615324004e-08 6.12496777903559e-09 3.11212194121115e-08 1.30874900688448e-07 8.71943489728222e-09 3.00581598917465e-08 8.95525338922052e-08 2.00170992082866e-08
"2154" 32753 2.32359198165289e-08 6.12111007201165e-09 3.10316377673054e-08 1.30537015300811e-07 8.71356410748356e-09 3.00057657097513e-08 8.94556872963824e-08 2.01377262134987e-08
"2155" 32754 2.33396781006574e-08 6.11725236498771e-09 3.09420561224993e-08 1.30199129913175e-07 8.7076933176849e-09 2.9953371527756e-08 8.93588407005596e-08 2.02583532187108e-08
"2156" 32755 2.34434363847859e-08 6.11339465796377e-09 3.08524744776931e-08 1.29861244525538e-07 8.70182252788624e-09 2.99009773457608e-08 8.92619941047368e-08 2.03789802239229e-08
"2157" 32756 2.35471946689144e-08 6.10953695093983e-09 3.0762892832887e-08 1.29523359137902e-07 8.69595173808758e-09 2.98485831637656e-08 8.9165147508914e-08 2.0499607229135e-08
"2158" 32757 2.36509529530429e-08 6.10567924391589e-09 3.06733111880808e-08 1.29185473750266e-07 8.69008094828892e-09 2.97961889817703e-08 8.90683009130912e-08 2.06202342343471e-08
"2159" 32758 2.363506339629e-08 6.08549500193784e-09 3.06741571201187e-08 1.27632546774898e-07 8.6899042965636e-09 2.94004605992904e-08 8.90897721664349e-08 2.06107490212394e-08
"2160" 32759 2.37243114556446e-08 6.08544817847988e-09 3.06710993998407e-08 1.27670575339833e-07 8.68620517095909e-09 2.93969666069655e-08 8.91199803719381e-08 2.07281519434777e-08
"2161" 32760 2.37010421887581e-08 6.0912927455125e-09 3.07154003662174e-08 1.27834855749878e-07 8.69523457055914e-09 2.93934726146406e-08 8.91683345550034e-08 2.07278431911169e-08
"2162" 32761 2.36679059690254e-08 6.09197064000138e-09 3.0736543601864e-08 1.27851247296289e-07 8.72091003537951e-09 2.94171508353636e-08 8.9192731043226e-08 2.09469798713889e-08
"2163" 32762 2.36347697492926e-08 6.09264853449026e-09 3.07576868375108e-08 1.27867638842699e-07 8.74658550019988e-09 2.94408290560867e-08 8.92171275314485e-08 2.1166116551661e-08
"2164" 32763 2.36016335295599e-08 6.09332642897913e-09 3.07788300731575e-08 1.27884030389109e-07 8.77226096502025e-09 2.94645072768098e-08 8.9241524019671e-08 2.13852532319331e-08
"2165" 32764 2.35684973098271e-08 6.09400432346801e-09 3.07999733088042e-08 1.2790042193552e-07 8.79793642984062e-09 2.94881854975329e-08 8.92659205078936e-08 2.16043899122051e-08
"2166" 32765 2.35353610900944e-08 6.09468221795689e-09 3.08211165444509e-08 1.2791681348193e-07 8.82361189466099e-09 2.9511863718256e-08 8.92903169961161e-08 2.18235265924772e-08
"2167" 32766 2.35022248703616e-08 6.09536011244577e-09 3.08422597800976e-08 1.2793320502834e-07 8.84928735948136e-09 2.95355419389791e-08 8.93147134843387e-08 2.20426632727492e-08
"2168" 32767 2.34690886506289e-08 6.09603800693465e-09 3.08634030157443e-08 1.27949596574751e-07 8.87496282430172e-09 2.95592201597021e-08 8.93391099725612e-08 2.22617999530213e-08
"2169" 32768 2.34359524308962e-08 6.09671590142352e-09 3.0884546251391e-08 1.27965988121161e-07 8.90063828912209e-09 2.95828983804252e-08 8.93635064607838e-08 2.24809366332933e-08
"2170" 32769 2.34028162111634e-08 6.0973937959124e-09 3.09056894870377e-08 1.27982379667571e-07 8.92631375394246e-09 2.96065766011483e-08 8.93879029490063e-08 2.27000733135654e-08
"2171" 32770 2.33696799914307e-08 6.09807169040128e-09 3.09268327226844e-08 1.27998771213982e-07 8.95198921876283e-09 2.96302548218714e-08 8.94122994372289e-08 2.29192099938375e-08
"2172" 32771 2.33365437716979e-08 6.09874958489016e-09 3.09479759583311e-08 1.28015162760392e-07 8.9776646835832e-09 2.96539330425945e-08 8.94366959254514e-08 2.31383466741095e-08
"2173" 32772 2.33034075519652e-08 6.09942747937904e-09 3.09691191939778e-08 1.28031554306802e-07 9.00334014840357e-09 2.96776112633176e-08 8.9461092413674e-08 2.33574833543816e-08
"2174" 32773 2.32702713322324e-08 6.10010537386791e-09 3.09902624296245e-08 1.28047945853213e-07 9.02901561322394e-09 2.97012894840406e-08 8.94854889018965e-08 2.35766200346536e-08
"2175" 32774 2.32371351124997e-08 6.10078326835679e-09 3.10114056652712e-08 1.28064337399623e-07 9.05469107804431e-09 2.97249677047637e-08 8.95098853901191e-08 2.37957567149257e-08
"2176" 32775 2.32039988927669e-08 6.10146116284567e-09 3.10325489009179e-08 1.28080728946033e-07 9.08036654286468e-09 2.97486459254868e-08 8.95342818783416e-08 2.40148933951977e-08
"2177" 32776 2.31708626730342e-08 6.10213905733455e-09 3.10536921365646e-08 1.28097120492444e-07 9.10604200768505e-09 2.97723241462099e-08 8.95586783665642e-08 2.42340300754698e-08
"2178" 32777 2.31377264533014e-08 6.10281695182343e-09 3.10748353722113e-08 1.28113512038854e-07 9.13171747250541e-09 2.9796002366933e-08 8.95830748547867e-08 2.44531667557418e-08
"2179" 32778 2.31045902335687e-08 6.1034948463123e-09 3.1095978607858e-08 1.28129903585264e-07 9.15739293732578e-09 2.98196805876561e-08 8.96074713430093e-08 2.46723034360139e-08
"2180" 32779 2.30714540138359e-08 6.10417274080118e-09 3.11171218435047e-08 1.28146295131675e-07 9.18306840214615e-09 2.98433588083791e-08 8.96318678312318e-08 2.4891440116286e-08
"2181" 32780 2.30383177941032e-08 6.10485063529006e-09 3.11382650791514e-08 1.28162686678085e-07 9.20874386696652e-09 2.98670370291022e-08 8.96562643194543e-08 2.5110576796558e-08
"2182" 32781 2.30051815743704e-08 6.10552852977894e-09 3.11594083147981e-08 1.28179078224495e-07 9.23441933178689e-09 2.98907152498253e-08 8.96806608076769e-08 2.53297134768301e-08
"2183" 32782 2.30172421229319e-08 6.08177567398482e-09 3.07869735162596e-08 1.26043848420405e-07 9.21389796905950e-09 2.97683952126671e-08 8.96617293964833e-08 2.54815808315505e-08
"2184" 32783 2.30293026714933e-08 6.05802281819071e-09 3.04145387177211e-08 1.23908618616314e-07 9.1933766063321e-09 2.96460751755089e-08 8.96427979852898e-08 2.56334481862709e-08
"2185" 32784 2.30413632200547e-08 6.03426996239659e-09 3.00421039191826e-08 1.21773388812223e-07 9.1728552436047e-09 2.95237551383507e-08 8.96238665740962e-08 2.57853155409913e-08
"2186" 32785 2.30534237686162e-08 6.01051710660248e-09 2.96696691206441e-08 1.19638159008133e-07 9.15233388087731e-09 2.94014351011925e-08 8.96049351629026e-08 2.59371828957118e-08
"2187" 32786 2.30527528858768e-08 5.99493159451549e-09 2.93363326699718e-08 1.17754636904532e-07 9.10830871752369e-09 2.93425041987921e-08 8.97817131630838e-08 2.58782587787293e-08
"2188" 32787 2.30520820031373e-08 5.97934608242851e-09 2.90029962192994e-08 1.15871114800931e-07 9.06428355417007e-09 2.92835732963917e-08 8.99584911632649e-08 2.58193346617469e-08
"2189" 32788 2.30514111203979e-08 5.96376057034153e-09 2.86696597686271e-08 1.1398759269733e-07 9.02025839081645e-09 2.92246423939914e-08 9.01352691634461e-08 2.57604105447645e-08
"2190" 32789 2.30507402376585e-08 5.94817505825454e-09 2.83363233179547e-08 1.12104070593729e-07 8.97623322746283e-09 2.9165711491591e-08 9.03120471636272e-08 2.57014864277821e-08
"2191" 32790 2.30500693549191e-08 5.93258954616756e-09 2.80029868672824e-08 1.10220548490128e-07 8.93220806410921e-09 2.91067805891906e-08 9.04888251638084e-08 2.56425623107997e-08
"2192" 32791 2.30493984721796e-08 5.91700403408057e-09 2.76696504166101e-08 1.08337026386527e-07 8.88818290075560e-09 2.90478496867902e-08 9.06656031639896e-08 2.55836381938173e-08
"2193" 32792 2.30487275894402e-08 5.90141852199359e-09 2.73363139659377e-08 1.06453504282927e-07 8.84415773740198e-09 2.89889187843898e-08 9.08423811641707e-08 2.55247140768348e-08
"2194" 32793 2.30480567067008e-08 5.88583300990661e-09 2.70029775152654e-08 1.04569982179326e-07 8.80013257404836e-09 2.89299878819894e-08 9.10191591643519e-08 2.54657899598524e-08
"2195" 32794 2.30473858239614e-08 5.87024749781962e-09 2.6669641064593e-08 1.02686460075725e-07 8.75610741069474e-09 2.8871056979589e-08 9.1195937164533e-08 2.540686584287e-08
"2196" 32795 2.32588218741583e-08 5.87024749781962e-09 2.66486070610484e-08 1.0259226304303e-07 8.92422897387941e-09 2.99460063526305e-08 9.13682227246159e-08 2.56953499881909e-08
"2197" 32796 2.3477567091491e-08 5.86888355638172e-09 2.66007902749383e-08 1.02146635697189e-07 9.10036178899813e-09 3.1449521058813e-08 9.13416154892781e-08 2.59005067383623e-08
"2198" 32797 2.36963123088238e-08 5.86751961494381e-09 2.65529734888282e-08 1.01701008351348e-07 9.27649460411686e-09 3.29530357649956e-08 9.13150082539402e-08 2.61056634885337e-08
"2199" 32798 2.39150575261566e-08 5.86615567350591e-09 2.65051567027181e-08 1.01255381005507e-07 9.45262741923558e-09 3.44565504711782e-08 9.12884010186024e-08 2.6310820238705e-08
"2200" 32799 2.41338027434894e-08 5.864791732068e-09 2.6457339916608e-08 1.00809753659666e-07 9.62876023435431e-09 3.59600651773608e-08 9.12617937832646e-08 2.65159769888764e-08
"2201" 32800 2.43525479608221e-08 5.8634277906301e-09 2.64095231304979e-08 1.00364126313825e-07 9.80489304947304e-09 3.74635798835433e-08 9.12351865479268e-08 2.67211337390478e-08
"2202" 32801 2.45712931781549e-08 5.86206384919219e-09 2.63617063443879e-08 9.99184989679842e-08 9.98102586459176e-09 3.89670945897259e-08 9.1208579312589e-08 2.69262904892191e-08
"2203" 32802 2.47900383954877e-08 5.86069990775429e-09 2.63138895582778e-08 9.94728716221432e-08 1.01571586797105e-08 4.04706092959085e-08 9.11819720772512e-08 2.71314472393905e-08
"2204" 32803 2.47900383954877e-08 5.85838528353992e-09 2.62636882386837e-08 9.90415007563198e-08 1.01884970805455e-08 4.04774608750979e-08 9.07445904627645e-08 2.70385099405907e-08
"2205" 32804 2.47900383954877e-08 5.85607065932556e-09 2.62134869190897e-08 9.86101298904964e-08 1.02198354813804e-08 4.04843124542874e-08 9.03072088482777e-08 2.69455726417909e-08
"2206" 32805 2.47900383954877e-08 5.8537560351112e-09 2.61632855994956e-08 9.8178759024673e-08 1.02511738822154e-08 4.04911640334769e-08 8.98698272337909e-08 2.68526353429911e-08
"2207" 32806 2.47900383954877e-08 5.85144141089683e-09 2.61130842799016e-08 9.77473881588496e-08 1.02825122830503e-08 4.04980156126664e-08 8.94324456193041e-08 2.67596980441913e-08
"2208" 32807 2.47900383954877e-08 5.84912678668247e-09 2.60628829603075e-08 9.73160172930262e-08 1.03138506838853e-08 4.05048671918558e-08 8.89950640048174e-08 2.66667607453915e-08
"2209" 32808 2.47900383954877e-08 5.84681216246811e-09 2.60126816407135e-08 9.68846464272028e-08 1.03451890847203e-08 4.05117187710453e-08 8.85576823903306e-08 2.65738234465917e-08
"2210" 32809 2.47900383954877e-08 5.84449753825374e-09 2.59624803211194e-08 9.64532755613794e-08 1.03765274855552e-08 4.05185703502348e-08 8.81203007758438e-08 2.64808861477919e-08
"2211" 32810 2.47900383954877e-08 5.84218291403938e-09 2.59122790015254e-08 9.6021904695556e-08 1.04078658863902e-08 4.05254219294243e-08 8.76829191613571e-08 2.63879488489921e-08
"2212" 32811 2.47900383954877e-08 5.83986828982501e-09 2.58620776819313e-08 9.55905338297326e-08 1.04392042872252e-08 4.05322735086137e-08 8.72455375468703e-08 2.62950115501923e-08
"2213" 32812 2.47900383954877e-08 5.83755366561065e-09 2.58118763623373e-08 9.51591629639092e-08 1.04705426880601e-08 4.05391250878032e-08 8.68081559323835e-08 2.62020742513925e-08
"2214" 32813 2.47900383954877e-08 5.83523904139629e-09 2.57616750427433e-08 9.47277920980858e-08 1.05018810888951e-08 4.05459766669927e-08 8.63707743178967e-08 2.61091369525927e-08
"2215" 32814 2.47900383954877e-08 5.83292441718192e-09 2.57114737231492e-08 9.42964212322623e-08 1.05332194897301e-08 4.05528282461821e-08 8.593339270341e-08 2.6016199653793e-08
"2216" 32815 2.47900383954877e-08 5.83060979296756e-09 2.56612724035552e-08 9.38650503664389e-08 1.0564557890565e-08 4.05596798253716e-08 8.54960110889232e-08 2.59232623549932e-08
"2217" 32816 2.47320749243938e-08 5.82956546327519e-09 2.5655222164574e-08 9.3795348258057e-08 1.05984524611035e-08 4.04529772039868e-08 8.4787137355593e-08 2.57964959361942e-08
"2218" 32817 2.46489200119435e-08 5.82852113358282e-09 2.56190511338364e-08 9.3813359391846e-08 1.06297908619385e-08 4.02151472811445e-08 8.50360078369924e-08 2.5645712179679e-08
"2219" 32818 2.45684221768268e-08 5.82747680389045e-09 2.55825540952255e-08 9.38073463436548e-08 1.06262683880593e-08 4.01592258406225e-08 8.50028707345668e-08 2.54980960998047e-08
