"time" "channel1" "channel2" "channel3" "channel4" "channel5" "channel6" "channel7" "channel8"
"1" 9072 3.65711026069061e-07 7.87409711616134e-08 2.10734043460643e-08 6.63894264878681e-09 6.36450787137416e-08 3.5507084544578e-08 2.44391308604844e-08 7.24390198605659e-08
"2" 9073 3.64835547336485e-07 7.87281591418886e-08 2.11231893696913e-08 6.63763444603333e-09 6.36242469933235e-08 3.56393960712413e-08 2.44896739454775e-08 7.19528863355293e-08
"3" 9074 3.63960068603909e-07 7.87153471221638e-08 2.11729743933183e-08 6.63632624327986e-09 6.36034152729053e-08 3.57717075979045e-08 2.45402170304707e-08 7.14667528104927e-08
"4" 9075 3.63084589871333e-07 7.87025351024389e-08 2.12227594169453e-08 6.63501804052638e-09 6.35825835524872e-08 3.59040191245677e-08 2.45907601154638e-08 7.09806192854561e-08
"5" 9076 3.62209111138756e-07 7.86897230827141e-08 2.12725444405723e-08 6.63370983777291e-09 6.35617518320691e-08 3.6036330651231e-08 2.46413032004569e-08 7.04944857604195e-08
"6" 9077 3.61799387672202e-07 7.86708634820921e-08 2.1266541345547e-08 6.76461204745587e-09 6.3868744585859e-08 3.59968034351297e-08 2.46705098123975e-08 7.03341303257281e-08
"7" 9078 3.61389664205647e-07 7.86520038814701e-08 2.12605382505218e-08 6.89551425713883e-09 6.41757373396488e-08 3.59572762190285e-08 2.4699716424338e-08 7.01737748910367e-08
"8" 9079 3.60979940739092e-07 7.86331442808481e-08 2.12545351554966e-08 7.02641646682178e-09 6.44827300934386e-08 3.59177490029273e-08 2.47289230362786e-08 7.00134194563453e-08
"9" 9080 3.60570217272537e-07 7.86142846802261e-08 2.12485320604714e-08 7.15731867650474e-09 6.47897228472284e-08 3.58782217868261e-08 2.47581296482191e-08 6.98530640216539e-08
"10" 9081 3.60160493805982e-07 7.85954250796041e-08 2.12425289654461e-08 7.2882208861877e-09 6.50967156010182e-08 3.58386945707249e-08 2.47873362601597e-08 6.96927085869625e-08
"11" 9082 3.59750770339428e-07 7.85765654789821e-08 2.12365258704209e-08 7.41912309587066e-09 6.5403708354808e-08 3.57991673546236e-08 2.48165428721002e-08 6.95323531522711e-08
"12" 9083 3.59341046872873e-07 7.855770587836e-08 2.12305227753957e-08 7.55002530555362e-09 6.57107011085978e-08 3.57596401385224e-08 2.48457494840408e-08 6.93719977175797e-08
"13" 9084 3.58931323406318e-07 7.8538846277738e-08 2.12245196803705e-08 7.68092751523658e-09 6.60176938623876e-08 3.57201129224212e-08 2.48749560959813e-08 6.92116422828883e-08
"14" 9085 3.57741714793813e-07 7.85340768513792e-08 2.12205206266235e-08 7.73552869142042e-09 6.64010897174131e-08 3.57146387426432e-08 2.49982497195703e-08 6.88071953495677e-08
"15" 9086 3.56552106181307e-07 7.85293074250204e-08 2.12165215728764e-08 7.79012986760426e-09 6.67844855724386e-08 3.57091645628652e-08 2.51215433431593e-08 6.84027484162471e-08
"16" 9087 3.55362497568802e-07 7.85245379986616e-08 2.12125225191294e-08 7.8447310437881e-09 6.71678814274641e-08 3.57036903830871e-08 2.52448369667484e-08 6.79983014829265e-08
"17" 9088 3.54172888956297e-07 7.85197685723028e-08 2.12085234653824e-08 7.89933221997194e-09 6.75512772824896e-08 3.56982162033091e-08 2.53681305903374e-08 6.75938545496059e-08
"18" 9089 3.54097793197124e-07 7.82159317164751e-08 2.12085234653824e-08 7.84767440189005e-09 6.75225283889934e-08 3.55862724006438e-08 2.54556041974189e-08 6.76261519676998e-08
"19" 9090 3.53607474371723e-07 7.80554614893326e-08 2.12085505518105e-08 7.90095918188686e-09 6.78306696706211e-08 3.56171301708645e-08 2.55820199537544e-08 6.75504294910231e-08
"20" 9091 3.53117155546323e-07 7.78949912621901e-08 2.12085776382386e-08 7.95424396188368e-09 6.81388109522488e-08 3.56479879410853e-08 2.570843571009e-08 6.74747070143464e-08
"21" 9092 3.52626836720922e-07 7.77345210350477e-08 2.12086047246667e-08 8.0075287418805e-09 6.84469522338765e-08 3.56788457113061e-08 2.58348514664255e-08 6.73989845376698e-08
"22" 9093 3.52136517895521e-07 7.75740508079052e-08 2.12086318110948e-08 8.06081352187731e-09 6.87550935155041e-08 3.57097034815268e-08 2.59612672227611e-08 6.73232620609931e-08
"23" 9094 3.5164619907012e-07 7.74135805807627e-08 2.12086588975229e-08 8.11409830187413e-09 6.90632347971318e-08 3.57405612517476e-08 2.60876829790967e-08 6.72475395843164e-08
"24" 9095 3.51155880244719e-07 7.72531103536202e-08 2.1208685983951e-08 8.16738308187094e-09 6.93713760787595e-08 3.57714190219684e-08 2.62140987354322e-08 6.71718171076398e-08
"25" 9096 3.50665561419318e-07 7.70926401264777e-08 2.12087130703791e-08 8.22066786186776e-09 6.96795173603872e-08 3.58022767921892e-08 2.63405144917678e-08 6.70960946309631e-08
"26" 9097 3.50175242593917e-07 7.69321698993352e-08 2.12087401568072e-08 8.27395264186458e-09 6.99876586420149e-08 3.58331345624099e-08 2.64669302481033e-08 6.70203721542864e-08
"27" 9098 3.49684923768517e-07 7.67716996721927e-08 2.12087672432354e-08 8.32723742186139e-09 7.02957999236425e-08 3.58639923326307e-08 2.65933460044389e-08 6.69446496776098e-08
"28" 9099 3.49194604943116e-07 7.66112294450503e-08 2.12087943296635e-08 8.38052220185821e-09 7.06039412052702e-08 3.58948501028514e-08 2.67197617607744e-08 6.68689272009331e-08
"29" 9100 3.48834723436535e-07 7.64658132344475e-08 2.1296674195195e-08 8.37677745676238e-09 7.05906185473085e-08 3.58867605638958e-08 2.71356150378968e-08 6.67609073061626e-08
"30" 9101 3.48474841929954e-07 7.63203970238447e-08 2.13845540607265e-08 8.37303271166656e-09 7.05772958893469e-08 3.58786710249401e-08 2.75514683150192e-08 6.66528874113921e-08
"31" 9102 3.47974084923355e-07 7.64983572740473e-08 2.13823232149131e-08 8.3758289803381e-09 7.04860020326965e-08 3.58823650441598e-08 2.7564486697886e-08 6.66244206386552e-08
"32" 9103 3.47473327916757e-07 7.667631752425e-08 2.13800923690997e-08 8.37862524900965e-09 7.0394708176046e-08 3.58860590633794e-08 2.75775050807529e-08 6.65959538659183e-08
"33" 9104 3.46972570910158e-07 7.68542777744526e-08 2.13778615232863e-08 8.38142151768120e-09 7.03034143193956e-08 3.5889753082599e-08 2.75905234636197e-08 6.65674870931814e-08
"34" 9105 3.46471813903559e-07 7.70322380246553e-08 2.13756306774729e-08 8.38421778635274e-09 7.02121204627451e-08 3.58934471018187e-08 2.76035418464865e-08 6.65390203204446e-08
"35" 9106 3.45971056896961e-07 7.72101982748579e-08 2.13733998316596e-08 8.38701405502429e-09 7.01208266060947e-08 3.58971411210383e-08 2.76165602293534e-08 6.65105535477077e-08
"36" 9107 3.45470299890362e-07 7.73881585250606e-08 2.13711689858462e-08 8.38981032369583e-09 7.00295327494443e-08 3.59008351402579e-08 2.76295786122202e-08 6.64820867749708e-08
"37" 9108 3.44969542883763e-07 7.75661187752632e-08 2.13689381400328e-08 8.39260659236738e-09 6.99382388927938e-08 3.59045291594776e-08 2.7642596995087e-08 6.64536200022339e-08
"38" 9109 3.44468785877165e-07 7.77440790254659e-08 2.13667072942194e-08 8.39540286103893e-09 6.98469450361434e-08 3.59082231786972e-08 2.76556153779538e-08 6.6425153229497e-08
"39" 9110 3.43968028870566e-07 7.79220392756685e-08 2.13644764484061e-08 8.39819912971047e-09 6.97556511794929e-08 3.59119171979168e-08 2.76686337608207e-08 6.63966864567601e-08
"40" 9111 3.43467271863967e-07 7.80999995258712e-08 2.13622456025927e-08 8.40099539838202e-09 6.96643573228425e-08 3.59156112171365e-08 2.76816521436875e-08 6.63682196840232e-08
"41" 9112 3.42966514857369e-07 7.82779597760739e-08 2.13600147567793e-08 8.40379166705356e-09 6.95730634661921e-08 3.59193052363561e-08 2.76946705265543e-08 6.63397529112863e-08
"42" 9113 3.4246575785077e-07 7.84559200262765e-08 2.13577839109659e-08 8.40658793572511e-09 6.94817696095416e-08 3.59229992555757e-08 2.77076889094212e-08 6.63112861385494e-08
"43" 9114 3.41965000844171e-07 7.86338802764792e-08 2.13555530651526e-08 8.40938420439666e-09 6.93904757528912e-08 3.59266932747954e-08 2.7720707292288e-08 6.62828193658125e-08
"44" 9115 3.41464243837573e-07 7.88118405266818e-08 2.13533222193392e-08 8.4121804730682e-09 6.92991818962408e-08 3.5930387294015e-08 2.77337256751548e-08 6.62543525930756e-08
"45" 9116 3.40963486830974e-07 7.89898007768845e-08 2.13510913735258e-08 8.41497674173975e-09 6.92078880395903e-08 3.59340813132346e-08 2.77467440580217e-08 6.62258858203387e-08
"46" 9117 3.39445440477151e-07 7.92684770876134e-08 2.124121111368e-08 8.35049036939848e-09 6.91792493271019e-08 3.59454918381346e-08 2.77676522828324e-08 6.60871779940022e-08
"47" 9118 3.37927394123328e-07 7.95471533983423e-08 2.11313308538343e-08 8.28600399705722e-09 6.91506106146135e-08 3.59569023630346e-08 2.77885605076432e-08 6.59484701676657e-08
"48" 9119 3.36409347769505e-07 7.98258297090712e-08 2.10214505939885e-08 8.22151762471596e-09 6.91219719021251e-08 3.59683128879345e-08 2.7809468732454e-08 6.58097623413292e-08
"49" 9120 3.34891301415682e-07 8.01045060198001e-08 2.09115703341428e-08 8.15703125237469e-09 6.90933331896367e-08 3.59797234128345e-08 2.78303769572647e-08 6.56710545149927e-08
"50" 9121 3.33373255061859e-07 8.03831823305291e-08 2.0801690074297e-08 8.09254488003343e-09 6.90646944771483e-08 3.59911339377344e-08 2.78512851820755e-08 6.55323466886562e-08
"51" 9122 3.31855208708036e-07 8.0661858641258e-08 2.06918098144512e-08 8.02805850769217e-09 6.90360557646599e-08 3.60025444626344e-08 2.78721934068863e-08 6.53936388623197e-08
"52" 9123 3.3069195614781e-07 8.07260149473307e-08 2.05821744167594e-08 7.9696798126783e-09 7.00651695781602e-08 3.61313605912269e-08 2.78979595488258e-08 6.51798749993529e-08
"53" 9124 3.30129195619722e-07 8.07613318060122e-08 2.07468080894846e-08 7.99837860050158e-09 7.00666878737134e-08 3.57697849382636e-08 2.79032260111404e-08 6.52533929318973e-08
"54" 9125 3.29566435091635e-07 8.07966486646936e-08 2.09114417622097e-08 8.02707738832485e-09 7.00682061692666e-08 3.54082092853004e-08 2.79084924734551e-08 6.53269108644417e-08
"55" 9126 3.29003674563548e-07 8.08319655233751e-08 2.10760754349349e-08 8.05577617614813e-09 7.00697244648197e-08 3.50466336323371e-08 2.79137589357697e-08 6.54004287969861e-08
"56" 9127 3.2844091403546e-07 8.08672823820566e-08 2.124070910766e-08 8.0844749639714e-09 7.00712427603729e-08 3.46850579793738e-08 2.79190253980843e-08 6.54739467295305e-08
"57" 9128 3.27878153507373e-07 8.0902599240738e-08 2.14053427803852e-08 8.11317375179468e-09 7.00727610559261e-08 3.43234823264105e-08 2.79242918603989e-08 6.5547464662075e-08
"58" 9129 3.27315392979285e-07 8.09379160994195e-08 2.15699764531103e-08 8.14187253961795e-09 7.00742793514793e-08 3.39619066734472e-08 2.79295583227135e-08 6.56209825946194e-08
"59" 9130 3.26752632451198e-07 8.09732329581009e-08 2.17346101258355e-08 8.17057132744123e-09 7.00757976470325e-08 3.36003310204839e-08 2.79348247850281e-08 6.56945005271638e-08
"60" 9131 3.2618987192311e-07 8.10085498167824e-08 2.18992437985606e-08 8.1992701152645e-09 7.00773159425857e-08 3.32387553675207e-08 2.79400912473428e-08 6.57680184597082e-08
"61" 9132 3.25627111395023e-07 8.10438666754638e-08 2.20638774712858e-08 8.22796890308778e-09 7.00788342381388e-08 3.28771797145574e-08 2.79453577096574e-08 6.58415363922526e-08
"62" 9133 3.25064350866935e-07 8.10791835341453e-08 2.22285111440109e-08 8.25666769091105e-09 7.0080352533692e-08 3.25156040615941e-08 2.7950624171972e-08 6.5915054324797e-08
"63" 9134 3.24501590338848e-07 8.11145003928268e-08 2.23931448167361e-08 8.28536647873433e-09 7.00818708292452e-08 3.21540284086308e-08 2.79558906342866e-08 6.59885722573414e-08
"64" 9135 3.24095685446891e-07 8.11627222890649e-08 2.22334715887549e-08 8.29704224389533e-09 7.01027466220664e-08 3.19468513700913e-08 2.79562794764165e-08 6.59968289136518e-08
"65" 9136 3.23689780554935e-07 8.1210944185303e-08 2.20737983607737e-08 8.30871800905634e-09 7.01236224148876e-08 3.17396743315517e-08 2.79566683185463e-08 6.60050855699622e-08
"66" 9137 3.23283875662978e-07 8.12591660815412e-08 2.19141251327925e-08 8.32039377421735e-09 7.01444982077089e-08 3.15324972930121e-08 2.79570571606762e-08 6.60133422262726e-08
"67" 9138 3.22877970771022e-07 8.13073879777793e-08 2.17544519048113e-08 8.33206953937835e-09 7.01653740005301e-08 3.13253202544726e-08 2.79574460028061e-08 6.6021598882583e-08
"68" 9139 3.22472065879065e-07 8.13556098740174e-08 2.15947786768301e-08 8.34374530453936e-09 7.01862497933513e-08 3.1118143215933e-08 2.7957834844936e-08 6.60298555388934e-08
"69" 9140 3.22066160987108e-07 8.14038317702556e-08 2.14351054488489e-08 8.35542106970036e-09 7.02071255861725e-08 3.09109661773935e-08 2.79582236870659e-08 6.60381121952038e-08
"70" 9141 3.21660256095152e-07 8.14520536664937e-08 2.12754322208677e-08 8.36709683486137e-09 7.02280013789938e-08 3.07037891388539e-08 2.79586125291957e-08 6.60463688515142e-08
"71" 9142 3.21254351203195e-07 8.15002755627319e-08 2.11157589928866e-08 8.37877260002238e-09 7.0248877171815e-08 3.04966121003144e-08 2.79590013713256e-08 6.60546255078246e-08
"72" 9143 3.20848446311239e-07 8.154849745897e-08 2.09560857649054e-08 8.39044836518338e-09 7.02697529646362e-08 3.02894350617748e-08 2.79593902134555e-08 6.6062882164135e-08
"73" 9144 3.20251795046005e-07 8.15687603011118e-08 2.07694527821669e-08 8.40335052955353e-09 7.02571976078036e-08 3.00263814433465e-08 2.79609061758631e-08 6.61250586168567e-08
"74" 9145 3.19655143780771e-07 8.15890231432535e-08 2.05828197994284e-08 8.41625269392368e-09 7.02446422509709e-08 2.97633278249183e-08 2.79624221382706e-08 6.61872350695785e-08
"75" 9146 3.19058492515538e-07 8.16092859853953e-08 2.03961868166899e-08 8.42915485829383e-09 7.02320868941382e-08 2.950027420649e-08 2.79639381006782e-08 6.62494115223002e-08
"76" 9147 3.18709777220182e-07 8.14488157582528e-08 2.03802086593206e-08 8.45358556760342e-09 7.01399481687605e-08 2.95865463912556e-08 2.7952765413181e-08 6.62877484375534e-08
"77" 9148 3.18534089183772e-07 8.14199810952867e-08 2.03532489045633e-08 8.46979094719588e-09 6.98964056259601e-08 2.96371394342542e-08 2.79546505146625e-08 6.6318868047465e-08
"78" 9149 3.18358401147362e-07 8.13911464323205e-08 2.0326289149806e-08 8.48599632678833e-09 6.96528630831596e-08 2.96877324772528e-08 2.7956535616144e-08 6.63499876573766e-08
"79" 9150 3.18182713110952e-07 8.13623117693544e-08 2.02993293950487e-08 8.50220170638078e-09 6.94093205403592e-08 2.97383255202514e-08 2.79584207176255e-08 6.63811072672881e-08
"80" 9151 3.18007025074542e-07 8.13334771063882e-08 2.02723696402914e-08 8.51840708597323e-09 6.91657779975587e-08 2.978891856325e-08 2.7960305819107e-08 6.64122268771997e-08
"81" 9152 3.17831337038132e-07 8.13046424434221e-08 2.02454098855341e-08 8.53461246556568e-09 6.89222354547582e-08 2.98395116062486e-08 2.79621909205885e-08 6.64433464871112e-08
"82" 9153 3.17655649001723e-07 8.12758077804559e-08 2.02184501307768e-08 8.55081784515814e-09 6.86786929119578e-08 2.98901046492472e-08 2.796407602207e-08 6.64744660970228e-08
"83" 9154 3.17479960965313e-07 8.12469731174898e-08 2.01914903760196e-08 8.56702322475059e-09 6.84351503691573e-08 2.99406976922458e-08 2.79659611235514e-08 6.65055857069343e-08
"84" 9155 3.17304272928903e-07 8.12181384545236e-08 2.01645306212623e-08 8.58322860434304e-09 6.81916078263569e-08 2.99912907352445e-08 2.79678462250329e-08 6.65367053168459e-08
"85" 9156 3.17128584892493e-07 8.11893037915575e-08 2.0137570866505e-08 8.59943398393549e-09 6.79480652835564e-08 3.00418837782431e-08 2.79697313265144e-08 6.65678249267574e-08
"86" 9157 3.16952896856083e-07 8.11604691285913e-08 2.01106111117477e-08 8.61563936352794e-09 6.77045227407559e-08 3.00924768212417e-08 2.79716164279959e-08 6.6598944536669e-08
"87" 9158 3.16777208819673e-07 8.11316344656252e-08 2.00836513569904e-08 8.6318447431204e-09 6.74609801979555e-08 3.01430698642403e-08 2.79735015294774e-08 6.66300641465806e-08
"88" 9159 3.1655737891316e-07 8.11248700267976e-08 2.00479408506586e-08 8.63796880731489e-09 6.73039464200405e-08 3.01154640306675e-08 2.80240560101781e-08 6.66397709098381e-08
"89" 9160 3.16337549006646e-07 8.11181055879699e-08 2.00122303443268e-08 8.64409287150939e-09 6.71469126421255e-08 3.00878581970947e-08 2.80746104908787e-08 6.66494776730955e-08
"90" 9161 3.16446441915559e-07 8.10698500277738e-08 2.00861462068774e-08 8.7236072540441e-09 6.86083270000503e-08 3.00398359472394e-08 2.80828694718966e-08 6.66973662796958e-08
"91" 9162 3.16555334824471e-07 8.10215944675778e-08 2.0160062069428e-08 8.8031216365788e-09 7.00697413579752e-08 2.99918136973842e-08 2.80911284529144e-08 6.67452548862962e-08
"92" 9163 3.16664227733383e-07 8.09733389073817e-08 2.02339779319787e-08 8.88263601911351e-09 7.15311557159001e-08 2.99437914475289e-08 2.80993874339323e-08 6.67931434928965e-08
"93" 9164 3.16773120642296e-07 8.09250833471857e-08 2.03078937945293e-08 8.96215040164821e-09 7.2992570073825e-08 2.98957691976737e-08 2.81076464149502e-08 6.68410320994968e-08
"94" 9165 3.16882013551208e-07 8.08768277869896e-08 2.03818096570799e-08 9.04166478418292e-09 7.44539844317498e-08 2.98477469478184e-08 2.8115905395968e-08 6.68889207060971e-08
"95" 9166 3.1699090646012e-07 8.08285722267935e-08 2.04557255196306e-08 9.12117916671762e-09 7.59153987896747e-08 2.97997246979631e-08 2.81241643769859e-08 6.69368093126974e-08
"96" 9167 3.17099799369033e-07 8.07803166665975e-08 2.05296413821812e-08 9.20069354925233e-09 7.73768131475996e-08 2.97517024481079e-08 2.81324233580037e-08 6.69846979192977e-08
"97" 9168 3.17208692277945e-07 8.07320611064014e-08 2.06035572447319e-08 9.28020793178703e-09 7.88382275055244e-08 2.97036801982526e-08 2.81406823390216e-08 6.7032586525898e-08
"98" 9169 3.1749966127044e-07 8.07132031005878e-08 2.06644964974257e-08 9.3666394412854e-09 8.05369104005337e-08 2.95948870956554e-08 2.79703793967309e-08 6.640619014775e-08
"99" 9170 3.17593495842485e-07 8.04249206092254e-08 2.07743767572715e-08 9.45518860317351e-09 8.22161492693724e-08 2.95795027765794e-08 2.79548983470415e-08 6.63393864597598e-08
"100" 9171 3.1768733041453e-07 8.0136638117863e-08 2.08842570171173e-08 9.54373776506163e-09 8.38953881382111e-08 2.95641184575033e-08 2.79394172973521e-08 6.62725827717697e-08
"101" 9172 3.17781164986576e-07 7.98483556265006e-08 2.0994137276963e-08 9.63228692694974e-09 8.55746270070498e-08 2.95487341384272e-08 2.79239362476628e-08 6.62057790837795e-08
"102" 9173 3.17874999558621e-07 7.95600731351382e-08 2.11040175368088e-08 9.72083608883785e-09 8.72538658758885e-08 2.95333498193511e-08 2.79084551979734e-08 6.61389753957893e-08
"103" 9174 3.17968834130666e-07 7.92717906437758e-08 2.12138977966545e-08 9.80938525072597e-09 8.89331047447272e-08 2.9517965500275e-08 2.7892974148284e-08 6.60721717077992e-08
"104" 9175 3.18062668702711e-07 7.89835081524134e-08 2.13237780565003e-08 9.89793441261408e-09 9.06123436135659e-08 2.95025811811989e-08 2.78774930985946e-08 6.6005368019809e-08
"105" 9176 3.18156503274756e-07 7.8695225661051e-08 2.14336583163461e-08 9.98648357450219e-09 9.22915824824046e-08 2.94871968621228e-08 2.78620120489053e-08 6.59385643318188e-08
"106" 9177 3.18250337846802e-07 7.84069431696885e-08 2.15435385761918e-08 1.00750327363903e-08 9.39708213512433e-08 2.94718125430467e-08 2.78465309992159e-08 6.58717606438287e-08
"107" 9178 3.18344172418847e-07 7.81186606783261e-08 2.16534188360376e-08 1.01635818982784e-08 9.5650060220082e-08 2.94564282239706e-08 2.78310499495265e-08 6.58049569558385e-08
"108" 9179 3.18438006990892e-07 7.78303781869637e-08 2.17632990958833e-08 1.02521310601665e-08 9.73292990889207e-08 2.94410439048945e-08 2.78155688998371e-08 6.57381532678483e-08
"109" 9180 3.18438006990892e-07 7.75431862196676e-08 2.18441783601552e-08 1.02714679852502e-08 9.73055687241023e-08 2.94265476029724e-08 2.77925868503337e-08 6.58837347183198e-08
"110" 9181 3.18438006990892e-07 7.72559942523715e-08 2.1925057624427e-08 1.02908049103339e-08 9.7281838359284e-08 2.94120513010504e-08 2.77696048008302e-08 6.60293161687913e-08
"111" 9182 3.18479759715683e-07 7.72210126114427e-08 2.20688068678951e-08 1.02913690801284e-08 9.72555203545766e-08 2.98772055690171e-08 2.77572458838874e-08 6.5885939262452e-08
"112" 9183 3.18521512440474e-07 7.7186030970514e-08 2.22125561113631e-08 1.02919332499228e-08 9.72292023498692e-08 3.03423598369838e-08 2.77448869669446e-08 6.57425623561128e-08
"113" 9184 3.18701475449358e-07 7.74283913215187e-08 2.21609205362172e-08 1.02619590330803e-08 9.72280097496283e-08 3.07976972239713e-08 2.77349907168243e-08 6.5743903543554e-08
"114" 9185 3.18009987667383e-07 7.73425127675272e-08 2.21838722084181e-08 1.02214864204757e-08 9.66842015235644e-08 3.12153442259615e-08 2.75678099072801e-08 6.4854333514442e-08
"115" 9186 3.17318499885409e-07 7.72566342135358e-08 2.2206823880619e-08 1.01810138078712e-08 9.61403932975006e-08 3.16329912279516e-08 2.7400629097736e-08 6.396476348533e-08
"116" 9187 3.16627012103434e-07 7.71707556595443e-08 2.22297755528199e-08 1.01405411952666e-08 9.55965850714368e-08 3.20506382299418e-08 2.72334482881918e-08 6.3075193456218e-08
"117" 9188 3.15935524321459e-07 7.70848771055529e-08 2.22527272250208e-08 1.01000685826621e-08 9.50527768453729e-08 3.2468285231932e-08 2.70662674786477e-08 6.2185623427106e-08
"118" 9189 3.15244036539485e-07 7.69989985515614e-08 2.22756788972217e-08 1.00595959700575e-08 9.45089686193091e-08 3.28859322339222e-08 2.68990866691035e-08 6.1296053397994e-08
"119" 9190 3.1455254875751e-07 7.69131199975699e-08 2.22986305694226e-08 1.0019123357453e-08 9.39651603932452e-08 3.33035792359123e-08 2.67319058595594e-08 6.0406483368882e-08
"120" 9191 3.13861060975535e-07 7.68272414435785e-08 2.23215822416235e-08 9.97865074484844e-09 9.34213521671814e-08 3.37212262379025e-08 2.65647250500153e-08 5.951691333977e-08
"121" 9192 3.13169573193561e-07 7.6741362889587e-08 2.23445339138243e-08 9.9381781322439e-09 9.28775439411176e-08 3.41388732398927e-08 2.63975442404711e-08 5.8627343310658e-08
"122" 9193 3.12348772538154e-07 7.64428615411512e-08 2.22486288543707e-08 9.89795079948118e-09 9.24983609707346e-08 3.41867331821328e-08 2.62427223478698e-08 5.79281166703712e-08
"123" 9194 3.11527971882746e-07 7.61443601927154e-08 2.2152723794917e-08 9.85772346671846e-09 9.21191780003517e-08 3.42345931243729e-08 2.60879004552685e-08 5.72288900300844e-08
"124" 9195 3.10707171227339e-07 7.58458588442796e-08 2.20568187354634e-08 9.81749613395574e-09 9.17399950299688e-08 3.4282453066613e-08 2.59330785626672e-08 5.65296633897976e-08
"125" 9196 3.09886370571932e-07 7.55473574958438e-08 2.19609136760097e-08 9.77726880119302e-09 9.13608120595858e-08 3.43303130088531e-08 2.57782566700659e-08 5.58304367495108e-08
"126" 9197 3.09065569916525e-07 7.5248856147408e-08 2.18650086165561e-08 9.73704146843031e-09 9.09816290892029e-08 3.43781729510932e-08 2.56234347774646e-08 5.5131210109224e-08
"127" 9198 3.08244769261118e-07 7.49503547989722e-08 2.17691035571024e-08 9.69681413566759e-09 9.060244611882e-08 3.44260328933332e-08 2.54686128848633e-08 5.44319834689372e-08
"128" 9199 3.0742396860571e-07 7.46518534505364e-08 2.16731984976488e-08 9.65658680290487e-09 9.02232631484371e-08 3.44738928355733e-08 2.5313790992262e-08 5.37327568286504e-08
"129" 9200 3.06603167950303e-07 7.43533521021006e-08 2.15772934381951e-08 9.61635947014215e-09 8.98440801780541e-08 3.45217527778134e-08 2.51589690996607e-08 5.30335301883636e-08
"130" 9201 3.0750920428316e-07 7.45654552379369e-08 2.14686837174667e-08 9.57744034013291e-09 8.94241284374621e-08 3.46156845234742e-08 2.5179271748726e-08 5.21961280122434e-08
"131" 9202 3.08415240616018e-07 7.47775583737732e-08 2.13600739967384e-08 9.53852121012366e-09 8.90041766968701e-08 3.4709616269135e-08 2.51995743977914e-08 5.13587258361231e-08
"132" 9203 3.09321276948875e-07 7.49896615096095e-08 2.125146427601e-08 9.49960208011442e-09 8.85842249562781e-08 3.48035480147958e-08 2.52198770468567e-08 5.05213236600028e-08
"133" 9204 3.10227313281732e-07 7.52017646454458e-08 2.11428545552816e-08 9.46068295010518e-09 8.81642732156861e-08 3.48974797604566e-08 2.5240179695922e-08 4.96839214838826e-08
"134" 9205 3.11133349614589e-07 7.5413867781282e-08 2.10342448345532e-08 9.42176382009593e-09 8.77443214750941e-08 3.49914115061174e-08 2.52604823449873e-08 4.88465193077623e-08
"135" 9206 3.12039385947446e-07 7.56259709171183e-08 2.09256351138248e-08 9.38284469008669e-09 8.7324369734502e-08 3.50853432517782e-08 2.52807849940527e-08 4.80091171316421e-08
"136" 9207 3.13112083684383e-07 7.61621032333914e-08 2.09288183218258e-08 9.37873202522812e-09 8.74476262471531e-08 3.52412785653376e-08 2.54770458898532e-08 4.80554005593848e-08
"137" 9208 3.14703192994702e-07 7.61383811885788e-08 2.08204072349035e-08 9.36470971470264e-09 8.74787440344265e-08 3.52309384479791e-08 2.56628526732483e-08 4.7867521398438e-08
"138" 9209 3.1629430230502e-07 7.61146591437661e-08 2.07119961479813e-08 9.35068740417716e-09 8.75098618216999e-08 3.52205983306206e-08 2.58486594566434e-08 4.76796422374911e-08
"139" 9210 3.17885411615338e-07 7.60909370989534e-08 2.0603585061059e-08 9.33666509365169e-09 8.75409796089733e-08 3.52102582132621e-08 2.60344662400385e-08 4.74917630765443e-08
"140" 9211 3.19476520925657e-07 7.60672150541407e-08 2.04951739741368e-08 9.32264278312621e-09 8.75720973962467e-08 3.51999180959037e-08 2.62202730234336e-08 4.73038839155975e-08
"141" 9212 3.21067630235975e-07 7.6043493009328e-08 2.03867628872145e-08 9.30862047260073e-09 8.76032151835201e-08 3.51895779785452e-08 2.64060798068287e-08 4.71160047546506e-08
"142" 9213 3.22658739546293e-07 7.60197709645153e-08 2.02783518002923e-08 9.29459816207525e-09 8.76343329707935e-08 3.51792378611867e-08 2.65918865902238e-08 4.69281255937038e-08
"143" 9214 3.24249848856612e-07 7.59960489197027e-08 2.01699407133701e-08 9.28057585154977e-09 8.76654507580669e-08 3.51688977438282e-08 2.67776933736189e-08 4.67402464327569e-08
"144" 9215 3.2584095816693e-07 7.597232687489e-08 2.00615296264478e-08 9.26655354102429e-09 8.76965685453404e-08 3.51585576264697e-08 2.6963500157014e-08 4.65523672718101e-08
"145" 9216 3.27432067477249e-07 7.59486048300773e-08 1.99531185395256e-08 9.25253123049882e-09 8.77276863326138e-08 3.51482175091112e-08 2.71493069404091e-08 4.63644881108633e-08
"146" 9217 3.27163742738653e-07 7.53727583000914e-08 1.98335080794896e-08 9.27742804998258e-09 8.81331668874062e-08 3.50521284433664e-08 2.72192028816935e-08 4.61477944962946e-08
"147" 9218 3.26895418000057e-07 7.47969117701054e-08 1.97138976194536e-08 9.30232486946635e-09 8.85386474421987e-08 3.49560393776216e-08 2.72890988229779e-08 4.5931100881726e-08
"148" 9219 3.26627093261461e-07 7.42210652401194e-08 1.95942871594176e-08 9.32722168895012e-09 8.89441279969912e-08 3.48599503118768e-08 2.73589947642623e-08 4.57144072671573e-08
"149" 9220 3.27343491941955e-07 7.37083406563971e-08 1.96421494010508e-08 9.31731204328321e-09 8.88728209920317e-08 3.49997024212746e-08 2.73832843499062e-08 4.57085603789723e-08
"150" 9221 3.28059890622449e-07 7.31956160726748e-08 1.96900116426839e-08 9.3074023976163e-09 8.88015139870721e-08 3.51394545306724e-08 2.74075739355501e-08 4.57027134907873e-08
"151" 9222 3.28776289302944e-07 7.26828914889525e-08 1.9737873884317e-08 9.29749275194939e-09 8.87302069821125e-08 3.52792066400702e-08 2.7431863521194e-08 4.56968666026024e-08
"152" 9223 3.29492687983438e-07 7.21701669052302e-08 1.97857361259502e-08 9.28758310628248e-09 8.8658899977153e-08 3.54189587494679e-08 2.74561531068379e-08 4.56910197144174e-08
"153" 9224 3.30209086663933e-07 7.16574423215079e-08 1.98335983675833e-08 9.27767346061558e-09 8.85875929721934e-08 3.55587108588657e-08 2.74804426924817e-08 4.56851728262324e-08
"154" 9225 3.30925485344427e-07 7.11447177377855e-08 1.98814606092164e-08 9.26776381494867e-09 8.85162859672339e-08 3.56984629682635e-08 2.75047322781256e-08 4.56793259380474e-08
"155" 9226 3.31641884024921e-07 7.06319931540632e-08 1.99293228508495e-08 9.25785416928176e-09 8.84449789622743e-08 3.58382150776613e-08 2.75290218637695e-08 4.56734790498624e-08
"156" 9227 3.32358282705416e-07 7.01192685703409e-08 1.99771850924827e-08 9.24794452361485e-09 8.83736719573147e-08 3.59779671870591e-08 2.75533114494134e-08 4.56676321616774e-08
"157" 9228 3.3307468138591e-07 6.96065439866186e-08 2.00250473341158e-08 9.23803487794794e-09 8.83023649523552e-08 3.61177192964568e-08 2.75776010350573e-08 4.56617852734924e-08
"158" 9229 3.34036382016159e-07 6.9559252268699e-08 2.01925200357849e-08 9.23192720062055e-09 8.82108115089972e-08 3.63680284382487e-08 2.76123447331066e-08 4.57323860694537e-08
"159" 9230 3.34537762432511e-07 6.93499892798602e-08 2.03487933643403e-08 9.23192720062055e-09 8.82310506019951e-08 3.66038696133913e-08 2.76495624936859e-08 4.59215559577669e-08
"160" 9231 3.35039142848863e-07 6.91407262910214e-08 2.05050666928957e-08 9.23192720062055e-09 8.8251289694993e-08 3.68397107885338e-08 2.76867802542653e-08 4.61107258460801e-08
"161" 9232 3.35540523265215e-07 6.89314633021825e-08 2.0661340021451e-08 9.23192720062055e-09 8.82715287879909e-08 3.70755519636764e-08 2.77239980148446e-08 4.62998957343933e-08
"162" 9233 3.36041903681567e-07 6.87222003133437e-08 2.08176133500064e-08 9.23192720062055e-09 8.82917678809887e-08 3.7311393138819e-08 2.7761215775424e-08 4.64890656227065e-08
"163" 9234 3.3654328409792e-07 6.85129373245049e-08 2.09738866785618e-08 9.23192720062055e-09 8.83120069739866e-08 3.75472343139616e-08 2.77984335360033e-08 4.66782355110197e-08
"164" 9235 3.37044664514272e-07 6.8303674335666e-08 2.11301600071172e-08 9.23192720062055e-09 8.83322460669845e-08 3.77830754891041e-08 2.78356512965827e-08 4.68674053993329e-08
"165" 9236 3.37546044930624e-07 6.80944113468272e-08 2.12864333356726e-08 9.23192720062055e-09 8.83524851599824e-08 3.80189166642467e-08 2.7872869057162e-08 4.70565752876461e-08
"166" 9237 3.38047425346976e-07 6.78851483579884e-08 2.14427066642279e-08 9.23192720062055e-09 8.83727242529802e-08 3.82547578393893e-08 2.79100868177414e-08 4.72457451759593e-08
"167" 9238 3.38548805763328e-07 6.76758853691495e-08 2.15989799927833e-08 9.23192720062055e-09 8.83929633459781e-08 3.84905990145318e-08 2.79473045783207e-08 4.74349150642725e-08
"168" 9239 3.38416669539015e-07 6.74042172919775e-08 2.16767313062114e-08 9.23717639850154e-09 8.9193449024198e-08 3.84500093691502e-08 2.79479329454812e-08 4.74067082832739e-08
"169" 9240 3.38284533314702e-07 6.71325492148055e-08 2.17544826196395e-08 9.24242559638254e-09 8.99939347024179e-08 3.84094197237685e-08 2.79485613126417e-08 4.73785015022752e-08
"170" 9241 3.37883137237163e-07 6.68761564486032e-08 2.17433013041445e-08 9.23607263921331e-09 9.00672293744458e-08 3.85639803715678e-08 2.79989861792991e-08 4.73438235457715e-08
"171" 9242 3.37481741159624e-07 6.66197636824009e-08 2.17321199886495e-08 9.22971968204409e-09 9.01405240464737e-08 3.87185410193672e-08 2.80494110459564e-08 4.73091455892679e-08
"172" 9243 3.37080345082084e-07 6.63633709161986e-08 2.17209386731545e-08 9.22336672487486e-09 9.02138187185015e-08 3.88731016671665e-08 2.80998359126138e-08 4.72744676327642e-08
"173" 9244 3.35836880136416e-07 6.6379300541608e-08 2.16798592570552e-08 9.22149435232695e-09 9.00684130133825e-08 3.89184029207745e-08 2.80717481136025e-08 4.68087036037348e-08
"174" 9245 3.32899202083759e-07 6.62008752022461e-08 2.167689382478e-08 9.20989219727672e-09 8.98763196092526e-08 3.9142136196751e-08 2.81215446130994e-08 4.66423339019213e-08
"175" 9246 3.29961524031103e-07 6.60224498628842e-08 2.16739283925049e-08 9.1982900422265e-09 8.96842262051227e-08 3.93658694727275e-08 2.81713411125962e-08 4.64759642001079e-08
"176" 9247 3.27023845978447e-07 6.58440245235222e-08 2.16709629602298e-08 9.18668788717627e-09 8.94921328009929e-08 3.9589602748704e-08 2.82211376120931e-08 4.63095944982945e-08
"177" 9248 3.2408616792579e-07 6.56655991841603e-08 2.16679975279546e-08 9.17508573212605e-09 8.9300039396863e-08 3.98133360246804e-08 2.82709341115899e-08 4.6143224796481e-08
"178" 9249 3.21148489873134e-07 6.54871738447984e-08 2.16650320956795e-08 9.16348357707583e-09 8.91079459927331e-08 4.00370693006569e-08 2.83207306110868e-08 4.59768550946676e-08
"179" 9250 3.18210811820478e-07 6.53087485054364e-08 2.16620666634044e-08 9.1518814220256e-09 8.89158525886032e-08 4.02608025766334e-08 2.83705271105836e-08 4.58104853928541e-08
"180" 9251 3.15273133767822e-07 6.51303231660745e-08 2.16591012311292e-08 9.14027926697538e-09 8.87237591844733e-08 4.04845358526099e-08 2.84203236100805e-08 4.56441156910407e-08
"181" 9252 3.12335455715165e-07 6.49518978267126e-08 2.16561357988541e-08 9.12867711192515e-09 8.85316657803434e-08 4.07082691285864e-08 2.84701201095773e-08 4.54777459892272e-08
"182" 9253 3.09312243722139e-07 6.4878648446399e-08 2.16561719140916e-08 9.12342791404415e-09 8.83159358856982e-08 4.07426344013891e-08 2.87706567246269e-08 4.54064913682383e-08
"183" 9254 3.06289031729112e-07 6.48053990660854e-08 2.16562080293291e-08 9.11817871616316e-09 8.8100205991053e-08 4.07769996741918e-08 2.90711933396765e-08 4.53352367472494e-08
"184" 9255 3.03265819736086e-07 6.47321496857718e-08 2.16562441445665e-08 9.11292951828216e-09 8.78844760964079e-08 4.08113649469946e-08 2.93717299547261e-08 4.52639821262604e-08
"185" 9256 3.00242607743059e-07 6.46589003054583e-08 2.1656280259804e-08 9.10768032040116e-09 8.76687462017627e-08 4.08457302197973e-08 2.96722665697757e-08 4.51927275052715e-08
"186" 9257 2.97219395750033e-07 6.45856509251447e-08 2.16563163750415e-08 9.10243112252016e-09 8.74530163071175e-08 4.08800954926001e-08 2.99728031848252e-08 4.51214728842826e-08
"187" 9258 2.94196183757006e-07 6.45124015448311e-08 2.1656352490279e-08 9.09718192463917e-09 8.72372864124723e-08 4.09144607654028e-08 3.02733397998748e-08 4.50502182632936e-08
"188" 9259 2.9117297176398e-07 6.44391521645175e-08 2.16563886055165e-08 9.09193272675817e-09 8.70215565178271e-08 4.09488260382055e-08 3.05738764149244e-08 4.49789636423047e-08
"189" 9260 2.88149759770953e-07 6.4365902784204e-08 2.16564247207539e-08 9.08668352887717e-09 8.68058266231819e-08 4.09831913110082e-08 3.0874413029974e-08 4.49077090213158e-08
"190" 9261 2.85126547777926e-07 6.42926534038904e-08 2.16564608359914e-08 9.08143433099617e-09 8.65900967285367e-08 4.1017556583811e-08 3.11749496450236e-08 4.48364544003268e-08
"191" 9262 2.82129945588913e-07 6.4098298439119e-08 2.16646767192113e-08 9.09396857560358e-09 8.66412732056025e-08 4.10636770795162e-08 3.11891936634479e-08 4.5032828978963e-08
"192" 9263 2.79133343399899e-07 6.39039434743476e-08 2.16728926024311e-08 9.10650282021099e-09 8.66924496826682e-08 4.11097975752215e-08 3.12034376818723e-08 4.52292035575993e-08
"193" 9264 2.76136741210885e-07 6.37095885095762e-08 2.1681108485651e-08 9.11903706481839e-09 8.6743626159734e-08 4.11559180709268e-08 3.12176817002966e-08 4.54255781362355e-08
"194" 9265 2.73140139021871e-07 6.35152335448048e-08 2.16893243688709e-08 9.1315713094258e-09 8.67948026367997e-08 4.1202038566632e-08 3.12319257187209e-08 4.56219527148717e-08
"195" 9266 2.70143536832858e-07 6.33208785800334e-08 2.16975402520907e-08 9.14410555403321e-09 8.68459791138655e-08 4.12481590623373e-08 3.12461697371453e-08 4.58183272935079e-08
"196" 9267 2.69827028967056e-07 6.33049489546239e-08 2.17094832404756e-08 9.16824195369084e-09 8.71505809376765e-08 4.12766042207796e-08 3.12604137555696e-08 4.60404484249426e-08
"197" 9268 2.69249023053861e-07 6.32146105021104e-08 2.16914468689718e-08 9.15592034598223e-09 8.68867641907793e-08 4.12883594436821e-08 3.12685825286561e-08 4.61413891635929e-08
"198" 9269 2.68671017140666e-07 6.31242720495968e-08 2.1673410497468e-08 9.14359873827361e-09 8.66229474438821e-08 4.13001146665847e-08 3.12767513017426e-08 4.62423299022432e-08
"199" 9270 2.68093011227471e-07 6.30339335970833e-08 2.16553741259642e-08 9.131277130565e-09 8.63591306969849e-08 4.13118698894872e-08 3.12849200748291e-08 4.63432706408935e-08
"200" 9271 2.67515005314276e-07 6.29435951445697e-08 2.16373377544605e-08 9.11895552285639e-09 8.60953139500877e-08 4.13236251123897e-08 3.12930888479156e-08 4.64442113795437e-08
"201" 9272 2.66936999401081e-07 6.28532566920562e-08 2.16193013829567e-08 9.10663391514778e-09 8.58314972031905e-08 4.13353803352922e-08 3.13012576210021e-08 4.6545152118194e-08
"202" 9273 2.66358993487886e-07 6.27629182395426e-08 2.16012650114529e-08 9.09431230743917e-09 8.55676804562933e-08 4.13471355581948e-08 3.13094263940885e-08 4.66460928568443e-08
"203" 9274 2.6578098757469e-07 6.26725797870291e-08 2.15832286399491e-08 9.08199069973055e-09 8.53038637093961e-08 4.13588907810973e-08 3.1317595167175e-08 4.67470335954945e-08
"204" 9275 2.66208857640167e-07 6.31580253210108e-08 2.18945679596081e-08 9.05188564953354e-09 8.53038637093961e-08 4.13588907810973e-08 3.13163975420219e-08 4.65346819944187e-08
"205" 9276 2.66636727705643e-07 6.36434708549925e-08 2.22059072792671e-08 9.02178059933652e-09 8.53038637093961e-08 4.13588907810973e-08 3.13151999168688e-08 4.63223303933429e-08
"206" 9277 2.66220780921276e-07 6.35567166921313e-08 2.21916070417376e-08 9.00158519480642e-09 8.47276822190207e-08 4.14420934196023e-08 3.13140022917157e-08 4.60686955107151e-08
"207" 9278 2.6580483413691e-07 6.346996252927e-08 2.21773068042082e-08 8.98138979027631e-09 8.41515007286453e-08 4.15252960581073e-08 3.13128046665626e-08 4.58150606280873e-08
"208" 9279 2.65388887352544e-07 6.33832083664088e-08 2.21630065666788e-08 8.9611943857462e-09 8.35753192382698e-08 4.16084986966123e-08 3.13116070414094e-08 4.55614257454595e-08
"209" 9280 2.64972940568177e-07 6.32964542035476e-08 2.21487063291494e-08 8.94099898121609e-09 8.29991377478944e-08 4.16917013351173e-08 3.13104094162563e-08 4.53077908628317e-08
"210" 9281 2.64556993783811e-07 6.32097000406863e-08 2.213440609162e-08 8.92080357668598e-09 8.24229562575189e-08 4.17749039736223e-08 3.13092117911032e-08 4.50541559802039e-08
"211" 9282 2.64141046999445e-07 6.31229458778251e-08 2.21201058540906e-08 8.90060817215588e-09 8.18467747671435e-08 4.18581066121273e-08 3.13080141659501e-08 4.48005210975761e-08
"212" 9283 2.63725100215078e-07 6.30361917149638e-08 2.21058056165612e-08 8.88041276762577e-09 8.12705932767681e-08 4.19413092506323e-08 3.1306816540797e-08 4.45468862149483e-08
"213" 9284 2.63309153430712e-07 6.29494375521026e-08 2.20915053790318e-08 8.86021736309566e-09 8.06944117863926e-08 4.20245118891373e-08 3.13056189156439e-08 4.42932513323205e-08
"214" 9285 2.62893206646346e-07 6.28626833892413e-08 2.20772051415024e-08 8.84002195856555e-09 8.01182302960172e-08 4.21077145276423e-08 3.13044212904908e-08 4.40396164496927e-08
"215" 9286 2.62477259861979e-07 6.27759292263801e-08 2.20629049039729e-08 8.81982655403544e-09 7.95420488056418e-08 4.21909171661472e-08 3.13032236653376e-08 4.37859815670649e-08
"216" 9287 2.62061313077613e-07 6.26891750635189e-08 2.20486046664435e-08 8.79963114950533e-09 7.89658673152663e-08 4.22741198046522e-08 3.13020260401845e-08 4.35323466844371e-08
"217" 9288 2.61961016907351e-07 6.26632094270829e-08 2.2058316809015e-08 8.81520694262612e-09 7.88932297633596e-08 4.23306978850573e-08 3.12926596419449e-08 4.35366803905815e-08
"218" 9289 2.61916416356856e-07 6.26307888796561e-08 2.20732523161031e-08 8.75196335636110e-09 7.87812845894966e-08 4.24378244424267e-08 3.12970582120684e-08 4.25620118797313e-08
"219" 9290 2.60870030034439e-07 6.26258638919747e-08 2.19990655892714e-08 8.76248620163258e-09 7.87253083298649e-08 4.25377170164715e-08 3.1298224738458e-08 4.25460182425949e-08
"220" 9291 2.59823643712022e-07 6.26209389042934e-08 2.19248788624397e-08 8.77300904690406e-09 7.86693320702331e-08 4.26376095905163e-08 3.12993912648477e-08 4.25300246054584e-08
"221" 9292 2.58777257389605e-07 6.2616013916612e-08 2.18506921356079e-08 8.78353189217553e-09 7.86133558106013e-08 4.27375021645611e-08 3.13005577912373e-08 4.2514030968322e-08
"222" 9293 2.57730871067188e-07 6.26110889289306e-08 2.17765054087762e-08 8.79405473744701e-09 7.85573795509696e-08 4.28373947386059e-08 3.13017243176269e-08 4.24980373311855e-08
"223" 9294 2.56684484744771e-07 6.26061639412492e-08 2.17023186819445e-08 8.80457758271849e-09 7.85014032913378e-08 4.29372873126506e-08 3.13028908440166e-08 4.2482043694049e-08
"224" 9295 2.55638098422354e-07 6.26012389535679e-08 2.16281319551128e-08 8.81510042798997e-09 7.8445427031706e-08 4.30371798866954e-08 3.13040573704062e-08 4.24660500569126e-08
"225" 9296 2.54591712099937e-07 6.25963139658865e-08 2.1553945228281e-08 8.82562327326145e-09 7.83894507720743e-08 4.31370724607402e-08 3.13052238967958e-08 4.24500564197761e-08
"226" 9297 2.53559693874568e-07 6.27552895284858e-08 2.14678425994926e-08 8.83234415019342e-09 7.86044411312888e-08 4.31214691635034e-08 3.14354295591503e-08 4.24131696114699e-08
"227" 9298 2.52527675649199e-07 6.2914265091085e-08 2.13817399707041e-08 8.83906502712539e-09 7.88194314905034e-08 4.31058658662666e-08 3.15656352215048e-08 4.23762828031638e-08
"228" 9299 2.51321623781727e-07 6.30881150137937e-08 2.1303817109898e-08 8.83425735911792e-09 7.88414264295604e-08 4.30920872956225e-08 3.15900233224285e-08 4.24851451322582e-08
"229" 9300 2.50115571914254e-07 6.32619649365025e-08 2.12258942490919e-08 8.82944969111045e-09 7.88634213686174e-08 4.30783087249784e-08 3.16144114233522e-08 4.25940074613527e-08
"230" 9301 2.48909520046782e-07 6.34358148592113e-08 2.11479713882858e-08 8.82464202310297e-09 7.88854163076744e-08 4.30645301543342e-08 3.16387995242759e-08 4.27028697904471e-08
"231" 9302 2.4770346817931e-07 6.360966478192e-08 2.10700485274797e-08 8.8198343550955e-09 7.89074112467314e-08 4.30507515836901e-08 3.16631876251996e-08 4.28117321195416e-08
"232" 9303 2.47608161822737e-07 6.36245391420295e-08 2.1018323748541e-08 8.78578011633741e-09 7.85777485111549e-08 4.29142310539285e-08 3.16908077698572e-08 4.29100787884404e-08
"233" 9304 2.47193818200513e-07 6.36125433773005e-08 2.1021506956542e-08 8.75172587757933e-09 7.85090569117828e-08 4.28634231590195e-08 3.14604709492798e-08 4.30366322383379e-08
"234" 9305 2.46779474578289e-07 6.36005476125716e-08 2.10246901645429e-08 8.71767163882124e-09 7.84403653124106e-08 4.28126152641104e-08 3.12301341287025e-08 4.31631856882354e-08
"235" 9306 2.46365130956065e-07 6.35885518478426e-08 2.10278733725439e-08 8.68361740006315e-09 7.83716737130385e-08 4.27618073692014e-08 3.09997973081251e-08 4.32897391381329e-08
"236" 9307 2.45950787333841e-07 6.35765560831136e-08 2.10310565805448e-08 8.64956316130506e-09 7.83029821136663e-08 4.27109994742923e-08 3.07694604875478e-08 4.34162925880304e-08
"237" 9308 2.45536443711617e-07 6.35645603183846e-08 2.10342397885457e-08 8.61550892254697e-09 7.82342905142942e-08 4.26601915793833e-08 3.05391236669704e-08 4.3542846037928e-08
"238" 9309 2.45122100089392e-07 6.35525645536557e-08 2.10374229965467e-08 8.58145468378888e-09 7.8165598914922e-08 4.26093836844742e-08 3.03087868463931e-08 4.36693994878255e-08
"239" 9310 2.47126958398895e-07 6.46128158785807e-08 2.10705043051519e-08 8.55892898997024e-09 7.80673298600312e-08 4.28922457512269e-08 3.03011220454131e-08 4.37291492497328e-08
"240" 9311 2.49131816708397e-07 6.56730672035057e-08 2.11035856137572e-08 8.53640329615159e-09 7.79690608051404e-08 4.31751078179796e-08 3.02934572444332e-08 4.37888990116402e-08
"241" 9312 2.51136675017899e-07 6.67333185284308e-08 2.11366669223624e-08 8.51387760233295e-09 7.78707917502496e-08 4.34579698847323e-08 3.02857924434533e-08 4.38486487735475e-08
"242" 9313 2.53141533327401e-07 6.77935698533558e-08 2.11697482309677e-08 8.4913519085143e-09 7.77725226953587e-08 4.3740831951485e-08 3.02781276424733e-08 4.39083985354548e-08
"243" 9314 2.55146391636904e-07 6.88538211782808e-08 2.12028295395729e-08 8.46882621469566e-09 7.76742536404679e-08 4.40236940182377e-08 3.02704628414934e-08 4.39681482973622e-08
"244" 9315 2.57151249946406e-07 6.99140725032059e-08 2.12359108481782e-08 8.44630052087701e-09 7.75759845855771e-08 4.43065560849904e-08 3.02627980405134e-08 4.40278980592695e-08
"245" 9316 2.59156108255908e-07 7.09743238281309e-08 2.12689921567835e-08 8.42377482705837e-09 7.74777155306863e-08 4.4589418151743e-08 3.02551332395335e-08 4.40876478211769e-08
"246" 9317 2.61160966565411e-07 7.2034575153056e-08 2.13020734653887e-08 8.40124913323972e-09 7.73794464757955e-08 4.48722802184957e-08 3.02474684385536e-08 4.41473975830842e-08
"247" 9318 2.63165824874913e-07 7.3094826477981e-08 2.1335154773994e-08 8.37872343942108e-09 7.72811774209047e-08 4.51551422852484e-08 3.02398036375736e-08 4.42071473449916e-08
"248" 9319 2.65170683184415e-07 7.4155077802906e-08 2.13682360825992e-08 8.35619774560243e-09 7.71829083660138e-08 4.54380043520011e-08 3.02321388365937e-08 4.42668971068989e-08
"249" 9320 2.67175541493917e-07 7.52153291278311e-08 2.14013173912045e-08 8.33367205178379e-09 7.7084639311123e-08 4.57208664187538e-08 3.02244740356138e-08 4.43266468688063e-08
"250" 9321 2.6918039980342e-07 7.62755804527561e-08 2.14343986998097e-08 8.31114635796514e-09 7.69863702562322e-08 4.60037284855065e-08 3.02168092346338e-08 4.43863966307136e-08
"251" 9322 2.71185258112922e-07 7.73358317776811e-08 2.1467480008415e-08 8.2886206641465e-09 7.68881012013414e-08 4.62865905522592e-08 3.02091444336539e-08 4.44461463926209e-08
"252" 9323 2.73190116422424e-07 7.83960831026062e-08 2.15005613170202e-08 8.26609497032785e-09 7.67898321464506e-08 4.65694526190119e-08 3.02014796326739e-08 4.45058961545283e-08
"253" 9324 2.75194974731926e-07 7.94563344275312e-08 2.15336426256255e-08 8.24356927650921e-09 7.66915630915598e-08 4.68523146857645e-08 3.0193814831694e-08 4.45656459164356e-08
"254" 9325 2.74675596848113e-07 7.93100457976754e-08 2.16452369205487e-08 8.22104358269056e-09 7.67144763533492e-08 4.68626465506225e-08 3.01327668324761e-08 4.46423197469422e-08
"255" 9326 2.741562189643e-07 7.91637571678196e-08 2.17568312154718e-08 8.19851788887192e-09 7.67373896151387e-08 4.68729784154805e-08 3.00717188332581e-08 4.47189935774487e-08
"256" 9327 2.73636841080486e-07 7.90174685379638e-08 2.1868425510395e-08 8.17599219505327e-09 7.67603028769281e-08 4.68833102803384e-08 3.00106708340401e-08 4.47956674079553e-08
"257" 9328 2.73117463196673e-07 7.88711799081079e-08 2.19800198053182e-08 8.15346650123463e-09 7.67832161387175e-08 4.68936421451964e-08 2.99496228348222e-08 4.48723412384618e-08
"258" 9329 2.7259808531286e-07 7.87248912782521e-08 2.20916141002414e-08 8.13094080741598e-09 7.6806129400507e-08 4.69039740100544e-08 2.98885748356042e-08 4.49490150689684e-08
"259" 9330 2.72078707429046e-07 7.85786026483963e-08 2.22032083951646e-08 8.10841511359734e-09 7.68290426622964e-08 4.69143058749123e-08 2.98275268363863e-08 4.50256888994749e-08
"260" 9331 2.71559329545233e-07 7.84323140185405e-08 2.23148026900878e-08 8.08588941977869e-09 7.68519559240859e-08 4.69246377397703e-08 2.97664788371683e-08 4.51023627299815e-08
"261" 9332 2.7103995166142e-07 7.82860253886847e-08 2.2426396985011e-08 8.06336372596005e-09 7.68748691858753e-08 4.69349696046283e-08 2.97054308379504e-08 4.5179036560488e-08
"262" 9333 2.71119275725935e-07 7.82779827953187e-08 2.26112707886252e-08 8.09835005427532e-09 7.69171399449328e-08 4.69342235380776e-08 2.96976198082303e-08 4.52497253535881e-08
"263" 9334 2.7119859979045e-07 7.82699402019527e-08 2.27961445922394e-08 8.13333638259059e-09 7.69594107039903e-08 4.69334774715269e-08 2.96898087785102e-08 4.53204141466882e-08
"264" 9335 2.71277923854965e-07 7.82618976085866e-08 2.29810183958536e-08 8.16832271090586e-09 7.70016814630478e-08 4.69327314049762e-08 2.96819977487901e-08 4.53911029397882e-08
"265" 9336 2.7135724791948e-07 7.82538550152206e-08 2.31658921994678e-08 8.20330903922113e-09 7.70439522221053e-08 4.69319853384255e-08 2.967418671907e-08 4.54617917328883e-08
"266" 9337 2.71436571983996e-07 7.82458124218546e-08 2.3350766003082e-08 8.2382953675364e-09 7.70862229811627e-08 4.69312392718749e-08 2.96663756893499e-08 4.55324805259884e-08
"267" 9338 2.71515896048511e-07 7.82377698284886e-08 2.35356398066962e-08 8.27328169585167e-09 7.71284937402202e-08 4.69304932053242e-08 2.96585646596298e-08 4.56031693190884e-08
"268" 9339 2.71595220113026e-07 7.82297272351226e-08 2.37205136103104e-08 8.30826802416694e-09 7.71707644992777e-08 4.69297471387735e-08 2.96507536299097e-08 4.56738581121885e-08
"269" 9340 2.71674544177541e-07 7.82216846417566e-08 2.39053874139246e-08 8.34325435248221e-09 7.72130352583352e-08 4.69290010722228e-08 2.96429426001896e-08 4.57445469052885e-08
"270" 9341 2.71753868242056e-07 7.82136420483906e-08 2.40902612175388e-08 8.37824068079748e-09 7.72553060173927e-08 4.69282550056721e-08 2.96351315704695e-08 4.58152356983886e-08
"271" 9342 2.71833192306571e-07 7.82055994550246e-08 2.4275135021153e-08 8.41322700911275e-09 7.72975767764502e-08 4.69275089391215e-08 2.96273205407494e-08 4.58859244914887e-08
"272" 9343 2.71912516371086e-07 7.81975568616586e-08 2.44600088247672e-08 8.44821333742802e-09 7.73398475355077e-08 4.69267628725708e-08 2.96195095110293e-08 4.59566132845887e-08
"273" 9344 2.71991840435602e-07 7.81895142682925e-08 2.46448826283814e-08 8.48319966574329e-09 7.73821182945652e-08 4.69260168060201e-08 2.96116984813092e-08 4.60273020776888e-08
"274" 9345 2.72071164500117e-07 7.81814716749265e-08 2.48297564319956e-08 8.51818599405856e-09 7.74243890536227e-08 4.69252707394694e-08 2.96038874515891e-08 4.60979908707889e-08
"275" 9346 2.72150488564632e-07 7.81734290815605e-08 2.50146302356098e-08 8.55317232237383e-09 7.74666598126801e-08 4.69245246729187e-08 2.9596076421869e-08 4.61686796638889e-08
"276" 9347 2.72229812629147e-07 7.81653864881945e-08 2.5199504039224e-08 8.5881586506891e-09 7.75089305717376e-08 4.69237786063681e-08 2.95882653921489e-08 4.6239368456989e-08
"277" 9348 2.72554536542712e-07 7.81658242926294e-08 2.53454480132679e-08 8.60258165471152e-09 7.72596846144398e-08 4.68966148553669e-08 2.93059431174054e-08 4.62531197049371e-08
"278" 9349 2.72049337551762e-07 7.81226219967129e-08 2.54745878710861e-08 8.62841056375247e-09 7.72848892024082e-08 4.68958687888163e-08 2.91897647398596e-08 4.61660935934938e-08
"279" 9350 2.71544138560812e-07 7.80794197007964e-08 2.56037277289043e-08 8.65423947279342e-09 7.73100937903765e-08 4.68951227222656e-08 2.90735863623139e-08 4.60790674820506e-08
"280" 9351 2.71038939569861e-07 7.80362174048798e-08 2.57328675867225e-08 8.68006838183436e-09 7.73352983783449e-08 4.68943766557149e-08 2.89574079847681e-08 4.59920413706073e-08
"281" 9352 2.70533740578911e-07 7.79930151089633e-08 2.58620074445407e-08 8.70589729087531e-09 7.73605029663133e-08 4.68936305891642e-08 2.88412296072224e-08 4.5905015259164e-08
"282" 9353 2.7002854158796e-07 7.79498128130468e-08 2.59911473023589e-08 8.73172619991626e-09 7.73857075542817e-08 4.68928845226135e-08 2.87250512296767e-08 4.58179891477208e-08
"283" 9354 2.69038866271962e-07 7.79066105171302e-08 2.59144025239746e-08 8.72480907295259e-09 7.76775132389467e-08 4.68890972450751e-08 2.86138209771911e-08 4.56543898179284e-08
"284" 9355 2.68192887524344e-07 7.80744706180074e-08 2.58376938608278e-08 8.79515784277942e-09 7.84604266475597e-08 4.68792316718113e-08 2.85880579236106e-08 4.55505947097964e-08
"285" 9356 2.67346908776727e-07 7.82423307188845e-08 2.5760985197681e-08 8.86550661260626e-09 7.92433400561728e-08 4.68693660985475e-08 2.85622948700302e-08 4.54467996016644e-08
"286" 9357 2.6650093002911e-07 7.84101908197616e-08 2.56842765345341e-08 8.93585538243309e-09 8.00262534647859e-08 4.68595005252837e-08 2.85365318164497e-08 4.53430044935324e-08
"287" 9358 2.65654951281493e-07 7.85780509206387e-08 2.56075678713873e-08 9.00620415225992e-09 8.08091668733989e-08 4.68496349520199e-08 2.85107687628692e-08 4.52392093854004e-08
"288" 9359 2.64808972533875e-07 7.87459110215158e-08 2.55308592082405e-08 9.07655292208676e-09 8.1592080282012e-08 4.68397693787561e-08 2.84850057092888e-08 4.51354142772684e-08
"289" 9360 2.63962993786258e-07 7.89137711223929e-08 2.54541505450937e-08 9.14690169191359e-09 8.23749936906251e-08 4.68299038054923e-08 2.84592426557083e-08 4.50316191691363e-08
"290" 9361 2.63117015038641e-07 7.90816312232701e-08 2.53774418819469e-08 9.21725046174042e-09 8.31579070992381e-08 4.68200382322286e-08 2.84334796021279e-08 4.49278240610043e-08
"291" 9362 2.62271036291024e-07 7.92494913241472e-08 2.53007332188001e-08 9.28759923156726e-09 8.39408205078512e-08 4.68101726589648e-08 2.84077165485474e-08 4.48240289528723e-08
"292" 9363 2.62321668672629e-07 7.94374571110351e-08 2.52924902491521e-08 9.35794800139409e-09 8.45701693741682e-08 4.67076443687306e-08 2.84787396101095e-08 4.47328577445809e-08
"293" 9364 2.61495969508423e-07 7.8904873825648e-08 2.52763394601038e-08 9.41799462549062e-09 8.50360341672416e-08 4.66645813147746e-08 2.85395480842968e-08 4.41670326402971e-08
"294" 9365 2.60670270344216e-07 7.83722905402609e-08 2.52601886710555e-08 9.47804124958716e-09 8.5501898960315e-08 4.66215182608187e-08 2.86003565584842e-08 4.36012075360133e-08
"295" 9366 2.5984457118001e-07 7.78397072548738e-08 2.52440378820072e-08 9.53808787368369e-09 8.59677637533884e-08 4.65784552068627e-08 2.86611650326715e-08 4.30353824317295e-08
"296" 9367 2.59018872015803e-07 7.73071239694866e-08 2.52278870929588e-08 9.59813449778022e-09 8.64336285464618e-08 4.65353921529068e-08 2.87219735068588e-08 4.24695573274457e-08
"297" 9368 2.58193172851597e-07 7.67745406840995e-08 2.52117363039105e-08 9.65818112187676e-09 8.68994933395352e-08 4.64923290989508e-08 2.87827819810462e-08 4.19037322231619e-08
"298" 9369 2.5736747368739e-07 7.62419573987124e-08 2.51955855148622e-08 9.71822774597329e-09 8.73653581326086e-08 4.64492660449948e-08 2.88435904552335e-08 4.13379071188781e-08
"299" 9370 2.56541774523184e-07 7.57093741133253e-08 2.51794347258139e-08 9.77827437006982e-09 8.7831222925682e-08 4.64062029910389e-08 2.89043989294208e-08 4.07720820145943e-08
"300" 9371 2.55716075358977e-07 7.51767908279382e-08 2.51632839367655e-08 9.83832099416636e-09 8.82970877187554e-08 4.63631399370829e-08 2.89652074036082e-08 4.02062569103105e-08
"301" 9372 2.54890376194771e-07 7.4644207542551e-08 2.51471331477172e-08 9.89836761826289e-09 8.87629525118288e-08 4.6320076883127e-08 2.90260158777955e-08 3.96404318060267e-08
"302" 9373 2.54064677030564e-07 7.41116242571639e-08 2.51309823586689e-08 9.95841424235942e-09 8.92288173049022e-08 4.6277013829171e-08 2.90868243519828e-08 3.90746067017429e-08
"303" 9374 2.53238977866358e-07 7.35790409717768e-08 2.51148315696206e-08 1.0018460866456e-08 8.96946820979756e-08 4.62339507752151e-08 2.91476328261701e-08 3.85087815974591e-08
"304" 9375 2.5386803692477e-07 7.32232102995866e-08 2.51434873018365e-08 9.99993339100852e-09 8.93657425911249e-08 4.63040925743538e-08 2.93223934477522e-08 3.94051877136421e-08
"305" 9376 2.54497095983183e-07 7.28673796273964e-08 2.51721430340525e-08 9.98140591556108e-09 8.90368030842743e-08 4.63742343734926e-08 2.94971540693343e-08 4.0301593829825e-08
"306" 9377 2.55193457672561e-07 7.2159735592678e-08 2.51609888049856e-08 9.96287844011364e-09 8.87107548764233e-08 4.63285072680745e-08 2.95030094926974e-08 4.0152080813847e-08
"307" 9378 2.55889819361939e-07 7.14520915579596e-08 2.51498345759188e-08 9.9443509646662e-09 8.83847066685724e-08 4.62827801626563e-08 2.95088649160606e-08 4.0002567797869e-08
"308" 9379 2.56586181051317e-07 7.07444475232412e-08 2.51386803468519e-08 9.92582348921876e-09 8.80586584607214e-08 4.62370530572382e-08 2.95147203394238e-08 3.9853054781891e-08
"309" 9380 2.57282542740695e-07 7.00368034885228e-08 2.5127526117785e-08 9.90729601377132e-09 8.77326102528705e-08 4.61913259518201e-08 2.9520575762787e-08 3.97035417659131e-08
"310" 9381 2.57978904430073e-07 6.93291594538044e-08 2.51163718887181e-08 9.88876853832388e-09 8.74065620450195e-08 4.61455988464019e-08 2.95264311861502e-08 3.95540287499351e-08
"311" 9382 2.58675266119451e-07 6.8621515419086e-08 2.51052176596512e-08 9.87024106287644e-09 8.70805138371686e-08 4.60998717409838e-08 2.95322866095134e-08 3.94045157339571e-08
"312" 9383 2.59371627808829e-07 6.79138713843676e-08 2.50940634305843e-08 9.851713587429e-09 8.67544656293176e-08 4.60541446355656e-08 2.95381420328766e-08 3.92550027179791e-08
"313" 9384 2.60067989498207e-07 6.72062273496493e-08 2.50829092015174e-08 9.83318611198156e-09 8.64284174214667e-08 4.60084175301475e-08 2.95439974562398e-08 3.91054897020011e-08
"314" 9385 2.58894398812023e-07 6.62629216696464e-08 2.50199207634985e-08 9.81355487724589e-09 8.64382839187067e-08 4.58696992405179e-08 2.9577833855986e-08 3.92926476551565e-08
"315" 9386 2.60199201514185e-07 6.60069698974957e-08 2.50279188709926e-08 9.80202633230645e-09 8.63646855875682e-08 4.56166490197065e-08 2.95572750671932e-08 3.97645853308886e-08
"316" 9387 2.61504004216347e-07 6.57510181253451e-08 2.50359169784866e-08 9.79049778736701e-09 8.62910872564297e-08 4.53635987988952e-08 2.95367162784004e-08 4.02365230066208e-08
"317" 9388 2.6280880691851e-07 6.54950663531944e-08 2.50439150859807e-08 9.77896924242756e-09 8.62174889252912e-08 4.51105485780838e-08 2.95161574896076e-08 4.0708460682353e-08
"318" 9389 2.64113609620672e-07 6.52391145810438e-08 2.50519131934747e-08 9.76744069748812e-09 8.61438905941527e-08 4.48574983572725e-08 2.94955987008147e-08 4.11803983580851e-08
"319" 9390 2.63696934806278e-07 6.52567890449593e-08 2.50810315635704e-08 9.75510270291241e-09 8.60605269854777e-08 4.46030289046669e-08 2.94412035122757e-08 4.12561879095335e-08
"320" 9391 2.63280259991885e-07 6.52744635088748e-08 2.51101499336661e-08 9.7427647083367e-09 8.59771633768026e-08 4.43485594520612e-08 2.93868083237366e-08 4.13319774609818e-08
"321" 9392 2.63159637444509e-07 6.49703523839767e-08 2.54144716787477e-08 9.73011601724193e-09 8.59125646379754e-08 4.41733430528069e-08 2.94522351900221e-08 4.14593607301846e-08
"322" 9393 2.63039014897133e-07 6.46662412590786e-08 2.57187934238292e-08 9.71746732614716e-09 8.58479658991482e-08 4.39981266535526e-08 2.95176620563076e-08 4.15867439993873e-08
"323" 9394 2.62918392349758e-07 6.43621301341805e-08 2.60231151689107e-08 9.70481863505238e-09 8.5783367160321e-08 4.38229102542983e-08 2.95830889225931e-08 4.17141272685901e-08
"324" 9395 2.62797769802382e-07 6.40580190092824e-08 2.63274369139922e-08 9.69216994395761e-09 8.57187684214938e-08 4.36476938550441e-08 2.96485157888786e-08 4.18415105377929e-08
"325" 9396 2.62677147255007e-07 6.37539078843843e-08 2.66317586590737e-08 9.67952125286284e-09 8.56541696826666e-08 4.34724774557898e-08 2.97139426551641e-08 4.19688938069957e-08
"326" 9397 2.62556524707631e-07 6.34497967594862e-08 2.69360804041553e-08 9.66687256176807e-09 8.55895709438393e-08 4.32972610565355e-08 2.97793695214496e-08 4.20962770761984e-08
"327" 9398 2.62435902160255e-07 6.31456856345881e-08 2.72404021492368e-08 9.6542238706733e-09 8.55249722050121e-08 4.31220446572812e-08 2.9844796387735e-08 4.22236603454012e-08
"328" 9399 2.6231527961288e-07 6.284157450969e-08 2.75447238943183e-08 9.64157517957853e-09 8.54603734661849e-08 4.29468282580269e-08 2.99102232540205e-08 4.2351043614604e-08
"329" 9400 2.62194657065504e-07 6.25374633847919e-08 2.78490456393998e-08 9.62892648848376e-09 8.53957747273577e-08 4.27716118587726e-08 2.9975650120306e-08 4.24784268838067e-08
"330" 9401 2.62074034518128e-07 6.22333522598938e-08 2.81533673844814e-08 9.61627779738899e-09 8.53311759885305e-08 4.25963954595183e-08 3.00410769865915e-08 4.26058101530095e-08
"331" 9402 2.61953411970753e-07 6.19292411349957e-08 2.84576891295629e-08 9.60362910629421e-09 8.52665772497033e-08 4.2421179060264e-08 3.0106503852877e-08 4.27331934222123e-08
"332" 9403 2.61832789423377e-07 6.16251300100976e-08 2.87620108746444e-08 9.59098041519944e-09 8.5201978510876e-08 4.22459626610097e-08 3.01719307191625e-08 4.2860576691415e-08
"333" 9404 2.61712166876002e-07 6.13210188851995e-08 2.90663326197259e-08 9.57833172410467e-09 8.51373797720488e-08 4.20707462617555e-08 3.0237357585448e-08 4.29879599606178e-08
"334" 9405 2.61591544328626e-07 6.10169077603014e-08 2.93706543648075e-08 9.5656830330099e-09 8.50727810332216e-08 4.18955298625012e-08 3.03027844517334e-08 4.31153432298206e-08
"335" 9406 2.6147092178125e-07 6.07127966354034e-08 2.9674976109889e-08 9.55303434191513e-09 8.50081822943944e-08 4.17203134632469e-08 3.03682113180189e-08 4.32427264990233e-08
"336" 9407 2.61202242982536e-07 6.05166904528924e-08 2.99803043900143e-08 9.5492895968193e-09 8.49302608976055e-08 4.18019507931039e-08 3.04409898670192e-08 4.32849989794613e-08
"337" 9408 2.6090853078461e-07 6.05045327476073e-08 3.02134860998236e-08 9.54722916767324e-09 8.48360406308565e-08 4.17388281253793e-08 3.0547404696847e-08 4.3416560882898e-08
"338" 9409 2.60614818586685e-07 6.04923750423222e-08 3.04466678096328e-08 9.54516873852718e-09 8.47418203641075e-08 4.16757054576548e-08 3.06538195266749e-08 4.35481227863347e-08
"339" 9410 2.60399526407874e-07 6.05355773382388e-08 3.03767791715583e-08 9.5674327656369e-09 8.46521900951169e-08 4.16617931889078e-08 3.07069351894779e-08 4.37881698002733e-08
"340" 9411 2.60184234229063e-07 6.05787796341553e-08 3.03068905334837e-08 9.58969679274661e-09 8.45625598261263e-08 4.16478809201608e-08 3.07600508522809e-08 4.40282168142119e-08
"341" 9412 2.59721088508341e-07 6.08884075176838e-08 3.02370018954091e-08 9.59187166838004e-09 8.44758926942369e-08 4.18806041309978e-08 3.08050568511653e-08 4.41484624678633e-08
"342" 9413 2.59257942787619e-07 6.11980354012124e-08 3.01671132573346e-08 9.59404654401346e-09 8.43892255623475e-08 4.21133273418348e-08 3.08500628500497e-08 4.42687081215147e-08
"343" 9414 2.58794797066897e-07 6.15076632847409e-08 3.009722461926e-08 9.59622141964689e-09 8.4302558430458e-08 4.23460505526718e-08 3.08950688489341e-08 4.43889537751661e-08
"344" 9415 2.58331651346175e-07 6.18172911682694e-08 3.00273359811854e-08 9.59839629528031e-09 8.42158912985686e-08 4.25787737635088e-08 3.09400748478184e-08 4.45091994288176e-08
"345" 9416 2.57868505625453e-07 6.21269190517979e-08 2.99574473431109e-08 9.60057117091374e-09 8.41292241666792e-08 4.28114969743458e-08 3.09850808467028e-08 4.4629445082469e-08
"346" 9417 2.57405359904731e-07 6.24365469353265e-08 2.98875587050363e-08 9.60274604654716e-09 8.40425570347897e-08 4.30442201851828e-08 3.10300868455872e-08 4.47496907361204e-08
"347" 9418 2.56942214184009e-07 6.2746174818855e-08 2.98176700669617e-08 9.60492092218059e-09 8.39558899029003e-08 4.32769433960198e-08 3.10750928444716e-08 4.48699363897718e-08
"348" 9419 2.56479068463287e-07 6.30558027023835e-08 2.97477814288872e-08 9.60709579781401e-09 8.38692227710109e-08 4.35096666068568e-08 3.1120098843356e-08 4.49901820434232e-08
"349" 9420 2.56015922742565e-07 6.33654305859121e-08 2.96778927908126e-08 9.60927067344744e-09 8.37825556391215e-08 4.37423898176938e-08 3.11651048422404e-08 4.51104276970746e-08
"350" 9421 2.52340105674344e-07 6.32489099869577e-08 2.9524403234044e-08 9.52231596132238e-09 8.37062611029898e-08 4.41160695178125e-08 3.11296736678628e-08 4.52216413348633e-08
"351" 9422 2.48664288606122e-07 6.31323893880034e-08 2.93709136772754e-08 9.43536124919731e-09 8.36299665668582e-08 4.44897492179311e-08 3.10942424934851e-08 4.53328549726521e-08
"352" 9423 2.44988471537901e-07 6.3015868789049e-08 2.92174241205069e-08 9.34840653707225e-09 8.35536720307266e-08 4.48634289180497e-08 3.10588113191074e-08 4.54440686104408e-08
"353" 9424 2.41312654469679e-07 6.28993481900947e-08 2.90639345637383e-08 9.26145182494719e-09 8.34773774945949e-08 4.52371086181684e-08 3.10233801447298e-08 4.55552822482295e-08
"354" 9425 2.37636837401458e-07 6.27828275911404e-08 2.89104450069697e-08 9.17449711282213e-09 8.34010829584633e-08 4.5610788318287e-08 3.09879489703521e-08 4.56664958860182e-08
"355" 9426 2.33961020333236e-07 6.2666306992186e-08 2.87569554502011e-08 9.08754240069706e-09 8.33247884223317e-08 4.59844680184057e-08 3.09525177959745e-08 4.5777709523807e-08
"356" 9427 2.30285203265015e-07 6.25497863932317e-08 2.86034658934326e-08 9.000587688572e-09 8.32484938862001e-08 4.63581477185243e-08 3.09170866215968e-08 4.58889231615957e-08
"357" 9428 2.26609386196793e-07 6.24332657942774e-08 2.8449976336664e-08 8.91363297644694e-09 8.31721993500684e-08 4.6731827418643e-08 3.08816554472192e-08 4.60001367993844e-08
"358" 9429 2.26361532654882e-07 6.25318312810122e-08 2.84432296263676e-08 8.91699341491292e-09 8.31447312016194e-08 4.70539003387671e-08 3.09029919202717e-08 4.60970290536659e-08
"359" 9430 2.26113679112971e-07 6.26303967677471e-08 2.84364829160713e-08 8.92035385337891e-09 8.31172630531705e-08 4.73759732588912e-08 3.09243283933243e-08 4.61939213079474e-08
"360" 9431 2.25865825571059e-07 6.2728962254482e-08 2.8429736205775e-08 8.92371429184490e-09 8.30897949047215e-08 4.76980461790153e-08 3.09456648663769e-08 4.62908135622288e-08
"361" 9432 2.25617972029148e-07 6.28275277412169e-08 2.84229894954786e-08 8.92707473031088e-09 8.30623267562725e-08 4.80201190991394e-08 3.09670013394294e-08 4.63877058165103e-08
"362" 9433 2.25858796360287e-07 6.26160275399884e-08 2.84629258600926e-08 9.13414727092966e-09 8.3810218881577e-08 4.7971176370607e-08 3.09361097449261e-08 4.64120231847288e-08
"363" 9434 2.25435078893165e-07 6.24350779606992e-08 2.84539212175548e-08 9.13981341838353e-09 8.40848571754493e-08 4.83368798728611e-08 3.09243791951437e-08 4.638810395747e-08
"364" 9435 2.25011361426043e-07 6.22541283814101e-08 2.8444916575017e-08 9.1454795658374e-09 8.43594954693216e-08 4.87025833751152e-08 3.09126486453614e-08 4.63641847302112e-08
"365" 9436 2.24587643958922e-07 6.2073178802121e-08 2.84359119324791e-08 9.15114571329128e-09 8.46341337631939e-08 4.90682868773692e-08 3.09009180955791e-08 4.63402655029524e-08
"366" 9437 2.241639264918e-07 6.18922292228319e-08 2.84269072899413e-08 9.15681186074515e-09 8.49087720570662e-08 4.94339903796233e-08 3.08891875457967e-08 4.63163462756936e-08
"367" 9438 2.23740209024678e-07 6.17112796435427e-08 2.84179026474035e-08 9.16247800819903e-09 8.51834103509385e-08 4.97996938818773e-08 3.08774569960144e-08 4.62924270484348e-08
"368" 9439 2.23316491557556e-07 6.15303300642536e-08 2.84088980048656e-08 9.1681441556529e-09 8.54580486448108e-08 5.01653973841314e-08 3.0865726446232e-08 4.6268507821176e-08
"369" 9440 2.22892774090434e-07 6.13493804849645e-08 2.83998933623278e-08 9.17381030310677e-09 8.57326869386831e-08 5.05311008863855e-08 3.08539958964497e-08 4.62445885939172e-08
"370" 9441 2.22469056623312e-07 6.11684309056754e-08 2.839088871979e-08 9.17947645056065e-09 8.60073252325554e-08 5.08968043886395e-08 3.08422653466673e-08 4.62206693666584e-08
"371" 9442 2.2204533915619e-07 6.09874813263862e-08 2.83818840772521e-08 9.18514259801452e-09 8.62819635264277e-08 5.12625078908936e-08 3.0830534796885e-08 4.61967501393996e-08
"372" 9443 2.22044417356944e-07 6.10300324974798e-08 2.83098909966954e-08 9.18233813590943e-09 8.66097880006357e-08 5.1634091067724e-08 3.08586339916038e-08 4.61929487237583e-08
"373" 9444 2.22043495557698e-07 6.10725836685733e-08 2.82378979161386e-08 9.17953367380433e-09 8.69376124748436e-08 5.20056742445545e-08 3.08867331863226e-08 4.61891473081169e-08
"374" 9445 2.20011501933725e-07 6.10989245659534e-08 2.81382375807909e-08 9.17953367380433e-09 8.7021894406251e-08 5.22462515111854e-08 3.05967097928463e-08 4.61717580237863e-08
"375" 9446 2.17979508309752e-07 6.11252654633335e-08 2.80385772454432e-08 9.17953367380433e-09 8.71061763376585e-08 5.24868287778163e-08 3.030668639937e-08 4.61543687394557e-08
"376" 9447 2.16105432375693e-07 6.11129201275764e-08 2.7941174842337e-08 9.23781417840676e-09 8.68937368913304e-08 5.23071965018142e-08 3.00421191179272e-08 4.68571075739301e-08
"377" 9448 2.14231356441634e-07 6.11005747918192e-08 2.78437724392308e-08 9.2960946830092e-09 8.66812974450023e-08 5.21275642258121e-08 2.97775518364844e-08 4.75598464084045e-08
"378" 9449 2.12202183886025e-07 6.10865150918972e-08 2.80674666424018e-08 9.3138781254976e-09 8.64482360630637e-08 5.19562850329607e-08 2.94848065480989e-08 4.76524511089461e-08
"379" 9450 2.10173011330416e-07 6.10724553919751e-08 2.82911608455729e-08 9.33166156798601e-09 8.62151746811251e-08 5.17850058401092e-08 2.91920612597135e-08 4.77450558094877e-08
"380" 9451 2.08143838774807e-07 6.10583956920531e-08 2.8514855048744e-08 9.34944501047441e-09 8.59821132991865e-08 5.16137266472578e-08 2.8899315971328e-08 4.78376605100293e-08
"381" 9452 2.06114666219198e-07 6.10443359921311e-08 2.87385492519151e-08 9.36722845296282e-09 8.57490519172479e-08 5.14424474544063e-08 2.86065706829426e-08 4.79302652105709e-08
"382" 9453 2.04085493663589e-07 6.1030276292209e-08 2.89622434550862e-08 9.38501189545122e-09 8.55159905353094e-08 5.12711682615549e-08 2.83138253945572e-08 4.80228699111125e-08
"383" 9454 2.0205632110798e-07 6.1016216592287e-08 2.91859376582572e-08 9.40279533793962e-09 8.52829291533708e-08 5.10998890687034e-08 2.80210801061717e-08 4.81154746116541e-08
"384" 9455 2.0002714855237e-07 6.10021568923649e-08 2.94096318614283e-08 9.42057878042803e-09 8.50498677714322e-08 5.0928609875852e-08 2.77283348177863e-08 4.82080793121957e-08
"385" 9456 1.97997975996761e-07 6.09880971924429e-08 2.96333260645994e-08 9.43836222291643e-09 8.48168063894936e-08 5.07573306830006e-08 2.74355895294008e-08 4.83006840127373e-08
"386" 9457 1.95968803441152e-07 6.09740374925209e-08 2.98570202677705e-08 9.45614566540484e-09 8.4583745007555e-08 5.05860514901491e-08 2.71428442410154e-08 4.83932887132789e-08
"387" 9458 1.93939630885543e-07 6.09599777925988e-08 3.00807144709415e-08 9.47392910789324e-09 8.43506836256164e-08 5.04147722972977e-08 2.68500989526299e-08 4.84858934138205e-08
"388" 9459 1.91910458329934e-07 6.09459180926768e-08 3.03044086741126e-08 9.49171255038164e-09 8.41176222436778e-08 5.02434931044462e-08 2.65573536642445e-08 4.85784981143621e-08
"389" 9460 1.89881285774325e-07 6.09318583927548e-08 3.05281028772837e-08 9.50949599287005e-09 8.38845608617392e-08 5.00722139115948e-08 2.6264608375859e-08 4.86711028149037e-08
"390" 9461 1.87852113218716e-07 6.09177986928327e-08 3.07517970804548e-08 9.52727943535845e-09 8.36514994798006e-08 4.99009347187433e-08 2.59718630874736e-08 4.87637075154454e-08
"391" 9462 1.85822940663107e-07 6.09037389929107e-08 3.09754912836259e-08 9.54506287784686e-09 8.3418438097862e-08 4.97296555258919e-08 2.56791177990881e-08 4.8856312215987e-08
"392" 9463 1.83793768107497e-07 6.08896792929887e-08 3.11991854867969e-08 9.56284632033526e-09 8.31853767159234e-08 4.95583763330404e-08 2.53863725107027e-08 4.89489169165286e-08
"393" 9464 1.81764595551888e-07 6.08756195930666e-08 3.1422879689968e-08 9.58062976282366e-09 8.29523153339848e-08 4.9387097140189e-08 2.50936272223173e-08 4.90415216170702e-08
"394" 9465 1.81563929786893e-07 6.08051687217507e-08 3.17102698311917e-08 9.60495421907944e-09 8.29633964676675e-08 4.88892686279094e-08 2.48917307251282e-08 4.91222651623047e-08
"395" 9466 1.81363264021898e-07 6.07347178504347e-08 3.19976599724153e-08 9.62927867533522e-09 8.29744776013501e-08 4.83914401156298e-08 2.46898342279392e-08 4.92030087075393e-08
"396" 9467 1.81032156499621e-07 6.07244300706371e-08 3.22649725013186e-08 9.65248298543567e-09 8.29849587622119e-08 4.82201609227783e-08 2.46540453101952e-08 4.93141552705564e-08
"397" 9468 1.82304745051251e-07 6.08333779498098e-08 3.22290893633078e-08 9.68800890324473e-09 8.3451725571313e-08 4.83827461864873e-08 2.47046111866033e-08 5.00354359675062e-08
"398" 9469 1.83577333602881e-07 6.09423258289826e-08 3.2193206225297e-08 9.72353482105379e-09 8.3918492380414e-08 4.85453314501962e-08 2.47551770630115e-08 5.0756716664456e-08
"399" 9470 1.8334837028782e-07 6.0932225679657e-08 3.21411722982379e-08 9.75326375805451e-09 8.45486404271514e-08 4.85478494248047e-08 2.46940108454578e-08 5.15432337155946e-08
"400" 9471 1.83119406972758e-07 6.09221255303315e-08 3.20891383711788e-08 9.78299269505524e-09 8.51787884738887e-08 4.85503673994133e-08 2.46328446279041e-08 5.23297507667331e-08
"401" 9472 1.82890443657697e-07 6.0912025381006e-08 3.20371044441197e-08 9.81272163205596e-09 8.58089365206261e-08 4.85528853740218e-08 2.45716784103504e-08 5.31162678178717e-08
"402" 9473 1.82661480342635e-07 6.09019252316804e-08 3.19850705170605e-08 9.84245056905668e-09 8.64390845673634e-08 4.85554033486304e-08 2.45105121927966e-08 5.39027848690102e-08
"403" 9474 1.82432517027574e-07 6.08918250823549e-08 3.19330365900014e-08 9.8721795060574e-09 8.70692326141007e-08 4.85579213232389e-08 2.44493459752429e-08 5.46893019201487e-08
"404" 9475 1.82203553712512e-07 6.08817249330294e-08 3.18810026629423e-08 9.90190844305813e-09 8.76993806608381e-08 4.85604392978475e-08 2.43881797576892e-08 5.54758189712873e-08
"405" 9476 1.81974590397451e-07 6.08716247837038e-08 3.18289687358832e-08 9.93163738005885e-09 8.83295287075754e-08 4.8562957272456e-08 2.43270135401355e-08 5.62623360224258e-08
"406" 9477 1.81745627082389e-07 6.08615246343783e-08 3.17769348088241e-08 9.96136631705957e-09 8.89596767543127e-08 4.85654752470645e-08 2.42658473225818e-08 5.70488530735644e-08
"407" 9478 1.81050908501306e-07 6.08574720659499e-08 3.17806890004172e-08 9.85888484162386e-09 8.92620003268422e-08 4.87398319644375e-08 2.42260175780806e-08 5.75095920343577e-08
"408" 9479 1.80356189920223e-07 6.08534194975216e-08 3.17844431920103e-08 9.75640336618815e-09 8.95643238993716e-08 4.89141886818105e-08 2.41861878335795e-08 5.7970330995151e-08
"409" 9480 1.7966147133914e-07 6.08493669290932e-08 3.17881973836034e-08 9.65392189075244e-09 8.9866647471901e-08 4.90885453991835e-08 2.41463580890783e-08 5.84310699559443e-08
"410" 9481 1.78966752758057e-07 6.08453143606649e-08 3.17919515751965e-08 9.55144041531673e-09 9.01689710444304e-08 4.92629021165565e-08 2.41065283445772e-08 5.88918089167377e-08
"411" 9482 1.78272034176974e-07 6.08412617922365e-08 3.17957057667896e-08 9.44895893988102e-09 9.04712946169598e-08 4.94372588339295e-08 2.4066698600076e-08 5.9352547877531e-08
"412" 9483 1.77577315595891e-07 6.08372092238082e-08 3.17994599583827e-08 9.34647746444531e-09 9.07736181894892e-08 4.96116155513025e-08 2.40268688555749e-08 5.98132868383243e-08
"413" 9484 1.76882597014809e-07 6.08331566553798e-08 3.18032141499758e-08 9.2439959890096e-09 9.10759417620187e-08 4.97859722686755e-08 2.39870391110737e-08 6.02740257991176e-08
"414" 9485 1.76187878433726e-07 6.08291040869514e-08 3.18069683415689e-08 9.14151451357389e-09 9.13782653345481e-08 4.99603289860485e-08 2.39472093665726e-08 6.0734764759911e-08
"415" 9486 1.76273044998593e-07 6.08109613442599e-08 3.18087184918838e-08 9.1153340716373e-09 9.16041858058418e-08 5.01006326670983e-08 2.38132926104229e-08 6.14395952193335e-08
"416" 9487 1.76358211563461e-07 6.07928186015684e-08 3.18104686421987e-08 9.0891536297007e-09 9.18301062771355e-08 5.02409363481481e-08 2.36793758542733e-08 6.2144425678756e-08
"417" 9488 1.76443378128328e-07 6.07746758588768e-08 3.18122187925136e-08 9.06297318776411e-09 9.20560267484292e-08 5.03812400291979e-08 2.35454590981237e-08 6.28492561381785e-08
"418" 9489 1.76528544693196e-07 6.07565331161853e-08 3.18139689428286e-08 9.03679274582752e-09 9.2281947219723e-08 5.05215437102477e-08 2.34115423419741e-08 6.35540865976011e-08
"419" 9490 1.76525779295458e-07 6.08926943119911e-08 3.18277072255752e-08 9.05945746643418e-09 9.27658846514241e-08 5.08371207353368e-08 2.32899253935994e-08 6.35291154043549e-08
"420" 9491 1.76512252852206e-07 6.09139514707506e-08 3.19063285576055e-08 9.0178974814085e-09 9.23757307283664e-08 5.08835089014874e-08 2.35298816637848e-08 6.35879975019009e-08
"421" 9492 1.76498726408954e-07 6.093520862951e-08 3.19849498896359e-08 8.97633749638283e-09 9.19855768053086e-08 5.09298970676379e-08 2.37698379339701e-08 6.36468795994469e-08
"422" 9493 1.76485199965702e-07 6.09564657882694e-08 3.20635712216663e-08 8.93477751135715e-09 9.15954228822509e-08 5.09762852337884e-08 2.40097942041555e-08 6.37057616969929e-08
"423" 9494 1.7647167352245e-07 6.09777229470288e-08 3.21421925536967e-08 8.89321752633147e-09 9.12052689591931e-08 5.10226733999389e-08 2.42497504743408e-08 6.37646437945389e-08
"424" 9495 1.76458147079198e-07 6.09989801057882e-08 3.2220813885727e-08 8.85165754130579e-09 9.08151150361354e-08 5.10690615660894e-08 2.44897067445262e-08 6.38235258920848e-08
"425" 9496 1.76444620635946e-07 6.10202372645477e-08 3.22994352177574e-08 8.81009755628012e-09 9.04249611130776e-08 5.11154497322399e-08 2.47296630147115e-08 6.38824079896308e-08
"426" 9497 1.76431094192694e-07 6.10414944233071e-08 3.23780565497878e-08 8.76853757125444e-09 9.00348071900199e-08 5.11618378983904e-08 2.49696192848969e-08 6.39412900871768e-08
"427" 9498 1.76417567749442e-07 6.10627515820665e-08 3.24566778818181e-08 8.72697758622876e-09 8.96446532669621e-08 5.12082260645409e-08 2.52095755550822e-08 6.40001721847228e-08
"428" 9499 1.7640404130619e-07 6.10840087408259e-08 3.25352992138485e-08 8.68541760120308e-09 8.92544993439044e-08 5.12546142306915e-08 2.54495318252676e-08 6.40590542822688e-08
"429" 9500 1.76390514862938e-07 6.11052658995853e-08 3.26139205458789e-08 8.6438576161774e-09 8.88643454208466e-08 5.1301002396842e-08 2.56894880954529e-08 6.41179363798148e-08
"430" 9501 1.76246551100866e-07 6.11114690418051e-08 3.26046890988059e-08 8.65932715624437e-09 8.87956554373782e-08 5.13863378721689e-08 2.56400068448514e-08 6.42091158954546e-08
"431" 9502 1.76102587338794e-07 6.11176721840248e-08 3.25954576517329e-08 8.67479669631134e-09 8.87269654539098e-08 5.14716733474959e-08 2.55905255942499e-08 6.43002954110944e-08
"432" 9503 1.7609949907674e-07 6.08004988654391e-08 3.26763369160047e-08 8.68372522261093e-09 8.87362466691301e-08 5.15452252646475e-08 2.5943879237904e-08 6.43119218047006e-08
"433" 9504 1.76116839656129e-07 6.08004988654391e-08 3.27862171758505e-08 8.75908597311932e-09 8.91560294655102e-08 5.17126926966984e-08 2.5996707662216e-08 6.42800351425852e-08
"434" 9505 1.76134180235517e-07 6.08004988654391e-08 3.28960974356962e-08 8.8344467236277e-09 8.95758122618903e-08 5.18801601287494e-08 2.60495360865281e-08 6.42481484804698e-08
"435" 9506 1.76151520814906e-07 6.08004988654391e-08 3.3005977695542e-08 8.90980747413609e-09 8.99955950582703e-08 5.20476275608003e-08 2.61023645108401e-08 6.42162618183544e-08
"436" 9507 1.76168861394295e-07 6.08004988654391e-08 3.31158579553878e-08 8.98516822464448e-09 9.04153778546504e-08 5.22150949928512e-08 2.61551929351521e-08 6.4184375156239e-08
"437" 9508 1.76186201973684e-07 6.08004988654391e-08 3.32257382152335e-08 9.06052897515287e-09 9.08351606510304e-08 5.23825624249022e-08 2.62080213594641e-08 6.41524884941236e-08
"438" 9509 1.76203542553073e-07 6.08004988654391e-08 3.33356184750793e-08 9.13588972566125e-09 9.12549434474105e-08 5.25500298569531e-08 2.62608497837761e-08 6.41206018320081e-08
"439" 9510 1.77369079638338e-07 6.12823039455113e-08 3.33558586059683e-08 9.17736803793376e-09 9.23589746800029e-08 5.2558914154744e-08 2.62430833947679e-08 6.42181186816017e-08
"440" 9511 1.78534616723602e-07 6.17641090255836e-08 3.33760987368574e-08 9.21884635020628e-09 9.34630059125952e-08 5.25677984525349e-08 2.62253170057596e-08 6.43156355311953e-08
"441" 9512 1.79700153808867e-07 6.22459141056559e-08 3.33963388677464e-08 9.26032466247879e-09 9.45670371451876e-08 5.25766827503258e-08 2.62075506167513e-08 6.44131523807889e-08
"442" 9513 1.80865690894132e-07 6.27277191857281e-08 3.34165789986355e-08 9.30180297475130e-09 9.567106837778e-08 5.25855670481167e-08 2.6189784227743e-08 6.45106692303825e-08
"443" 9514 1.82031227979397e-07 6.32095242658003e-08 3.34368191295245e-08 9.34328128702381e-09 9.67750996103724e-08 5.25944513459076e-08 2.61720178387347e-08 6.4608186079976e-08
"444" 9515 1.83196765064662e-07 6.36913293458726e-08 3.34570592604136e-08 9.38475959929632e-09 9.78791308429648e-08 5.26033356436984e-08 2.61542514497265e-08 6.47057029295696e-08
"445" 9516 1.84362302149927e-07 6.41731344259448e-08 3.34772993913026e-08 9.42623791156883e-09 9.89831620755571e-08 5.26122199414893e-08 2.61364850607182e-08 6.48032197791632e-08
"446" 9517 1.85527839235192e-07 6.46549395060171e-08 3.34975395221916e-08 9.46771622384134e-09 1.0008719330815e-07 5.26211042392802e-08 2.61187186717099e-08 6.49007366287568e-08
"447" 9518 1.86693376320457e-07 6.51367445860893e-08 3.35177796530807e-08 9.50919453611385e-09 1.01191224540742e-07 5.26299885370711e-08 2.61009522827016e-08 6.49982534783504e-08
"448" 9519 1.87858913405722e-07 6.56185496661616e-08 3.35380197839697e-08 9.55067284838636e-09 1.02295255773334e-07 5.2638872834862e-08 2.60831858936934e-08 6.50957703279439e-08
"449" 9520 1.89024450490987e-07 6.61003547462338e-08 3.35582599148588e-08 9.59215116065887e-09 1.03399287005927e-07 5.26477571326529e-08 2.60654195046851e-08 6.51932871775375e-08
"450" 9521 1.90189987576252e-07 6.65821598263061e-08 3.35785000457478e-08 9.63362947293138e-09 1.04503318238519e-07 5.26566414304438e-08 2.60476531156768e-08 6.52908040271311e-08
"451" 9522 1.91355524661516e-07 6.70639649063783e-08 3.35987401766369e-08 9.67510778520389e-09 1.05607349471111e-07 5.26655257282347e-08 2.60298867266685e-08 6.53883208767247e-08
"452" 9523 1.92521061746781e-07 6.75457699864506e-08 3.36189803075259e-08 9.7165860974764e-09 1.06711380703704e-07 5.26744100260256e-08 2.60121203376603e-08 6.54858377263183e-08
"453" 9524 1.9333180503845e-07 6.8242095071179e-08 3.3638975576261e-08 9.75195673242151e-09 1.06757659410307e-07 5.25658887201239e-08 2.59894960315232e-08 6.56584106125421e-08
"454" 9525 1.94430453535383e-07 6.90472766120567e-08 3.32989444091486e-08 9.75862857954335e-09 1.07852409427679e-07 5.25900640786721e-08 2.59873714050111e-08 6.58120056502748e-08
"455" 9526 1.94439526834844e-07 6.90760823954901e-08 3.32443173996004e-08 9.72907131227367e-09 1.07888586584226e-07 5.25984658541073e-08 2.60997992826498e-08 6.61335629536597e-08
"456" 9527 1.94448600134304e-07 6.91048881789235e-08 3.31896903900522e-08 9.699514045004e-09 1.07924763740773e-07 5.26068676295425e-08 2.62122271602885e-08 6.64551202570446e-08
"457" 9528 1.95277541130487e-07 6.91408914211942e-08 3.30390138601004e-08 9.70110836397588e-09 1.0794179318486e-07 5.26229047568504e-08 2.62571460396006e-08 6.6429004793002e-08
"458" 9529 1.96106482126669e-07 6.9176894663465e-08 3.28883373301486e-08 9.70270268294777e-09 1.07958822628946e-07 5.26389418841583e-08 2.63020649189127e-08 6.64028893289594e-08
"459" 9530 1.96935423122851e-07 6.92128979057357e-08 3.27376608001968e-08 9.70429700191966e-09 1.07975852073033e-07 5.26549790114663e-08 2.63469837982248e-08 6.63767738649167e-08
"460" 9531 1.97764364119034e-07 6.92489011480065e-08 3.2586984270245e-08 9.70589132089154e-09 1.07992881517119e-07 5.26710161387742e-08 2.6391902677537e-08 6.63506584008741e-08
"461" 9532 1.98593305115216e-07 6.92849043902773e-08 3.24363077402932e-08 9.70748563986343e-09 1.08009910961206e-07 5.26870532660822e-08 2.64368215568491e-08 6.63245429368315e-08
"462" 9533 1.99422246111398e-07 6.9320907632548e-08 3.22856312103415e-08 9.70907995883532e-09 1.08026940405292e-07 5.27030903933901e-08 2.64817404361612e-08 6.62984274727889e-08
"463" 9534 2.0025118710758e-07 6.93569108748188e-08 3.21349546803897e-08 9.71067427780721e-09 1.08043969849379e-07 5.2719127520698e-08 2.65266593154733e-08 6.62723120087463e-08
"464" 9535 2.01080128103763e-07 6.93929141170895e-08 3.19842781504379e-08 9.71226859677909e-09 1.08060999293465e-07 5.2735164648006e-08 2.65715781947854e-08 6.62461965447036e-08
"465" 9536 2.01752213463814e-07 6.94160123218036e-08 3.21579085211924e-08 9.73088593841325e-09 1.08058671240284e-07 5.25968031608902e-08 2.66213746942823e-08 6.6285342356895e-08
"466" 9537 2.02424298823866e-07 6.94391105265177e-08 3.2331538891947e-08 9.7495032800474e-09 1.08056343187102e-07 5.24584416737744e-08 2.66711711937791e-08 6.63244881690864e-08
"467" 9538 2.03096384183917e-07 6.94622087312318e-08 3.25051692627015e-08 9.76812062168156e-09 1.08054015133921e-07 5.23200801866586e-08 2.6720967693276e-08 6.63636339812778e-08
"468" 9539 2.03768469543968e-07 6.94853069359458e-08 3.26787996334561e-08 9.78673796331572e-09 1.08051687080739e-07 5.21817186995429e-08 2.67707641927728e-08 6.64027797934692e-08
"469" 9540 2.0444055490402e-07 6.95084051406599e-08 3.28524300042107e-08 9.80535530494987e-09 1.08049359027558e-07 5.20433572124271e-08 2.68205606922697e-08 6.64419256056606e-08
"470" 9541 2.05112640264071e-07 6.9531503345374e-08 3.30260603749652e-08 9.82397264658403e-09 1.08047030974376e-07 5.19049957253113e-08 2.68703571917666e-08 6.6481071417852e-08
"471" 9542 2.05784725624123e-07 6.95546015500881e-08 3.31996907457198e-08 9.84258998821819e-09 1.08044702921195e-07 5.17666342381955e-08 2.69201536912634e-08 6.65202172300434e-08
"472" 9543 2.06456810984174e-07 6.95776997548021e-08 3.33733211164743e-08 9.86120732985234e-09 1.08042374868013e-07 5.16282727510797e-08 2.69699501907603e-08 6.65593630422348e-08
"473" 9544 2.07128896344225e-07 6.96007979595162e-08 3.35469514872289e-08 9.8798246714865e-09 1.08040046814831e-07 5.14899112639639e-08 2.70197466902571e-08 6.65985088544262e-08
"474" 9545 2.07991728077554e-07 6.96518552183267e-08 3.37475416127407e-08 9.89721561391151e-09 1.08071149911304e-07 5.14074263567368e-08 2.70684160694763e-08 6.65837348702063e-08
"475" 9546 2.08854559810882e-07 6.97029124771371e-08 3.39481317382526e-08 9.91460655633652e-09 1.08102253007776e-07 5.13249414495098e-08 2.71170854486954e-08 6.65689608859864e-08
"476" 9547 2.09717391544211e-07 6.97539697359475e-08 3.41487218637644e-08 9.93199749876154e-09 1.08133356104249e-07 5.12424565422827e-08 2.71657548279146e-08 6.65541869017665e-08
"477" 9548 2.10580223277539e-07 6.9805026994758e-08 3.43493119892763e-08 9.94938844118655e-09 1.08164459200721e-07 5.11599716350556e-08 2.72144242071337e-08 6.65394129175465e-08
"478" 9549 2.10629025376037e-07 6.98143766221951e-08 3.43465643327269e-08 9.92976539988443e-09 1.0822996891688e-07 5.10676211545647e-08 2.72440310569117e-08 6.64828442836387e-08
"479" 9550 2.10677827474535e-07 6.98237262496323e-08 3.43438166761776e-08 9.91014235858231e-09 1.08295478633039e-07 5.09752706740738e-08 2.72736379066896e-08 6.64262756497309e-08
"480" 9551 2.10726629573033e-07 6.98330758770694e-08 3.43410690196283e-08 9.89051931728019e-09 1.08360988349198e-07 5.0882920193583e-08 2.73032447564676e-08 6.63697070158231e-08
"481" 9552 2.1077543167153e-07 6.98424255045066e-08 3.4338321363079e-08 9.87089627597807e-09 1.08426498065357e-07 5.07905697130921e-08 2.73328516062455e-08 6.63131383819153e-08
"482" 9553 2.10824233770028e-07 6.98517751319437e-08 3.43355737065296e-08 9.85127323467595e-09 1.08492007781517e-07 5.06982192326012e-08 2.73624584560235e-08 6.62565697480075e-08
"483" 9554 2.10873035868526e-07 6.98611247593809e-08 3.43328260499803e-08 9.83165019337383e-09 1.08557517497676e-07 5.06058687521104e-08 2.73920653058014e-08 6.62000011140997e-08
"484" 9555 2.10921837967024e-07 6.9870474386818e-08 3.4330078393431e-08 9.81202715207171e-09 1.08623027213835e-07 5.05135182716195e-08 2.74216721555794e-08 6.61434324801919e-08
"485" 9556 2.10970640065522e-07 6.98798240142552e-08 3.43273307368817e-08 9.79240411076959e-09 1.08688536929994e-07 5.04211677911286e-08 2.74512790053573e-08 6.6086863846284e-08
"486" 9557 2.1101944216402e-07 6.98891736416923e-08 3.43245830803323e-08 9.77278106946747e-09 1.08754046646153e-07 5.03288173106377e-08 2.74808858551353e-08 6.60302952123762e-08
"487" 9558 2.11068244262517e-07 6.98985232691295e-08 3.4321835423783e-08 9.75315802816535e-09 1.08819556362312e-07 5.02364668301469e-08 2.75104927049132e-08 6.59737265784684e-08
"488" 9559 2.11025407165064e-07 7.05539826673965e-08 3.43765989497727e-08 9.73184247747992e-09 1.08971011597539e-07 5.02285596815786e-08 2.7800958830698e-08 6.59426069685569e-08
"489" 9560 2.11026711937713e-07 7.1187371841525e-08 3.4440113227337e-08 9.72060824219243e-09 1.0903595806788e-07 5.02988514095818e-08 2.80427555772635e-08 6.59329002052994e-08
"490" 9561 2.11028016710363e-07 7.18207610156534e-08 3.45036275049012e-08 9.70937400690495e-09 1.09100904538221e-07 5.03691431375849e-08 2.82845523238291e-08 6.59231934420419e-08
"491" 9562 2.10700598667587e-07 7.24956413111503e-08 3.4457515413583e-08 9.62474945327726e-09 1.07547402872722e-07 5.04598512818705e-08 2.85686445700775e-08 6.58753048354416e-08
"492" 9563 2.10373180624811e-07 7.31705216066472e-08 3.44114033222648e-08 9.54012489964957e-09 1.05993901207223e-07 5.05505594261561e-08 2.88527368163259e-08 6.58274162288413e-08
"493" 9564 2.10045762582035e-07 7.38454019021441e-08 3.43652912309466e-08 9.45550034602189e-09 1.04440399541724e-07 5.06412675704417e-08 2.91368290625742e-08 6.5779527622241e-08
"494" 9565 2.09718344539259e-07 7.4520282197641e-08 3.43191791396283e-08 9.3708757923942e-09 1.02886897876225e-07 5.07319757147273e-08 2.94209213088226e-08 6.57316390156407e-08
"495" 9566 2.09618669622806e-07 7.45201571106596e-08 3.42394237849221e-08 9.32495773187696e-09 1.01491911557192e-07 5.07328637318814e-08 2.94171314028037e-08 6.61532823163253e-08
"496" 9567 2.09518994706353e-07 7.45200320236782e-08 3.41596684302158e-08 9.27903967135972e-09 1.00096925238158e-07 5.07337517490355e-08 2.94133414967847e-08 6.65749256170099e-08
"497" 9568 2.094193197899e-07 7.45199069366968e-08 3.40799130755095e-08 9.23312161084247e-09 9.8701938919125e-08 5.07346397661895e-08 2.94095515907658e-08 6.69965689176945e-08
"498" 9569 2.09319644873447e-07 7.45197818497154e-08 3.40001577208033e-08 9.18720355032524e-09 9.73069526000917e-08 5.07355277833436e-08 2.94057616847468e-08 6.74182122183792e-08
"499" 9570 2.09219969956994e-07 7.4519656762734e-08 3.3920402366097e-08 9.14128548980800e-09 9.59119662810584e-08 5.07364158004976e-08 2.94019717787278e-08 6.78398555190638e-08
"500" 9571 2.09120295040541e-07 7.45195316757526e-08 3.38406470113907e-08 9.09536742929075e-09 9.45169799620251e-08 5.07373038176517e-08 2.93981818727089e-08 6.82614988197484e-08
"501" 9572 2.09020620124088e-07 7.45194065887712e-08 3.37608916566844e-08 9.04944936877351e-09 9.31219936429918e-08 5.07381918348058e-08 2.93943919666899e-08 6.8683142120433e-08
"502" 9573 2.08920945207635e-07 7.45192815017898e-08 3.36811363019782e-08 9.00353130825627e-09 9.17270073239585e-08 5.07390798519598e-08 2.9390602060671e-08 6.91047854211177e-08
"503" 9574 2.08821270291182e-07 7.45191564148084e-08 3.36013809472719e-08 8.95761324773903e-09 9.03320210049251e-08 5.07399678691139e-08 2.9386812154652e-08 6.95264287218023e-08
"504" 9575 2.0872159537473e-07 7.4519031327827e-08 3.35216255925656e-08 8.91169518722179e-09 8.89370346858918e-08 5.0740855886268e-08 2.93830222486331e-08 6.99480720224869e-08
"505" 9576 2.08621920458277e-07 7.45189062408456e-08 3.34418702378594e-08 8.86577712670455e-09 8.75420483668585e-08 5.0741743903422e-08 2.93792323426141e-08 7.03697153231716e-08
"506" 9577 2.08522245541824e-07 7.45187811538643e-08 3.33621148831531e-08 8.81985906618731e-09 8.61470620478252e-08 5.07426319205761e-08 2.93754424365952e-08 7.07913586238562e-08
"507" 9578 2.08422570625371e-07 7.45186560668828e-08 3.32823595284468e-08 8.77394100567007e-09 8.47520757287919e-08 5.07435199377301e-08 2.93716525305762e-08 7.12130019245408e-08
"508" 9579 2.08322895708918e-07 7.45185309799015e-08 3.32026041737406e-08 8.72802294515283e-09 8.33570894097586e-08 5.07444079548842e-08 2.93678626245573e-08 7.16346452252254e-08
"509" 9580 2.08223220792465e-07 7.45184058929201e-08 3.31228488190343e-08 8.68210488463559e-09 8.19621030907252e-08 5.07452959720383e-08 2.93640727185383e-08 7.205628852591e-08
"510" 9581 2.08217380448057e-07 7.45171902818724e-08 3.30720944599019e-08 8.70539906092276e-09 8.22700860053489e-08 5.07452959720383e-08 2.93677838123334e-08 7.2265546688133e-08
"511" 9582 2.08016558830624e-07 7.48194314812831e-08 3.29974721816186e-08 8.69840013041476e-09 8.26142754581217e-08 5.08087916730382e-08 2.93671554451729e-08 7.231894680906e-08
"512" 9583 2.07827023769162e-07 7.45714613538161e-08 3.28896873354457e-08 8.70127000919709e-09 8.28974162070918e-08 5.03993274683225e-08 2.93707763310367e-08 7.25288800266699e-08
"513" 9584 2.07637488707701e-07 7.43234912263491e-08 3.27819024892727e-08 8.70413988797942e-09 8.31805569560619e-08 4.99898632636068e-08 2.93743972169004e-08 7.27388132442797e-08
"514" 9585 2.07447953646239e-07 7.40755210988822e-08 3.26741176430998e-08 8.70700976676174e-09 8.3463697705032e-08 4.95803990588912e-08 2.93780181027641e-08 7.29487464618896e-08
"515" 9586 2.07258418584778e-07 7.38275509714152e-08 3.25663327969269e-08 8.70987964554407e-09 8.37468384540021e-08 4.91709348541755e-08 2.93816389886279e-08 7.31586796794995e-08
"516" 9587 2.07068883523316e-07 7.35795808439483e-08 3.24585479507539e-08 8.7127495243264e-09 8.40299792029723e-08 4.87614706494598e-08 2.93852598744916e-08 7.33686128971094e-08
"517" 9588 2.06879348461855e-07 7.33316107164813e-08 3.2350763104581e-08 8.71561940310873e-09 8.43131199519424e-08 4.83520064447441e-08 2.93888807603554e-08 7.35785461147193e-08
"518" 9589 2.06689813400393e-07 7.30836405890143e-08 3.22429782584081e-08 8.71848928189105e-09 8.45962607009125e-08 4.79425422400284e-08 2.93925016462191e-08 7.37884793323291e-08
"519" 9590 2.06500278338932e-07 7.28356704615474e-08 3.21351934122352e-08 8.72135916067338e-09 8.48794014498826e-08 4.75330780353128e-08 2.93961225320828e-08 7.3998412549939e-08
"520" 9591 2.0631074327747e-07 7.25877003340804e-08 3.20274085660622e-08 8.72422903945571e-09 8.51625421988527e-08 4.71236138305971e-08 2.93997434179466e-08 7.42083457675489e-08
"521" 9592 2.06121208216008e-07 7.23397302066135e-08 3.19196237198893e-08 8.72709891823804e-09 8.54456829478228e-08 4.67141496258814e-08 2.94033643038103e-08 7.44182789851587e-08
"522" 9593 2.05931673154547e-07 7.20917600791465e-08 3.18118388737164e-08 8.72996879702036e-09 8.57288236967929e-08 4.63046854211657e-08 2.94069851896741e-08 7.46282122027686e-08
"523" 9594 2.05871450966518e-07 7.20564127461239e-08 3.1822910759198e-08 8.73259339596086e-09 8.58473391900821e-08 4.62650082762001e-08 2.9398247158595e-08 7.46478020315533e-08
"524" 9595 2.05811228778489e-07 7.20210654131013e-08 3.18339826446796e-08 8.73521799490136e-09 8.59658546833714e-08 4.62253311312345e-08 2.93895091275159e-08 7.46673918603379e-08
"525" 9596 2.0575100659046e-07 7.19857180800787e-08 3.18450545301613e-08 8.73784259384186e-09 8.60843701766606e-08 4.61856539862689e-08 2.93807710964368e-08 7.46869816891226e-08
"526" 9597 2.05690784402431e-07 7.19503707470561e-08 3.18561264156429e-08 8.74046719278236e-09 8.62028856699498e-08 4.61459768413033e-08 2.93720330653577e-08 7.47065715179073e-08
"527" 9598 2.05630562214402e-07 7.19150234140334e-08 3.18671983011245e-08 8.74309179172286e-09 8.6321401163239e-08 4.61062996963378e-08 2.93632950342785e-08 7.47261613466919e-08
"528" 9599 2.05570340026373e-07 7.18796760810108e-08 3.18782701866061e-08 8.74571639066336e-09 8.64399166565282e-08 4.60666225513722e-08 2.93545570031994e-08 7.47457511754766e-08
"529" 9600 2.05510117838344e-07 7.18443287479882e-08 3.18893420720877e-08 8.74834098960385e-09 8.65584321498174e-08 4.60269454064066e-08 2.93458189721203e-08 7.47653410042613e-08
"530" 9601 2.05449895650315e-07 7.18089814149656e-08 3.19004139575694e-08 8.75096558854435e-09 8.66769476431066e-08 4.5987268261441e-08 2.93370809410412e-08 7.47849308330459e-08
"531" 9602 2.03662836474022e-07 7.12630295976709e-08 3.19241905043257e-08 8.75228198473138e-09 8.68362319066049e-08 4.59015193130547e-08 2.91532183682955e-08 7.49426961976641e-08
"532" 9603 2.01875777297728e-07 7.07170777803762e-08 3.1947967051082e-08 8.7535983809184e-09 8.69955161701032e-08 4.58157703646684e-08 2.89693557955498e-08 7.51004615622822e-08
"533" 9604 2.00004317503375e-07 7.02064732961041e-08 3.19397511678622e-08 8.77672088747452e-09 8.69550232933064e-08 4.5667442067709e-08 2.87730948997493e-08 7.51436309367971e-08
"534" 9605 1.98144883454461e-07 6.97867701557619e-08 3.20272236526711e-08 8.78083355233309e-09 8.68317667806553e-08 4.58319293598074e-08 2.86087034016306e-08 7.52075593329384e-08
"535" 9606 1.96285449405547e-07 6.93670670154196e-08 3.211469613748e-08 8.78494621719166e-09 8.67085102680043e-08 4.59964166519059e-08 2.84443119035119e-08 7.52714877290796e-08
"536" 9607 1.94426015356632e-07 6.89473638750774e-08 3.22021686222889e-08 8.78905888205023e-09 8.65852537553532e-08 4.61609039440044e-08 2.82799204053932e-08 7.53354161252209e-08
"537" 9608 1.92566581307718e-07 6.85276607347351e-08 3.22896411070979e-08 8.7931715469088e-09 8.64619972427021e-08 4.63253912361029e-08 2.81155289072745e-08 7.53993445213622e-08
"538" 9609 1.90707147258804e-07 6.81079575943929e-08 3.23771135919068e-08 8.79728421176737e-09 8.63387407300511e-08 4.64898785282014e-08 2.79511374091558e-08 7.54632729175035e-08
"539" 9610 1.88847713209889e-07 6.76882544540506e-08 3.24645860767157e-08 8.80139687662594e-09 8.62154842174e-08 4.66543658202998e-08 2.77867459110371e-08 7.55272013136448e-08
"540" 9611 1.86988279160975e-07 6.72685513137084e-08 3.25520585615246e-08 8.80550954148451e-09 8.60922277047489e-08 4.68188531123983e-08 2.76223544129184e-08 7.55911297097861e-08
"541" 9612 1.85128845112061e-07 6.68488481733661e-08 3.26395310463336e-08 8.80962220634308e-09 8.59689711920979e-08 4.69833404044968e-08 2.74579629147997e-08 7.56550581059274e-08
"542" 9613 1.83269411063146e-07 6.64291450330238e-08 3.27270035311425e-08 8.81373487120165e-09 8.58457146794468e-08 4.71478276965953e-08 2.7293571416681e-08 7.57189865020687e-08
"543" 9614 1.81409977014232e-07 6.60094418926816e-08 3.28144760159514e-08 8.81784753606022e-09 8.57224581667957e-08 4.73123149886938e-08 2.71291799185623e-08 7.578291489821e-08
"544" 9615 1.79550542965318e-07 6.55897387523393e-08 3.29019485007603e-08 8.82196020091879e-09 8.55992016541446e-08 4.74768022807922e-08 2.69647884204436e-08 7.58468432943512e-08
"545" 9616 1.77691108916404e-07 6.51700356119971e-08 3.29894209855692e-08 8.82607286577736e-09 8.54759451414936e-08 4.76412895728907e-08 2.68003969223249e-08 7.59107716904925e-08
"546" 9617 1.75831674867489e-07 6.47503324716548e-08 3.30768934703782e-08 8.83018553063593e-09 8.53526886288425e-08 4.78057768649892e-08 2.66360054242062e-08 7.59747000866338e-08
"547" 9618 1.75900507236125e-07 6.49887958155537e-08 3.30799130755095e-08 8.84402797799681e-09 8.57732607625531e-08 4.77366042368121e-08 2.6640801143808e-08 7.59572311125129e-08
"548" 9619 1.75969339604761e-07 6.52272591594526e-08 3.30829326806409e-08 8.85787042535770e-09 8.61938328962637e-08 4.76674316086349e-08 2.66455968634098e-08 7.59397621383919e-08
"549" 9620 1.76038171973397e-07 6.54657225033514e-08 3.30859522857722e-08 8.87171287271858e-09 8.66144050299743e-08 4.75982589804578e-08 2.66503925830117e-08 7.5922293164271e-08
"550" 9621 1.75122280922943e-07 6.56410639009867e-08 3.29214991892345e-08 8.92036178523013e-09 8.75117647234369e-08 4.72932451771381e-08 2.6700794658254e-08 7.56939774637664e-08
"551" 9622 1.74206389872489e-07 6.58164052986219e-08 3.27570460926967e-08 8.96901069774169e-09 8.84091244168996e-08 4.69882313738184e-08 2.67511967334963e-08 7.54656617632618e-08
"552" 9623 1.73290498822034e-07 6.59917466962571e-08 3.25925929961589e-08 9.01765961025324e-09 8.93064841103622e-08 4.66832175704987e-08 2.68015988087386e-08 7.52373460627572e-08
"553" 9624 1.72510874275368e-07 6.59307448494437e-08 3.24281037843837e-08 9.01223874264120e-09 8.93545023563202e-08 4.63916863321051e-08 2.68428937138278e-08 7.50742916384866e-08
"554" 9625 1.71731249728702e-07 6.58697430026303e-08 3.22636145726085e-08 9.00681787502915e-09 8.94025206022782e-08 4.61001550937115e-08 2.68841886189171e-08 7.4911237214216e-08
"555" 9626 1.70951625182036e-07 6.58087411558168e-08 3.20991253608332e-08 9.0013970074171e-09 8.94505388482362e-08 4.58086238553179e-08 2.69254835240064e-08 7.47481827899454e-08
"556" 9627 1.7017200063537e-07 6.57477393090034e-08 3.1934636149058e-08 8.99597613980506e-09 8.94985570941943e-08 4.55170926169243e-08 2.69667784290957e-08 7.45851283656748e-08
"557" 9628 1.69392376088703e-07 6.568673746219e-08 3.17701469372828e-08 8.99055527219301e-09 8.95465753401523e-08 4.52255613785307e-08 2.7008073334185e-08 7.44220739414042e-08
"558" 9629 1.68612751542037e-07 6.56257356153766e-08 3.16056577255075e-08 8.98513440458097e-09 8.95945935861103e-08 4.49340301401371e-08 2.70493682392742e-08 7.42590195171337e-08
"559" 9630 1.67833126995371e-07 6.55647337685631e-08 3.14411685137323e-08 8.97971353696892e-09 8.96426118320683e-08 4.46424989017435e-08 2.70906631443635e-08 7.40959650928631e-08
"560" 9631 1.67053502448705e-07 6.55037319217497e-08 3.1276679301957e-08 8.97429266935688e-09 8.96906300780263e-08 4.43509676633499e-08 2.71319580494528e-08 7.39329106685925e-08
"561" 9632 1.66273877902038e-07 6.54427300749363e-08 3.11121900901818e-08 8.96887180174484e-09 8.97386483239843e-08 4.40594364249563e-08 2.71732529545421e-08 7.37698562443219e-08
"562" 9633 1.65494253355372e-07 6.53817282281229e-08 3.09477008784066e-08 8.96345093413279e-09 8.97866665699423e-08 4.37679051865627e-08 2.72145478596314e-08 7.36068018200513e-08
"563" 9634 1.64714628808706e-07 6.53207263813094e-08 3.07832116666313e-08 8.95803006652075e-09 8.98346848159004e-08 4.3476373948169e-08 2.72558427647207e-08 7.34437473957807e-08
"564" 9635 1.6393500426204e-07 6.5259724534496e-08 3.06187224548561e-08 8.9526091989087e-09 8.98827030618584e-08 4.31848427097754e-08 2.72971376698099e-08 7.32806929715101e-08
"565" 9636 1.63155379715374e-07 6.51987226876826e-08 3.04542332430808e-08 8.94718833129666e-09 8.99307213078164e-08 4.28933114713818e-08 2.73384325748992e-08 7.31176385472395e-08
"566" 9637 1.62375755168707e-07 6.51377208408692e-08 3.02897440313056e-08 8.94176746368461e-09 8.99787395537744e-08 4.26017802329882e-08 2.73797274799885e-08 7.2954584122969e-08
"567" 9638 1.61596130622041e-07 6.50767189940558e-08 3.01252548195304e-08 8.93634659607257e-09 9.00267577997324e-08 4.23102489945946e-08 2.74210223850778e-08 7.27915296986984e-08
"568" 9639 1.60816506075375e-07 6.50157171472423e-08 2.99607656077551e-08 8.93092572846052e-09 9.00747760456904e-08 4.2018717756201e-08 2.74623172901671e-08 7.26284752744278e-08
"569" 9640 1.60567886586656e-07 6.50446127588908e-08 2.99010506658308e-08 8.93878313841492e-09 8.93239485489831e-08 4.23655134802751e-08 2.74615593089633e-08 7.26593225855745e-08
"570" 9641 1.60319267097937e-07 6.50735083705393e-08 2.98413357239066e-08 8.94664054836932e-09 8.85731210522758e-08 4.27123092043491e-08 2.74608013277595e-08 7.26901698967213e-08
"571" 9642 1.6041379863078e-07 6.51479171976433e-08 2.99401701003979e-08 8.94676318829023e-09 8.88344472653944e-08 4.25593339479699e-08 2.78551771220785e-08 7.31424426695408e-08
"572" 9643 1.60508330163622e-07 6.52223260247474e-08 3.00390044768892e-08 8.94688582821114e-09 8.9095773478513e-08 4.24063586915908e-08 2.82495529163975e-08 7.35947154423603e-08
"573" 9644 1.60602861696465e-07 6.52967348518515e-08 3.01378388533805e-08 8.94700846813206e-09 8.93570996916317e-08 4.22533834352116e-08 2.86439287107165e-08 7.40469882151798e-08
"574" 9645 1.60697393229307e-07 6.53711436789556e-08 3.02366732298718e-08 8.94713110805297e-09 8.96184259047503e-08 4.21004081788324e-08 2.90383045050355e-08 7.44992609879993e-08
"575" 9646 1.6079192476215e-07 6.54455525060597e-08 3.03355076063631e-08 8.94725374797389e-09 8.98797521178689e-08 4.19474329224533e-08 2.94326802993545e-08 7.49515337608188e-08
"576" 9647 1.60886456294992e-07 6.55199613331637e-08 3.04343419828544e-08 8.9473763878948e-09 9.01410783309876e-08 4.17944576660741e-08 2.98270560936735e-08 7.54038065336383e-08
"577" 9648 1.60980987827835e-07 6.55943701602678e-08 3.05331763593457e-08 8.94749902781572e-09 9.04024045441062e-08 4.1641482409695e-08 3.02214318879925e-08 7.58560793064578e-08
"578" 9649 1.61075519360677e-07 6.56687789873719e-08 3.0632010735837e-08 8.94762166773663e-09 9.06637307572248e-08 4.14885071533158e-08 3.06158076823115e-08 7.63083520792773e-08
"579" 9650 1.6117005089352e-07 6.5743187814476e-08 3.07308451123283e-08 8.94774430765754e-09 9.09250569703435e-08 4.13355318969366e-08 3.10101834766305e-08 7.67606248520968e-08
"580" 9651 1.61264582426362e-07 6.58175966415801e-08 3.08296794888196e-08 8.94786694757846e-09 9.11863831834621e-08 4.11825566405575e-08 3.14045592709495e-08 7.72128976249163e-08
"581" 9652 1.61359113959205e-07 6.58920054686841e-08 3.0928513865311e-08 8.94798958749937e-09 9.14477093965807e-08 4.10295813841783e-08 3.17989350652685e-08 7.76651703977358e-08
"582" 9653 1.61453645492047e-07 6.59664142957882e-08 3.10273482418023e-08 8.94811222742029e-09 9.17090356096994e-08 4.08766061277991e-08 3.21933108595875e-08 7.81174431705553e-08
"583" 9654 1.6163371096526e-07 6.5935647163844e-08 3.1123181070781e-08 8.94188191017198e-09 9.19939983133333e-08 4.09129988745937e-08 3.23369465383537e-08 7.84746008625503e-08
"584" 9655 1.61813776438473e-07 6.59048800318997e-08 3.12190138997597e-08 8.93565159292366e-09 9.22789610169672e-08 4.09493916213883e-08 3.248058221712e-08 7.88317585545453e-08
"585" 9656 1.61993841911685e-07 6.58741128999554e-08 3.13148467287384e-08 8.92942127567535e-09 9.25639237206011e-08 4.09857843681829e-08 3.26242178958863e-08 7.91889162465403e-08
"586" 9657 1.62173907384898e-07 6.58433457680111e-08 3.14106795577171e-08 8.92319095842704e-09 9.28488864242351e-08 4.10221771149775e-08 3.27678535746525e-08 7.95460739385353e-08
"587" 9658 1.62353972858111e-07 6.58125786360668e-08 3.15065123866957e-08 8.91696064117873e-09 9.3133849127869e-08 4.10585698617721e-08 3.29114892534188e-08 7.99032316305303e-08
"588" 9659 1.62534038331324e-07 6.57818115041226e-08 3.16023452156744e-08 8.91073032393041e-09 9.34188118315029e-08 4.10949626085667e-08 3.30551249321851e-08 8.02603893225253e-08
"589" 9660 1.62714103804536e-07 6.57510443721783e-08 3.16981780446531e-08 8.9045000066821e-09 9.37037745351369e-08 4.11313553553613e-08 3.31987606109513e-08 8.06175470145203e-08
"590" 9661 1.62894169277749e-07 6.5720277240234e-08 3.17940108736318e-08 8.89826968943379e-09 9.39887372387708e-08 4.11677481021559e-08 3.33423962897176e-08 8.09747047065153e-08
"591" 9662 1.63359058415151e-07 6.5720277240234e-08 3.1814895302889e-08 8.94875820075906e-09 9.46198036082406e-08 4.1131278327804e-08 3.30479349200059e-08 8.10202127747057e-08
"592" 9663 1.63797337748539e-07 6.58413828246918e-08 3.18275999641637e-08 8.98146326959592e-09 9.49839636059994e-08 4.10830533305496e-08 3.30397661469194e-08 8.0798091643271e-08
"593" 9664 1.64070447372166e-07 6.59624884091497e-08 3.19589446656681e-08 8.99378487730454e-09 9.49103489681561e-08 4.10843589470132e-08 3.30303997486798e-08 8.0724653400517e-08
"594" 9665 1.64343556995792e-07 6.60835939936075e-08 3.20902893671725e-08 9.00610648501315e-09 9.48367343303129e-08 4.10856645634769e-08 3.30210333504402e-08 8.06512151577629e-08
"595" 9666 1.64616666619419e-07 6.62046995780653e-08 3.22216340686769e-08 9.01842809272176e-09 9.47631196924696e-08 4.10869701799406e-08 3.30116669522006e-08 8.05777769150089e-08
"596" 9667 1.64889776243045e-07 6.63258051625231e-08 3.23529787701813e-08 9.03074970043037e-09 9.46895050546263e-08 4.10882757964043e-08 3.3002300553961e-08 8.05043386722548e-08
"597" 9668 1.65162885866672e-07 6.6446910746981e-08 3.24843234716857e-08 9.04307130813898e-09 9.4615890416783e-08 4.1089581412868e-08 3.29929341557214e-08 8.04309004295008e-08
"598" 9669 1.65435995490298e-07 6.65680163314388e-08 3.26156681731901e-08 9.05539291584759e-09 9.45422757789397e-08 4.10908870293317e-08 3.29835677574818e-08 8.03574621867467e-08
"599" 9670 1.65709105113925e-07 6.66891219158966e-08 3.27470128746945e-08 9.06771452355621e-09 9.44686611410965e-08 4.10921926457954e-08 3.29742013592422e-08 8.02840239439926e-08
"600" 9671 1.65982214737551e-07 6.68102275003544e-08 3.28783575761989e-08 9.08003613126482e-09 9.43950465032532e-08 4.10934982622591e-08 3.29648349610026e-08 8.02105857012386e-08
"601" 9672 1.66255324361178e-07 6.69313330848123e-08 3.30097022777033e-08 9.09235773897343e-09 9.43214318654099e-08 4.10948038787227e-08 3.2955468562763e-08 8.01371474584845e-08
"602" 9673 1.66528433984804e-07 6.70524386692701e-08 3.31410469792077e-08 9.10467934668204e-09 9.42478172275666e-08 4.10961094951864e-08 3.29461021645234e-08 8.00637092157305e-08
"603" 9674 1.66801543608431e-07 6.71735442537279e-08 3.3272391680712e-08 9.11700095439065e-09 9.41742025897234e-08 4.10974151116501e-08 3.29367357662838e-08 7.99902709729764e-08
"604" 9675 1.67526603701697e-07 6.71793416606623e-08 3.32611923075983e-08 9.0964212432307e-09 9.39344753981518e-08 4.1158185964392e-08 3.29314298978572e-08 7.96190143521484e-08
"605" 9676 1.67245787816291e-07 6.66093550811014e-08 3.29206172433218e-08 9.09362497455916e-09 9.34309314596831e-08 4.12307120400365e-08 3.29354904276703e-08 7.95610500710465e-08
"606" 9677 1.66964971930886e-07 6.60393685015405e-08 3.25800421790454e-08 9.09082870588761e-09 9.29273875212143e-08 4.1303238115681e-08 3.29395509574834e-08 7.95030857899445e-08
"607" 9678 1.67527972895323e-07 6.60415816188226e-08 3.25651066719573e-08 9.07812279154916e-09 9.3000025073121e-08 4.12925615528204e-08 3.29436114872964e-08 7.94864047903946e-08
"608" 9679 1.6809097385976e-07 6.60437947361047e-08 3.25501711648692e-08 9.0654168772107e-09 9.30726626250277e-08 4.12818849899599e-08 3.29476720171095e-08 7.94697237908446e-08
"609" 9680 1.68653974824197e-07 6.60460078533868e-08 3.25352356577811e-08 9.05271096287225e-09 9.31453001769344e-08 4.12712084270994e-08 3.29517325469226e-08 7.94530427912947e-08
"610" 9681 1.69216975788635e-07 6.60482209706689e-08 3.2520300150693e-08 9.0400050485338e-09 9.32179377288411e-08 4.12605318642388e-08 3.29557930767356e-08 7.94363617917447e-08
"611" 9682 1.69063889777454e-07 6.60443560327126e-08 3.27757982631444e-08 9.02561481824557e-09 9.35127448935135e-08 4.12498553013783e-08 3.29536684502235e-08 7.97067992084471e-08
"612" 9683 1.68910803766274e-07 6.60404910947564e-08 3.30312963755959e-08 9.01122458795735e-09 9.3807552058186e-08 4.12391787385178e-08 3.29515438237114e-08 7.99772366251495e-08
"613" 9684 1.68757717755093e-07 6.60366261568001e-08 3.32867944880473e-08 8.99683435766913e-09 9.41023592228584e-08 4.12285021756572e-08 3.29494191971993e-08 8.02476740418519e-08
"614" 9685 1.68604631743913e-07 6.60327612188438e-08 3.35422926004988e-08 8.98244412738091e-09 9.43971663875309e-08 4.12178256127967e-08 3.29472945706872e-08 8.05181114585542e-08
"615" 9686 1.68451545732732e-07 6.60288962808876e-08 3.37977907129503e-08 8.96805389709269e-09 9.46919735522033e-08 4.12071490499362e-08 3.2945169944175e-08 8.07885488752566e-08
"616" 9687 1.68298459721552e-07 6.60250313429313e-08 3.40532888254017e-08 8.95366366680447e-09 9.49867807168757e-08 4.11964724870756e-08 3.29430453176629e-08 8.1058986291959e-08
"617" 9688 1.68145373710371e-07 6.60211664049751e-08 3.43087869378532e-08 8.93927343651625e-09 9.52815878815482e-08 4.11857959242151e-08 3.29409206911508e-08 8.13294237086614e-08
"618" 9689 1.67992287699191e-07 6.60173014670188e-08 3.45642850503046e-08 8.92488320622803e-09 9.55763950462206e-08 4.11751193613546e-08 3.29387960646387e-08 8.15998611253637e-08
"619" 9690 1.67839201688011e-07 6.60134365290625e-08 3.48197831627561e-08 8.91049297593981e-09 9.58712022108931e-08 4.1164442798494e-08 3.29366714381266e-08 8.18702985420661e-08
"620" 9691 1.6768611567683e-07 6.60095715911063e-08 3.50752812752076e-08 8.89610274565159e-09 9.61660093755655e-08 4.11537662356335e-08 3.29345468116144e-08 8.21407359587685e-08
"621" 9692 1.6753302966565e-07 6.600570665315e-08 3.5330779387659e-08 8.88171251536336e-09 9.6460816540238e-08 4.1143089672773e-08 3.29324221851023e-08 8.24111733754709e-08
"622" 9693 1.67379943654469e-07 6.60018417151938e-08 3.55862775001105e-08 8.86732228507514e-09 9.67556237049104e-08 4.11324131099124e-08 3.29302975585902e-08 8.26816107921733e-08
"623" 9694 1.67226857643289e-07 6.59979767772375e-08 3.58417756125619e-08 8.85293205478692e-09 9.70504308695829e-08 4.11217365470519e-08 3.29281729320781e-08 8.29520482088756e-08
"624" 9695 1.67073771632108e-07 6.59941118392813e-08 3.60972737250134e-08 8.8385418244987e-09 9.73452380342553e-08 4.11110599841914e-08 3.2926048305566e-08 8.3222485625578e-08
"625" 9696 1.66920685620928e-07 6.5990246901325e-08 3.63527718374648e-08 8.82415159421048e-09 9.76400451989278e-08 4.11003834213308e-08 3.29239236790538e-08 8.34929230422804e-08
"626" 9697 1.66767599609747e-07 6.59863819633687e-08 3.66082699499163e-08 8.80976136392226e-09 9.79348523636002e-08 4.10897068584703e-08 3.29217990525417e-08 8.37633604589828e-08
"627" 9698 1.66753231512699e-07 6.5848447049524e-08 3.66291543791734e-08 8.79917310197355e-09 9.79416340837377e-08 4.11220000912469e-08 3.27872539292316e-08 8.37651668621553e-08
"628" 9699 1.66738863415651e-07 6.57105121356793e-08 3.66500388084305e-08 8.78858484002483e-09 9.79484158038753e-08 4.11542933240235e-08 3.26527088059215e-08 8.37669732653278e-08
"629" 9700 1.67045796946358e-07 6.55531226606468e-08 3.67098440384485e-08 8.79400570763688e-09 9.78649509754967e-08 4.11965170531099e-08 3.26239812440422e-08 8.36268319467411e-08
"630" 9701 1.67352730477065e-07 6.53957331856143e-08 3.67696492684665e-08 8.79942657524892e-09 9.77814861471181e-08 4.12387407821964e-08 3.25952536821629e-08 8.34866906281544e-08
"631" 9702 1.67659664007772e-07 6.52383437105817e-08 3.68294544984845e-08 8.80484744286097e-09 9.76980213187396e-08 4.12809645112828e-08 3.25665261202836e-08 8.33465493095677e-08
"632" 9703 1.67966597538479e-07 6.50809542355492e-08 3.68892597285025e-08 8.81026831047302e-09 9.7614556490361e-08 4.13231882403692e-08 3.25377985584043e-08 8.32064079909809e-08
"633" 9704 1.68273531069187e-07 6.49235647605167e-08 3.69490649585205e-08 8.81568917808506e-09 9.75310916619824e-08 4.13654119694557e-08 3.2509070996525e-08 8.30662666723942e-08
"634" 9705 1.68580464599894e-07 6.47661752854841e-08 3.70088701885384e-08 8.8211100456971e-09 9.74476268336038e-08 4.14076356985421e-08 3.24803434346457e-08 8.29261253538075e-08
"635" 9706 1.68887398130601e-07 6.46087858104516e-08 3.70686754185564e-08 8.82653091330915e-09 9.73641620052252e-08 4.14498594276286e-08 3.24516158727664e-08 8.27859840352207e-08
"636" 9707 1.69194331661308e-07 6.44513963354191e-08 3.71284806485744e-08 8.83195178092119e-09 9.72806971768467e-08 4.1492083156715e-08 3.2422888310887e-08 8.2645842716634e-08
"637" 9708 1.69501265192015e-07 6.42940068603865e-08 3.71882858785924e-08 8.83737264853324e-09 9.71972323484681e-08 4.15343068858015e-08 3.23941607490077e-08 8.25057013980473e-08
"638" 9709 1.69808198722722e-07 6.4136617385354e-08 3.72480911086104e-08 8.84279351614528e-09 9.71137675200895e-08 4.15765306148879e-08 3.23654331871284e-08 8.23655600794606e-08
"639" 9710 1.70115132253429e-07 6.39792279103214e-08 3.73078963386284e-08 8.84821438375733e-09 9.70303026917109e-08 4.16187543439743e-08 3.23367056252491e-08 8.22254187608738e-08
"640" 9711 1.68002863852409e-07 6.27495913456349e-08 3.73378034680421e-08 8.84210670642993e-09 9.6976415318851e-08 4.1327308111399e-08 3.20853060437724e-08 8.21520811302773e-08
"641" 9712 1.6589059545139e-07 6.15199547809484e-08 3.73677105974558e-08 8.83599902910253e-09 9.69225279459911e-08 4.10358618788237e-08 3.18339064622957e-08 8.20787434996807e-08
"642" 9713 1.63778327050371e-07 6.02903182162618e-08 3.73976177268694e-08 8.82989135177513e-09 9.68686405731312e-08 4.07444156462484e-08 3.1582506880819e-08 8.20054058690842e-08
"643" 9714 1.61666058649351e-07 5.90606816515753e-08 3.74275248562831e-08 8.82378367444774e-09 9.68147532002713e-08 4.04529694136732e-08 3.13311072993423e-08 8.19320682384876e-08
"644" 9715 1.59553790248332e-07 5.78310450868887e-08 3.74574319856968e-08 8.81767599712034e-09 9.67608658274114e-08 4.01615231810979e-08 3.10797077178656e-08 8.1858730607891e-08
"645" 9716 1.57441521847313e-07 5.66014085222022e-08 3.74873391151105e-08 8.81156831979294e-09 9.67069784545514e-08 3.98700769485226e-08 3.08283081363889e-08 8.17853929772945e-08
"646" 9717 1.55329253446293e-07 5.53717719575156e-08 3.75172462445242e-08 8.80546064246554e-09 9.66530910816915e-08 3.95786307159473e-08 3.05769085549121e-08 8.17120553466979e-08
"647" 9718 1.53216985045274e-07 5.41421353928291e-08 3.75471533739378e-08 8.79935296513814e-09 9.65992037088316e-08 3.9287184483372e-08 3.03255089734354e-08 8.16387177161014e-08
"648" 9719 1.51104716644254e-07 5.29124988281425e-08 3.75770605033515e-08 8.79324528781075e-09 9.65453163359717e-08 3.89957382507967e-08 3.00741093919587e-08 8.15653800855048e-08
"649" 9720 1.48981079385868e-07 5.16780928370972e-08 3.75708306037911e-08 8.83033288164866e-09 9.67203125715067e-08 3.88671449523756e-08 2.98244652979202e-08 8.14978388830184e-08
"650" 9721 1.46857442127482e-07 5.04436868460518e-08 3.75646007042307e-08 8.86742047548657e-09 9.68953088070417e-08 3.87385516539545e-08 2.95748212038817e-08 8.14302976805321e-08
"651" 9722 1.46186779602311e-07 4.91890805563554e-08 3.76126254644325e-08 8.8606995985546e-09 9.69545077904821e-08 3.83991764298428e-08 2.93494272893752e-08 8.16258802849191e-08
"652" 9723 1.45516117077139e-07 4.79344742666589e-08 3.76606502246343e-08 8.85397872162263e-09 9.70137067739225e-08 3.80598012057311e-08 2.91240333748686e-08 8.18214628893062e-08
"653" 9724 1.44845454551968e-07 4.66798679769625e-08 3.77086749848361e-08 8.84725784469066e-09 9.7072905757363e-08 3.77204259816194e-08 2.88986394603621e-08 8.20170454936933e-08
"654" 9725 1.44174792026796e-07 4.54252616872661e-08 3.77566997450378e-08 8.84053696775869e-09 9.71321047408034e-08 3.73810507575076e-08 2.86732455458555e-08 8.22126280980803e-08
"655" 9726 1.45451577814539e-07 4.54167524099324e-08 3.77262115189217e-08 8.83381609082672e-09 9.72075029904042e-08 3.73650136301997e-08 2.86863230378902e-08 8.23990780744472e-08
"656" 9727 1.46728363602282e-07 4.54082431325987e-08 3.76957232928055e-08 8.82709521389475e-09 9.7282901240005e-08 3.73489765028918e-08 2.8699400529925e-08 8.25855280508141e-08
"657" 9728 1.48005149390025e-07 4.5399733855265e-08 3.76652350666894e-08 8.82037433696278e-09 9.73582994896057e-08 3.73329393755838e-08 2.87124780219597e-08 8.2771978027181e-08
"658" 9729 1.49281935177767e-07 4.53912245779314e-08 3.76347468405732e-08 8.81365346003081e-09 9.74336977392065e-08 3.73169022482759e-08 2.87255555139944e-08 8.29584280035478e-08
"659" 9730 1.5055872096551e-07 4.53827153005977e-08 3.76042586144571e-08 8.80693258309884e-09 9.75090959888072e-08 3.73008651209679e-08 2.87386330060291e-08 8.31448779799147e-08
"660" 9731 1.51835506753253e-07 4.5374206023264e-08 3.75737703883409e-08 8.80021170616687e-09 9.7584494238408e-08 3.728482799366e-08 2.87517104980638e-08 8.33313279562816e-08
"661" 9732 1.53112292540996e-07 4.53656967459303e-08 3.75432821622248e-08 8.7934908292349e-09 9.76598924880088e-08 3.7268790866352e-08 2.87647879900985e-08 8.35177779326485e-08
"662" 9733 1.54389078328738e-07 4.53571874685966e-08 3.75127939361086e-08 8.78676995230293e-09 9.77352907376095e-08 3.72527537390441e-08 2.87778654821332e-08 8.37042279090154e-08
"663" 9734 1.55446457129524e-07 4.56849885691579e-08 3.73838165968591e-08 8.77714642285444e-09 9.77495521386014e-08 3.7420221171095e-08 2.88637298305167e-08 8.36599059563556e-08
"664" 9735 1.5650383593031e-07 4.60127896697191e-08 3.72548392576096e-08 8.76752289340594e-09 9.77638135395934e-08 3.7587688603146e-08 2.89495941789001e-08 8.36155840036959e-08
"665" 9736 1.57561214731096e-07 4.63405907702803e-08 3.712586191836e-08 8.75789936395745e-09 9.77780749405853e-08 3.77551560351969e-08 2.90354585272836e-08 8.35712620510361e-08
"666" 9737 1.58618593531882e-07 4.66683918708416e-08 3.69968845791105e-08 8.74827583450895e-09 9.77923363415772e-08 3.79226234672478e-08 2.9121322875667e-08 8.35269400983763e-08
"667" 9738 1.59675972332668e-07 4.69961929714028e-08 3.68679072398609e-08 8.73865230506045e-09 9.78065977425691e-08 3.80900908992988e-08 2.92071872240504e-08 8.34826181457166e-08
"668" 9739 1.60733351133454e-07 4.73239940719641e-08 3.67389299006114e-08 8.72902877561196e-09 9.7820859143561e-08 3.82575583313497e-08 2.92930515724339e-08 8.34382961930568e-08
"669" 9740 1.6179072993424e-07 4.76517951725253e-08 3.66099525613619e-08 8.71940524616346e-09 9.78351205445529e-08 3.84250257634006e-08 2.93789159208173e-08 8.33939742403971e-08
"670" 9741 1.62848108735026e-07 4.79795962730865e-08 3.64809752221123e-08 8.70978171671497e-09 9.78493819455448e-08 3.85924931954516e-08 2.94647802692008e-08 8.33496522877373e-08
"671" 9742 1.62501297147249e-07 4.8289224156615e-08 3.63919161898581e-08 8.67703568071036e-09 9.78057088014387e-08 3.87737229673851e-08 2.9575385242885e-08 8.33328832910486e-08
"672" 9743 1.62154485559473e-07 4.85988520401436e-08 3.63028571576038e-08 8.64428964470574e-09 9.77620356573326e-08 3.89549527393186e-08 2.96859902165692e-08 8.33161142943598e-08
"673" 9744 1.61807673971696e-07 4.89084799236721e-08 3.62137981253496e-08 8.61154360870113e-09 9.77183625132266e-08 3.91361825112522e-08 2.97965951902533e-08 8.32993452976711e-08
