"time" "channel1" "channel2" "channel3" "channel4" "channel5" "channel6" "channel7" "channel8"
"1907" 34629 1.80613761195907e-10 2.08035232485185e-10 1.27315818265568e-09 1.31651811043666e-09 4.93957980898607e-09 1.43606220503439e-09 3.28726082562006e-10 1.09005784173514e-10
"1908" 34630 1.80613761195907e-10 2.07233382455104e-10 1.27595767456184e-09 1.31972813251549e-09 4.94824724401569e-09 1.43646279858025e-09 3.29742285148226e-10 1.09005784173514e-10
"1909" 34631 1.80613761195907e-10 2.06431532425022e-10 1.27875716646799e-09 1.32293815459432e-09 4.95691467904531e-09 1.43686339212611e-09 3.30758487734445e-10 1.09005784173514e-10
"1910" 34632 1.80613761195907e-10 2.0562968239494e-10 1.28155665837415e-09 1.32614817667315e-09 4.96558211407493e-09 1.43726398567196e-09 3.31774690320665e-10 1.09005784173514e-10
"1911" 34633 1.80613761195907e-10 2.04827832364858e-10 1.2843561502803e-09 1.32935819875197e-09 4.97424954910454e-09 1.43766457921782e-09 3.32790892906884e-10 1.09005784173514e-10
"1912" 34634 1.80613761195907e-10 2.04025982334777e-10 1.28715564218646e-09 1.3325682208308e-09 4.98291698413416e-09 1.43806517276367e-09 3.33807095493104e-10 1.09005784173514e-10
"1913" 34635 1.80613761195907e-10 2.03224132304695e-10 1.28995513409261e-09 1.33577824290963e-09 4.99158441916378e-09 1.43846576630953e-09 3.34823298079323e-10 1.09005784173514e-10
"1914" 34636 1.80613761195907e-10 2.02422282274613e-10 1.28995513409261e-09 1.3382851406344e-09 4.99946727780469e-09 1.43572660179511e-09 3.34860690782934e-10 1.09005784173514e-10
"1915" 34637 1.80263230670165e-10 2.01620432244531e-10 1.28995513409261e-09 1.34149516271323e-09 4.99623753144714e-09 1.43557936243809e-09 3.35876893369153e-10 1.08864883699111e-10
"1916" 34638 1.79912700144423e-10 2.0081858221445e-10 1.28995513409261e-09 1.34470518479206e-09 4.9930077850896e-09 1.43543212308106e-09 3.36893095955373e-10 1.08723983224708e-10
"1917" 34639 1.79562169618681e-10 2.00016732184368e-10 1.28995513409261e-09 1.34791520687088e-09 4.98977803873205e-09 1.43528488372403e-09 3.37909298541592e-10 1.08583082750305e-10
"1918" 34640 1.79211639092939e-10 1.99214882154286e-10 1.28995513409261e-09 1.35112522894971e-09 4.98654829237451e-09 1.435137644367e-09 3.38925501127812e-10 1.08442182275902e-10
"1919" 34641 1.78861108567197e-10 1.98413032124204e-10 1.28995513409261e-09 1.35433525102854e-09 4.98331854601696e-09 1.43499040500998e-09 3.39941703714031e-10 1.08301281801499e-10
"1920" 34642 1.78510578041454e-10 1.97611182094123e-10 1.28995513409261e-09 1.35754527310736e-09 4.98008879965942e-09 1.43484316565295e-09 3.4095790630025e-10 1.08160381327095e-10
"1921" 34643 1.78160047515712e-10 1.96809332064041e-10 1.28995513409261e-09 1.36075529518619e-09 4.97685905330187e-09 1.43469592629592e-09 3.4197410888647e-10 1.08019480852692e-10
"1922" 34644 1.7780951698997e-10 1.96594450646956e-10 1.28754169578063e-09 1.362110929667e-09 4.96574644830342e-09 1.43933194370781e-09 3.42952918769078e-10 1.07878580378289e-10
"1923" 34645 1.77458986464228e-10 1.95685159908331e-10 1.28428361439429e-09 1.36167592291583e-09 4.95361203926196e-09 1.43933194370781e-09 3.43969121355298e-10 1.07558753582484e-10
"1924" 34646 1.77108455938486e-10 1.94775869169707e-10 1.28102553300796e-09 1.36124091616466e-09 4.94147763022049e-09 1.43933194370781e-09 3.44985323941517e-10 1.07238926786679e-10
"1925" 34647 1.76757925412744e-10 1.93866578431083e-10 1.27776745162162e-09 1.36080590941349e-09 4.92934322117902e-09 1.43933194370781e-09 3.46001526527737e-10 1.06919099990874e-10
"1926" 34648 1.76407394887001e-10 1.92957287692458e-10 1.27450937023528e-09 1.36037090266232e-09 4.91720881213756e-09 1.43933194370781e-09 3.47017729113956e-10 1.06599273195069e-10
"1927" 34649 1.76056864361259e-10 1.92047996953834e-10 1.27125128884895e-09 1.35993589591115e-09 4.90507440309609e-09 1.43933194370781e-09 3.48033931700175e-10 1.06279446399264e-10
"1928" 34650 1.75706333835517e-10 1.9113870621521e-10 1.26799320746261e-09 1.35950088915998e-09 4.89293999405463e-09 1.43933194370781e-09 3.49050134286395e-10 1.05959619603459e-10
"1929" 34651 1.75355803309775e-10 1.90229415476585e-10 1.26473512607627e-09 1.35906588240881e-09 4.88080558501316e-09 1.43933194370781e-09 3.50066336872614e-10 1.05639792807653e-10
"1930" 34652 1.75005272784033e-10 1.89320124737961e-10 1.26147704468994e-09 1.35863087565764e-09 4.86867117597169e-09 1.43933194370781e-09 3.51082539458834e-10 1.05319966011848e-10
"1931" 34653 1.74654742258291e-10 1.88410833999337e-10 1.2582189633036e-09 1.35819586890647e-09 4.85653676693023e-09 1.43933194370781e-09 3.52098742045053e-10 1.05000139216043e-10
"1932" 34654 1.74304211732549e-10 1.87501543260712e-10 1.25496088191726e-09 1.35776086215529e-09 4.84440235788876e-09 1.43933194370781e-09 3.53114944631272e-10 1.04680312420238e-10
"1933" 34655 1.73953681206806e-10 1.86592252522088e-10 1.25170280053093e-09 1.35732585540412e-09 4.83226794884729e-09 1.43933194370781e-09 3.54131147217492e-10 1.04360485624433e-10
"1934" 34656 1.73603150681064e-10 1.85682961783464e-10 1.24844471914459e-09 1.35689084865295e-09 4.82013353980583e-09 1.43933194370781e-09 3.55147349803711e-10 1.04040658828628e-10
"1935" 34657 1.73252620155322e-10 1.84773671044839e-10 1.24518663775825e-09 1.35645584190178e-09 4.80799913076436e-09 1.43933194370781e-09 3.56163552389931e-10 1.03720832032823e-10
"1936" 34658 1.73252620155322e-10 1.84666230336297e-10 1.24537966455534e-09 1.35687771651421e-09 4.75929140993829e-09 1.435137644367e-09 3.56163552389931e-10 1.03401005237018e-10
"1937" 34659 1.71311693029307e-10 1.82778658576011e-10 1.21982276466671e-09 1.35196706384692e-09 4.75826960589527e-09 1.43528488372403e-09 3.56921030241644e-10 1.03081178441213e-10
"1938" 34660 1.69370765903291e-10 1.80891086815726e-10 1.19426586477807e-09 1.34705641117962e-09 4.75724780185226e-09 1.43543212308106e-09 3.57678508093357e-10 1.02761351645408e-10
"1939" 34661 1.67429838777276e-10 1.79003515055441e-10 1.16870896488944e-09 1.34214575851233e-09 4.75622599780924e-09 1.43557936243809e-09 3.5843598594507e-10 1.02441524849603e-10
"1940" 34662 1.6548891165126e-10 1.77115943295155e-10 1.14315206500081e-09 1.33723510584503e-09 4.75520419376622e-09 1.43572660179511e-09 3.59193463796784e-10 1.02121698053798e-10
"1941" 34663 1.63547984525245e-10 1.7522837153487e-10 1.11759516511217e-09 1.33232445317774e-09 4.75418238972321e-09 1.43587384115214e-09 3.59950941648497e-10 1.01801871257993e-10
"1942" 34664 1.6160705739923e-10 1.73340799774585e-10 1.09203826522354e-09 1.32741380051044e-09 4.75316058568019e-09 1.43602108050917e-09 3.6070841950021e-10 1.01482044462187e-10
"1943" 34665 1.59666130273214e-10 1.71453228014299e-10 1.0664813653349e-09 1.32250314784315e-09 4.75213878163718e-09 1.4361683198662e-09 3.61465897351923e-10 1.01162217666382e-10
"1944" 34666 1.5892501731589e-10 1.69673096962556e-10 1.04418254683261e-09 1.32123752400585e-09 4.7533978133345e-09 1.43571864653466e-09 3.61465897351923e-10 1.01021317191979e-10
"1945" 34667 1.58183904358566e-10 1.67892965910814e-10 1.01908423642415e-09 1.31997190016855e-09 4.75237600929148e-09 1.43571864653466e-09 3.6342351711714e-10 1.01558096156185e-10
"1946" 34668 1.57442791401242e-10 1.66112834859071e-10 9.93985926015701e-10 1.31870627633126e-09 4.75135420524847e-09 1.43571864653466e-09 3.65381136882357e-10 1.02094875120391e-10
"1947" 34669 1.56701678443918e-10 1.64332703807328e-10 9.68887615607249e-10 1.31744065249396e-09 4.75033240120545e-09 1.43571864653466e-09 3.67338756647574e-10 1.02631654084596e-10
"1948" 34670 1.55960565486593e-10 1.62552572755585e-10 9.43789305198796e-10 1.31617502865666e-09 4.74931059716244e-09 1.43571864653466e-09 3.69296376412791e-10 1.03168433048802e-10
"1949" 34671 1.55219452529269e-10 1.60772441703843e-10 9.18690994790343e-10 1.31490940481936e-09 4.74828879311942e-09 1.43571864653466e-09 3.71253996178008e-10 1.03705212013008e-10
"1950" 34672 1.55219452529269e-10 1.60772441703843e-10 9.07951616645902e-10 1.29815617007117e-09 4.74805156546512e-09 1.4361683198662e-09 3.73470340677732e-10 1.04561817773019e-10
"1951" 34673 1.56419266697961e-10 1.60879882412385e-10 9.06222166860169e-10 1.30066306779595e-09 4.7391469027812e-09 1.43182678116836e-09 3.74707875294846e-10 1.04561817773019e-10
"1952" 34674 1.57619080866652e-10 1.60987323120928e-10 9.04492717074436e-10 1.30316996552072e-09 4.73024224009727e-09 1.42748524247052e-09 3.75945409911961e-10 1.04561817773019e-10
"1953" 34675 1.58818895035343e-10 1.6109476382947e-10 9.02763267288702e-10 1.30567686324549e-09 4.72133757741335e-09 1.42314370377269e-09 3.77182944529076e-10 1.04561817773019e-10
"1954" 34676 1.60018709204035e-10 1.61202204538013e-10 9.01033817502969e-10 1.30818376097027e-09 4.71243291472943e-09 1.41880216507485e-09 3.7842047914619e-10 1.04561817773019e-10
"1955" 34677 1.61218523372726e-10 1.61309645246555e-10 8.99304367717236e-10 1.31069065869504e-09 4.70352825204551e-09 1.41446062637702e-09 3.79658013763305e-10 1.04561817773019e-10
"1956" 34678 1.62418337541417e-10 1.61417085955098e-10 8.97574917931503e-10 1.31319755641981e-09 4.69462358936159e-09 1.41011908767918e-09 3.8089554838042e-10 1.04561817773019e-10
"1957" 34679 1.63618151710108e-10 1.61524526663641e-10 8.9584546814577e-10 1.31570445414459e-09 4.68571892667767e-09 1.40577754898135e-09 3.82133082997535e-10 1.04561817773019e-10
"1958" 34680 1.63618151710108e-10 1.67294682653039e-10 9.00028519880512e-10 1.31392694505134e-09 4.68310942248034e-09 1.40262983566063e-09 3.82133082997535e-10 1.0388413833441e-10
"1959" 34681 1.63618151710108e-10 1.67402123361582e-10 9.0187066918928e-10 1.34337964324403e-09 4.680499918283e-09 1.40561439910342e-09 3.81394301497627e-10 1.03206458895801e-10
"1960" 34682 1.63618151710108e-10 1.67509564070124e-10 9.03712818498047e-10 1.37283234143672e-09 4.67789041408567e-09 1.40859896254621e-09 3.80655519997719e-10 1.02528779457192e-10
"1961" 34683 1.63618151710108e-10 1.67617004778667e-10 9.05554967806815e-10 1.40228503962941e-09 4.67528090988834e-09 1.411583525989e-09 3.79916738497811e-10 1.01851100018583e-10
"1962" 34684 1.63618151710108e-10 1.67724445487209e-10 9.07397117115582e-10 1.4317377378221e-09 4.67267140569101e-09 1.4145680894318e-09 3.79177956997904e-10 1.01173420579974e-10
"1963" 34685 1.63618151710108e-10 1.67831886195752e-10 9.0923926642435e-10 1.46119043601479e-09 4.67006190149368e-09 1.41755265287459e-09 3.78439175497996e-10 1.00495741141365e-10
"1964" 34686 1.63618151710108e-10 1.67939326904295e-10 9.11081415733117e-10 1.49064313420747e-09 4.66745239729635e-09 1.42053721631738e-09 3.77700393998088e-10 9.98180617027564e-11
"1965" 34687 1.63618151710108e-10 1.68046767612837e-10 9.12923565041885e-10 1.52009583240016e-09 4.66484289309902e-09 1.42352177976017e-09 3.7696161249818e-10 9.91403822641475e-11
"1966" 34688 1.63618151710108e-10 1.6815420832138e-10 9.14765714350653e-10 1.54954853059285e-09 4.66223338890169e-09 1.42650634320297e-09 3.76222830998273e-10 9.84627028255387e-11
"1967" 34689 1.63618151710108e-10 1.68261649029922e-10 9.1660786365942e-10 1.57900122878554e-09 4.65962388470436e-09 1.42949090664576e-09 3.75484049498365e-10 9.77850233869298e-11
"1968" 34690 1.63618151710108e-10 1.68369089738465e-10 9.18450012968188e-10 1.60845392697823e-09 4.65701438050703e-09 1.43247547008855e-09 3.74745267998457e-10 9.71073439483209e-11
"1969" 34691 1.63618151710108e-10 1.68476530447007e-10 9.20292162276955e-10 1.63790662517092e-09 4.65440487630969e-09 1.43546003353134e-09 3.74006486498549e-10 9.6429664509712e-11
"1970" 34692 1.63618151710108e-10 1.6858397115555e-10 9.22134311585723e-10 1.6673593233636e-09 4.65179537211236e-09 1.43844459697414e-09 3.73267704998642e-10 9.57519850711031e-11
"1971" 34693 1.63618151710108e-10 1.68691411864093e-10 9.2397646089449e-10 1.69681202155629e-09 4.64918586791503e-09 1.44142916041693e-09 3.72528923498734e-10 9.50743056324942e-11
"1972" 34694 1.63618151710108e-10 1.68798852572635e-10 9.25818610203258e-10 1.72626471974898e-09 4.6465763637177e-09 1.44441372385972e-09 3.71790141998826e-10 9.43966261938853e-11
"1973" 34695 1.63469929118644e-10 1.6910194948551e-10 9.30041825575026e-10 1.75763555190572e-09 4.64073711316283e-09 1.43462702539784e-09 3.65749015536926e-10 9.42557257194821e-11
"1974" 34696 1.63321706527179e-10 1.69405046398385e-10 9.34265040946794e-10 1.78900638406247e-09 4.63489786260795e-09 1.42484032693595e-09 3.59707889075026e-10 9.4114825245079e-11
"1975" 34697 1.63173483935714e-10 1.6970814331126e-10 9.38488256318562e-10 1.82037721621921e-09 4.62905861205307e-09 1.41505362847406e-09 3.53666762613126e-10 9.39739247706758e-11
"1976" 34698 1.63025261344249e-10 1.70011240224134e-10 9.4271147169033e-10 1.85174804837595e-09 4.6232193614982e-09 1.40526693001218e-09 3.47625636151226e-10 9.38330242962726e-11
"1977" 34699 1.62877038752784e-10 1.70314337137009e-10 9.46934687062098e-10 1.88311888053269e-09 4.61738011094332e-09 1.39548023155029e-09 3.41584509689325e-10 9.36921238218695e-11
"1978" 34700 1.62728816161319e-10 1.70617434049884e-10 9.51157902433866e-10 1.91448971268943e-09 4.61154086038845e-09 1.3856935330884e-09 3.35543383227425e-10 9.35512233474663e-11
"1979" 34701 1.62580593569855e-10 1.70920530962759e-10 9.55381117805634e-10 1.94586054484617e-09 4.60570160983357e-09 1.37590683462652e-09 3.29502256765525e-10 9.34103228730631e-11
"1980" 34702 1.62580593569855e-10 1.70920530962759e-10 9.56032734082901e-10 1.94600116971699e-09 4.5998623592787e-09 1.358794034024e-09 3.23221101920924e-10 9.30904960772581e-11
"1981" 34703 1.6243237097839e-10 1.70920530962759e-10 9.55879870922841e-10 1.96109125596527e-09 4.58870115866304e-09 1.34123156008996e-09 3.17179975459024e-10 9.2770669281453e-11
"1982" 34704 1.62284148386925e-10 1.70920530962759e-10 9.55727007762781e-10 1.97618134221355e-09 4.57753995804739e-09 1.32366908615591e-09 3.11138848997124e-10 9.24508424856479e-11
"1983" 34705 1.6213592579546e-10 1.70920530962759e-10 9.5557414460272e-10 1.99127142846183e-09 4.56637875743173e-09 1.30610661222187e-09 3.05097722535224e-10 9.21310156898428e-11
"1984" 34706 1.61987703203995e-10 1.70920530962759e-10 9.5542128144266e-10 2.00636151471011e-09 4.55521755681608e-09 1.28854413828782e-09 2.99056596073324e-10 9.18111888940378e-11
"1985" 34707 1.61839480612531e-10 1.70920530962759e-10 9.552684182826e-10 2.0214516009584e-09 4.54405635620043e-09 1.27098166435378e-09 2.93015469611423e-10 9.14913620982327e-11
"1986" 34708 1.61691258021066e-10 1.70920530962759e-10 9.55115555122539e-10 2.03654168720668e-09 4.53289515558477e-09 1.25341919041973e-09 2.86974343149523e-10 9.11715353024276e-11
"1987" 34709 1.61543035429601e-10 1.70920530962759e-10 9.54962691962479e-10 2.05163177345496e-09 4.52173395496912e-09 1.23585671648569e-09 2.80933216687623e-10 9.08517085066225e-11
"1988" 34710 1.61394812838136e-10 1.70920530962759e-10 9.54809828802419e-10 2.06672185970324e-09 4.51057275435347e-09 1.21829424255164e-09 2.74892090225723e-10 9.05318817108175e-11
"1989" 34711 1.61246590246671e-10 1.70920530962759e-10 9.54656965642358e-10 2.08181194595152e-09 4.49941155373781e-09 1.2007317686176e-09 2.68850963763823e-10 9.02120549150124e-11
"1990" 34712 1.61098367655206e-10 1.70920530962759e-10 9.54504102482298e-10 2.09690203219981e-09 4.48825035312216e-09 1.18316929468355e-09 2.62809837301923e-10 8.98922281192073e-11
"1991" 34713 1.60950145063742e-10 1.70920530962759e-10 9.54351239322238e-10 2.11199211844809e-09 4.4770891525065e-09 1.1656068207495e-09 2.56768710840023e-10 8.95724013234022e-11
"1992" 34714 1.60801922472277e-10 1.70920530962759e-10 9.54198376162177e-10 2.12708220469637e-09 4.46592795189085e-09 1.14804434681546e-09 2.50727584378122e-10 8.92525745275972e-11
"1993" 34715 1.60653699880812e-10 1.70920530962759e-10 9.54045513002117e-10 2.14217229094465e-09 4.4547667512752e-09 1.13048187288141e-09 2.44686457916222e-10 8.89327477317921e-11
"1994" 34716 1.58712772754797e-10 1.70920530962759e-10 9.54045513002117e-10 2.14580418763591e-09 4.45353201738648e-09 1.06984622224576e-09 2.40973854064878e-10 8.80761419717813e-11
"1995" 34717 1.58712772754797e-10 1.70030465436887e-10 9.49669434470288e-10 2.15256922790122e-09 4.42944608090894e-09 1.04691153411469e-09 2.40973854064878e-10 8.77563151759762e-11
"1996" 34718 1.58712772754797e-10 1.69140399911016e-10 9.4529335593846e-10 2.15933426816654e-09 4.40536014443139e-09 1.02397684598362e-09 2.40973854064878e-10 8.74364883801711e-11
"1997" 34719 1.58712772754797e-10 1.68250334385144e-10 9.40917277406632e-10 2.16609930843185e-09 4.38127420795385e-09 1.00104215785255e-09 2.40973854064878e-10 8.71166615843661e-11
"1998" 34720 1.58712772754797e-10 1.67360268859273e-10 9.36541198874803e-10 2.17286434869716e-09 4.35718827147631e-09 9.78107469721477e-10 2.40973854064878e-10 8.6796834788561e-11
"1999" 34721 1.58712772754797e-10 1.66470203333402e-10 9.32165120342975e-10 2.17962938896247e-09 4.33310233499876e-09 9.55172781590406e-10 2.40973854064878e-10 8.64770079927559e-11
"2000" 34722 1.58712772754797e-10 1.6558013780753e-10 9.27789041811147e-10 2.18639442922779e-09 4.30901639852122e-09 9.32238093459334e-10 2.40973854064878e-10 8.61571811969508e-11
"2001" 34723 1.58712772754797e-10 1.64690072281659e-10 9.23412963279318e-10 2.1931594694931e-09 4.28493046204368e-09 9.09303405328262e-10 2.40973854064878e-10 8.58373544011458e-11
"2002" 34724 1.58712772754797e-10 1.63800006755787e-10 9.1903688474749e-10 2.19992450975841e-09 4.26084452556613e-09 8.86368717197191e-10 2.40973854064878e-10 8.55175276053407e-11
"2003" 34725 1.58712772754797e-10 1.63213038142791e-10 9.16615655047463e-10 2.19417010786625e-09 4.23675858908859e-09 8.6388370239765e-10 2.40973854064878e-10 8.55175276053407e-11
"2004" 34726 1.58860995346261e-10 1.63213038142791e-10 9.14773505738696e-10 2.18584506188328e-09 4.21196096964814e-09 8.41545926955137e-10 2.42950170181901e-10 8.51977008095356e-11
"2005" 34727 1.59009217937726e-10 1.63213038142791e-10 9.12931356429928e-10 2.17752001590031e-09 4.18716335020769e-09 8.19208151512624e-10 2.44926486298923e-10 8.48778740137305e-11
"2006" 34728 1.59157440529191e-10 1.63213038142791e-10 9.11089207121161e-10 2.16919496991734e-09 4.16236573076724e-09 7.9687037607011e-10 2.46902802415945e-10 8.45580472179255e-11
"2007" 34729 1.59305663120656e-10 1.63213038142791e-10 9.09247057812393e-10 2.16086992393437e-09 4.13756811132678e-09 7.74532600627597e-10 2.48879118532968e-10 8.42382204221204e-11
"2008" 34730 1.59453885712121e-10 1.64103103668662e-10 9.10976507598126e-10 2.14788921074825e-09 4.08912191596361e-09 7.42751685222928e-10 2.51095463032691e-10 8.39183936263153e-11
"2009" 34731 1.59602108303585e-10 1.64690072281659e-10 9.13510436821187e-10 2.13956416476528e-09 4.0883616373835e-09 7.42751685222928e-10 2.52332997649806e-10 8.37394673049134e-11
"2010" 34732 1.5975033089505e-10 1.65277040894655e-10 9.16044366044248e-10 2.13123911878231e-09 4.08760135880339e-09 7.42751685222928e-10 2.53570532266921e-10 8.35605409835115e-11
"2011" 34733 1.59898553486515e-10 1.65864009507652e-10 9.18578295267309e-10 2.12291407279934e-09 4.08684108022328e-09 7.42751685222928e-10 2.54808066884035e-10 8.33816146621096e-11
"2012" 34734 1.6004677607798e-10 1.66450978120649e-10 9.21112224490369e-10 2.11458902681637e-09 4.08608080164317e-09 7.42751685222928e-10 2.5604560150115e-10 8.32026883407077e-11
"2013" 34735 1.60194998669445e-10 1.67037946733645e-10 9.2364615371343e-10 2.1062639808334e-09 4.08532052306306e-09 7.42751685222928e-10 2.57283136118265e-10 8.30237620193058e-11
"2014" 34736 1.6034322126091e-10 1.67624915346642e-10 9.26180082936491e-10 2.09793893485043e-09 4.08456024448295e-09 7.42751685222928e-10 2.5852067073538e-10 8.28448356979039e-11
"2015" 34737 1.60491443852374e-10 1.68211883959639e-10 9.28714012159552e-10 2.08961388886746e-09 4.08379996590284e-09 7.42751685222928e-10 2.59758205352494e-10 8.2665909376502e-11
"2016" 34738 1.60639666443839e-10 1.68798852572635e-10 9.31247941382613e-10 2.0812888428845e-09 4.08303968732272e-09 7.42751685222928e-10 2.60995739969609e-10 8.24869830551001e-11
"2017" 34739 1.60990196969581e-10 1.69600702602717e-10 9.36999788354984e-10 2.08805388314981e-09 4.08225511093401e-09 7.49930548006529e-10 2.60016930087001e-10 8.26278835295032e-11
"2018" 34740 1.61340727495324e-10 1.69493261894174e-10 9.37152651515045e-10 2.08415386885566e-09 4.24949598899514e-09 7.5710941079013e-10 2.59278148587093e-10 8.27687840039064e-11
"2019" 34741 1.61691258021066e-10 1.69385821185632e-10 9.37305514675105e-10 2.08025385456152e-09 4.41673686705627e-09 7.6428827357373e-10 2.58539367087185e-10 8.29096844783096e-11
"2020" 34742 1.62041788546808e-10 1.69278380477089e-10 9.37458377835166e-10 2.07635384026738e-09 4.58397774511739e-09 7.71467136357331e-10 2.57800585587277e-10 8.30505849527127e-11
"2021" 34743 1.6239231907255e-10 1.69170939768547e-10 9.37611240995226e-10 2.07245382597324e-09 4.75121862317852e-09 7.78645999140932e-10 2.5706180408737e-10 8.31914854271159e-11
"2022" 34744 1.62742849598292e-10 1.69063499060004e-10 9.37764104155286e-10 2.06855381167909e-09 4.91845950123965e-09 7.85824861924533e-10 2.56323022587462e-10 8.33323859015191e-11
"2023" 34745 1.63093380124034e-10 1.68956058351462e-10 9.37916967315347e-10 2.06465379738495e-09 5.08570037930078e-09 7.93003724708133e-10 2.55584241087554e-10 8.34732863759222e-11
"2024" 34746 1.63443910649777e-10 1.68848617642919e-10 9.38069830475407e-10 2.06075378309081e-09 5.2529412573619e-09 8.00182587491734e-10 2.54845459587646e-10 8.36141868503254e-11
"2025" 34747 1.63794441175519e-10 1.68741176934376e-10 9.38222693635467e-10 2.05685376879666e-09 5.42018213542303e-09 8.07361450275335e-10 2.54106678087739e-10 8.37550873247286e-11
"2026" 34748 1.64144971701261e-10 1.68633736225834e-10 9.38375556795528e-10 2.05295375450252e-09 5.58742301348416e-09 8.14540313058936e-10 2.53367896587831e-10 8.38959877991317e-11
"2027" 34749 1.64495502227003e-10 1.68526295517291e-10 9.38528419955588e-10 2.04905374020838e-09 5.75466389154528e-09 8.21719175842536e-10 2.52629115087923e-10 8.40368882735349e-11
"2028" 34750 1.64846032752745e-10 1.68418854808749e-10 9.38681283115648e-10 2.04515372591423e-09 5.92190476960641e-09 8.28898038626137e-10 2.51890333588015e-10 8.41777887479381e-11
"2029" 34751 1.65196563278487e-10 1.68311414100206e-10 9.38834146275709e-10 2.04125371162009e-09 6.08914564766754e-09 8.36076901409738e-10 2.51151552088108e-10 8.43186892223412e-11
"2030" 34752 1.65547093804229e-10 1.68203973391663e-10 9.38987009435769e-10 2.03735369732595e-09 6.25638652572867e-09 8.43255764193339e-10 2.504127705882e-10 8.44595896967444e-11
"2031" 34753 1.6469781016128e-10 1.68203973391663e-10 9.30741396877363e-10 2.03735369732595e-09 6.41559875829728e-09 8.50434626976939e-10 2.504127705882e-10 8.47794164925495e-11
"2032" 34754 1.63848526518331e-10 1.68203973391663e-10 9.22495784318956e-10 2.03735369732595e-09 6.57481099086589e-09 8.5761348976054e-10 2.504127705882e-10 8.50992432883545e-11
"2033" 34755 1.62999242875382e-10 1.68203973391663e-10 9.14250171760549e-10 2.03735369732595e-09 6.7340232234345e-09 8.64792352544141e-10 2.504127705882e-10 8.54190700841596e-11
"2034" 34756 1.62149959232433e-10 1.68203973391663e-10 9.06004559202143e-10 2.03735369732595e-09 6.89323545600312e-09 8.71971215327742e-10 2.504127705882e-10 8.57388968799647e-11
"2035" 34757 1.61300675589484e-10 1.68203973391663e-10 8.97758946643736e-10 2.03735369732595e-09 7.05244768857173e-09 8.79150078111342e-10 2.504127705882e-10 8.60587236757698e-11
"2036" 34758 1.60451391946535e-10 1.68203973391663e-10 8.8951333408533e-10 2.03735369732595e-09 7.21165992114034e-09 8.86328940894943e-10 2.504127705882e-10 8.63785504715748e-11
"2037" 34759 1.59602108303585e-10 1.68203973391663e-10 8.81267721526923e-10 2.03735369732595e-09 7.37087215370896e-09 8.93507803678544e-10 2.504127705882e-10 8.66983772673799e-11
"2038" 34760 1.58752824660636e-10 1.68203973391663e-10 8.73022108968517e-10 2.03735369732595e-09 7.53008438627757e-09 9.00686666462145e-10 2.504127705882e-10 8.7018204063185e-11
"2039" 34761 1.57553010491945e-10 1.69113264130288e-10 8.71340614207853e-10 2.03370866849595e-09 7.52103393674204e-09 9.05322683874035e-10 2.50431466940005e-10 8.7018204063185e-11
"2040" 34762 1.56501418914719e-10 1.68917607925956e-10 8.66546109832869e-10 2.02964176505352e-09 7.52784639572273e-09 9.14905107932768e-10 2.50191438557305e-10 8.7018204063185e-11
"2041" 34763 1.55449827337492e-10 1.68721951721623e-10 8.61751605457886e-10 2.02557486161109e-09 7.53465885470342e-09 9.24487531991502e-10 2.49951410174604e-10 8.7018204063185e-11
"2042" 34764 1.54398235760266e-10 1.68526295517291e-10 8.56957101082902e-10 2.02150795816866e-09 7.5414713136841e-09 9.34069956050236e-10 2.49711381791903e-10 8.7018204063185e-11
"2043" 34765 1.53346644183039e-10 1.68330639312959e-10 8.52162596707919e-10 2.01744105472623e-09 7.54828377266479e-09 9.43652380108969e-10 2.49471353409202e-10 8.7018204063185e-11
"2044" 34766 1.52295052605813e-10 1.68134983108627e-10 8.47368092332935e-10 2.0133741512838e-09 7.55509623164548e-09 9.53234804167703e-10 2.49231325026501e-10 8.7018204063185e-11
"2045" 34767 1.51243461028586e-10 1.67939326904295e-10 8.42573587957951e-10 2.00930724784137e-09 7.56190869062617e-09 9.62817228226437e-10 2.48991296643801e-10 8.7018204063185e-11
"2046" 34768 1.5019186945136e-10 1.67743670699962e-10 8.37779083582968e-10 2.00524034439894e-09 7.56872114960686e-09 9.7239965228517e-10 2.487512682611e-10 8.7018204063185e-11
"2047" 34769 1.49140277874133e-10 1.6754801449563e-10 8.32984579207984e-10 2.00117344095651e-09 7.57553360858755e-09 9.81982076343904e-10 2.48511239878399e-10 8.7018204063185e-11
"2048" 34770 1.48088686296907e-10 1.67352358291298e-10 8.28190074833001e-10 1.99710653751408e-09 7.58234606756823e-09 9.91564500402638e-10 2.48271211495698e-10 8.7018204063185e-11
"2049" 34771 1.4703709471968e-10 1.67156702086966e-10 8.23395570458017e-10 1.99303963407165e-09 7.58915852654892e-09 1.00114692446137e-09 2.48031183112998e-10 8.7018204063185e-11
"2050" 34772 1.45985503142454e-10 1.66961045882634e-10 8.18601066083034e-10 1.98897273062922e-09 7.59597098552961e-09 1.0107293485201e-09 2.47791154730297e-10 8.7018204063185e-11
"2051" 34773 1.44933911565227e-10 1.66765389678301e-10 8.1380656170805e-10 1.98490582718678e-09 7.6027834445103e-09 1.02031177257884e-09 2.47551126347596e-10 8.7018204063185e-11
"2052" 34774 1.43882319988001e-10 1.66569733473969e-10 8.09012057333066e-10 1.98083892374435e-09 7.60959590349099e-09 1.02989419663757e-09 2.47311097964895e-10 8.7018204063185e-11
"2053" 34775 1.43235344279329e-10 1.66374077269637e-10 8.08239950144721e-10 1.97287200600778e-09 7.61655414932328e-09 1.03867543360459e-09 2.47311097964895e-10 8.61615983031742e-11
"2054" 34776 1.42588368570657e-10 1.66178421065305e-10 8.07467842956376e-10 1.96490508827121e-09 7.62351239515558e-09 1.04745667057162e-09 2.47311097964895e-10 8.53049925431634e-11
"2055" 34777 1.41941392861985e-10 1.65982764860973e-10 8.07467842956376e-10 1.96490508827121e-09 7.60933437802808e-09 1.04986023184675e-09 2.47311097964895e-10 8.51260662217615e-11
"2056" 34778 1.41294417153314e-10 1.6578710865664e-10 8.07467842956376e-10 1.96490508827121e-09 7.59515636090059e-09 1.05226379312188e-09 2.47311097964895e-10 8.49471399003596e-11
"2057" 34779 1.40647441444642e-10 1.65591452452308e-10 8.07467842956376e-10 1.96490508827121e-09 7.58097834377309e-09 1.05466735439702e-09 2.47311097964895e-10 8.47682135789577e-11
"2058" 34780 1.4000046573597e-10 1.65395796247976e-10 8.07467842956376e-10 1.96490508827121e-09 7.56680032664559e-09 1.05707091567215e-09 2.47311097964895e-10 8.45892872575558e-11
"2059" 34781 1.39353490027298e-10 1.65200140043644e-10 8.07467842956376e-10 1.96490508827121e-09 7.55262230951809e-09 1.05947447694728e-09 2.47311097964895e-10 8.44103609361539e-11
"2060" 34782 1.38706514318626e-10 1.65004483839312e-10 8.07467842956376e-10 1.96490508827121e-09 7.5384442923906e-09 1.06187803822242e-09 2.47311097964895e-10 8.4231434614752e-11
"2061" 34783 1.38706514318626e-10 1.6858397115555e-10 8.16758916774266e-10 1.97023761555094e-09 7.52070786044856e-09 1.0572911005962e-09 2.48289907847504e-10 8.4231434614752e-11
"2062" 34784 1.3791131601849e-10 1.68388314951218e-10 8.14345478462283e-10 1.97179762126859e-09 7.5157260797082e-09 1.04956440490972e-09 2.4854863258201e-10 8.4231434614752e-11
"2063" 34785 1.37116117718353e-10 1.68192658746886e-10 8.119320401503e-10 1.97335762698625e-09 7.51074429896784e-09 1.04183770922323e-09 2.48807357316516e-10 8.4231434614752e-11
"2064" 34786 1.36320919418217e-10 1.67997002542553e-10 8.09518601838317e-10 1.97491763270391e-09 7.50576251822748e-09 1.03411101353675e-09 2.49066082051023e-10 8.4231434614752e-11
"2065" 34787 1.3552572111808e-10 1.67801346338221e-10 8.07105163526334e-10 1.97647763842156e-09 7.50078073748712e-09 1.02638431785027e-09 2.49324806785529e-10 8.4231434614752e-11
"2066" 34788 1.34730522817943e-10 1.67605690133889e-10 8.0469172521435e-10 1.97803764413922e-09 7.49579895674676e-09 1.01865762216378e-09 2.49583531520035e-10 8.4231434614752e-11
"2067" 34789 1.34379992292201e-10 1.66500743190932e-10 8.0572939508579e-10 1.97981515323246e-09 7.52059657618721e-09 1.01551786410351e-09 2.48863446371933e-10 8.40905341403488e-11
"2068" 34790 1.34029461766459e-10 1.65610677665061e-10 8.02543849585462e-10 1.98137515895012e-09 7.54171429177012e-09 1.01551786410351e-09 2.49122171106439e-10 8.42694604617507e-11
"2069" 34791 1.33678931240717e-10 1.6472061213919e-10 7.99358304085134e-10 1.98293516466778e-09 7.56283200735302e-09 1.01551786410351e-09 2.49380895840945e-10 8.44483867831526e-11
"2070" 34792 1.33328400714975e-10 1.63830546613318e-10 7.96172758584806e-10 1.98449517038544e-09 7.58394972293592e-09 1.01551786410351e-09 2.49639620575451e-10 8.46273131045545e-11
"2071" 34793 1.32977870189232e-10 1.62940481087447e-10 7.92987213084478e-10 1.98605517610309e-09 7.60506743851883e-09 1.01551786410351e-09 2.49898345309958e-10 8.48062394259564e-11
"2072" 34794 1.3262733966349e-10 1.62050415561575e-10 7.8980166758415e-10 1.98761518182075e-09 7.62618515410173e-09 1.01551786410351e-09 2.50157070044464e-10 8.49851657473583e-11
"2073" 34795 1.32276809137748e-10 1.61160350035704e-10 7.86616122083821e-10 1.98917518753841e-09 7.64730286968463e-09 1.01551786410351e-09 2.5041579477897e-10 8.51640920687602e-11
"2074" 34796 1.31926278612006e-10 1.61375231452789e-10 7.9063851927046e-10 1.98881705929201e-09 7.77556106466434e-09 1.01865762216378e-09 2.50655823161671e-10 8.51640920687602e-11
"2075" 34797 1.31575748086264e-10 1.61590112869874e-10 7.94660916457098e-10 1.98845893104562e-09 7.90381925964405e-09 1.02179738022405e-09 2.50895851544371e-10 8.51640920687602e-11
"2076" 34798 1.31225217560522e-10 1.6180499428696e-10 7.98683313643737e-10 1.98810080279922e-09 8.03207745462376e-09 1.02493713828432e-09 2.51135879927072e-10 8.51640920687602e-11
"2077" 34799 1.3087468703478e-10 1.62019875704045e-10 8.02705710830375e-10 1.98774267455282e-09 8.16033564960347e-09 1.02807689634459e-09 2.51375908309773e-10 8.51640920687602e-11
"2078" 34800 1.30524156509037e-10 1.6223475712113e-10 8.06728108017014e-10 1.98738454630643e-09 8.28859384458318e-09 1.03121665440486e-09 2.51615936692474e-10 8.51640920687602e-11
"2079" 34801 1.30173625983295e-10 1.62449638538215e-10 8.10750505203652e-10 1.98702641806003e-09 8.41685203956289e-09 1.03435641246513e-09 2.51855965075175e-10 8.51640920687602e-11
"2080" 34802 1.29823095457553e-10 1.626645199553e-10 8.14772902390291e-10 1.98666828981363e-09 8.5451102345426e-09 1.0374961705254e-09 2.52095993457875e-10 8.51640920687602e-11
"2081" 34803 1.29472564931811e-10 1.62879401372385e-10 8.1879529957693e-10 1.98631016156724e-09 8.6733684295223e-09 1.04063592858567e-09 2.52336021840576e-10 8.51640920687602e-11
"2082" 34804 1.29270256997534e-10 1.62292432759389e-10 8.14765111002248e-10 1.99741022287786e-09 8.67346562075671e-09 1.04058684879999e-09 2.52336021840576e-10 8.63024987775774e-11
"2083" 34805 1.29067949063256e-10 1.61705464146392e-10 8.10734922427566e-10 2.00851028418849e-09 8.67356281199112e-09 1.04053776901432e-09 2.52336021840576e-10 8.74409054863945e-11
"2084" 34806 1.28865641128979e-10 1.61118495533395e-10 8.06704733852884e-10 2.01961034549912e-09 8.67366000322552e-09 1.04048868922864e-09 2.52336021840576e-10 8.85793121952116e-11
"2085" 34807 1.28663333194702e-10 1.60531526920399e-10 8.02674545278203e-10 2.03071040680974e-09 8.67375719445993e-09 1.04043960944296e-09 2.52336021840576e-10 8.97177189040288e-11
"2086" 34808 1.28461025260424e-10 1.59944558307402e-10 7.98644356703521e-10 2.04181046812037e-09 8.67385438569433e-09 1.04039052965729e-09 2.52336021840576e-10 9.08561256128459e-11
"2087" 34809 1.28258717326147e-10 1.59357589694406e-10 7.94614168128839e-10 2.052910529431e-09 8.67395157692874e-09 1.04034144987161e-09 2.52336021840576e-10 9.1994532321663e-11
"2088" 34810 1.2805640939187e-10 1.58770621081409e-10 7.90583979554157e-10 2.06401059074162e-09 8.67404876816314e-09 1.04029237008594e-09 2.52336021840576e-10 9.31329390304802e-11
"2089" 34811 1.2805640939187e-10 1.56990490029666e-10 7.90583979554157e-10 2.07546878029864e-09 8.678087388718e-09 1.03984269675441e-09 2.5207729710607e-10 9.39515189434922e-11
"2090" 34812 1.27004817814643e-10 1.54888036852296e-10 7.87325898167821e-10 2.08014879745162e-09 8.66181716788727e-09 1.02902532279333e-09 2.51818572371564e-10 9.47700988565043e-11
"2091" 34813 1.25953226237417e-10 1.52785583674925e-10 7.84067816781484e-10 2.08482881460459e-09 8.64554694705654e-09 1.01820794883225e-09 2.51559847637057e-10 9.55886787695163e-11
"2092" 34814 1.2490163466019e-10 1.50683130497555e-10 7.80809735395147e-10 2.08950883175756e-09 8.62927672622581e-09 1.00739057487118e-09 2.51301122902551e-10 9.64072586825284e-11
"2093" 34815 1.23850043082964e-10 1.48580677320184e-10 7.7755165400881e-10 2.09418884891053e-09 8.61300650539508e-09 9.96573200910098e-10 2.51042398168045e-10 9.72258385955405e-11
"2094" 34816 1.22798451505737e-10 1.46478224142814e-10 7.74293572622474e-10 2.0988688660635e-09 8.59673628456435e-09 9.85755826949022e-10 2.50783673433539e-10 9.80444185085525e-11
"2095" 34817 1.21746859928511e-10 1.44375770965443e-10 7.71035491236137e-10 2.10354888321647e-09 8.58046606373362e-09 9.74938452987945e-10 2.50524948699033e-10 9.88629984215646e-11
"2096" 34818 1.20695268351284e-10 1.42273317788073e-10 7.677774098498e-10 2.10822890036945e-09 8.56419584290289e-09 9.64121079026868e-10 2.50266223964526e-10 9.96815783345766e-11
"2097" 34819 1.19643676774058e-10 1.40757833223699e-10 7.64173438506317e-10 2.10159135283621e-09 8.57965143910460e-09 9.56492542911736e-10 2.50266223964526e-10 9.96815783345766e-11
"2098" 34820 1.19239060905503e-10 1.38547939337786e-10 7.61760000194334e-10 2.10313822641512e-09 8.5656377562056e-09 9.50908099051107e-10 2.5000749923002e-10 9.93617515387715e-11
"2099" 34821 1.18834445036948e-10 1.36338045451873e-10 7.59346561882351e-10 2.10468509999404e-09 8.5516240733066e-09 9.45323655190479e-10 2.49748774495514e-10 9.90419247429665e-11
"2100" 34822 1.18429829168394e-10 1.3412815156596e-10 7.56933123570367e-10 2.10623197357296e-09 8.5376103904076e-09 9.39739211329851e-10 2.49490049761008e-10 9.87220979471614e-11
"2101" 34823 1.18025213299839e-10 1.31918257680046e-10 7.54519685258384e-10 2.10777884715188e-09 8.5235967075086e-09 9.34154767469223e-10 2.49231325026501e-10 9.84022711513563e-11
"2102" 34824 1.17620597431284e-10 1.29708363794133e-10 7.52106246946401e-10 2.1093257207308e-09 8.5095830246096e-09 9.28570323608594e-10 2.48972600291995e-10 9.80824443555512e-11
"2103" 34825 1.1721598156273e-10 1.2749846990822e-10 7.49692808634418e-10 2.11087259430972e-09 8.49556934171061e-09 9.22985879747966e-10 2.48713875557489e-10 9.77626175597462e-11
"2104" 34826 1.16811365694175e-10 1.25288576022307e-10 7.47279370322435e-10 2.11241946788864e-09 8.48155565881161e-09 9.17401435887338e-10 2.48455150822983e-10 9.74427907639411e-11
"2105" 34827 1.1640674982562e-10 1.23078682136394e-10 7.44865932010452e-10 2.11396634146756e-09 8.46754197591261e-09 9.11816992026709e-10 2.48196426088477e-10 9.7122963968136e-11
"2106" 34828 1.16002133957066e-10 1.20868788250481e-10 7.42452493698469e-10 2.11551321504648e-09 8.45352829301361e-09 9.06232548166081e-10 2.4793770135397e-10 9.6803137172331e-11
"2107" 34829 1.15597518088511e-10 1.18658894364568e-10 7.40039055386486e-10 2.1170600886254e-09 8.43951461011461e-09 9.00648104305453e-10 2.47678976619464e-10 9.64833103765259e-11
"2108" 34830 1.15192902219956e-10 1.16449000478655e-10 7.37625617074503e-10 2.11860696220431e-09 8.42550092721562e-09 8.95063660444824e-10 2.47420251884958e-10 9.61634835807208e-11
"2109" 34831 1.14788286351402e-10 1.14239106592742e-10 7.35212178762519e-10 2.12015383578323e-09 8.41148724431662e-09 8.89479216584196e-10 2.47161527150452e-10 9.58436567849157e-11
"2110" 34832 1.14383670482847e-10 1.12029212706829e-10 7.32798740450536e-10 2.12170070936215e-09 8.39747356141762e-09 8.83894772723568e-10 2.46902802415945e-10 9.55238299891107e-11
"2111" 34833 1.15178868782984e-10 1.1133480338529e-10 7.32798740450536e-10 2.08646734499983e-09 8.39747356141762e-09 8.89078623038341e-10 2.46902802415945e-10 9.55238299891107e-11
"2112" 34834 1.15178868782984e-10 1.11530459589622e-10 7.3364338352489e-10 2.0947923909828e-09 8.34012270337053e-09 8.94262473353113e-10 2.46662774033245e-10 9.53449036677087e-11
"2113" 34835 1.15178868782984e-10 1.11726115793954e-10 7.34488026599243e-10 2.10311743696577e-09 8.28277184532343e-09 8.99446323667886e-10 2.46422745650544e-10 9.51659773463068e-11
"2114" 34836 1.15178868782984e-10 1.11921771998286e-10 7.35332669673597e-10 2.11144248294874e-09 8.22542098727634e-09 9.04630173982659e-10 2.46182717267843e-10 9.49870510249049e-11
"2115" 34837 1.15178868782984e-10 1.12117428202618e-10 7.36177312747951e-10 2.11976752893171e-09 8.16807012922925e-09 9.09814024297432e-10 2.45942688885142e-10 9.4808124703503e-11
"2116" 34838 1.15178868782984e-10 1.12313084406951e-10 7.37021955822304e-10 2.12809257491468e-09 8.11071927118216e-09 9.14997874612205e-10 2.45702660502442e-10 9.46291983821011e-11
"2117" 34839 1.15178868782984e-10 1.12508740611283e-10 7.37866598896658e-10 2.13641762089765e-09 8.05336841313507e-09 9.20181724926978e-10 2.45462632119741e-10 9.44502720606992e-11
"2118" 34840 1.15178868782984e-10 1.12704396815615e-10 7.38711241971012e-10 2.14474266688061e-09 7.99601755508797e-09 9.2536557524175e-10 2.4522260373704e-10 9.42713457392973e-11
"2119" 34841 1.15178868782984e-10 1.12900053019947e-10 7.38365352013865e-10 2.14731331097142e-09 7.94127620123821e-09 9.26714595236344e-10 2.45241300088846e-10 9.40924194178954e-11
"2120" 34842 1.14383670482847e-10 1.13203149932822e-10 7.38823941494046e-10 2.15173834266025e-09 7.88392534319112e-09 9.27262428139227e-10 2.45001271706145e-10 9.40924194178954e-11
"2121" 34843 1.1358847218271e-10 1.13506246845697e-10 7.39282530974227e-10 2.15616337434908e-09 7.82657448514403e-09 9.2781026104211e-10 2.44761243323444e-10 9.40924194178954e-11
"2122" 34844 1.12793273882574e-10 1.13809343758572e-10 7.39741120454408e-10 2.1605884060379e-09 7.76922362709693e-09 9.28358093944992e-10 2.44521214940743e-10 9.40924194178954e-11
"2123" 34845 1.11998075582437e-10 1.14112440671446e-10 7.40199709934589e-10 2.16501343772673e-09 7.71187276904984e-09 9.28905926847875e-10 2.44281186558043e-10 9.40924194178954e-11
"2124" 34846 1.11202877282301e-10 1.14415537584321e-10 7.4065829941477e-10 2.16943846941556e-09 7.65452191100275e-09 9.29453759750758e-10 2.44041158175342e-10 9.40924194178954e-11
"2125" 34847 1.10852346756558e-10 1.14718634497196e-10 7.41116888894951e-10 2.1265082192472e-09 7.65176661995381e-09 9.02079373350499e-10 2.43062348292733e-10 9.34147399792865e-11
"2126" 34848 1.10057148456422e-10 1.14826075205738e-10 7.39387439109218e-10 2.12836260684521e-09 7.63775293705481e-09 9.02627206253382e-10 2.42822319910032e-10 9.35936663006884e-11
"2127" 34849 1.09261950156285e-10 1.14933515914281e-10 7.37657989323485e-10 2.13021699444323e-09 7.62373925415581e-09 9.03175039156264e-10 2.42582291527332e-10 9.37725926220903e-11
"2128" 34850 1.08466751856149e-10 1.15040956622824e-10 7.35928539537752e-10 2.13207138204125e-09 7.60972557125682e-09 9.03722872059147e-10 2.42342263144631e-10 9.39515189434922e-11
"2129" 34851 1.07671553556012e-10 1.15148397331366e-10 7.34199089752019e-10 2.13392576963927e-09 7.59571188835782e-09 9.0427070496203e-10 2.4210223476193e-10 9.41304452648941e-11
"2130" 34852 1.06876355255875e-10 1.15255838039909e-10 7.32469639966286e-10 2.13578015723728e-09 7.58169820545882e-09 9.04818537864913e-10 2.41862206379229e-10 9.43093715862960e-11
"2131" 34853 1.06081156955739e-10 1.15363278748451e-10 7.30740190180553e-10 2.1376345448353e-09 7.56768452255982e-09 9.05366370767795e-10 2.41622177996529e-10 9.44882979076979e-11
"2132" 34854 1.05285958655602e-10 1.15167622544119e-10 7.28359124117552e-10 2.14469396698097e-09 7.57219184799157e-09 9.05366370767795e-10 2.41640874348334e-10 9.44882979076979e-11
"2133" 34855 1.04490760355465e-10 1.14971966339787e-10 7.25978058054552e-10 2.15175338912664e-09 7.57669917342333e-09 9.05366370767795e-10 2.4165957070014e-10 9.44882979076979e-11
"2134" 34856 1.03695562055329e-10 1.14776310135455e-10 7.23596991991551e-10 2.15881281127232e-09 7.58120649885508e-09 9.05366370767795e-10 2.41678267051945e-10 9.44882979076979e-11
"2135" 34857 1.02900363755192e-10 1.14580653931123e-10 7.21215925928551e-10 2.16587223341799e-09 7.58571382428684e-09 9.05366370767795e-10 2.4169696340375e-10 9.44882979076979e-11
"2136" 34858 1.02105165455055e-10 1.1438499772679e-10 7.18834859865551e-10 2.17293165556366e-09 7.59022114971859e-09 9.05366370767795e-10 2.41715659755556e-10 9.44882979076979e-11
"2137" 34859 1.01309967154919e-10 1.14189341522458e-10 7.1645379380255e-10 2.17999107770933e-09 7.59472847515034e-09 9.05366370767795e-10 2.41734356107361e-10 9.44882979076979e-11
"2138" 34860 1.00514768854782e-10 1.13993685318126e-10 7.1407272773955e-10 2.18705049985501e-09 7.59923580058210e-09 9.05366370767795e-10 2.41753052459167e-10 9.44882979076979e-11
"2139" 34861 9.97195705546456e-11 1.13798029113794e-10 7.11691661676549e-10 2.19410992200068e-09 7.60374312601385e-09 9.05366370767795e-10 2.41771748810972e-10 9.44882979076979e-11
"2140" 34862 9.8924372254509e-11 1.13602372909461e-10 7.09310595613549e-10 2.20116934414635e-09 7.6082504514456e-09 9.05366370767795e-10 2.41790445162778e-10 9.44882979076979e-11
"2141" 34863 9.82773965458371e-11 1.15489944669747e-10 7.09310595613549e-10 2.26881974679947e-09 7.66021796686953e-09 9.44858071338049e-10 2.41550416780077e-10 9.46672242290999e-11
"2142" 34864 9.78327287714427e-11 1.19499194820156e-10 7.0873151522229e-10 2.34016770683755e-09 7.65596641646897e-09 9.46207091332643e-10 2.41310388397376e-10 9.46672242290999e-11
"2143" 34865 9.73880609970482e-11 1.23508444970564e-10 7.08152434831031e-10 2.41151566687562e-09 7.65171486606841e-09 9.47556111327236e-10 2.41070360014675e-10 9.46672242290999e-11
"2144" 34866 9.69433932226537e-11 1.27517695120973e-10 7.07573354439772e-10 2.4828636269137e-09 7.64746331566785e-09 9.4890513132183e-10 2.40830331631975e-10 9.46672242290999e-11
"2145" 34867 9.64987254482593e-11 1.31526945271382e-10 7.06994274048514e-10 2.55421158695177e-09 7.64321176526729e-09 9.50254151316424e-10 2.40590303249274e-10 9.46672242290999e-11
"2146" 34868 9.64987254482593e-11 1.33326301535878e-10 7.08796259720255e-10 2.62777206283426e-09 7.55976141089694e-09 9.38030722314628e-10 2.40350274866573e-10 9.44882979076979e-11
"2147" 34869 9.68492559740014e-11 1.36426260947662e-10 7.10598245391997e-10 2.69977253299909e-09 7.57353786614164e-09 9.38979148763366e-10 2.40091550132067e-10 9.41684711118929e-11
"2148" 34870 9.71997864997436e-11 1.39526220359447e-10 7.12400231063739e-10 2.77177300316392e-09 7.58731432138633e-09 9.39927575212104e-10 2.39832825397561e-10 9.38486443160878e-11
"2149" 34871 9.75503170254857e-11 1.42626179771231e-10 7.1420221673548e-10 2.84377347332876e-09 7.60109077663103e-09 9.40876001660843e-10 2.39574100663054e-10 9.35288175202827e-11
"2150" 34872 9.79008475512279e-11 1.45726139183016e-10 7.16004202407222e-10 2.91577394349359e-09 7.61486723187572e-09 9.41824428109581e-10 2.39315375928548e-10 9.32089907244776e-11
"2151" 34873 9.825137807697e-11 1.488260985948e-10 7.17806188078964e-10 2.98777441365842e-09 7.62864368712042e-09 9.42772854558319e-10 2.39056651194042e-10 9.28891639286726e-11
"2152" 34874 9.86019086027122e-11 1.51926058006585e-10 7.19608173750705e-10 3.05977488382325e-09 7.64242014236511e-09 9.43721281007057e-10 2.38797926459536e-10 9.25693371328675e-11
"2153" 34875 9.89524391284543e-11 1.55026017418369e-10 7.21410159422447e-10 3.13177535398808e-09 7.65619659760981e-09 9.44669707455795e-10 2.3853920172503e-10 9.22495103370624e-11
"2154" 34876 9.93029696541965e-11 1.58125976830154e-10 7.23212145094189e-10 3.20377582415291e-09 7.6699730528545e-09 9.45618133904534e-10 2.38280476990523e-10 9.19296835412573e-11
"2155" 34877 9.96535001799387e-11 1.61225936241938e-10 7.2501413076593e-10 3.27577629431774e-09 7.6837495080992e-09 9.46566560353272e-10 2.38021752256017e-10 9.16098567454523e-11
"2156" 34878 9.96535001799387e-11 1.60316645503314e-10 7.29237346137698e-10 3.28894824660197e-09 7.69037333504279e-09 9.46165966807416e-10 2.38003055904212e-10 9.2146635709658e-11
"2157" 34879 1.0085331434863e-10 1.59514795473232e-10 7.31618412200699e-10 3.31600840766322e-09 7.68906570772827e-09 9.45765373261561e-10 2.38003055904212e-10 9.29652156226701e-11
"2158" 34880 1.02053128517321e-10 1.5871294544315e-10 7.33999478263699e-10 3.34306856872447e-09 7.68775808041374e-09 9.45364779715705e-10 2.38003055904212e-10 9.37837955356821e-11
"2159" 34881 1.03252942686013e-10 1.57911095413068e-10 7.363805443267e-10 3.37012872978572e-09 7.68645045309922e-09 9.4496418616985e-10 2.38003055904212e-10 9.46023754486942e-11
"2160" 34882 1.04452756854704e-10 1.57109245382987e-10 7.387616103897e-10 3.39718889084697e-09 7.6851428257847e-09 9.44563592623994e-10 2.38003055904212e-10 9.54209553617062e-11
"2161" 34883 1.05652571023395e-10 1.56307395352905e-10 7.41142676452701e-10 3.42424905190822e-09 7.68383519847018e-09 9.44162999078139e-10 2.38003055904212e-10 9.62395352747183e-11
"2162" 34884 1.06852385192086e-10 1.55505545322823e-10 7.43523742515701e-10 3.45130921296947e-09 7.68252757115566e-09 9.43762405532283e-10 2.38003055904212e-10 9.70581151877303e-11
"2163" 34885 1.08052199360778e-10 1.54703695292741e-10 7.45904808578702e-10 3.47836937403072e-09 7.68121994384114e-09 9.43361811986428e-10 2.38003055904212e-10 9.78766951007424e-11
"2164" 34886 1.09252013529469e-10 1.5390184526266e-10 7.48285874641702e-10 3.50542953509197e-09 7.67991231652662e-09 9.42961218440573e-10 2.38003055904212e-10 9.86952750137544e-11
"2165" 34887 1.1045182769816e-10 1.53099995232578e-10 7.50666940704702e-10 3.53248969615322e-09 7.6786046892121e-09 9.42560624894717e-10 2.38003055904212e-10 9.95138549267665e-11
"2166" 34888 1.11651641866852e-10 1.52298145202496e-10 7.53048006767703e-10 3.55954985721447e-09 7.67729706189758e-09 9.42160031348862e-10 2.38003055904212e-10 1.00332434839779e-10
"2167" 34889 1.12851456035543e-10 1.51496295172414e-10 7.55429072830703e-10 3.58661001827572e-09 7.67598943458306e-09 9.41759437803006e-10 2.38003055904212e-10 1.01151014752791e-10
"2168" 34890 1.14051270204234e-10 1.50694445142333e-10 7.57810138893704e-10 3.61367017933697e-09 7.67468180726854e-09 9.41358844257151e-10 2.38003055904212e-10 1.01969594665803e-10
"2169" 34891 1.15102861781461e-10 1.50801885850875e-10 7.59539588679437e-10 3.64250784949146e-09 7.67468180726854e-09 9.31228587295534e-10 2.35989347083578e-10 1.02788174578815e-10
"2170" 34892 1.16302675950152e-10 1.5110498276375e-10 7.59539588679437e-10 3.67134551964595e-09 7.67468180726854e-09 9.30827993749679e-10 2.35269261935476e-10 1.0374765496623e-10
"2171" 34893 1.17502490118843e-10 1.51408079676625e-10 7.59539588679437e-10 3.70018318980044e-09 7.67468180726854e-09 9.30427400203823e-10 2.34549176787374e-10 1.04707135353645e-10
"2172" 34894 1.18702304287535e-10 1.51711176589499e-10 7.59539588679437e-10 3.72902085995493e-09 7.67468180726854e-09 9.30026806657968e-10 2.33829091639271e-10 1.0566661574106e-10
"2173" 34895 1.19902118456226e-10 1.52014273502374e-10 7.59539588679437e-10 3.75785853010943e-09 7.67468180726854e-09 9.29626213112112e-10 2.33109006491169e-10 1.06626096128476e-10
"2174" 34896 1.21101932624917e-10 1.52317370415249e-10 7.59539588679437e-10 3.78669620026392e-09 7.67468180726854e-09 9.29225619566257e-10 2.32388921343067e-10 1.07585576515891e-10
"2175" 34897 1.22301746793608e-10 1.52620467328124e-10 7.59539588679437e-10 3.81553387041841e-09 7.67468180726854e-09 9.28825026020401e-10 2.31668836194965e-10 1.08545056903306e-10
"2176" 34898 1.235015609623e-10 1.52923564240999e-10 7.59539588679437e-10 3.8443715405729e-09 7.67468180726854e-09 9.28424432474546e-10 2.30948751046862e-10 1.09504537290721e-10
"2177" 34899 1.24701375130991e-10 1.53226661153873e-10 7.59539588679437e-10 3.8732092107274e-09 7.67468180726854e-09 9.2802383892869e-10 2.3022866589876e-10 1.10464017678137e-10
"2178" 34900 1.25051905656733e-10 1.5433160809683e-10 7.76336540116371e-10 4.25661164731641e-09 7.6937987599509e-09 9.32807095697608e-10 2.3022866589876e-10 1.10285091356735e-10
"2179" 34901 1.25051905656733e-10 1.5433160809683e-10 7.7395547405337e-10 4.2564710224456e-09 7.69306277917939e-09 9.49919896300122e-10 2.29249856016151e-10 1.10106165035333e-10
"2180" 34902 1.25051905656733e-10 1.5433160809683e-10 7.7157440799037e-10 4.25633039757479e-09 7.69232679840788e-09 9.67032696902636e-10 2.28271046133543e-10 1.09927238713931e-10
"2181" 34903 1.25051905656733e-10 1.5433160809683e-10 7.69193341927369e-10 4.25618977270398e-09 7.69159081763637e-09 9.8414549750515e-10 2.27292236250934e-10 1.09748312392529e-10
"2182" 34904 1.22504054727886e-10 1.54028511183955e-10 7.67391356255628e-10 4.25497476309398e-09 7.67151920390508e-09 1.00165889165352e-09 2.27292236250934e-10 1.08609905683712e-10
"2183" 34905 1.21708856427749e-10 1.53832854979623e-10 7.67544219415688e-10 4.25497476309398e-09 7.67151920390508e-09 1.01917228580189e-09 2.27033511516428e-10 1.0843097936231e-10
"2184" 34906 1.20913658127613e-10 1.53637198775291e-10 7.67697082575748e-10 4.25497476309398e-09 7.67151920390508e-09 1.03668567995026e-09 2.26774786781922e-10 1.08252053040908e-10
"2185" 34907 1.20118459827476e-10 1.53441542570958e-10 7.67849945735809e-10 4.25497476309398e-09 7.67151920390508e-09 1.05419907409863e-09 2.26516062047416e-10 1.08073126719506e-10
"2186" 34908 1.19323261527339e-10 1.53245886366626e-10 7.68002808895869e-10 4.25497476309398e-09 7.67151920390508e-09 1.071712468247e-09 2.2625733731291e-10 1.07894200398104e-10
"2187" 34909 1.18528063227203e-10 1.53050230162294e-10 7.68155672055930e-10 4.25497476309398e-09 7.67151920390508e-09 1.08922586239537e-09 2.25998612578403e-10 1.07715274076702e-10
"2188" 34910 1.17732864927066e-10 1.52854573957962e-10 7.6830853521599e-10 4.25497476309398e-09 7.67151920390508e-09 1.10673925654374e-09 2.25739887843897e-10 1.075363477553e-10
"2189" 34911 1.16937666626929e-10 1.5265891775363e-10 7.6846139837605e-10 4.25497476309398e-09 7.67151920390508e-09 1.12425265069211e-09 2.25481163109391e-10 1.07357421433898e-10
"2190" 34912 1.16142468326793e-10 1.52463261549297e-10 7.68614261536111e-10 4.25497476309398e-09 7.67151920390508e-09 1.14176604484048e-09 2.25222438374885e-10 1.07178495112497e-10
"2191" 34913 1.15495492618121e-10 1.54350833309583e-10 7.85346468475079e-10 4.26329980907695e-09 7.6723037802938e-09 1.14949274052696e-09 2.25203742023079e-10 1.07856174551105e-10
"2192" 34914 1.14700294317984e-10 1.54458274018125e-10 7.89722547006907e-10 4.2825205451337e-09 7.69712569754285e-09 1.23566295971152e-09 2.27161361788296e-10 1.07856174551105e-10
"2193" 34915 1.13905096017848e-10 1.54565714726668e-10 7.94098625538736e-10 4.30174128119045e-09 7.7219476147919e-09 1.32183317889608e-09 2.29118981553513e-10 1.07856174551105e-10
"2194" 34916 1.13109897717711e-10 1.5467315543521e-10 7.98474704070564e-10 4.32096201724719e-09 7.74676953204096e-09 1.40800339808063e-09 2.3107660131873e-10 1.07856174551105e-10
"2195" 34917 1.12314699417574e-10 1.54780596143753e-10 8.02850782602393e-10 4.34018275330394e-09 7.77159144929001e-09 1.49417361726519e-09 2.33034221083947e-10 1.07856174551105e-10
"2196" 34918 1.11519501117438e-10 1.54888036852296e-10 8.07226861134221e-10 4.35940348936069e-09 7.79641336653906e-09 1.58034383644975e-09 2.34991840849164e-10 1.07856174551105e-10
"2197" 34919 1.10724302817301e-10 1.54995477560838e-10 8.11602939666049e-10 4.37862422541744e-09 7.82123528378812e-09 1.66651405563431e-09 2.36949460614381e-10 1.07856174551105e-10
"2198" 34920 1.09929104517165e-10 1.55102918269381e-10 8.15979018197878e-10 4.39784496147419e-09 7.84605720103717e-09 1.75268427481886e-09 2.38907080379598e-10 1.07856174551105e-10
"2199" 34921 1.09133906217028e-10 1.55210358977923e-10 8.20355096729706e-10 4.41706569753094e-09 7.87087911828622e-09 1.83885449400342e-09 2.40864700144815e-10 1.07856174551105e-10
"2200" 34922 1.08689238442633e-10 1.55317799686466e-10 8.26106943702078e-10 4.41963634162175e-09 7.87284983294645e-09 1.84403834431819e-09 2.4084600379301e-10 1.07997075025509e-10
"2201" 34923 1.08244570668239e-10 1.55425240395009e-10 8.31858790674449e-10 4.42220698571256e-09 7.87482054760667e-09 1.84922219463297e-09 2.40827307441205e-10 1.08137975499912e-10
"2202" 34924 1.07799902893844e-10 1.55532681103551e-10 8.37610637646821e-10 4.42477762980337e-09 7.8767912622669e-09 1.85440604494774e-09 2.40808611089399e-10 1.08278875974315e-10
"2203" 34925 1.0735523511945e-10 1.55640121812094e-10 8.43362484619193e-10 4.42734827389417e-09 7.87876197692713e-09 1.85958989526251e-09 2.40789914737594e-10 1.08419776448718e-10
"2204" 34926 1.06910567345056e-10 1.55747562520636e-10 8.49114331591564e-10 4.42991891798498e-09 7.88073269158736e-09 1.86477374557728e-09 2.40771218385788e-10 1.08560676923121e-10
"2205" 34927 1.07261097870798e-10 1.55747562520636e-10 8.54866178563936e-10 4.41739947582751e-09 7.87063614020021e-09 1.8695570023462e-09 2.40752522033983e-10 1.08880503718926e-10
"2206" 34928 1.0761162839654e-10 1.56050659433511e-10 8.60465162376247e-10 4.41961199167193e-09 7.87258255705183e-09 1.87419301975809e-09 2.37039918182639e-10 1.08343724754721e-10
"2207" 34929 1.07962158922282e-10 1.56353756346386e-10 8.66064146188558e-10 4.42182450751634e-09 7.87452897390346e-09 1.87882903716998e-09 2.33327314331294e-10 1.07806945790515e-10
"2208" 34930 1.08312689448024e-10 1.56656853259261e-10 8.7166313000087e-10 4.42403702336075e-09 7.87647539075508e-09 1.88346505458187e-09 2.2961471047995e-10 1.07270166826309e-10
"2209" 34931 1.08663219973766e-10 1.56959950172135e-10 8.77262113813181e-10 4.42624953920517e-09 7.87842180760671e-09 1.88810107199376e-09 2.25902106628606e-10 1.06733387862103e-10
"2210" 34932 1.09013750499508e-10 1.5726304708501e-10 8.82861097625492e-10 4.42846205504958e-09 7.88036822445833e-09 1.89273708940565e-09 2.22189502777262e-10 1.06196608897898e-10
"2211" 34933 1.09364281025251e-10 1.57566143997885e-10 8.88460081437804e-10 4.43067457089399e-09 7.88231464130996e-09 1.89737310681754e-09 2.18476898925918e-10 1.05659829933692e-10
"2212" 34934 1.09714811550993e-10 1.5786924091076e-10 8.94059065250115e-10 4.4328870867384e-09 7.88426105816159e-09 1.90200912422943e-09 2.14764295074573e-10 1.05123050969486e-10
"2213" 34935 1.10065342076735e-10 1.58172337823634e-10 8.99658049062426e-10 4.43509960258282e-09 7.88620747501321e-09 1.90664514164132e-09 2.11051691223229e-10 1.04586272005281e-10
"2214" 34936 1.10415872602477e-10 1.58475434736509e-10 9.05257032874737e-10 4.43731211842723e-09 7.88815389186484e-09 1.91128115905321e-09 2.07339087371885e-10 1.04049493041075e-10
"2215" 34937 1.11211070902614e-10 1.59365500262381e-10 9.06294702746177e-10 4.4452790361638e-09 7.88891417044495e-09 1.91352952571087e-09 2.03626483520541e-10 1.03371813602466e-10
"2216" 34938 1.1200626920275e-10 1.60255565788252e-10 9.07332372617617e-10 4.45324595390038e-09 7.88967444902506e-09 1.91577789236853e-09 1.99913879669197e-10 1.02694134163857e-10
"2217" 34939 1.12801467502887e-10 1.61145631314123e-10 9.08370042489057e-10 4.46121287163695e-09 7.89043472760517e-09 1.91802625902618e-09 1.96201275817852e-10 1.02016454725248e-10
"2218" 34940 1.13596665803024e-10 1.62035696839995e-10 9.09407712360497e-10 4.46917978937353e-09 7.89119500618528e-09 1.92027462568384e-09 1.92488671966508e-10 1.01338775286639e-10
"2219" 34941 1.1439186410316e-10 1.62925762365866e-10 9.10445382231937e-10 4.4771467071101e-09 7.89195528476539e-09 1.92252299234149e-09 1.88776068115164e-10 1.0066109584803e-10
"2220" 34942 1.15187062403297e-10 1.63815827891738e-10 9.11483052103377e-10 4.48511362484667e-09 7.8927155633455e-09 1.92477135899915e-09 1.8506346426382e-10 9.99834164094215e-11
"2221" 34943 1.15982260703434e-10 1.64705893417609e-10 9.12520721974816e-10 4.49308054258325e-09 7.89347584192561e-09 1.92701972565681e-09 1.81350860412476e-10 9.93057369708126e-11
"2222" 34944 1.1677745900357e-10 1.6559595894348e-10 9.13558391846256e-10 4.50104746031982e-09 7.89423612050572e-09 1.92926809231446e-09 1.77638256561132e-10 9.86280575322037e-11
"2223" 34945 1.17572657303707e-10 1.66486024469352e-10 9.14596061717696e-10 4.50901437805639e-09 7.89499639908584e-09 1.93151645897212e-09 1.73925652709787e-10 9.79503780935948e-11
"2224" 34946 1.18367855603843e-10 1.67376089995223e-10 9.15633731589136e-10 4.51698129579297e-09 7.89575667766595e-09 1.93376482562977e-09 1.70213048858443e-10 9.72726986549859e-11
"2225" 34947 1.1916305390398e-10 1.68266155521095e-10 9.16671401460576e-10 4.52494821352954e-09 7.89651695624606e-09 1.93601319228743e-09 1.66500445007099e-10 9.6595019216377e-11
"2226" 34948 1.19958252204117e-10 1.69156221046966e-10 9.17709071332016e-10 4.53291513126611e-09 7.89727723482617e-09 1.93826155894509e-09 1.62787841155755e-10 9.59173397777681e-11
"2227" 34949 1.20605227912789e-10 1.70046286572837e-10 9.18095124926188e-10 4.45848464188128e-09 7.89435760954873e-09 1.93946333958265e-09 1.62011666952236e-10 9.609626609917e-11
"2228" 34950 1.21049895687183e-10 1.70633255185834e-10 9.19132794797628e-10 4.46645155961786e-09 7.88920574414816e-09 1.94230861892887e-09 1.61992970600431e-10 9.59553656247669e-11
"2229" 34951 1.21494563461577e-10 1.71220223798831e-10 9.20170464669068e-10 4.47441847735443e-09 7.88405387874759e-09 1.94515389827508e-09 1.61974274248625e-10 9.58144651503637e-11
"2230" 34952 1.21939231235972e-10 1.71807192411827e-10 9.21208134540508e-10 4.482385395091e-09 7.87890201334703e-09 1.9479991776213e-09 1.6195557789682e-10 9.56735646759605e-11
"2231" 34953 1.22383899010366e-10 1.72394161024824e-10 9.22245804411948e-10 4.49035231282758e-09 7.87375014794646e-09 1.95084445696751e-09 1.61936881545014e-10 9.55326642015574e-11
"2232" 34954 1.22828566784761e-10 1.7298112963782e-10 9.23283474283387e-10 4.49831923056415e-09 7.86859828254589e-09 1.95368973631373e-09 1.61918185193209e-10 9.53917637271542e-11
"2233" 34955 1.23273234559155e-10 1.73568098250817e-10 9.24321144154827e-10 4.50628614830072e-09 7.86344641714532e-09 1.95653501565994e-09 1.61899488841403e-10 9.5250863252751e-11
"2234" 34956 1.2371790233355e-10 1.74155066863814e-10 9.25358814026267e-10 4.5142530660373e-09 7.85829455174475e-09 1.95938029500616e-09 1.61880792489598e-10 9.51099627783479e-11
"2235" 34957 1.24162570107944e-10 1.7474203547681e-10 9.26396483897707e-10 4.52221998377387e-09 7.85314268634418e-09 1.96222557435237e-09 1.61862096137792e-10 9.49690623039447e-11
"2236" 34958 1.23960262173667e-10 1.7474203547681e-10 9.28198469569449e-10 4.55907710021989e-09 7.85100763745546e-09 1.97000134982453e-09 1.61843399785987e-10 9.48281618295415e-11
"2237" 34959 1.23960262173667e-10 1.7474203547681e-10 9.28850085846716e-10 4.55907710021989e-09 7.85112912649846e-09 2.01607500048983e-09 1.61824703434182e-10 9.46872613551384e-11
"2238" 34960 1.23960262173667e-10 1.7474203547681e-10 9.29501702123983e-10 4.55907710021989e-09 7.85125061554147e-09 2.06214865115512e-09 1.61806007082376e-10 9.45463608807352e-11
"2239" 34961 1.23960262173667e-10 1.7474203547681e-10 9.30153318401251e-10 4.55907710021989e-09 7.85137210458448e-09 2.10822230182042e-09 1.61787310730571e-10 9.4405460406332e-11
"2240" 34962 1.23960262173667e-10 1.7474203547681e-10 9.30804934678518e-10 4.55907710021989e-09 7.85149359362749e-09 2.15429595248571e-09 1.61768614378765e-10 9.42645599319289e-11
"2241" 34963 1.23515594399272e-10 1.74155066863814e-10 9.22052777614861e-10 4.50495677809739e-09 7.82774782647036e-09 2.20032052336533e-09 1.62008642761466e-10 9.44434862533308e-11
"2242" 34964 1.23515594399272e-10 1.74458163776688e-10 9.20902408220387e-10 4.50531490634379e-09 7.81373414357136e-09 2.24634509424495e-09 1.61989946409661e-10 9.46224125747327e-11
"2243" 34965 1.23515594399272e-10 1.74761260689563e-10 9.19752038825913e-10 4.50567303459018e-09 7.79972046067236e-09 2.29236966512457e-09 1.61971250057855e-10 9.48013388961346e-11
"2244" 34966 1.23515594399272e-10 1.75064357602438e-10 9.18601669431438e-10 4.50603116283658e-09 7.78570677777337e-09 2.33839423600419e-09 1.6195255370605e-10 9.49802652175365e-11
"2245" 34967 1.23515594399272e-10 1.75367454515313e-10 9.17451300036964e-10 4.50638929108298e-09 7.77169309487437e-09 2.38441880688381e-09 1.61933857354244e-10 9.51591915389384e-11
"2246" 34968 1.23515594399272e-10 1.75670551428188e-10 9.1630093064249e-10 4.50674741932937e-09 7.75767941197537e-09 2.43044337776343e-09 1.61915161002439e-10 9.53381178603403e-11
"2247" 34969 1.23515594399272e-10 1.75973648341062e-10 9.15150561248015e-10 4.50710554757577e-09 7.74366572907637e-09 2.47646794864305e-09 1.61896464650633e-10 9.55170441817422e-11
"2248" 34970 1.23515594399272e-10 1.76276745253937e-10 9.14000191853541e-10 4.50746367582216e-09 7.72965204617737e-09 2.52249251952267e-09 1.61877768298828e-10 9.56959705031441e-11
"2249" 34971 1.23313286464995e-10 1.76276745253937e-10 9.3311346485551e-10 4.53644197084747e-09 7.80885085014717e-09 2.55041473882582e-09 1.65571675798367e-10 9.60157972989492e-11
"2250" 34972 1.23110978530718e-10 1.76276745253937e-10 9.52226737857479e-10 4.56542026587277e-09 7.88804965411696e-09 2.57833695812896e-09 1.69265583297905e-10 9.63356240947543e-11
"2251" 34973 1.22908670596441e-10 1.76276745253937e-10 9.71340010859448e-10 4.59439856089807e-09 7.96724845808676e-09 2.6062591774321e-09 1.72959490797444e-10 9.66554508905593e-11
"2252" 34974 1.22706362662163e-10 1.76276745253937e-10 9.90453283861417e-10 4.62337685592338e-09 8.04644726205655e-09 2.63418139673524e-09 1.76653398296983e-10 9.69752776863644e-11
"2253" 34975 1.22504054727886e-10 1.76276745253937e-10 1.00956655686339e-09 4.65235515094868e-09 8.12564606602634e-09 2.66210361603838e-09 1.80347305796521e-10 9.72951044821695e-11
"2254" 34976 1.22301746793608e-10 1.76276745253937e-10 1.02867982986535e-09 4.68133344597398e-09 8.20484486999614e-09 2.69002583534152e-09 1.8404121329606e-10 9.76149312779746e-11
"2255" 34977 1.22099438859331e-10 1.76276745253937e-10 1.04779310286732e-09 4.71031174099928e-09 8.28404367396593e-09 2.71794805464466e-09 1.87735120795599e-10 9.79347580737796e-11
"2256" 34978 1.21897130925054e-10 1.76276745253937e-10 1.06690637586929e-09 4.73929003602459e-09 8.36324247793573e-09 2.74587027394781e-09 1.91429028295138e-10 9.82545848695847e-11
"2257" 34979 1.21694822990776e-10 1.76276745253937e-10 1.08601964887126e-09 4.76826833104989e-09 8.44244128190552e-09 2.77379249325095e-09 1.95122935794676e-10 9.85744116653898e-11
"2258" 34980 1.21344292465034e-10 1.76276745253937e-10 1.10803732191438e-09 4.76904833390872e-09 8.42441327626026e-09 2.85996271243551e-09 1.9486421106017e-10 9.94310174254006e-11
"2259" 34981 1.20993761939292e-10 1.76276745253937e-10 1.13005499495749e-09 4.76982833676755e-09 8.40638527061501e-09 2.94613293162006e-09 1.94605486325664e-10 1.00287623185411e-10
"2260" 34982 1.2064323141355e-10 1.76276745253937e-10 1.15207266800061e-09 4.77060833962638e-09 8.38835726496975e-09 3.03230315080462e-09 1.94346761591158e-10 1.01144228945422e-10
"2261" 34983 1.20292700887808e-10 1.76276745253937e-10 1.17409034104372e-09 4.77138834248521e-09 8.3703292593245e-09 3.11847336998918e-09 1.94088036856652e-10 1.02000834705433e-10
"2262" 34984 1.19942170362066e-10 1.76276745253937e-10 1.19610801408684e-09 4.77216834534403e-09 8.35230125367924e-09 3.20464358917374e-09 1.93829312122145e-10 1.02857440465444e-10
"2263" 34985 1.19591639836324e-10 1.76276745253937e-10 1.21812568712996e-09 4.77294834820286e-09 8.33427324803399e-09 3.29081380835829e-09 1.93570587387639e-10 1.03714046225455e-10
"2264" 34986 1.19241109310581e-10 1.73871195163692e-10 1.23369973328641e-09 4.75450761500494e-09 8.32750363423879e-09 3.37180017722808e-09 1.93330559004938e-10 1.04570651985465e-10
"2265" 34987 1.19092886719117e-10 1.73871195163692e-10 1.25513832593826e-09 4.7469625718808e-09 8.32876266593611e-09 3.45483063835237e-09 1.93330559004938e-10 1.05427257745476e-10
"2266" 34988 1.18944664127652e-10 1.73871195163692e-10 1.27657691859012e-09 4.73941752875666e-09 8.33002169763343e-09 3.53786109947665e-09 1.93330559004938e-10 1.06283863505487e-10
"2267" 34989 1.18796441536187e-10 1.73871195163692e-10 1.29801551124198e-09 4.73187248563252e-09 8.33128072933075e-09 3.62089156060094e-09 1.93330559004938e-10 1.07140469265498e-10
"2268" 34990 1.18648218944722e-10 1.73871195163692e-10 1.31945410389384e-09 4.72432744250838e-09 8.33253976102806e-09 3.70392202172523e-09 1.93330559004938e-10 1.07997075025509e-10
"2269" 34991 1.18499996353257e-10 1.73871195163692e-10 1.34089269654569e-09 4.71678239938424e-09 8.33379879272538e-09 3.78695248284952e-09 1.93330559004938e-10 1.08853680785519e-10
"2270" 34992 1.18351773761792e-10 1.73871195163692e-10 1.36233128919755e-09 4.7092373562601e-09 8.3350578244227e-09 3.86998294397381e-09 1.93330559004938e-10 1.0971028654553e-10
"2271" 34993 1.18203551170328e-10 1.73871195163692e-10 1.38376988184941e-09 4.70169231313596e-09 8.33631685612002e-09 3.9530134050981e-09 1.93330559004938e-10 1.10566892305541e-10
"2272" 34994 1.18055328578863e-10 1.74066851368024e-10 1.38138881578641e-09 4.6935078920238e-09 8.34159021056359e-09 3.96000390399944e-09 1.95602992560078e-10 1.10566892305541e-10
"2273" 34995 1.17907105987398e-10 1.74066851368024e-10 1.37885488656335e-09 4.68554097428722e-09 8.38287098068048e-09 3.96000390399944e-09 1.95843020942779e-10 1.10886719101346e-10
"2274" 34996 1.17758883395933e-10 1.74066851368024e-10 1.37632095734028e-09 4.67757405655065e-09 8.42415175079736e-09 3.96000390399944e-09 1.96083049325479e-10 1.11206545897151e-10
"2275" 34997 1.17610660804468e-10 1.74066851368024e-10 1.37378702811722e-09 4.66960713881408e-09 8.46543252091424e-09 3.96000390399944e-09 1.9632307770818e-10 1.11526372692956e-10
"2276" 34998 1.17462438213004e-10 1.74066851368024e-10 1.37125309889416e-09 4.6616402210775e-09 8.50671329103113e-09 3.96000390399944e-09 1.96563106090881e-10 1.11846199488761e-10
"2277" 34999 1.17314215621539e-10 1.74066851368024e-10 1.3687191696711e-09 4.65367330334093e-09 8.54799406114801e-09 3.96000390399944e-09 1.96803134473582e-10 1.12166026284566e-10
"2278" 35000 1.17165993030074e-10 1.74066851368024e-10 1.36618524044804e-09 4.64570638560436e-09 8.58927483126489e-09 3.96000390399944e-09 1.97043162856283e-10 1.12485853080371e-10
"2279" 35001 1.17017770438609e-10 1.74066851368024e-10 1.36365131122498e-09 4.63773946786778e-09 8.63055560138178e-09 3.96000390399944e-09 1.97283191238983e-10 1.12805679876176e-10
"2280" 35002 1.16869547847144e-10 1.74066851368024e-10 1.36111738200192e-09 4.62977255013121e-09 8.67183637149866e-09 3.96000390399944e-09 1.97523219621684e-10 1.13125506671982e-10
"2281" 35003 1.16721325255679e-10 1.74066851368024e-10 1.35858345277886e-09 4.62180563239464e-09 8.71311714161555e-09 3.96000390399944e-09 1.97763248004385e-10 1.13445333467787e-10
"2282" 35004 1.16573102664215e-10 1.74066851368024e-10 1.3560495235558e-09 4.61383871465806e-09 8.75439791173243e-09 3.96000390399944e-09 1.98003276387086e-10 1.13765160263592e-10
"2283" 35005 1.1642488007275e-10 1.74066851368024e-10 1.35351559433274e-09 4.60587179692149e-09 8.79567868184931e-09 3.96000390399944e-09 1.98243304769786e-10 1.14084987059397e-10
"2284" 35006 1.16276657481285e-10 1.74066851368024e-10 1.35098166510968e-09 4.59790487918492e-09 8.83695945196619e-09 3.96000390399944e-09 1.98483333152487e-10 1.14404813855202e-10
"2285" 35007 1.1612843488982e-10 1.74066851368024e-10 1.34844773588662e-09 4.58993796144834e-09 8.87824022208308e-09 3.96000390399944e-09 1.98723361535188e-10 1.14724640651007e-10
"2286" 35008 1.1612843488982e-10 1.71661301277779e-10 1.34810184592947e-09 4.58908108008474e-09 8.91826196050264e-09 3.96154924313674e-09 1.98723361535188e-10 1.14187861686801e-10
"2287" 35009 1.15980212298355e-10 1.71661301277779e-10 1.34372576739764e-09 4.58908108008474e-09 8.93052360901883e-09 3.96428840765115e-09 1.98963389917889e-10 1.14187861686801e-10
"2288" 35010 1.1583198970689e-10 1.71661301277779e-10 1.33934968886581e-09 4.58908108008474e-09 8.94278525753501e-09 3.96702757216557e-09 1.99203418300589e-10 1.14187861686801e-10
"2289" 35011 1.15683767115426e-10 1.71661301277779e-10 1.33497361033398e-09 4.58908108008474e-09 8.95504690605119e-09 3.96976673667998e-09 1.9944344668329e-10 1.14187861686801e-10
"2290" 35012 1.15535544523961e-10 1.71661301277779e-10 1.33059753180216e-09 4.58908108008474e-09 8.96730855456738e-09 3.97250590119439e-09 1.99683475065991e-10 1.14187861686801e-10
"2291" 35013 1.15387321932496e-10 1.71661301277779e-10 1.32622145327033e-09 4.58908108008474e-09 8.97957020308356e-09 3.97524506570881e-09 1.99923503448692e-10 1.14187861686801e-10
"2292" 35014 1.15239099341031e-10 1.71661301277779e-10 1.3218453747385e-09 4.58908108008474e-09 8.99183185159975e-09 3.97798423022322e-09 2.00163531831392e-10 1.14187861686801e-10
"2293" 35015 1.15090876749566e-10 1.71661301277779e-10 1.31746929620667e-09 4.58908108008474e-09 9.00409350011593e-09 3.98072339473764e-09 2.00403560214093e-10 1.14187861686801e-10
"2294" 35016 1.14942654158101e-10 1.71661301277779e-10 1.31309321767484e-09 4.58908108008474e-09 9.01635514863211e-09 3.98346255925205e-09 2.00643588596794e-10 1.14187861686801e-10
"2295" 35017 1.15144962092379e-10 1.72766248220735e-10 1.30952161858034e-09 4.60381303808662e-09 8.99260938147499e-09 4.00501505812375e-09 2.02916022151934e-10 1.13868034890996e-10
"2296" 35018 1.15144962092379e-10 1.72766248220735e-10 1.30633607308001e-09 4.60787994152905e-09 8.96660707638613e-09 4.00741066413843e-09 2.03156050534634e-10 1.13548208095191e-10
"2297" 35019 1.15144962092379e-10 1.72766248220735e-10 1.30315052757968e-09 4.61194684497149e-09 8.94060477129728e-09 4.00980627015312e-09 2.03396078917335e-10 1.13228381299386e-10
"2298" 35020 1.15144962092379e-10 1.72766248220735e-10 1.29996498207936e-09 4.61601374841392e-09 8.91460246620842e-09 4.0122018761678e-09 2.03636107300036e-10 1.12908554503581e-10
"2299" 35021 1.15144962092379e-10 1.72766248220735e-10 1.29677943657903e-09 4.62008065185635e-09 8.88860016111956e-09 4.01459748218248e-09 2.03876135682737e-10 1.12588727707776e-10
"2300" 35022 1.15144962092379e-10 1.72766248220735e-10 1.2935938910787e-09 4.62414755529878e-09 8.86259785603071e-09 4.01699308819717e-09 2.04116164065437e-10 1.12268900911971e-10
"2301" 35023 1.15144962092379e-10 1.72766248220735e-10 1.29040834557837e-09 4.62821445874121e-09 8.83659555094185e-09 4.01938869421185e-09 2.04356192448138e-10 1.11949074116166e-10
"2302" 35024 1.15144962092379e-10 1.72766248220735e-10 1.28722280007804e-09 4.63228136218364e-09 8.81059324585300e-09 4.02178430022653e-09 2.04596220830839e-10 1.11629247320361e-10
"2303" 35025 1.15144962092379e-10 1.72766248220735e-10 1.28403725457772e-09 4.63634826562607e-09 8.78459094076414e-09 4.02417990624122e-09 2.0483624921354e-10 1.11309420524556e-10
"2304" 35026 1.15144962092379e-10 1.72766248220735e-10 1.28085170907739e-09 4.6404151690685e-09 8.75858863567528e-09 4.0265755122559e-09 2.05076277596241e-10 1.1098959372875e-10
"2305" 35027 1.15144962092379e-10 1.72766248220735e-10 1.27766616357706e-09 4.64448207251093e-09 8.73258633058643e-09 4.02897111827058e-09 2.05316305978941e-10 1.10669766932945e-10
"2306" 35028 1.15144962092379e-10 1.72766248220735e-10 1.27448061807673e-09 4.64854897595336e-09 8.70658402549757e-09 4.03136672428527e-09 2.05556334361642e-10 1.1034994013714e-10
"2307" 35029 1.15144962092379e-10 1.72766248220735e-10 1.2712950725764e-09 4.65261587939579e-09 8.68058172040871e-09 4.03376233029995e-09 2.05796362744343e-10 1.10030113341335e-10
"2308" 35030 1.14996739500914e-10 1.73871195163692e-10 1.26208432603257e-09 4.66094092537876e-09 8.68293544957485e-09 4.03620701610031e-09 2.05057581244435e-10 1.0949333437713e-10
"2309" 35031 1.14996739500914e-10 1.74673045193774e-10 1.25882624464623e-09 4.6648409396729e-09 8.68032594537752e-09 4.04299324059851e-09 2.04281407040916e-10 1.09634234851533e-10
"2310" 35032 1.14996739500914e-10 1.75474895223855e-10 1.25556816325989e-09 4.66874095396704e-09 8.67771644118019e-09 4.0497794650967e-09 2.03505232837398e-10 1.09775135325936e-10
"2311" 35033 1.14996739500914e-10 1.76276745253937e-10 1.25231008187356e-09 4.67264096826119e-09 8.67510693698286e-09 4.05656568959490e-09 2.02729058633879e-10 1.09916035800339e-10
"2312" 35034 1.14996739500914e-10 1.77078595284019e-10 1.24905200048722e-09 4.67654098255533e-09 8.67249743278553e-09 4.06335191409309e-09 2.0195288443036e-10 1.10056936274742e-10
"2313" 35035 1.14996739500914e-10 1.77880445314101e-10 1.24579391910088e-09 4.68044099684947e-09 8.66988792858820e-09 4.07013813859128e-09 2.01176710226842e-10 1.10197836749145e-10
"2314" 35036 1.14996739500914e-10 1.78682295344182e-10 1.24253583771455e-09 4.68434101114362e-09 8.66727842439086e-09 4.07692436308948e-09 2.00400536023323e-10 1.10338737223549e-10
"2315" 35037 1.14996739500914e-10 1.79484145374264e-10 1.23927775632821e-09 4.68824102543776e-09 8.66466892019353e-09 4.08371058758767e-09 1.99624361819804e-10 1.10479637697952e-10
"2316" 35038 1.14996739500914e-10 1.80071113987261e-10 1.23686431801623e-09 4.6921410397319e-09 8.66789866655108e-09 4.08610619360236e-09 1.98608159233585e-10 1.11157317136561e-10
"2317" 35039 1.14996739500914e-10 1.80658082600257e-10 1.23445087970424e-09 4.69604105402605e-09 8.67112841290862e-09 4.08850179961704e-09 1.97591956647366e-10 1.11834996575169e-10
"2318" 35040 1.14996739500914e-10 1.81245051213254e-10 1.23203744139226e-09 4.69994106832019e-09 8.67435815926617e-09 4.09089740563172e-09 1.96575754061146e-10 1.12512676013778e-10
"2319" 35041 1.14996739500914e-10 1.81832019826251e-10 1.22962400308028e-09 4.70384108261433e-09 8.67758790562371e-09 4.09329301164641e-09 1.95559551474927e-10 1.13190355452387e-10
"2320" 35042 1.14996739500914e-10 1.82418988439247e-10 1.22721056476829e-09 4.70774109690848e-09 8.68081765198126e-09 4.09568861766109e-09 1.94543348888707e-10 1.13868034890996e-10
"2321" 35043 1.14996739500914e-10 1.83005957052244e-10 1.22479712645631e-09 4.71164111120262e-09 8.6840473983388e-09 4.09808422367577e-09 1.93527146302488e-10 1.14545714329605e-10
"2322" 35044 1.14996739500914e-10 1.8359292566524e-10 1.22238368814433e-09 4.71554112549676e-09 8.68727714469635e-09 4.10047982969046e-09 1.92510943716269e-10 1.15223393768214e-10
"2323" 35045 1.14996739500914e-10 1.8359292566524e-10 1.22238368814433e-09 4.72129552738892e-09 8.6983897496948e-09 4.09809217893622e-09 1.9153213383366e-10 1.15901073206823e-10
"2324" 35046 1.14996739500914e-10 1.8428733498678e-10 1.22322833121868e-09 4.72884057051306e-09 8.71052415873626e-09 4.10034054559388e-09 1.90515931247441e-10 1.16757678966834e-10
"2325" 35047 1.14996739500914e-10 1.84981744308319e-10 1.22407297429303e-09 4.7363856136372e-09 8.72265856777773e-09 4.10258891225154e-09 1.89499728661221e-10 1.17614284726844e-10
"2326" 35048 1.14996739500914e-10 1.85676153629858e-10 1.22491761736739e-09 4.74393065676134e-09 8.7347929768192e-09 4.10483727890919e-09 1.88483526075002e-10 1.18470890486855e-10
"2327" 35049 1.14996739500914e-10 1.86370562951397e-10 1.22576226044174e-09 4.75147569988549e-09 8.74692738586066e-09 4.10708564556685e-09 1.87467323488782e-10 1.19327496246866e-10
"2328" 35050 1.14996739500914e-10 1.87064972272936e-10 1.22660690351609e-09 4.75902074300963e-09 8.75906179490213e-09 4.1093340122245e-09 1.86451120902563e-10 1.20184102006877e-10
"2329" 35051 1.14996739500914e-10 1.87759381594476e-10 1.22745154659045e-09 4.76656578613377e-09 8.7711962039436e-09 4.11158237888216e-09 1.85434918316344e-10 1.21040707766888e-10
"2330" 35052 1.14996739500914e-10 1.88453790916015e-10 1.2282961896648e-09 4.77411082925791e-09 8.78333061298506e-09 4.11383074553982e-09 1.84418715730124e-10 1.21897313526898e-10
"2331" 35053 1.15791937801051e-10 1.89148200237554e-10 1.22795029970766e-09 4.77368895464548e-09 8.78430382141087e-09 4.11463193263153e-09 1.84418715730124e-10 1.21897313526898e-10
"2332" 35054 1.16587136101187e-10 1.89842609559093e-10 1.22760440975051e-09 4.77326708003304e-09 8.78527702983669e-09 4.11543311972324e-09 1.84418715730124e-10 1.21897313526898e-10
"2333" 35055 1.17382334401324e-10 1.90537018880632e-10 1.22725851979336e-09 4.77284520542061e-09 8.7862502382625e-09 4.11623430681495e-09 1.84418715730124e-10 1.21897313526898e-10
"2334" 35056 1.18177532701461e-10 1.91231428202172e-10 1.22691262983622e-09 4.77242333080818e-09 8.78722344668831e-09 4.11703549390666e-09 1.84418715730124e-10 1.21897313526898e-10
"2335" 35057 1.18972731001597e-10 1.91925837523711e-10 1.22656673987907e-09 4.77200145619575e-09 8.78819665511412e-09 4.11783668099837e-09 1.84418715730124e-10 1.21897313526898e-10
"2336" 35058 1.19767929301734e-10 1.9262024684525e-10 1.22622084992192e-09 4.77157958158331e-09 8.78916986353994e-09 4.11863786809008e-09 1.84418715730124e-10 1.21897313526898e-10
"2337" 35059 1.2056312760187e-10 1.93314656166789e-10 1.22587495996478e-09 4.77115770697088e-09 8.79014307196575e-09 4.11943905518179e-09 1.84418715730124e-10 1.21897313526898e-10
"2338" 35060 1.20913658127613e-10 1.93422096875332e-10 1.22587495996478e-09 4.77294834820286e-09 8.79040459742865e-09 4.12024024227351e-09 1.83661237878411e-10 1.21897313526898e-10
"2339" 35061 1.21264188653355e-10 1.93529537583874e-10 1.22587495996478e-09 4.77473898943484e-09 8.79066612289156e-09 4.12104142936522e-09 1.82903760026698e-10 1.21897313526898e-10
"2340" 35062 1.21614719179097e-10 1.93636978292417e-10 1.22587495996478e-09 4.77652963066682e-09 8.79092764835446e-09 4.12184261645693e-09 1.82146282174985e-10 1.21897313526898e-10
"2341" 35063 1.21965249704839e-10 1.93744419000959e-10 1.22587495996478e-09 4.7783202718988e-09 8.79118917381737e-09 4.12264380354864e-09 1.81388804323271e-10 1.21897313526898e-10
"2342" 35064 1.22315780230581e-10 1.93851859709502e-10 1.22587495996478e-09 4.78011091313079e-09 8.79145069928027e-09 4.12344499064035e-09 1.80631326471558e-10 1.21897313526898e-10
"2343" 35065 1.22666310756323e-10 1.93959300418044e-10 1.22587495996478e-09 4.78190155436277e-09 8.79171222474318e-09 4.12424617773206e-09 1.79873848619845e-10 1.21897313526898e-10
"2344" 35066 1.23016841282066e-10 1.94066741126587e-10 1.22587495996478e-09 4.78369219559475e-09 8.79197375020608e-09 4.12504736482377e-09 1.79116370768132e-10 1.21897313526898e-10
"2345" 35067 1.22167557639116e-10 1.94066741126587e-10 1.22261687857844e-09 4.78183780799673e-09 8.78995443992865e-09 4.12644546460404e-09 1.79116370768132e-10 1.21718387205496e-10
"2346" 35068 1.21318273996167e-10 1.94066741126587e-10 1.22215828909826e-09 4.77998342039871e-09 8.79021596539155e-09 4.12739389105278e-09 1.77158751002915e-10 1.20861781445486e-10
"2347" 35069 1.20468990353218e-10 1.94066741126587e-10 1.22169969961808e-09 4.7781290328007e-09 8.79047749085446e-09 4.12834231750152e-09 1.75201131237698e-10 1.20005175685475e-10
"2348" 35070 1.19619706710269e-10 1.94066741126587e-10 1.2212411101379e-09 4.77627464520268e-09 8.79073901631736e-09 4.12929074395026e-09 1.73243511472481e-10 1.19148569925464e-10
"2349" 35071 1.1877042306732e-10 1.94066741126587e-10 1.22078252065771e-09 4.77442025760466e-09 8.79100054178027e-09 4.13023917039899e-09 1.71285891707264e-10 1.18291964165453e-10
"2350" 35072 1.17921139424371e-10 1.94066741126587e-10 1.22032393117753e-09 4.77256587000664e-09 8.79126206724317e-09 4.13118759684773e-09 1.69328271942047e-10 1.17435358405443e-10
"2351" 35073 1.17071855781422e-10 1.94066741126587e-10 1.21986534169735e-09 4.77071148240863e-09 8.79152359270607e-09 4.13213602329647e-09 1.6737065217683e-10 1.16578752645432e-10
"2352" 35074 1.16222572138472e-10 1.94066741126587e-10 1.21940675221717e-09 4.76885709481061e-09 8.79178511816898e-09 4.13308444974521e-09 1.65413032411613e-10 1.15722146885421e-10
"2353" 35075 1.15373288495523e-10 1.94066741126587e-10 1.21894816273699e-09 4.76700270721259e-09 8.79204664363188e-09 4.13403287619395e-09 1.63455412646396e-10 1.1486554112541e-10
"2354" 35076 1.14173474326832e-10 1.93763644213712e-10 1.21814368329966e-09 4.76449580948782e-09 8.88230241046946e-09 4.26089657658632e-09 1.62217878029281e-10 1.14187861686801e-10
"2355" 35077 1.13768858458277e-10 1.93460547300838e-10 1.21852973689383e-09 4.76042890604539e-09 8.88624383978991e-09 4.26184500303506e-09 1.60980343412166e-10 1.1333125592679e-10
"2356" 35078 1.13364242589723e-10 1.96932593908533e-10 1.23445746439548e-09 4.78498216938187e-09 8.88648106744421e-09 4.2661865417329e-09 1.59004027295144e-10 1.1333125592679e-10
"2357" 35079 1.12959626721168e-10 2.00404640516229e-10 1.25038519189712e-09 4.80953543271834e-09 8.88671829509851e-09 4.27052808043073e-09 1.57027711178121e-10 1.1333125592679e-10
"2358" 35080 1.12555010852613e-10 2.03876687123925e-10 1.26631291939876e-09 4.83408869605482e-09 8.88695552275282e-09 4.27486961912857e-09 1.55051395061099e-10 1.1333125592679e-10
"2359" 35081 1.1335020915275e-10 2.01686018450765e-10 1.27632814537992e-09 4.86292636620931e-09 8.88089759192053e-09 4.27801733244929e-09 1.54312613561191e-10 1.14008935365399e-10
"2360" 35082 1.14145407452887e-10 2.05158065058461e-10 1.28868427378706e-09 4.86053382907787e-09 8.87483966108824e-09 4.27503276900650e-09 1.54312613561191e-10 1.14686614804008e-10
"2361" 35083 1.14940605753023e-10 2.08630111666157e-10 1.3010404021942e-09 4.85814129194643e-09 8.86878173025595e-09 4.2720482055637e-09 1.54312613561191e-10 1.15364294242617e-10
"2362" 35084 1.1573580405316e-10 2.12102158273853e-10 1.31339653060134e-09 4.85574875481500e-09 8.86272379942367e-09 4.26906364212091e-09 1.54312613561191e-10 1.16041973681226e-10
"2363" 35085 1.16531002353296e-10 2.15574204881549e-10 1.32575265900848e-09 4.85335621768356e-09 8.85666586859138e-09 4.26607907867812e-09 1.54312613561191e-10 1.16719653119835e-10
"2364" 35086 1.17326200653433e-10 2.19046251489245e-10 1.33810878741562e-09 4.85096368055212e-09 8.85060793775909e-09 4.26309451523533e-09 1.54312613561191e-10 1.17397332558444e-10
"2365" 35087 1.1812139895357e-10 2.22518298096941e-10 1.35046491582276e-09 4.84857114342068e-09 8.8445500069268e-09 4.26010995179253e-09 1.54312613561191e-10 1.18075011997053e-10
"2366" 35088 1.18269621545035e-10 2.22215201184066e-10 1.346241700451e-09 4.81841532087394e-09 8.83825484844021e-09 4.25233417632037e-09 1.56288929678213e-10 1.18752691435662e-10
"2367" 35089 1.18269621545035e-10 2.21912104271191e-10 1.34439955114223e-09 4.80002520190331e-09 8.83599831050848e-09 4.25179429867794e-09 1.56307626030019e-10 1.18893591910065e-10
"2368" 35090 1.18269621545035e-10 2.21609007358317e-10 1.34255740183346e-09 4.78163508293269e-09 8.83374177257675e-09 4.25125442103551e-09 1.56326322381824e-10 1.19034492384468e-10
"2369" 35091 1.18269621545035e-10 2.21305910445442e-10 1.34071525252469e-09 4.76324496396207e-09 8.83148523464502e-09 4.25071454339307e-09 1.5634501873363e-10 1.19175392858871e-10
"2370" 35092 1.18269621545035e-10 2.21002813532567e-10 1.33887310321592e-09 4.74485484499145e-09 8.82922869671328e-09 4.25017466575064e-09 1.56363715085435e-10 1.19316293333274e-10
"2371" 35093 1.18269621545035e-10 2.20699716619692e-10 1.33703095390716e-09 4.72646472602083e-09 8.82697215878155e-09 4.24963478810821e-09 1.56382411437241e-10 1.19457193807677e-10
"2372" 35094 1.18269621545035e-10 2.20396619706817e-10 1.33518880459839e-09 4.7080746070502e-09 8.82471562084982e-09 4.24909491046577e-09 1.56401107789046e-10 1.19598094282081e-10
"2373" 35095 1.18269621545035e-10 2.20093522793943e-10 1.33334665528962e-09 4.68968448807958e-09 8.82245908291809e-09 4.24855503282334e-09 1.56419804140852e-10 1.19738994756484e-10
"2374" 35096 1.18269621545035e-10 2.19790425881068e-10 1.33150450598085e-09 4.67129436910896e-09 8.82020254498636e-09 4.24801515518091e-09 1.56438500492657e-10 1.19879895230887e-10
"2375" 35097 1.18620152070777e-10 2.19790425881068e-10 1.33552690316749e-09 4.64113854656222e-09 8.81414461415407e-09 4.2454723098092e-09 1.56198472109956e-10 1.19700968909485e-10
"2376" 35098 1.18620152070777e-10 2.20377394494064e-10 1.33195530407299e-09 4.60976771440548e-09 8.80811098113038e-09 4.2454723098092e-09 1.56217168461762e-10 1.19522042588083e-10
"2377" 35099 1.18620152070777e-10 2.20964363107061e-10 1.32838370497849e-09 4.57839688224873e-09 8.80207734810670e-09 4.2454723098092e-09 1.56235864813567e-10 1.19343116266681e-10
"2378" 35100 1.18620152070777e-10 2.21551331720058e-10 1.32481210588399e-09 4.54702605009199e-09 8.79604371508301e-09 4.2454723098092e-09 1.56254561165373e-10 1.19164189945279e-10
"2379" 35101 1.18620152070777e-10 2.22138300333054e-10 1.32124050678949e-09 4.51565521793525e-09 8.79001008205932e-09 4.2454723098092e-09 1.56273257517178e-10 1.18985263623877e-10
"2380" 35102 1.18620152070777e-10 2.22725268946051e-10 1.31766890769499e-09 4.48428438577851e-09 8.78397644903564e-09 4.2454723098092e-09 1.56291953868983e-10 1.18806337302475e-10
"2381" 35103 1.18471929479312e-10 2.23615334471922e-10 1.31766890769499e-09 4.4841437609077e-09 8.77794281601195e-09 4.25279841194983e-09 1.5655067860349e-10 1.18806337302475e-10
"2382" 35104 1.18471929479312e-10 2.24505399997794e-10 1.31847338713232e-09 4.46905367465941e-09 8.77723113304904e-09 4.26057418742198e-09 1.56569374955295e-10 1.18806337302475e-10
"2383" 35105 1.18471929479312e-10 2.25395465523665e-10 1.31927786656965e-09 4.45396358841113e-09 8.77651945008613e-09 4.26834996289414e-09 1.56588071307101e-10 1.18806337302475e-10
"2384" 35106 1.18471929479312e-10 2.26285531049536e-10 1.32008234600697e-09 4.43887350216285e-09 8.77580776712322e-09 4.2761257383663e-09 1.56606767658906e-10 1.18806337302475e-10
"2385" 35107 1.18471929479312e-10 2.27175596575408e-10 1.3208868254443e-09 4.42378341591457e-09 8.77509608416032e-09 4.28390151383846e-09 1.56625464010712e-10 1.18806337302475e-10
"2386" 35108 1.18471929479312e-10 2.28065662101279e-10 1.32169130488163e-09 4.40869332966629e-09 8.77438440119741e-09 4.29167728931062e-09 1.56644160362517e-10 1.18806337302475e-10
"2387" 35109 1.18471929479312e-10 2.28955727627151e-10 1.32249578431896e-09 4.393603243418e-09 8.7736727182345e-09 4.29945306478278e-09 1.56662856714322e-10 1.18806337302475e-10
"2388" 35110 1.18471929479312e-10 2.29845793153022e-10 1.32330026375628e-09 4.37851315716972e-09 8.77296103527159e-09 4.30722884025494e-09 1.56681553066128e-10 1.18806337302475e-10
"2389" 35111 1.18471929479312e-10 2.30735858678893e-10 1.32410474319361e-09 4.36342307092144e-09 8.77224935230868e-09 4.3150046157271e-09 1.56700249417933e-10 1.18806337302475e-10
"2390" 35112 1.18620152070777e-10 2.30931514883226e-10 1.32529527622511e-09 4.35402364019928e-09 8.77521757320332e-09 4.32224051355682e-09 1.56700249417933e-10 1.19662943062486e-10
"2391" 35113 1.18768374662242e-10 2.31127171087558e-10 1.32648580925661e-09 4.34462420947712e-09 8.77818579409796e-09 4.32947641138655e-09 1.56700249417933e-10 1.20519548822497e-10
"2392" 35114 1.18768374662242e-10 2.32232118030514e-10 1.33488428497508e-09 4.33210476731965e-09 8.77949342141248e-09 4.3470388853206e-09 1.58732654590372e-10 1.20839375618302e-10
"2393" 35115 1.18768374662242e-10 2.33337064973471e-10 1.34328276069355e-09 4.31958532516218e-09 8.780801048727e-09 4.36460135925464e-09 1.60765059762811e-10 1.21159202414107e-10
"2394" 35116 1.18768374662242e-10 2.34442011916427e-10 1.35168123641201e-09 4.30706588300471e-09 8.78210867604152e-09 4.38216383318869e-09 1.6279746493525e-10 1.21479029209912e-10
"2395" 35117 1.18768374662242e-10 2.35546958859384e-10 1.36007971213048e-09 4.29454644084723e-09 8.78341630335605e-09 4.39972630712273e-09 1.64829870107689e-10 1.21798856005717e-10
"2396" 35118 1.18768374662242e-10 2.36651905802341e-10 1.36847818784895e-09 4.28202699868976e-09 8.78472393067057e-09 4.41728878105678e-09 1.66862275280128e-10 1.22118682801522e-10
"2397" 35119 1.18768374662242e-10 2.37756852745297e-10 1.37687666356741e-09 4.26950755653229e-09 8.78603155798509e-09 4.43485125499082e-09 1.68894680452566e-10 1.22438509597327e-10
"2398" 35120 1.18768374662242e-10 2.38861799688254e-10 1.38527513928588e-09 4.25698811437482e-09 8.78733918529961e-09 4.45241372892487e-09 1.70927085625005e-10 1.22758336393133e-10
"2399" 35121 1.18768374662242e-10 2.3996674663121e-10 1.39367361500435e-09 4.24446867221734e-09 8.78864681261413e-09 4.46997620285891e-09 1.72959490797444e-10 1.23078163188938e-10
"2400" 35122 1.18768374662242e-10 2.41071693574167e-10 1.40207209072281e-09 4.23194923005987e-09 8.78995443992865e-09 4.48753867679296e-09 1.74991895969883e-10 1.23397989984743e-10
"2401" 35123 1.18768374662242e-10 2.42176640517123e-10 1.41047056644128e-09 4.2194297879024e-09 8.79126206724317e-09 4.505101150727e-09 1.77024301142322e-10 1.23717816780548e-10
"2402" 35124 1.18768374662242e-10 2.4328158746008e-10 1.41886904215975e-09 4.20691034574493e-09 8.79256969455769e-09 4.52266362466105e-09 1.79056706314761e-10 1.24037643576353e-10
"2403" 35125 1.18768374662242e-10 2.44386534403036e-10 1.42726751787821e-09 4.19439090358745e-09 8.79387732187221e-09 4.5402260985951e-09 1.81089111487199e-10 1.24357470372158e-10
"2404" 35126 1.18768374662242e-10 2.45188384433118e-10 1.43371114476488e-09 4.19439090358745e-09 8.79518494918673e-09 4.55733889919761e-09 1.83121516659638e-10 1.24357470372158e-10
"2405" 35127 1.18620152070777e-10 2.45403265850203e-10 1.43957569126029e-09 4.19696154767826e-09 8.79720425946416e-09 4.5743044604431e-09 1.83177605715055e-10 1.24677297167963e-10
"2406" 35128 1.18471929479312e-10 2.45618147267288e-10 1.44544023775569e-09 4.19953219176907e-09 8.79922356974159e-09 4.59127002168858e-09 1.83233694770471e-10 1.24997123963768e-10
"2407" 35129 1.18323706887847e-10 2.45833028684373e-10 1.4513047842511e-09 4.20210283585988e-09 8.80124288001902e-09 4.60823558293407e-09 1.83289783825887e-10 1.25316950759573e-10
"2408" 35130 1.18175484296382e-10 2.46047910101459e-10 1.4571693307465e-09 4.20467347995069e-09 8.80326219029645e-09 4.62520114417956e-09 1.83345872881304e-10 1.25636777555378e-10
"2409" 35131 1.18027261704917e-10 2.46262791518544e-10 1.46303387724191e-09 4.2072441240415e-09 8.80528150057388e-09 4.64216670542504e-09 1.8340196193672e-10 1.25956604351183e-10
"2410" 35132 1.17879039113453e-10 2.46477672935629e-10 1.46889842373732e-09 4.20981476813231e-09 8.80730081085131e-09 4.65913226667053e-09 1.83458050992136e-10 1.26276431146988e-10
"2411" 35133 1.17730816521988e-10 2.46692554352714e-10 1.47476297023272e-09 4.21238541222312e-09 8.80932012112874e-09 4.67609782791602e-09 1.83514140047553e-10 1.26596257942793e-10
"2412" 35134 1.17730816521988e-10 2.46692554352714e-10 1.47476297023272e-09 4.21430354618717e-09 8.82511588665086e-09 4.68327669069962e-09 1.83514140047553e-10 1.26596257942793e-10
"2413" 35135 1.17730816521988e-10 2.45802488826843e-10 1.47303352044699e-09 4.24032871892545e-09 8.82879579050841e-09 4.68432327671971e-09 1.81297795547829e-10 1.26916084738599e-10
"2414" 35136 1.17730816521988e-10 2.44912423300971e-10 1.47130407066126e-09 4.26635389166372e-09 8.83247569436596e-09 4.6853698627398e-09 1.79081451048106e-10 1.27235911534404e-10
"2415" 35137 1.17730816521988e-10 2.440223577751e-10 1.46957462087552e-09 4.292379064402e-09 8.83615559822351e-09 4.68641644875989e-09 1.76865106548383e-10 1.27555738330209e-10
"2416" 35138 1.17730816521988e-10 2.43132292249229e-10 1.46784517108979e-09 4.31840423714028e-09 8.83983550208106e-09 4.68746303477998e-09 1.7464876204866e-10 1.27875565126014e-10
"2417" 35139 1.17730816521988e-10 2.42242226723357e-10 1.46611572130406e-09 4.34442940987855e-09 8.84351540593861e-09 4.68850962080007e-09 1.72432417548937e-10 1.28195391921819e-10
"2418" 35140 1.1752850858771e-10 2.41137279780401e-10 1.46116835376901e-09 4.35536449636855e-09 8.84721960760476e-09 4.68237734403656e-09 1.72432417548937e-10 1.28195391921819e-10
"2419" 35141 1.17326200653433e-10 2.40941623576068e-10 1.46181997004628e-09 4.37696463741800e-09 8.68289835482107e-09 4.67624506727305e-09 1.72192389166236e-10 1.28195391921819e-10
"2420" 35142 1.17123892719156e-10 2.40745967371736e-10 1.46247158632355e-09 4.39856477846744e-09 8.51857710203738e-09 4.67011279050953e-09 1.71952360783535e-10 1.28195391921819e-10
"2421" 35143 1.16921584784878e-10 2.40550311167404e-10 1.46312320260081e-09 4.42016491951689e-09 8.35425584925369e-09 4.66398051374602e-09 1.71712332400834e-10 1.28195391921819e-10
"2422" 35144 1.16719276850601e-10 2.40354654963072e-10 1.46377481887808e-09 4.44176506056634e-09 8.18993459647e-09 4.65784823698251e-09 1.71472304018133e-10 1.28195391921819e-10
"2423" 35145 1.16516968916324e-10 2.4015899875874e-10 1.46442643515535e-09 4.46336520161579e-09 8.02561334368631e-09 4.651715960219e-09 1.71232275635433e-10 1.28195391921819e-10
"2424" 35146 1.16314660982046e-10 2.39963342554407e-10 1.46507805143262e-09 4.48496534266524e-09 7.86129209090262e-09 4.64558368345549e-09 1.70992247252732e-10 1.28195391921819e-10
"2425" 35147 1.16112353047769e-10 2.39767686350075e-10 1.46572966770988e-09 4.50656548371469e-09 7.69697083811893e-09 4.63945140669198e-09 1.70752218870031e-10 1.28195391921819e-10
"2426" 35148 1.15910045113492e-10 2.39572030145743e-10 1.46638128398715e-09 4.52816562476414e-09 7.53264958533524e-09 4.63331912992847e-09 1.7051219048733e-10 1.28195391921819e-10
"2427" 35149 1.15707737179214e-10 2.39376373941411e-10 1.46703290026442e-09 4.54976576581359e-09 7.36832833255155e-09 4.62718685316496e-09 1.7027216210463e-10 1.28195391921819e-10
"2428" 35150 1.15505429244937e-10 2.39180717737079e-10 1.46768451654169e-09 4.57136590686304e-09 7.20400707976786e-09 4.62105457640145e-09 1.70032133721929e-10 1.28195391921819e-10
"2429" 35151 1.1530312131066e-10 2.38985061532746e-10 1.46833613281895e-09 4.59296604791249e-09 7.03968582698417e-09 4.61492229963794e-09 1.69792105339228e-10 1.28195391921819e-10
"2430" 35152 1.15100813376382e-10 2.38789405328414e-10 1.46898774909622e-09 4.61456618896194e-09 6.87536457420049e-09 4.60879002287442e-09 1.69552076956527e-10 1.28195391921819e-10
"2431" 35153 1.14898505442105e-10 2.38593749124082e-10 1.46963936537349e-09 4.63616633001139e-09 6.7110433214168e-09 4.60265774611091e-09 1.69312048573827e-10 1.28195391921819e-10
"2432" 35154 1.14696197507828e-10 2.3839809291975e-10 1.47029098165076e-09 4.65776647106084e-09 6.54672206863311e-09 4.5965254693474e-09 1.69072020191126e-10 1.28195391921819e-10
"2433" 35155 1.1449388957355e-10 2.38202436715417e-10 1.47094259792802e-09 4.67936661211029e-09 6.38240081584942e-09 4.59039319258389e-09 1.68831991808425e-10 1.28195391921819e-10
"2434" 35156 1.153431732165e-10 2.38006780511085e-10 1.47198026779946e-09 4.68639976997848e-09 6.31364577910066e-09 4.60017989104578e-09 1.68591963425724e-10 1.28195391921819e-10
"2435" 35157 1.16192456859449e-10 2.37811124306753e-10 1.4730179376709e-09 4.69343292784668e-09 6.2448907423519e-09 4.60996658950766e-09 1.68351935043024e-10 1.28195391921819e-10
"2436" 35158 1.15990148925171e-10 2.37615468102421e-10 1.47724115304267e-09 4.68978789901668e-09 6.07662806024776e-09 4.61654853960271e-09 1.69090716542931e-10 1.28054491447416e-10
"2437" 35159 1.15990148925171e-10 2.39825361988334e-10 1.48548676560108e-09 4.69682105688487e-09 5.90860260579792e-09 4.60922243746208e-09 1.6986689074645e-10 1.28054491447416e-10
"2438" 35160 1.15990148925171e-10 2.42035255874247e-10 1.49373237815948e-09 4.70385421475307e-09 5.74057715134808e-09 4.60189633532145e-09 1.70643064949969e-10 1.28054491447416e-10
"2439" 35161 1.15990148925171e-10 2.4424514976016e-10 1.50197799071789e-09 4.71088737262127e-09 5.57255169689824e-09 4.59457023318082e-09 1.71419239153487e-10 1.28054491447416e-10
"2440" 35162 1.16340679450914e-10 2.45545752907449e-10 1.50365948547855e-09 4.72156555931946e-09 5.57278892455254e-09 4.5897869764119e-09 1.721767170052e-10 1.28374318243221e-10
"2441" 35163 1.16542987385191e-10 2.47951302997694e-10 1.50845398985354e-09 4.73266562063009e-09 5.55716324369062e-09 4.58005731299614e-09 1.7319291959142e-10 1.28694145039026e-10
"2442" 35164 1.16745295319468e-10 2.50356853087939e-10 1.51324849422852e-09 4.74376568194071e-09 5.54153756282871e-09 4.57032764958038e-09 1.74209122177639e-10 1.29013971834831e-10
"2443" 35165 1.16947603253746e-10 2.52762403178185e-10 1.5180429986035e-09 4.75486574325134e-09 5.52591188196679e-09 4.56059798616462e-09 1.75225324763859e-10 1.29333798630636e-10
"2444" 35166 1.17149911188023e-10 2.5516795326843e-10 1.52283750297849e-09 4.76596580456196e-09 5.51028620110488e-09 4.55086832274886e-09 1.76241527350078e-10 1.29653625426441e-10
"2445" 35167 1.173522191223e-10 2.57573503358675e-10 1.52763200735347e-09 4.77706586587259e-09 5.49466052024296e-09 4.5411386593331e-09 1.77257729936298e-10 1.29973452222246e-10
"2446" 35168 1.17554527056578e-10 2.59979053448921e-10 1.53242651172846e-09 4.78816592718322e-09 5.47903483938105e-09 4.53140899591734e-09 1.78273932522517e-10 1.30293279018051e-10
"2447" 35169 1.17756834990855e-10 2.62384603539166e-10 1.53722101610344e-09 4.79926598849384e-09 5.46340915851913e-09 4.52167933250158e-09 1.79290135108736e-10 1.30613105813856e-10
"2448" 35170 1.17959142925132e-10 2.64790153629411e-10 1.54201552047842e-09 4.81036604980447e-09 5.44778347765722e-09 4.51194966908582e-09 1.80306337694956e-10 1.30932932609661e-10
"2449" 35171 1.17810920333667e-10 2.64790153629411e-10 1.538564412295e-09 4.8107879244169e-09 5.43289377756681e-09 4.51933280627257e-09 1.81322540281175e-10 1.32071339318478e-10
"2450" 35172 1.17662697742203e-10 2.64790153629411e-10 1.53511330411158e-09 4.81120979902933e-09 5.41800407747641e-09 4.52671594345932e-09 1.82338742867395e-10 1.33209746027296e-10
"2451" 35173 1.17662697742203e-10 2.65680219155282e-10 1.54106596926908e-09 4.81440668896942e-09 5.40240269442309e-09 4.51972544455798e-09 1.82338742867395e-10 1.34066351787306e-10
"2452" 35174 1.17662697742203e-10 2.66570284681154e-10 1.54701863442658e-09 4.81760357890951e-09 5.38680131136978e-09 4.51273494565663e-09 1.82338742867395e-10 1.34922957547317e-10
"2453" 35175 1.17662697742203e-10 2.67460350207025e-10 1.55297129958408e-09 4.8208004688496e-09 5.37119992831647e-09 4.50574444675528e-09 1.82338742867395e-10 1.35779563307328e-10
"2454" 35176 1.17662697742203e-10 2.68350415732897e-10 1.55892396474158e-09 4.82399735878969e-09 5.35559854526315e-09 4.49875394785393e-09 1.82338742867395e-10 1.36636169067339e-10
"2455" 35177 1.17662697742203e-10 2.69240481258768e-10 1.56487662989908e-09 4.82719424872978e-09 5.33999716220984e-09 4.49176344895259e-09 1.82338742867395e-10 1.3749277482735e-10
"2456" 35178 1.17662697742203e-10 2.70130546784639e-10 1.57082929505658e-09 4.83039113866987e-09 5.32439577915652e-09 4.48477295005124e-09 1.82338742867395e-10 1.3834938058736e-10
"2457" 35179 1.17662697742203e-10 2.71020612310511e-10 1.57678196021408e-09 4.83358802860996e-09 5.30879439610321e-09 4.47778245114989e-09 1.82338742867395e-10 1.39205986347371e-10
"2458" 35180 1.17662697742203e-10 2.71910677836382e-10 1.58273462537159e-09 4.83678491855005e-09 5.2931930130499e-09 4.47079195224854e-09 1.82338742867395e-10 1.40062592107382e-10
"2459" 35181 1.17662697742203e-10 2.72800743362254e-10 1.58868729052909e-09 4.83998180849014e-09 5.27759162999658e-09 4.4638014533472e-09 1.82338742867395e-10 1.40919197867393e-10
"2460" 35182 1.17662697742203e-10 2.73690808888125e-10 1.59463995568659e-09 4.84317869843022e-09 5.26199024694327e-09 4.45681095444585e-09 1.82338742867395e-10 1.41775803627404e-10
"2461" 35183 1.17662697742203e-10 2.74580874413996e-10 1.60059262084409e-09 4.84637558837031e-09 5.24638886388995e-09 4.4498204555445e-09 1.82338742867395e-10 1.42632409387414e-10
"2462" 35184 1.17015722033531e-10 2.71695796419297e-10 1.5972542121837e-09 4.84423995103068e-09 5.23434589565118e-09 4.4498204555445e-09 1.81359932984786e-10 1.43310088826023e-10
"2463" 35185 1.17163944624996e-10 2.72585861945168e-10 1.60562031565318e-09 4.84587683525311e-09 5.20954827621073e-09 4.45296021360477e-09 1.8110120825028e-10 1.43987768264632e-10
"2464" 35186 1.1731216721646e-10 2.7347592747104e-10 1.61398641912267e-09 4.84751371947554e-09 5.18475065677028e-09 4.45609997166504e-09 1.80842483515774e-10 1.44665447703241e-10
"2465" 35187 1.17460389807925e-10 2.74365992996911e-10 1.62235252259215e-09 4.84915060369797e-09 5.15995303732983e-09 4.45923972972531e-09 1.80583758781267e-10 1.4534312714185e-10
"2466" 35188 1.1760861239939e-10 2.75256058522783e-10 1.63071862606164e-09 4.8507874879204e-09 5.13515541788938e-09 4.46237948778558e-09 1.80325034046761e-10 1.46020806580459e-10
"2467" 35189 1.17756834990855e-10 2.76146124048654e-10 1.63908472953112e-09 4.85242437214283e-09 5.11035779844892e-09 4.46551924584585e-09 1.80066309312255e-10 1.46698486019068e-10
"2468" 35190 1.1790505758232e-10 2.77036189574525e-10 1.64745083300061e-09 4.85406125636527e-09 5.08556017900847e-09 4.46865900390612e-09 1.79807584577749e-10 1.47376165457677e-10
"2469" 35191 1.18053280173785e-10 2.77926255100397e-10 1.65581693647009e-09 4.8556981405877e-09 5.06076255956802e-09 4.47179876196639e-09 1.79548859843243e-10 1.48053844896285e-10
"2470" 35192 1.18201502765249e-10 2.78816320626268e-10 1.66418303993957e-09 4.85733502481013e-09 5.03596494012757e-09 4.47493852002666e-09 1.79290135108736e-10 1.48731524334894e-10
"2471" 35193 1.18349725356714e-10 2.7970638615214e-10 1.67254914340906e-09 4.85897190903256e-09 5.01116732068712e-09 4.47807827808693e-09 1.7903141037423e-10 1.49409203773503e-10
"2472" 35194 1.18497947948179e-10 2.80596451678011e-10 1.68091524687854e-09 4.86060879325499e-09 4.98636970124667e-09 4.48121803614719e-09 1.78772685639724e-10 1.50086883212112e-10
"2473" 35195 1.18646170539644e-10 2.81486517203882e-10 1.68928135034803e-09 4.86224567747742e-09 4.96157208180621e-09 4.48435779420746e-09 1.78513960905218e-10 1.50764562650721e-10
"2474" 35196 1.18794393131109e-10 2.82376582729754e-10 1.69764745381751e-09 4.86388256169986e-09 4.93677446236576e-09 4.48749755226773e-09 1.78255236170711e-10 1.5144224208933e-10
"2475" 35197 1.18942615722573e-10 2.82161701312669e-10 1.69880561460003e-09 4.86743757988634e-09 4.8048363635285e-09 4.48749755226773e-09 1.78015207788011e-10 1.52298847849341e-10
"2476" 35198 1.19090838314038e-10 2.81946819895584e-10 1.69996377538255e-09 4.87099259807283e-09 4.67289826469125e-09 4.48749755226773e-09 1.7777517940531e-10 1.53155453609352e-10
"2477" 35199 1.19239060905503e-10 2.81731938478498e-10 1.70112193616506e-09 4.87454761625931e-09 4.54096016585399e-09 4.48749755226773e-09 1.77535151022609e-10 1.54012059369362e-10
"2478" 35200 1.19239060905503e-10 2.80822647739874e-10 1.70426731802837e-09 4.87468824113012e-09 4.42906938293941e-09 4.48435779420746e-09 1.77553847374415e-10 1.54331886165167e-10
"2479" 35201 1.19239060905503e-10 2.7991335700125e-10 1.70741269989167e-09 4.87482886600093e-09 4.31717860002484e-09 4.48121803614719e-09 1.7757254372622e-10 1.54651712960972e-10
"2480" 35202 1.2003425920564e-10 2.79111506971168e-10 1.71574643111217e-09 4.87925389768976e-09 4.19115264516826e-09 4.4796726970099e-09 1.77332515343519e-10 1.54830639282374e-10
"2481" 35203 1.20829457505776e-10 2.78309656941086e-10 1.72408016233267e-09 4.88367892937859e-09 4.06512669031168e-09 4.4781273578726e-09 1.77092486960819e-10 1.55009565603776e-10
"2482" 35204 1.21624655805913e-10 2.77507806911004e-10 1.73241389355317e-09 4.88810396106741e-09 3.9391007354551e-09 4.4765820187353e-09 1.76852458578118e-10 1.55188491925178e-10
"2483" 35205 1.22271631514585e-10 2.77507806911004e-10 1.748800210535e-09 4.88107080319922e-09 3.94123578434383e-09 4.47822551744395e-09 1.76852458578118e-10 1.54229011537763e-10
"2484" 35206 1.22918607223257e-10 2.77507806911004e-10 1.76518652751682e-09 4.87403764533102e-09 3.94337083323256e-09 4.4798690161526e-09 1.76852458578118e-10 1.53269531150348e-10
"2485" 35207 1.23565582931928e-10 2.77507806911004e-10 1.78157284449864e-09 4.86700448746283e-09 3.94550588212128e-09 4.48151251486125e-09 1.76852458578118e-10 1.52310050762933e-10
"2486" 35208 1.242125586406e-10 2.77507806911004e-10 1.79795916148046e-09 4.85997132959463e-09 3.94764093101001e-09 4.4831560135699e-09 1.76852458578118e-10 1.51350570375517e-10
"2487" 35209 1.24859534349272e-10 2.77507806911004e-10 1.81434547846228e-09 4.85293817172643e-09 3.94977597989873e-09 4.48479951227855e-09 1.76852458578118e-10 1.50391089988102e-10
"2488" 35210 1.25506510057944e-10 2.77507806911004e-10 1.8307317954441e-09 4.84590501385824e-09 3.95191102878746e-09 4.48644301098719e-09 1.76852458578118e-10 1.49431609600687e-10
"2489" 35211 1.26153485766616e-10 2.77507806911004e-10 1.84711811242593e-09 4.83887185599004e-09 3.95404607767618e-09 4.48808650969584e-09 1.76852458578118e-10 1.48472129213272e-10
"2490" 35212 1.26800461475287e-10 2.77507806911004e-10 1.86350442940775e-09 4.83183869812185e-09 3.95618112656491e-09 4.48973000840449e-09 1.76852458578118e-10 1.47512648825856e-10
"2491" 35213 1.27447437183959e-10 2.77507806911004e-10 1.87989074638957e-09 4.82480554025365e-09 3.95831617545363e-09 4.49137350711314e-09 1.76852458578118e-10 1.46553168438441e-10
"2492" 35214 1.28094412892631e-10 2.77507806911004e-10 1.89627706337139e-09 4.81777238238546e-09 3.96045122434236e-09 4.49301700582179e-09 1.76852458578118e-10 1.45593688051026e-10
"2493" 35215 1.28296720826908e-10 2.77507806911004e-10 1.89953514475773e-09 4.80823232679249e-09 3.96871709748917e-09 4.53776550227384e-09 1.79124892133257e-10 1.44775108138014e-10
"2494" 35216 1.28499028761186e-10 2.77507806911004e-10 1.90279322614407e-09 4.79869227119952e-09 3.97698297063599e-09 4.58251399872589e-09 1.81397325688397e-10 1.43956528225002e-10
"2495" 35217 1.28499028761186e-10 2.78094775524001e-10 1.90498126540998e-09 4.78737470651331e-09 3.9850787591226e-09 4.60451617092912e-09 1.81637354071098e-10 1.42818121516185e-10
"2496" 35218 1.28499028761186e-10 2.78681744136998e-10 1.90716930467589e-09 4.77605714182709e-09 3.99317454760921e-09 4.62651834313235e-09 1.81877382453799e-10 1.41679714807368e-10
"2497" 35219 1.28499028761186e-10 2.79268712749994e-10 1.90935734394181e-09 4.76473957714088e-09 4.00127033609582e-09 4.64852051533559e-09 1.82117410836499e-10 1.4054130809855e-10
"2498" 35220 1.28499028761186e-10 2.79268712749994e-10 1.91189127316487e-09 4.76473957714088e-09 3.97764030754999e-09 4.66733384969287e-09 1.82098714484694e-10 1.40221481302745e-10
"2499" 35221 1.27852053052514e-10 2.79963122071533e-10 1.91323466935643e-09 4.75655515602872e-09 3.98347955810486e-09 4.68410309179566e-09 1.82338742867395e-10 1.40221481302745e-10
"2500" 35222 1.27205077343842e-10 2.80657531393073e-10 1.91457806554799e-09 4.74837073491656e-09 3.98931880865974e-09 4.70087233389844e-09 1.82578771250095e-10 1.40221481302745e-10
"2501" 35223 1.2655810163517e-10 2.81351940714612e-10 1.91592146173955e-09 4.74018631380441e-09 3.99515805921461e-09 4.71764157600122e-09 1.82818799632796e-10 1.40221481302745e-10
"2502" 35224 1.25911125926499e-10 2.82046350036151e-10 1.91726485793111e-09 4.73200189269225e-09 4.00099730976949e-09 4.73441081810401e-09 1.83058828015497e-10 1.40221481302745e-10
"2503" 35225 1.25264150217827e-10 2.8274075935769e-10 1.91860825412267e-09 4.72381747158009e-09 4.00683656032437e-09 4.75118006020679e-09 1.83298856398198e-10 1.40221481302745e-10
"2504" 35226 1.24617174509155e-10 2.83435168679229e-10 1.91995165031423e-09 4.71563305046793e-09 4.01267581087924e-09 4.76794930230958e-09 1.83538884780898e-10 1.40221481302745e-10
"2505" 35227 1.23970198800483e-10 2.84129578000769e-10 1.92129504650579e-09 4.70744862935577e-09 4.01851506143412e-09 4.78471854441236e-09 1.83778913163599e-10 1.40221481302745e-10
"2506" 35228 1.23323223091811e-10 2.84823987322308e-10 1.92263844269735e-09 4.69926420824361e-09 4.02435431198899e-09 4.80148778651514e-09 1.840189415463e-10 1.40221481302745e-10
"2507" 35229 1.22676247383139e-10 2.85518396643847e-10 1.92398183888891e-09 4.69107978713145e-09 4.03019356254387e-09 4.81825702861793e-09 1.84258969929001e-10 1.40221481302745e-10
"2508" 35230 1.21881049083003e-10 2.8772829052976e-10 1.92854315282979e-09 4.7199699858409e-09 4.05393932970099e-09 4.87213827579718e-09 1.88286387570267e-10 1.40221481302745e-10
"2509" 35231 1.21085850782866e-10 2.89938184415673e-10 1.93310446677066e-09 4.74886018455034e-09 4.07768509685812e-09 4.92601952297643e-09 1.92313805211534e-10 1.40221481302745e-10
"2510" 35232 1.20438875074194e-10 2.89938184415673e-10 1.93444786296222e-09 4.74053513856737e-09 4.07359788068606e-09 4.92601952297643e-09 1.94530149711258e-10 1.40400407624147e-10
"2511" 35233 1.19791899365523e-10 2.89938184415673e-10 1.93579125915378e-09 4.7322100925844e-09 4.06951066451400e-09 4.92601952297643e-09 1.96746494210981e-10 1.40579333945549e-10
"2512" 35234 1.19144923656851e-10 2.89938184415673e-10 1.93713465534534e-09 4.72388504660143e-09 4.06542344834193e-09 4.92601952297643e-09 1.98962838710704e-10 1.40758260266951e-10
"2513" 35235 1.18497947948179e-10 2.89938184415673e-10 1.9384780515369e-09 4.71556000061846e-09 4.06133623216987e-09 4.92601952297643e-09 2.01179183210427e-10 1.40937186588353e-10
"2514" 35236 1.17850972239507e-10 2.89938184415673e-10 1.93982144772846e-09 4.70723495463550e-09 4.05724901599781e-09 4.92601952297643e-09 2.0339552771015e-10 1.41116112909755e-10
"2515" 35237 1.17203996530835e-10 2.89938184415673e-10 1.94116484392002e-09 4.69890990865253e-09 4.05316179982575e-09 4.92601952297643e-09 2.05611872209874e-10 1.41295039231157e-10
"2516" 35238 1.16557020822164e-10 2.89938184415673e-10 1.94250824011158e-09 4.69058486266956e-09 4.04907458365369e-09 4.92601952297643e-09 2.07828216709597e-10 1.41473965552559e-10
"2517" 35239 1.15910045113492e-10 2.89938184415673e-10 1.94385163630314e-09 4.68225981668659e-09 4.04498736748163e-09 4.92601952297643e-09 2.1004456120932e-10 1.41652891873961e-10
"2518" 35240 1.1526306940482e-10 2.89938184415673e-10 1.9451950324947e-09 4.67393477070362e-09 4.04090015130957e-09 4.92601952297643e-09 2.12260905709043e-10 1.41831818195363e-10
"2519" 35241 1.14616093696148e-10 2.89938184415673e-10 1.94653842868626e-09 4.66560972472065e-09 4.0368129351375e-09 4.92601952297643e-09 2.14477250208767e-10 1.42010744516764e-10
"2520" 35242 1.13969117987476e-10 2.89938184415673e-10 1.94907235790932e-09 4.66303908062984e-09 4.03011621476811e-09 4.92985435329661e-09 2.16434869973984e-10 1.42189670838166e-10
"2521" 35243 1.14117340578941e-10 2.89830743707131e-10 1.95080180769506e-09 4.65861404894101e-09 4.02602899859605e-09 4.9344903707085e-09 2.18651214473707e-10 1.42189670838166e-10
"2522" 35244 1.14265563170406e-10 2.89723302998588e-10 1.95253125748079e-09 4.65418901725218e-09 4.02194178242399e-09 4.93912638812039e-09 2.2086755897343e-10 1.42189670838166e-10
"2523" 35245 1.14413785761871e-10 2.89615862290045e-10 1.95426070726652e-09 4.64976398556336e-09 4.01785456625193e-09 4.94376240553228e-09 2.23083903473153e-10 1.42189670838166e-10
"2524" 35246 1.14562008353336e-10 2.89508421581503e-10 1.95599015705226e-09 4.64533895387453e-09 4.01376735007987e-09 4.94839842294417e-09 2.25300247972877e-10 1.42189670838166e-10
"2525" 35247 1.147102309448e-10 2.8940098087296e-10 1.95771960683799e-09 4.6409139221857e-09 4.00968013390781e-09 4.95303444035606e-09 2.275165924726e-10 1.42189670838166e-10
"2526" 35248 1.14858453536265e-10 2.89293540164418e-10 1.95944905662372e-09 4.63648889049688e-09 4.00559291773574e-09 4.95767045776795e-09 2.29732936972323e-10 1.42189670838166e-10
"2527" 35249 1.1500667612773e-10 2.89186099455875e-10 1.96117850640946e-09 4.63206385880805e-09 4.00150570156368e-09 4.96230647517984e-09 2.31949281472046e-10 1.42189670838166e-10
"2528" 35250 1.15154898719195e-10 2.89078658747333e-10 1.96290795619519e-09 4.62763882711923e-09 3.99741848539162e-09 4.96694249259173e-09 2.3416562597177e-10 1.42189670838166e-10
"2529" 35251 1.1530312131066e-10 2.8897121803879e-10 1.96463740598092e-09 4.6232137954304e-09 3.99333126921956e-09 4.97157851000362e-09 2.36381970471493e-10 1.42189670838166e-10
"2530" 35252 1.16098319610796e-10 2.88668121125915e-10 1.96502345957509e-09 4.62135940783238e-09 4.19640947829379e-09 4.97417043516101e-09 2.36621998854194e-10 1.42010744516764e-10
"2531" 35253 1.16246542202261e-10 2.88668121125915e-10 1.96859505866959e-09 4.62262503166968e-09 4.44586468075479e-09 5.02667879656432e-09 2.40574631088239e-10 1.42688423955373e-10
"2532" 35254 1.16246542202261e-10 2.88668121125915e-10 1.9721666577641e-09 4.61855812822725e-09 4.44054273069402e-09 5.03626122062306e-09 2.42847064643378e-10 1.42829324429777e-10
"2533" 35255 1.16246542202261e-10 2.8897121803879e-10 1.97638987313586e-09 4.60928619023716e-09 4.41669977230249e-09 5.04639147758467e-09 2.44860773464012e-10 1.43149151225582e-10
"2534" 35256 1.16246542202261e-10 2.89274314951665e-10 1.98061308850763e-09 4.60001425224708e-09 4.39285681391096e-09 5.05652173454629e-09 2.46874482284645e-10 1.43468978021387e-10
"2535" 35257 1.16246542202261e-10 2.8957741186454e-10 1.9848363038794e-09 4.59074231425699e-09 4.36901385551943e-09 5.0666519915079e-09 2.48888191105278e-10 1.43788804817192e-10
"2536" 35258 1.16246542202261e-10 2.89880508777414e-10 1.98905951925117e-09 4.58147037626691e-09 4.3451708971279e-09 5.07678224846952e-09 2.50901899925912e-10 1.44108631612997e-10
"2537" 35259 1.16246542202261e-10 2.90183605690289e-10 1.99328273462294e-09 4.57219843827682e-09 4.32132793873637e-09 5.08691250543114e-09 2.52915608746545e-10 1.44428458408802e-10
"2538" 35260 1.16246542202261e-10 2.90486702603164e-10 1.9975059499947e-09 4.56292650028674e-09 4.29748498034484e-09 5.09704276239275e-09 2.54929317567179e-10 1.44748285204607e-10
"2539" 35261 1.16246542202261e-10 2.90789799516039e-10 2.00172916536647e-09 4.55365456229665e-09 4.27364202195331e-09 5.10717301935437e-09 2.56943026387812e-10 1.45068112000412e-10
"2540" 35262 1.16246542202261e-10 2.91092896428913e-10 2.00595238073824e-09 4.54438262430656e-09 4.24979906356178e-09 5.11730327631599e-09 2.58956735208445e-10 1.45387938796217e-10
"2541" 35263 1.16246542202261e-10 2.91395993341788e-10 2.01017559611001e-09 4.53511068631648e-09 4.22595610517025e-09 5.1274335332776e-09 2.60970444029079e-10 1.45707765592022e-10
"2542" 35264 1.16098319610796e-10 2.89615862290045e-10 2.01201774541878e-09 4.46524776781894e-09 4.15465295678654e-09 5.09807208966897e-09 2.63242877584218e-10 1.45848666066425e-10
"2543" 35265 1.15747789085054e-10 2.85714052848179e-10 2.0144389751188e-09 4.39168729193645e-09 4.13956887422732e-09 5.10685332663599e-09 2.65515311139358e-10 1.4616849286223e-10
"2544" 35266 1.15397258559312e-10 2.81812243406313e-10 2.01686020481883e-09 4.31812681605396e-09 4.12448479166811e-09 5.11563456360301e-09 2.67787744694497e-10 1.46488319658036e-10
"2545" 35267 1.1504672803357e-10 2.77910433964447e-10 2.01928143451885e-09 4.24456634017148e-09 4.10940070910889e-09 5.12441580057003e-09 2.70060178249637e-10 1.46808146453841e-10
"2546" 35268 1.14696197507828e-10 2.7400862452258e-10 2.02170266421888e-09 4.17100586428899e-09 4.09431662654967e-09 5.13319703753706e-09 2.72332611804777e-10 1.47127973249646e-10
"2547" 35269 1.14345666982086e-10 2.70106815080714e-10 2.02412389391891e-09 4.0974453884065e-09 4.07923254399046e-09 5.14197827450408e-09 2.74605045359916e-10 1.47447800045451e-10
"2548" 35270 1.13995136456343e-10 2.66205005638848e-10 2.02654512361893e-09 4.02388491252401e-09 4.06414846143124e-09 5.1507595114711e-09 2.76877478915056e-10 1.47767626841256e-10
"2549" 35271 1.13644605930601e-10 2.62303196196982e-10 2.02896635331896e-09 3.95032443664152e-09 4.04906437887203e-09 5.15954074843812e-09 2.79149912470195e-10 1.48087453637061e-10
"2550" 35272 1.13294075404859e-10 2.58401386755116e-10 2.03138758301899e-09 3.87676396075903e-09 4.03398029631281e-09 5.16832198540515e-09 2.81422346025335e-10 1.48407280432866e-10
"2551" 35273 1.12943544879117e-10 2.54499577313249e-10 2.03380881271901e-09 3.80320348487655e-09 4.01889621375359e-09 5.17710322237217e-09 2.83694779580475e-10 1.48727107228671e-10
"2552" 35274 1.13388212653511e-10 2.5118473648438e-10 2.03545793523069e-09 3.72928488074766e-09 4.0051197585089e-09 5.1757051225919e-09 2.8764741181452e-10 1.48906033550073e-10
"2553" 35275 1.13832880427906e-10 2.4786989565551e-10 2.03710705774238e-09 3.65536627661878e-09 3.9913433032642e-09 5.17430702281163e-09 2.91600044048565e-10 1.49084959871475e-10
"2554" 35276 1.13832880427906e-10 2.44769936243726e-10 2.03875618025406e-09 3.58713832801602e-09 3.97932463283403e-09 5.19130575332189e-09 2.93816388548288e-10 1.49263886192877e-10
"2555" 35277 1.13832880427906e-10 2.41669976831941e-10 2.04040530276574e-09 3.51891037941326e-09 3.96730596240386e-09 5.20830448383216e-09 2.96032733048011e-10 1.49442812514279e-10
"2556" 35278 1.13832880427906e-10 2.38570017420157e-10 2.04205442527742e-09 3.4506824308105e-09 3.95528729197369e-09 5.22530321434242e-09 2.98249077547734e-10 1.49621738835681e-10
"2557" 35279 1.14183410953648e-10 2.39479308158781e-10 2.04128231808907e-09 3.44128300008834e-09 3.95042124984463e-09 5.24365096484728e-09 3.00225393664757e-10 1.48944059397072e-10
"2558" 35280 1.13334127310699e-10 2.40281158188863e-10 2.0423523602095e-09 3.41799536058916e-09 3.95348666197367e-09 5.26199871535214e-09 3.02183013429974e-10 1.47984579009656e-10
"2559" 35281 1.1248484366775e-10 2.41083008218945e-10 2.04342240232992e-09 3.39470772108998e-09 3.95655207410272e-09 5.28034646585699e-09 3.04140633195191e-10 1.47025098622241e-10
"2560" 35282 1.11635560024801e-10 2.41884858249026e-10 2.04449244445034e-09 3.3714200815908e-09 3.95961748623177e-09 5.29869421636185e-09 3.06098252960408e-10 1.46065618234826e-10
"2561" 35283 1.10786276381852e-10 2.42686708279108e-10 2.04556248657076e-09 3.34813244209162e-09 3.96268289836081e-09 5.31704196686671e-09 3.08055872725625e-10 1.45106137847411e-10
"2562" 35284 1.09936992738902e-10 2.4348855830919e-10 2.04663252869119e-09 3.32484480259244e-09 3.96574831048986e-09 5.33538971737157e-09 3.10013492490842e-10 1.44146657459996e-10
"2563" 35285 1.09087709095953e-10 2.44290408339272e-10 2.04770257081161e-09 3.30155716309326e-09 3.9688137226189e-09 5.35373746787642e-09 3.11971112256059e-10 1.4318717707258e-10
"2564" 35286 1.08238425453004e-10 2.45092258369353e-10 2.04877261293203e-09 3.27826952359408e-09 3.97187913474795e-09 5.37208521838128e-09 3.13928732021276e-10 1.42227696685165e-10
"2565" 35287 1.07038611284313e-10 2.44984817660811e-10 2.05295566466677e-09 3.24943185343959e-09 3.974944546877e-09 5.37981191406776e-09 3.14648817169378e-10 1.4126821629775e-10
"2566" 35288 1.05838797115622e-10 2.44877376952268e-10 2.05713871640152e-09 3.2205941832851e-09 3.97800995900604e-09 5.38753860975425e-09 3.15368902317481e-10 1.40308735910335e-10
"2567" 35289 1.0463898294693e-10 2.44769936243726e-10 2.06132176813626e-09 3.19175651313061e-09 3.98107537113509e-09 5.39526530544073e-09 3.16088987465583e-10 1.39349255522919e-10
"2568" 35290 1.03439168778239e-10 2.44662495535183e-10 2.065504819871e-09 3.16291884297612e-09 3.98414078326413e-09 5.40299200112721e-09 3.16809072613685e-10 1.38389775135504e-10
"2569" 35291 1.02239354609548e-10 2.44555054826641e-10 2.06968787160574e-09 3.13408117282162e-09 3.98720619539318e-09 5.4107186968137e-09 3.17529157761787e-10 1.37430294748089e-10
"2570" 35292 1.01039540440856e-10 2.44447614118098e-10 2.07387092334048e-09 3.10524350266713e-09 3.99027160752223e-09 5.41844539250018e-09 3.1824924290989e-10 1.36470814360674e-10
"2571" 35293 9.9839726272165e-11 2.44340173409555e-10 2.07805397507523e-09 3.07640583251264e-09 3.99333701965127e-09 5.42617208818667e-09 3.18969328057992e-10 1.35511333973259e-10
