"time" "channel1" "channel2" "channel3" "channel4" "channel5" "channel6" "channel7" "channel8"
"1880" 29948 1.2131812739424e-10 3.95188366311984e-10 5.08842033405604e-09 2.12238876522333e-09 7.1031083337223e-10 4.03554266683408e-10 1.32525586361747e-10 8.74118115072984e-11
"1881" 29949 1.21258116689475e-10 3.93957880118577e-10 5.08842033405604e-09 2.10558947400211e-09 7.09169270286702e-10 4.02761262351882e-10 1.32525586361747e-10 8.7243110184556e-11
"1882" 29950 1.21258116689475e-10 3.9382499353947e-10 5.05325571819182e-09 2.10522651097934e-09 6.96150039714489e-10 3.94397211950822e-10 1.31928590560608e-10 8.7243110184556e-11
"1883" 29951 1.21258116689475e-10 3.93692106960363e-10 5.01809110232761e-09 2.10486354795658e-09 6.83130809142276e-10 3.86033161549761e-10 1.31331594759469e-10 8.7243110184556e-11
"1884" 29952 1.21258116689475e-10 3.93559220381256e-10 4.9829264864634e-09 2.10450058493381e-09 6.70111578570063e-10 3.77669111148701e-10 1.3073459895833e-10 8.7243110184556e-11
"1885" 29953 1.21258116689475e-10 3.93426333802149e-10 4.94776187059918e-09 2.10413762191105e-09 6.5709234799785e-10 3.6930506074764e-10 1.30137603157191e-10 8.7243110184556e-11
"1886" 29954 1.21258116689475e-10 3.93293447223042e-10 4.91259725473497e-09 2.10377465888829e-09 6.44073117425637e-10 3.6094101034658e-10 1.29540607356052e-10 8.7243110184556e-11
"1887" 29955 1.21258116689475e-10 3.94391046837342e-10 4.8870080264275e-09 2.0998978993757e-09 6.31670872059329e-10 3.5257695994552e-10 1.2884536887098e-10 8.75731619790205e-11
"1888" 29956 1.2131812739424e-10 3.95488646451642e-10 4.85184341056329e-09 2.09953493635293e-09 6.20384365016133e-10 3.44360035151618e-10 1.29449904369666e-10 8.75731619790205e-11
"1889" 29957 1.21756869806682e-10 3.96120286147956e-10 4.81488361962394e-09 2.09565817684034e-09 6.07627423383731e-10 3.36143110357717e-10 1.29155176317869e-10 8.75731619790205e-11
"1890" 29958 1.22195612219123e-10 3.9675192584427e-10 4.7779238286846e-09 2.09178141732775e-09 5.9487048175133e-10 3.27926185563816e-10 1.28860448266073e-10 8.75731619790205e-11
"1891" 29959 1.22634354631565e-10 3.97383565540584e-10 4.74096403774526e-09 2.08790465781516e-09 5.82113540118928e-10 3.19709260769915e-10 1.28565720214276e-10 8.75731619790205e-11
"1892" 29960 1.23073097044007e-10 3.98015205236898e-10 4.70400424680592e-09 2.08402789830258e-09 5.69356598486526e-10 3.11492335976014e-10 1.2827099216248e-10 8.75731619790205e-11
"1893" 29961 1.23511839456448e-10 3.98646844933212e-10 4.66704445586658e-09 2.08015113878999e-09 5.56599656854125e-10 3.03275411182113e-10 1.27976264110683e-10 8.75731619790205e-11
"1894" 29962 1.2395058186889e-10 3.99411371208633e-10 4.6588158697997e-09 2.08024187954568e-09 5.56861945793936e-10 3.02629532457746e-10 1.28278531860026e-10 8.75731619790205e-11
"1895" 29963 1.24389324281332e-10 4.00175897484054e-10 4.65058728373283e-09 2.08033262030137e-09 5.57124234733747e-10 3.0198365373338e-10 1.28580799609369e-10 8.75731619790205e-11
"1896" 29964 1.24828066693773e-10 4.00940423759475e-10 4.64235869766595e-09 2.08042336105706e-09 5.57386523673559e-10 3.01337775009014e-10 1.28883067358712e-10 8.75731619790205e-11
"1897" 29965 1.25266809106215e-10 4.01704950034896e-10 4.63413011159908e-09 2.08051410181275e-09 5.5764881261337e-10 3.00691896284648e-10 1.29185335108054e-10 8.75731619790205e-11
"1898" 29966 1.25705551518657e-10 4.02469476310317e-10 4.6259015255322e-09 2.08060484256844e-09 5.57911101553181e-10 3.00046017560281e-10 1.29487602857397e-10 8.75731619790205e-11
"1899" 29967 1.26144293931098e-10 4.03234002585738e-10 4.61767293946533e-09 2.08069558332413e-09 5.58173390492993e-10 2.99400138835915e-10 1.2978987060674e-10 8.75731619790205e-11
"1900" 29968 1.2658303634354e-10 4.03998528861159e-10 4.60944435339845e-09 2.08078632407982e-09 5.58435679432804e-10 2.98754260111549e-10 1.30092138356082e-10 8.75731619790205e-11
"1901" 29969 1.27021778755982e-10 4.0476305513658e-10 4.60121576733158e-09 2.08087706483552e-09 5.58697968372615e-10 2.98108381387182e-10 1.30394406105425e-10 8.75731619790205e-11
"1902" 29970 1.27460521168423e-10 4.05527581412001e-10 4.5929871812647e-09 2.08096780559121e-09 5.58960257312427e-10 2.97462502662816e-10 1.30696673854768e-10 8.75731619790205e-11
"1903" 29971 1.26523025638775e-10 4.05527581412001e-10 4.55842543904975e-09 2.07745400910138e-09 5.58080983166711e-10 2.97462502662816e-10 1.3099894160411e-10 8.74044606562781e-11
"1904" 29972 1.25585530109126e-10 4.05527581412001e-10 4.52386369683479e-09 2.07394021261156e-09 5.57201709020994e-10 2.97462502662816e-10 1.31301209353453e-10 8.72357593335356e-11
"1905" 29973 1.24648034579477e-10 4.05527581412001e-10 4.48930195461984e-09 2.07042641612173e-09 5.56322434875278e-10 2.97462502662816e-10 1.31603477102796e-10 8.70670580107932e-11
"1906" 29974 1.23710539049829e-10 4.05527581412001e-10 4.45474021240488e-09 2.06691261963191e-09 5.55443160729562e-10 2.97462502662816e-10 1.31905744852138e-10 8.68983566880507e-11
"1907" 29975 1.2277304352018e-10 4.05527581412001e-10 4.42017847018993e-09 2.06339882314208e-09 5.54563886583846e-10 2.97462502662816e-10 1.32208012601481e-10 8.67296553653083e-11
"1908" 29976 1.21835547990531e-10 4.05527581412001e-10 4.38561672797497e-09 2.05988502665226e-09 5.5368461243813e-10 2.97462502662816e-10 1.32510280350824e-10 8.65609540425659e-11
"1909" 29977 1.20519320753206e-10 4.13041671369327e-10 4.35285016083514e-09 2.05818476111988e-09 5.55062639701053e-10 2.97667004565705e-10 1.32510280350824e-10 8.6722304514288e-11
"1910" 29978 1.19203093515881e-10 4.20555761326653e-10 4.32008359369532e-09 2.0564844955875e-09 5.56440666963976e-10 2.97871506468593e-10 1.32510280350824e-10 8.68836549860100e-11
"1911" 29979 1.17826855573791e-10 4.19924121630339e-10 4.28537239361861e-09 2.05358271763995e-09 5.55916089084353e-10 2.97871506468593e-10 1.34203025070309e-10 8.75511094259595e-11
"1912" 29980 1.16450617631701e-10 4.19292481934025e-10 4.2506611935419e-09 2.0506809396924e-09 5.55391511204731e-10 2.97871506468593e-10 1.35895769789794e-10 8.82185638659089e-11
"1913" 29981 1.1507437968961e-10 4.18660842237711e-10 4.21594999346519e-09 2.04777916174485e-09 5.54866933325108e-10 2.97871506468593e-10 1.37588514509279e-10 8.88860183058583e-11
"1914" 29982 1.1369814174752e-10 4.18029202541397e-10 4.18123879338848e-09 2.0448773837973e-09 5.54342355445485e-10 2.97871506468593e-10 1.39281259228765e-10 8.95534727458077e-11
"1915" 29983 1.1232190380543e-10 4.17397562845083e-10 4.14652759331177e-09 2.04197560584975e-09 5.53817777565863e-10 2.97871506468593e-10 1.4097400394825e-10 9.02209271857572e-11
"1916" 29984 1.1094566586334e-10 4.16765923148769e-10 4.11181639323506e-09 2.0390738279022e-09 5.5329319968624e-10 2.97871506468593e-10 1.42666748667735e-10 9.08883816257066e-11
"1917" 29985 1.10506923450898e-10 4.15668323534469e-10 4.08054272397869e-09 2.03998059338092e-09 5.52768621806617e-10 2.9361960333232e-10 1.4435949338722e-10 9.17245373883985e-11
"1918" 29986 1.10068181038456e-10 4.14570723920169e-10 4.04926905472233e-09 2.04088735885964e-09 5.52244043926994e-10 2.89367700196046e-10 1.46052238106706e-10 9.25606931510903e-11
"1919" 29987 1.09629438626015e-10 4.14703610499276e-10 4.04891975946687e-09 2.04179412433837e-09 5.49513814163564e-10 2.89163198293158e-10 1.47442715076848e-10 9.33968489137822e-11
"1920" 29988 1.09190696213573e-10 4.14836497078383e-10 4.04857046421142e-09 2.04270088981709e-09 5.46783584400133e-10 2.88958696390269e-10 1.48833192046991e-10 9.42330046764741e-11
"1921" 29989 1.08751953801131e-10 4.1496938365749e-10 4.04822116895597e-09 2.04360765529581e-09 5.44053354636703e-10 2.88754194487381e-10 1.50223669017133e-10 9.50691604391659e-11
"1922" 29990 1.0831321138869e-10 4.15102270236597e-10 4.04787187370052e-09 2.04451442077453e-09 5.41323124873272e-10 2.88549692584493e-10 1.51614145987276e-10 9.59053162018578e-11
"1923" 29991 1.07874468976248e-10 4.15235156815704e-10 4.04752257844506e-09 2.04542118625326e-09 5.38592895109842e-10 2.88345190681604e-10 1.53004622957419e-10 9.67414719645497e-11
"1924" 29992 1.07435726563806e-10 4.24911652802409e-10 4.05290810367045e-09 2.04752946414715e-09 5.35245680140506e-10 2.87993563171556e-10 1.52702355208076e-10 9.69101732872921e-11
"1925" 29993 1.06996984151365e-10 4.34588148789113e-10 4.05829362889584e-09 2.04963774204105e-09 5.31898465171171e-10 2.87641935661509e-10 1.52400087458733e-10 9.70788746100346e-11
"1926" 29994 1.06996984151365e-10 4.39044133644755e-10 4.05794433364038e-09 2.05054450751977e-09 5.28813539141647e-10 2.8743743375862e-10 1.5209781970939e-10 9.70788746100346e-11
"1927" 29995 1.06996984151365e-10 4.43500118500396e-10 4.05759503838493e-09 2.05145127299849e-09 5.25728613112123e-10 2.87232931855732e-10 1.51795551960048e-10 9.70788746100346e-11
"1928" 29996 1.06996984151365e-10 4.47956103356038e-10 4.05724574312948e-09 2.05235803847721e-09 5.22643687082599e-10 2.87028429952843e-10 1.51493284210705e-10 9.70788746100346e-11
"1929" 29997 1.06996984151365e-10 4.5241208821168e-10 4.05689644787403e-09 2.05326480395594e-09 5.19558761053075e-10 2.86823928049955e-10 1.51191016461362e-10 9.70788746100346e-11
"1930" 29998 1.06996984151365e-10 4.56868073067322e-10 4.05654715261857e-09 2.05417156943466e-09 5.16473835023551e-10 2.86619426147067e-10 1.5088874871202e-10 9.70788746100346e-11
"1931" 29999 1.06996984151365e-10 4.61324057922963e-10 4.05619785736312e-09 2.05507833491338e-09 5.13388908994027e-10 2.86414924244178e-10 1.50586480962677e-10 9.70788746100346e-11
"1932" 30000 1.06996984151365e-10 4.65780042778605e-10 4.05584856210767e-09 2.05598510039211e-09 5.10303982964503e-10 2.8621042234129e-10 1.50284213213334e-10 9.70788746100346e-11
"1933" 30001 1.06996984151365e-10 4.70236027634247e-10 4.05549926685221e-09 2.05689186587083e-09 5.07219056934979e-10 2.86005920438401e-10 1.49981945463992e-10 9.70788746100346e-11
"1934" 30002 1.06996984151365e-10 4.74692012489888e-10 4.05514997159676e-09 2.05779863134955e-09 5.04134130905455e-10 2.85801418535513e-10 1.49679677714649e-10 9.70788746100346e-11
"1935" 30003 1.06996984151365e-10 4.7914799734553e-10 4.05480067634131e-09 2.05870539682827e-09 5.01049204875931e-10 2.85596916632625e-10 1.49377409965306e-10 9.70788746100346e-11
"1936" 30004 1.06996984151365e-10 4.83603982201172e-10 4.05445138108586e-09 2.059612162307e-09 4.97964278846407e-10 2.85392414729736e-10 1.49075142215964e-10 9.70788746100346e-11
"1937" 30005 1.06996984151365e-10 4.88059967056813e-10 4.0541020858304e-09 2.06051892778572e-09 4.94879352816883e-10 2.85187912826848e-10 1.48772874466621e-10 9.70788746100346e-11
"1938" 30006 1.07375715859041e-10 4.92383065333348e-10 4.04572404190177e-09 2.06113094632799e-09 4.94000078671167e-10 2.84133030296705e-10 1.48470606717278e-10 9.69101732872921e-11
"1939" 30007 1.07195683744745e-10 4.96074523913569e-10 4.04377940896489e-09 2.05965721164575e-09 4.91742777262528e-10 2.84280155903864e-10 1.48168338967936e-10 9.60740175246003e-11
"1940" 30008 1.07634426157187e-10 4.9793664980329e-10 4.03704540151556e-09 2.05455641504861e-09 4.88657851233004e-10 2.84427281511023e-10 1.48266581651868e-10 9.60740175246003e-11
"1941" 30009 1.08073168569628e-10 4.99798775693011e-10 4.03031139406622e-09 2.04945561845148e-09 4.8557292520348e-10 2.84574407118183e-10 1.483648243358e-10 9.60740175246003e-11
"1942" 30010 1.0851191098207e-10 5.01660901582731e-10 4.02357738661689e-09 2.04435482185434e-09 4.82487999173956e-10 2.84721532725342e-10 1.48463067019732e-10 9.60740175246003e-11
"1943" 30011 1.08950653394512e-10 5.03523027472452e-10 4.01684337916755e-09 2.0392540252572e-09 4.79403073144432e-10 2.84868658332501e-10 1.48561309703664e-10 9.60740175246003e-11
"1944" 30012 1.09389395806953e-10 5.05385153362173e-10 4.01010937171822e-09 2.03415322866007e-09 4.76318147114908e-10 2.8501578393966e-10 1.48659552387596e-10 9.60740175246003e-11
"1945" 30013 1.09389395806953e-10 5.07247279251894e-10 4.00776506399394e-09 2.02844041352066e-09 4.72970932145573e-10 2.85367411449708e-10 1.49354790872668e-10 9.72328742307363e-11
"1946" 30014 1.09449406511719e-10 5.10305384353578e-10 4.00676587702544e-09 2.02660435789383e-09 4.69623717176237e-10 2.86160415781234e-10 1.49755301305942e-10 9.74015755534788e-11
"1947" 30015 1.09449406511719e-10 5.08476051663079e-10 4.00576669005695e-09 2.02059679581797e-09 4.66276502206902e-10 2.86307541388393e-10 1.50155811739217e-10 9.74015755534788e-11
"1948" 30016 1.09449406511719e-10 5.06646718972579e-10 4.00476750308845e-09 2.01458923374211e-09 4.62929287237567e-10 2.86454666995552e-10 1.50556322172492e-10 9.74015755534788e-11
"1949" 30017 1.09449406511719e-10 5.04817386282079e-10 4.00376831611996e-09 2.00858167166626e-09 4.59582072268231e-10 2.86601792602712e-10 1.50956832605767e-10 9.74015755534788e-11
"1950" 30018 1.09449406511719e-10 5.02988053591579e-10 4.00276912915146e-09 2.0025741095904e-09 4.56234857298896e-10 2.86748918209871e-10 1.51357343039042e-10 9.74015755534788e-11
"1951" 30019 1.09010664099277e-10 5.02522093673594e-10 4.00850394963231e-09 2.0004658316965e-09 4.54502133769879e-10 2.86103039485505e-10 1.51757853472317e-10 9.74015755534788e-11
"1952" 30020 1.09010664099277e-10 4.99762554929344e-10 4.01344110127243e-09 1.97598187961461e-09 4.54620365858577e-10 2.86103039485505e-10 1.52158363905591e-10 9.74015755534788e-11
"1953" 30021 1.09010664099277e-10 4.97003016185095e-10 4.01837825291255e-09 1.95149792753271e-09 4.54738597947275e-10 2.86103039485505e-10 1.52558874338866e-10 9.74015755534788e-11
"1954" 30022 1.09010664099277e-10 4.94243477440847e-10 4.02331540455268e-09 1.92701397545082e-09 4.54856830035973e-10 2.86103039485505e-10 1.52959384772141e-10 9.74015755534788e-11
"1955" 30023 1.09010664099277e-10 4.91483938696598e-10 4.0282525561928e-09 1.90253002336893e-09 4.54975062124671e-10 2.86103039485505e-10 1.53359895205416e-10 9.74015755534788e-11
"1956" 30024 1.09010664099277e-10 4.88724399952349e-10 4.03318970783293e-09 1.87804607128703e-09 4.55093294213368e-10 2.86103039485505e-10 1.53760405638691e-10 9.74015755534788e-11
"1957" 30025 1.09010664099277e-10 4.859648612081e-10 4.03812685947306e-09 1.85356211920514e-09 4.55211526302066e-10 2.86103039485505e-10 1.54160916071966e-10 9.74015755534788e-11
"1958" 30026 1.09010664099277e-10 4.83205322463851e-10 4.04306401111318e-09 1.82907816712324e-09 4.55329758390764e-10 2.86103039485505e-10 1.5456142650524e-10 9.74015755534788e-11
"1959" 30027 1.09010664099277e-10 4.80445783719602e-10 4.0480011627533e-09 1.80459421504135e-09 4.55447990479462e-10 2.86103039485505e-10 1.54961936938515e-10 9.74015755534788e-11
"1960" 30028 1.0733437263336e-10 4.80844443456923e-10 4.03443575025891e-09 1.80248593714746e-09 4.54831005273557e-10 2.836990232109e-10 1.5536244737179e-10 9.70715237590142e-11
"1961" 30029 1.05658081167443e-10 4.81243103194244e-10 4.02087033776451e-09 1.80037765925356e-09 4.54214020067652e-10 2.81295006936295e-10 1.55762957805065e-10 9.67414719645497e-11
"1962" 30030 1.03981789701526e-10 4.81641762931565e-10 4.00730492527011e-09 1.79826938135967e-09 4.53597034861747e-10 2.7889099066169e-10 1.5616346823834e-10 9.64114201700851e-11
"1963" 30031 1.02305498235609e-10 4.82040422668886e-10 3.99373951277571e-09 1.79616110346577e-09 4.52980049655843e-10 2.76486974387085e-10 1.56563978671615e-10 9.60813683756206e-11
"1964" 30032 1.00629206769692e-10 4.82439082406207e-10 3.98017410028132e-09 1.79405282557188e-09 4.52363064449938e-10 2.74082958112481e-10 1.56964489104889e-10 9.57513165811560e-11
"1965" 30033 9.89529153037755e-11 4.82837742143528e-10 3.96660868778692e-09 1.79194454767798e-09 4.51746079244033e-10 2.71678941837876e-10 1.57364999538164e-10 9.54212647866915e-11
"1966" 30034 9.72766238378586e-11 4.83236401880849e-10 3.95304327529252e-09 1.78983626978409e-09 4.51129094038128e-10 2.69274925563271e-10 1.57765509971439e-10 9.5091212992227e-11
"1967" 30035 9.56003323719417e-11 4.8363506161817e-10 3.93947786279812e-09 1.78772799189019e-09 4.50512108832223e-10 2.66870909288666e-10 1.58166020404714e-10 9.47611611977624e-11
"1968" 30036 9.39840516107901e-11 4.85863054045991e-10 3.9369370791483e-09 1.79752157272295e-09 4.49895123626319e-10 2.72683817807963e-10 1.58166020404714e-10 9.45998107260403e-11
"1969" 30037 9.36839980869635e-11 4.88091046473812e-10 3.91958147910995e-09 1.79752157272295e-09 4.53674509148995e-10 2.72683817807963e-10 1.58566530837989e-10 9.45998107260403e-11
"1970" 30038 9.26264811477842e-11 4.90319038901633e-10 3.90063054139016e-09 1.80187456068337e-09 4.53674509148995e-10 2.70484303436247e-10 1.58566530837989e-10 9.44384602543182e-11
"1971" 30039 9.15689642086049e-11 4.92547031329454e-10 3.88167960367038e-09 1.80622754864379e-09 4.53674509148995e-10 2.6828478906453e-10 1.58566530837989e-10 9.42771097825961e-11
"1972" 30040 9.05114472694256e-11 4.94775023757275e-10 3.86272866595059e-09 1.81058053660421e-09 4.53674509148995e-10 2.66085274692814e-10 1.58566530837989e-10 9.4115759310874e-11
"1973" 30041 8.94539303302464e-11 4.97003016185095e-10 3.84377772823081e-09 1.81493352456463e-09 4.53674509148995e-10 2.63885760321098e-10 1.58566530837989e-10 9.39544088391519e-11
"1974" 30042 8.83964133910671e-11 4.99231008612916e-10 3.82482679051102e-09 1.81928651252505e-09 4.53674509148995e-10 2.61686245949381e-10 1.58566530837989e-10 9.37930583674298e-11
"1975" 30043 8.90151879178047e-11 5.0169198099973e-10 3.79046488568977e-09 1.81321073436288e-09 4.54291494354899e-10 2.61686245949381e-10 1.58468288154057e-10 9.36317078957077e-11
"1976" 30044 8.96339624445423e-11 5.04152953386544e-10 3.75610298086851e-09 1.8071349562007e-09 4.54908479560804e-10 2.61686245949381e-10 1.58370045470124e-10 9.34703574239856e-11
"1977" 30045 9.02527369712799e-11 5.05516326159058e-10 3.74129152594814e-09 1.78820486241621e-09 4.55525464766709e-10 2.61244869127903e-10 1.58370045470124e-10 9.36390587467281e-11
"1978" 30046 9.08715114980176e-11 5.06879698931572e-10 3.72648007102776e-09 1.76927476863172e-09 4.56142449972614e-10 2.60803492306425e-10 1.58370045470124e-10 9.38077600694705e-11
"1979" 30047 9.14902860247552e-11 5.08243071704086e-10 3.71166861610739e-09 1.75034467484723e-09 4.56759435178519e-10 2.60362115484948e-10 1.58370045470124e-10 9.3976461392213e-11
"1980" 30048 9.21090605514928e-11 5.096064444766e-10 3.69685716118701e-09 1.73141458106274e-09 4.57376420384423e-10 2.5992073866347e-10 1.58370045470124e-10 9.41451627149554e-11
"1981" 30049 9.27278350782304e-11 5.10969817249114e-10 3.68204570626664e-09 1.71248448727825e-09 4.57993405590328e-10 2.59479361841992e-10 1.58370045470124e-10 9.43138640376979e-11
"1982" 30050 9.27878457829958e-11 5.11634250144649e-10 3.66723425134626e-09 1.68947362780042e-09 4.60512995938779e-10 2.6123749939223e-10 1.58370045470124e-10 9.44825653604403e-11
"1983" 30051 9.28478564877611e-11 5.12298683040184e-10 3.65242279642589e-09 1.66646276832258e-09 4.63032586287229e-10 2.62995636942469e-10 1.58370045470124e-10 9.46512666831827e-11
"1984" 30052 9.29078671925264e-11 5.12963115935719e-10 3.63761134150551e-09 1.64345190884474e-09 4.6555217663568e-10 2.64753774492707e-10 1.58370045470124e-10 9.48199680059252e-11
"1985" 30053 9.29678778972917e-11 5.13627548831254e-10 3.62279988658514e-09 1.62044104936691e-09 4.68071766984131e-10 2.66511912042946e-10 1.58370045470124e-10 9.49886693286676e-11
"1986" 30054 9.3027888602057e-11 5.14291981726789e-10 3.60798843166476e-09 1.59743018988907e-09 4.70591357332581e-10 2.68270049593184e-10 1.58370045470124e-10 9.51573706514101e-11
"1987" 30055 9.30878993068224e-11 5.14956414622324e-10 3.59317697674439e-09 1.57441933041123e-09 4.73110947681032e-10 2.70028187143423e-10 1.58370045470124e-10 9.53260719741525e-11
"1988" 30056 9.30878993068224e-11 5.1562084751786e-10 3.57881389540927e-09 1.56092982949908e-09 4.7425251076656e-10 2.704371909492e-10 1.58468288154057e-10 9.61622277368444e-11
"1989" 30057 9.30878993068224e-11 5.16285280413395e-10 3.56445081407416e-09 1.54744032858693e-09 4.75394073852087e-10 2.70846194754976e-10 1.58566530837989e-10 9.69983834995363e-11
"1990" 30058 9.30878993068224e-11 5.1694971330893e-10 3.55008773273905e-09 1.53395082767478e-09 4.76535636937615e-10 2.71255198560753e-10 1.58664773521921e-10 9.78345392622281e-11
"1991" 30059 9.30878993068224e-11 5.17614146204465e-10 3.53572465140394e-09 1.52046132676263e-09 4.77677200023142e-10 2.7166420236653e-10 1.58763016205853e-10 9.867069502492e-11
"1992" 30060 9.30878993068224e-11 5.182785791e-10 3.52136157006882e-09 1.50697182585047e-09 4.7881876310867e-10 2.72073206172307e-10 1.58861258889785e-10 9.95068507876119e-11
"1993" 30061 9.30878993068224e-11 5.18943011995535e-10 3.50699848873371e-09 1.49348232493832e-09 4.79960326194197e-10 2.72482209978084e-10 1.58959501573717e-10 1.00343006550304e-10
"1994" 30062 9.30878993068224e-11 5.1960744489107e-10 3.4926354073986e-09 1.47999282402617e-09 4.81101889279725e-10 2.72891213783861e-10 1.5905774425765e-10 1.01179162312996e-10
"1995" 30063 9.30878993068224e-11 5.20271877786606e-10 3.47827232606348e-09 1.46650332311402e-09 4.82243452365252e-10 2.73300217589637e-10 1.59155986941582e-10 1.02015318075687e-10
"1996" 30064 9.30878993068224e-11 5.20936310682141e-10 3.46390924472837e-09 1.45301382220186e-09 4.8338501545078e-10 2.73709221395414e-10 1.59254229625514e-10 1.02851473838379e-10
"1997" 30065 9.26491568943807e-11 5.22066703495662e-10 3.45897209308825e-09 1.45237863691203e-09 4.77754674310389e-10 2.74118225201191e-10 1.59254229625514e-10 1.03518928278329e-10
"1998" 30066 9.25891461896154e-11 5.22066703495662e-10 3.45962030406721e-09 1.45174345162219e-09 4.64103525493237e-10 2.74118225201191e-10 1.58951961876171e-10 1.04355084041021e-10
"1999" 30067 9.25891461896154e-11 5.23595756046504e-10 3.45787382778994e-09 1.45718404449453e-09 4.62725498230313e-10 2.75320233338493e-10 1.59050204560103e-10 1.0502253848097e-10
"2000" 30068 9.25891461896154e-11 5.25124808597346e-10 3.45612735151268e-09 1.46262463736686e-09 4.6134747096739e-10 2.76522241475796e-10 1.59148447244035e-10 1.05689992920919e-10
"2001" 30069 9.25891461896154e-11 5.26653861148188e-10 3.45438087523541e-09 1.4680652302392e-09 4.59969443704467e-10 2.77724249613098e-10 1.59246689927968e-10 1.06357447360869e-10
"2002" 30070 9.25891461896154e-11 5.2818291369903e-10 3.45263439895815e-09 1.47350582311154e-09 4.58591416441544e-10 2.78926257750401e-10 1.593449326119e-10 1.07024901800818e-10
"2003" 30071 9.25891461896154e-11 5.29711966249872e-10 3.45088792268088e-09 1.47894641598387e-09 4.57213389178621e-10 2.80128265887703e-10 1.59443175295832e-10 1.07692356240768e-10
"2004" 30072 9.3027888602057e-11 5.34998063779377e-10 3.44849323542466e-09 1.47894641598387e-09 4.54575566741472e-10 2.82065902060802e-10 1.59843685729107e-10 1.07692356240768e-10
"2005" 30073 9.30878993068224e-11 5.34632197241277e-10 3.44629838556213e-09 1.47459342802345e-09 4.52318265332833e-10 2.82213027667961e-10 1.59941928413039e-10 1.0785370671249e-10
"2006" 30074 9.44641372489127e-11 5.34632197241277e-10 3.46051368976957e-09 1.4683361683499e-09 4.49798674984382e-10 2.82564655178009e-10 1.59941928413039e-10 1.08015057184212e-10
"2007" 30075 9.5840375191003e-11 5.34632197241277e-10 3.47472899397701e-09 1.46207890867634e-09 4.47279084635932e-10 2.82916282688056e-10 1.59941928413039e-10 1.08176407655934e-10
"2008" 30076 9.72166131330933e-11 5.34632197241277e-10 3.48894429818445e-09 1.45582164900278e-09 4.44759494287481e-10 2.83267910198104e-10 1.59941928413039e-10 1.08337758127656e-10
"2009" 30077 9.85928510751836e-11 5.34632197241277e-10 3.50315960239189e-09 1.44956438932923e-09 4.42239903939031e-10 2.83619537708152e-10 1.59941928413039e-10 1.08499108599378e-10
"2010" 30078 9.99690890172739e-11 5.32404204813456e-10 3.51318504426797e-09 1.44051861713319e-09 4.41098340853503e-10 2.83178160886674e-10 1.59843685729107e-10 1.08499108599378e-10
"2011" 30079 1.01345326959364e-10 5.30176212385636e-10 3.52321048614406e-09 1.43147284493714e-09 4.39956777767976e-10 2.82736784065196e-10 1.59745443045175e-10 1.08499108599378e-10
"2012" 30080 1.02721564901455e-10 5.27948219957815e-10 3.53323592802014e-09 1.4224270727411e-09 4.38815214682448e-10 2.82295407243718e-10 1.59647200361242e-10 1.08499108599378e-10
"2013" 30081 1.04097802843545e-10 5.25720227529994e-10 3.54326136989623e-09 1.41338130054506e-09 4.37673651596921e-10 2.8185403042224e-10 1.5954895767731e-10 1.08499108599378e-10
"2014" 30082 1.05474040785635e-10 5.23492235102173e-10 3.55328681177231e-09 1.40433552834902e-09 4.36532088511393e-10 2.81412653600763e-10 1.59450714993378e-10 1.08499108599378e-10
"2015" 30083 1.06850278727725e-10 5.21264242674352e-10 3.5633122536484e-09 1.39528975615298e-09 4.35390525425866e-10 2.80971276779285e-10 1.59352472309446e-10 1.08499108599378e-10
"2016" 30084 1.08226516669816e-10 5.19036250246531e-10 3.57333769552448e-09 1.38624398395694e-09 4.34248962340338e-10 2.80529899957807e-10 1.59254229625514e-10 1.08499108599378e-10
"2017" 30085 1.09602754611906e-10 5.1680825781871e-10 3.58336313740056e-09 1.3771982117609e-09 4.33107399254811e-10 2.80088523136329e-10 1.59155986941582e-10 1.08499108599378e-10
"2018" 30086 1.10978992553996e-10 5.1680825781871e-10 3.59573288700093e-09 1.37631397095155e-09 4.32490414048906e-10 2.80440150646377e-10 1.5905774425765e-10 1.08829160393843e-10
"2019" 30087 1.12355230496087e-10 5.1680825781871e-10 3.6081026366013e-09 1.3754297301422e-09 4.31873428843001e-10 2.80791778156424e-10 1.58959501573717e-10 1.09159212188307e-10
"2020" 30088 1.13731468438177e-10 5.1680825781871e-10 3.62047238620166e-09 1.37454548933286e-09 4.31256443637096e-10 2.81143405666472e-10 1.58861258889785e-10 1.09489263982772e-10
"2021" 30089 1.15107706380267e-10 5.1680825781871e-10 3.63284213580203e-09 1.37366124852351e-09 4.30639458431191e-10 2.8149503317652e-10 1.58763016205853e-10 1.09819315777236e-10
"2022" 30090 1.16483944322358e-10 5.1680825781871e-10 3.64521188540239e-09 1.37277700771416e-09 4.30022473225287e-10 2.81846660686567e-10 1.58664773521921e-10 1.10149367571701e-10
"2023" 30091 1.17860182264448e-10 5.1680825781871e-10 3.65758163500276e-09 1.37189276690482e-09 4.29405488019382e-10 2.82198288196615e-10 1.58566530837989e-10 1.10479419366165e-10
"2024" 30092 1.19236420206538e-10 5.1680825781871e-10 3.66995138460312e-09 1.37100852609547e-09 4.28788502813477e-10 2.82549915706663e-10 1.58468288154057e-10 1.1080947116063e-10
"2025" 30093 1.20612658148628e-10 5.1680825781871e-10 3.68232113420349e-09 1.37012428528612e-09 4.28171517607572e-10 2.82901543216711e-10 1.58370045470124e-10 1.11139522955095e-10
"2026" 30094 1.21988896090719e-10 5.1680825781871e-10 3.69469088380385e-09 1.36924004447677e-09 4.27554532401667e-10 2.83253170726758e-10 1.58271802786192e-10 1.11469574749559e-10
"2027" 30095 1.21988896090719e-10 5.17672877474017e-10 3.69045064194055e-09 1.37232330393571e-09 4.26819315107065e-10 2.86834191858637e-10 1.5817356010226e-10 1.11469574749559e-10
"2028" 30096 1.21988896090719e-10 5.18537497129324e-10 3.68621040007725e-09 1.37540656339464e-09 4.26084097812462e-10 2.90415212990516e-10 1.58075317418328e-10 1.11469574749559e-10
"2029" 30097 1.22048906795484e-10 5.18537497129324e-10 3.68197015821395e-09 1.39410948425081e-09 4.25729401546369e-10 2.90415212990516e-10 1.58377585167671e-10 1.11469574749559e-10
"2030" 30098 1.22108917500249e-10 5.18537497129324e-10 3.67772991635065e-09 1.41281240510698e-09 4.25374705280275e-10 2.90415212990516e-10 1.58679852917013e-10 1.11469574749559e-10
"2031" 30099 1.22168928205015e-10 5.18537497129324e-10 3.67348967448736e-09 1.43151532596314e-09 4.25020009014182e-10 2.90415212990516e-10 1.58982120666356e-10 1.11469574749559e-10
"2032" 30100 1.2222893890978e-10 5.18537497129324e-10 3.66924943262406e-09 1.45021824681931e-09 4.24665312748088e-10 2.90415212990516e-10 1.59284388415699e-10 1.11469574749559e-10
"2033" 30101 1.21850207202104e-10 5.17008444578482e-10 3.66500919076076e-09 1.47000941466558e-09 4.23786038602372e-10 2.89213204853214e-10 1.59586656165041e-10 1.11300873426817e-10
"2034" 30102 1.21471475494427e-10 5.1547939202764e-10 3.66076894889746e-09 1.48980058251186e-09 4.22906764456656e-10 2.88011196715912e-10 1.59888923914384e-10 1.11132172104074e-10
"2035" 30103 1.21471475494427e-10 5.1232119354607e-10 3.63184294883353e-09 1.50938774417737e-09 4.21436329867451e-10 2.86809188578609e-10 1.59594195862588e-10 1.10296016341382e-10
"2036" 30104 1.21092743786751e-10 5.10093201118249e-10 3.57438390055676e-09 1.52827214654492e-09 4.14926714581344e-10 2.85607180441307e-10 1.59299467810791e-10 1.10296016341382e-10
"2037" 30105 1.20714012079075e-10 5.07865208690428e-10 3.51692485227999e-09 1.54715654891247e-09 4.08417099295238e-10 2.84405172304004e-10 1.59004739758995e-10 1.10296016341382e-10
"2038" 30106 1.20335280371398e-10 5.05637216262608e-10 3.45946580400321e-09 1.56604095128002e-09 4.01907484009131e-10 2.83203164166702e-10 1.58710011707198e-10 1.10296016341382e-10
"2039" 30107 1.19956548663722e-10 5.03409223834787e-10 3.40200675572644e-09 1.58492535364757e-09 3.95397868723025e-10 2.820011560294e-10 1.58415283655402e-10 1.10296016341382e-10
"2040" 30108 1.19956548663722e-10 5.02710283957808e-10 3.34878794931297e-09 1.60940994780765e-09 3.88625964497107e-10 2.820011560294e-10 1.57818287854263e-10 1.10626068135847e-10
"2041" 30109 1.20894044193371e-10 5.02011344080829e-10 3.29955748710307e-09 1.60940994780765e-09 3.82116349211e-10 2.81150775402145e-10 1.57221292053124e-10 1.10794769458589e-10
"2042" 30110 1.21831539723019e-10 5.0131240420385e-10 3.25032702489317e-09 1.60940994780765e-09 3.75606733924894e-10 2.8030039477489e-10 1.56624296251984e-10 1.10963470781332e-10
"2043" 30111 1.22769035252668e-10 5.00613464326872e-10 3.20109656268327e-09 1.60940994780765e-09 3.69097118638787e-10 2.79450014147636e-10 1.56027300450845e-10 1.11132172104074e-10
"2044" 30112 1.23706530782317e-10 4.99914524449893e-10 3.15186610047337e-09 1.60940994780765e-09 3.62587503352681e-10 2.78599633520381e-10 1.55430304649706e-10 1.11300873426817e-10
"2045" 30113 1.24644026311965e-10 4.99215584572914e-10 3.10263563826348e-09 1.60940994780765e-09 3.56077888066574e-10 2.77749252893126e-10 1.54833308848567e-10 1.11469574749559e-10
"2046" 30114 1.25581521841614e-10 4.98516644695935e-10 3.05340517605358e-09 1.60940994780765e-09 3.49568272780468e-10 2.76898872265872e-10 1.54236313047428e-10 1.11638276072302e-10
"2047" 30115 1.25202790133938e-10 4.99446850749685e-10 2.9961459651705e-09 1.60879792926538e-09 3.43937931640078e-10 2.76898872265872e-10 1.53941584995632e-10 1.11638276072302e-10
"2048" 30116 1.24824058426261e-10 5.00377056803434e-10 2.93888675428743e-09 1.60818591072311e-09 3.38307590499687e-10 2.76898872265872e-10 1.53646856943835e-10 1.11638276072302e-10
"2049" 30117 1.24445326718585e-10 5.01307262857183e-10 2.88162754340435e-09 1.60757389218083e-09 3.32677249359297e-10 2.76898872265872e-10 1.53352128892039e-10 1.11638276072302e-10
"2050" 30118 1.24066595010909e-10 5.02237468910932e-10 2.82436833252128e-09 1.60696187363856e-09 3.27046908218907e-10 2.76898872265872e-10 1.53057400840242e-10 1.11638276072302e-10
"2051" 30119 1.23687863303232e-10 5.03167674964681e-10 2.76710912163821e-09 1.60634985509628e-09 3.21416567078516e-10 2.76898872265872e-10 1.52762672788446e-10 1.11638276072302e-10
"2052" 30120 1.23309131595556e-10 5.04097881018431e-10 2.70984991075513e-09 1.60573783655401e-09 3.15786225938126e-10 2.76898872265872e-10 1.52467944736649e-10 1.11638276072302e-10
"2053" 30121 1.22930399887880e-10 5.0502808707218e-10 2.65259069987206e-09 1.60512581801174e-09 3.10155884797736e-10 2.76898872265872e-10 1.52173216684853e-10 1.11638276072302e-10
"2054" 30122 1.22551668180203e-10 5.07321665898443e-10 2.65293999512751e-09 1.60451379946946e-09 3.11035158943452e-10 2.76898872265872e-10 1.49875936466682e-10 1.11638276072302e-10
"2055" 30123 1.22551668180203e-10 5.10712844339006e-10 2.65328929038296e-09 1.60480854640591e-09 3.11914433089168e-10 2.74519859271295e-10 1.489766729162e-10 1.11308224277837e-10
"2056" 30124 1.22551668180203e-10 5.08584945291071e-10 2.58326737804845e-09 1.60510329334236e-09 3.13174228263393e-10 2.75574741801438e-10 1.49377183349475e-10 1.11139522955095e-10
"2057" 30125 1.22551668180203e-10 5.06457046243136e-10 2.51324546571393e-09 1.60539804027881e-09 3.14434023437618e-10 2.76629624331581e-10 1.4977769378275e-10 1.10970821632352e-10
"2058" 30126 1.22551668180203e-10 5.04329147195201e-10 2.44322355337942e-09 1.60569278721526e-09 3.15693818611844e-10 2.77684506861724e-10 1.50178204216025e-10 1.1080212030961e-10
"2059" 30127 1.22551668180203e-10 5.02201248147266e-10 2.3732016410449e-09 1.60598753415171e-09 3.16953613786069e-10 2.78739389391867e-10 1.505787146493e-10 1.10633418986867e-10
"2060" 30128 1.22551668180203e-10 5.00073349099331e-10 2.30317972871039e-09 1.60628228108816e-09 3.18213408960294e-10 2.7979427192201e-10 1.50979225082575e-10 1.10464717664125e-10
"2061" 30129 1.22551668180203e-10 4.97945450051396e-10 2.23315781637587e-09 1.60657702802461e-09 3.1947320413452e-10 2.80849154452153e-10 1.51379735515849e-10 1.10296016341382e-10
"2062" 30130 1.22551668180203e-10 4.95817551003461e-10 2.16313590404135e-09 1.60687177496106e-09 3.20732999308745e-10 2.81904036982297e-10 1.51780245949124e-10 1.1012731501864e-10
"2063" 30131 1.22491657475438e-10 4.90531453473956e-10 2.09291415431314e-09 1.61068031838733e-09 3.21113520337254e-10 2.81756911375137e-10 1.51878488633056e-10 1.11960977015746e-10
"2064" 30132 1.22491657475438e-10 4.87473348372272e-10 2.02269240458493e-09 1.6130608185483e-09 3.21113520337254e-10 2.81961413278026e-10 1.52278999066331e-10 1.11960977015746e-10
"2065" 30133 1.23807884712763e-10 4.88638248167237e-10 1.95232119699496e-09 1.61335556548475e-09 3.21113520337254e-10 2.82607292002392e-10 1.52679509499606e-10 1.12122327487468e-10
"2066" 30134 1.25124111950088e-10 4.89803147962201e-10 1.88194998940499e-09 1.6136503124212e-09 3.21113520337254e-10 2.83253170726758e-10 1.53080019932881e-10 1.1228367795919e-10
"2067" 30135 1.26440339187413e-10 4.90968047757166e-10 1.81157878181502e-09 1.61394505935764e-09 3.21113520337254e-10 2.83899049451125e-10 1.53480530366156e-10 1.12445028430912e-10
"2068" 30136 1.27816577129503e-10 4.95191052653815e-10 1.70982978443663e-09 1.61315155930399e-09 3.19853725163029e-10 2.84544928175491e-10 1.52090053396013e-10 1.12606378902634e-10
"2069" 30137 1.27816577129503e-10 5.00777430322977e-10 1.70903211559592e-09 1.60963776281416e-09 3.19853725163029e-10 2.82786790625252e-10 1.52392321145356e-10 1.12100274934407e-10
"2070" 30138 1.27816577129503e-10 5.0636380799214e-10 1.7082344467552e-09 1.60612396632434e-09 3.19853725163029e-10 2.81028653075014e-10 1.52694588894699e-10 1.11594170966179e-10
"2071" 30139 1.27816577129503e-10 5.11950185661303e-10 1.70743677791449e-09 1.60261016983451e-09 3.19853725163029e-10 2.79270515524775e-10 1.52996856644041e-10 1.11088066997952e-10
"2072" 30140 1.27816577129503e-10 5.17536563330465e-10 1.70663910907377e-09 1.59909637334469e-09 3.19853725163029e-10 2.77512377974537e-10 1.53299124393384e-10 1.10581963029725e-10
"2073" 30141 1.27816577129503e-10 5.23122940999628e-10 1.70584144023306e-09 1.59558257685487e-09 3.19853725163029e-10 2.75754240424298e-10 1.53601392142727e-10 1.10075859061497e-10
"2074" 30142 1.27816577129503e-10 5.28709318668791e-10 1.70504377139234e-09 1.59206878036504e-09 3.19853725163029e-10 2.7399610287406e-10 1.53903659892069e-10 1.0956975509327e-10
"2075" 30143 1.27816577129503e-10 5.34295696337954e-10 1.70424610255163e-09 1.58855498387522e-09 3.19853725163029e-10 2.72237965323821e-10 1.54205927641412e-10 1.09063651125043e-10
"2076" 30144 1.27816577129503e-10 5.39882074007116e-10 1.70344843371091e-09 1.58504118738539e-09 3.19853725163029e-10 2.70479827773583e-10 1.54508195390755e-10 1.08557547156816e-10
"2077" 30145 1.29192815071593e-10 5.45468451676279e-10 1.70309913845546e-09 1.58442916884312e-09 3.16388278104996e-10 2.70070823967806e-10 1.53608931840273e-10 1.08557547156816e-10
"2078" 30146 1.30569053013684e-10 5.51054829345442e-10 1.70274984320001e-09 1.58381715030084e-09 3.12922831046963e-10 2.69661820162029e-10 1.52709668289791e-10 1.08557547156816e-10
"2079" 30147 1.31945290955774e-10 5.56641207014604e-10 1.70240054794456e-09 1.58320513175857e-09 3.09457383988929e-10 2.69252816356252e-10 1.51810404739309e-10 1.08557547156816e-10
"2080" 30148 1.33321528897864e-10 5.62227584683767e-10 1.7020512526891e-09 1.5825931132163e-09 3.05991936930896e-10 2.68843812550476e-10 1.50911141188827e-10 1.08557547156816e-10
"2081" 30149 1.34697766839955e-10 5.6781396235293e-10 1.70170195743365e-09 1.58198109467402e-09 3.02526489872863e-10 2.68434808744699e-10 1.50011877638346e-10 1.08557547156816e-10
"2082" 30150 1.36074004782045e-10 5.73400340022092e-10 1.7013526621782e-09 1.58136907613175e-09 2.9906104281483e-10 2.68025804938922e-10 1.49112614087864e-10 1.08557547156816e-10
"2083" 30151 1.37450242724135e-10 5.78986717691255e-10 1.70100336692274e-09 1.58075705758947e-09 2.95595595756797e-10 2.67616801133145e-10 1.48213350537382e-10 1.08557547156816e-10
"2084" 30152 1.38826480666226e-10 5.84573095360418e-10 1.70065407166729e-09 1.5801450390472e-09 2.92130148698764e-10 2.67207797327368e-10 1.473140869869e-10 1.08557547156816e-10
"2085" 30153 1.38826480666226e-10 5.87798594022653e-10 1.70150212003995e-09 1.58161877372945e-09 2.8904522266924e-10 2.66152914797225e-10 1.46709551488215e-10 1.09386352068487e-10
"2086" 30154 1.39445255192963e-10 5.87332634104667e-10 1.70195049362521e-09 1.6234464615667e-09 2.86314992905809e-10 2.65098032267082e-10 1.4550802018839e-10 1.09056300274022e-10
"2087" 30155 1.40064029719701e-10 5.86866674186681e-10 1.70239886721047e-09 1.66527414940396e-09 2.83584763142379e-10 2.64043149736939e-10 1.44306488888566e-10 1.08726248479558e-10
"2088" 30156 1.40682804246438e-10 5.86400714268695e-10 1.70284724079574e-09 1.70710183724122e-09 2.80854533378948e-10 2.62988267206796e-10 1.43104957588741e-10 1.08396196685093e-10
"2089" 30157 1.41301578773176e-10 5.85934754350709e-10 1.703295614381e-09 1.74892952507848e-09 2.78124303615518e-10 2.61933384676653e-10 1.41903426288917e-10 1.08066144890629e-10
"2090" 30158 1.41920353299914e-10 5.85468794432723e-10 1.70374398796626e-09 1.79075721291574e-09 2.75394073852087e-10 2.6087850214651e-10 1.40701894989092e-10 1.07736093096164e-10
"2091" 30159 1.42479117121886e-10 5.86100434129037e-10 1.70419236155152e-09 1.83328766005097e-09 2.76011059057992e-10 2.5908799158057e-10 1.39500363689268e-10 1.07567391773422e-10
"2092" 30160 1.43037880943858e-10 5.86732073825351e-10 1.70464073513679e-09 1.87581810718619e-09 2.76628044263897e-10 2.57297481014631e-10 1.38298832389443e-10 1.07398690450679e-10
"2093" 30161 1.43217913058154e-10 5.87496600100773e-10 1.7054384039775e-09 1.9147440170759e-09 2.77245029469801e-10 2.56651602290264e-10 1.38397075073375e-10 1.07398690450679e-10
"2094" 30162 1.4339794517245e-10 5.88261126376194e-10 1.70623607281822e-09 1.95366992696561e-09 2.77862014675706e-10 2.56005723565898e-10 1.38495317757308e-10 1.07398690450679e-10
"2095" 30163 1.43577977286746e-10 5.89025652651615e-10 1.70703374165893e-09 1.99259583685532e-09 2.78478999881611e-10 2.55359844841532e-10 1.3859356044124e-10 1.07398690450679e-10
"2096" 30164 1.43758009401042e-10 5.89790178927036e-10 1.70783141049965e-09 2.03152174674502e-09 2.79095985087516e-10 2.54713966117166e-10 1.38691803125172e-10 1.07398690450679e-10
"2097" 30165 1.43938041515338e-10 5.90554705202457e-10 1.70862907934036e-09 2.07044765663473e-09 2.79712970293421e-10 2.54068087392799e-10 1.38790045809104e-10 1.07398690450679e-10
"2098" 30166 1.43499299102896e-10 5.91319231477878e-10 1.71301877906541e-09 2.08223624993632e-09 2.80854533378948e-10 2.53626710571322e-10 1.40581033212521e-10 1.07398690450679e-10
"2099" 30167 1.43060556690455e-10 5.92083757753299e-10 1.71740847879047e-09 2.0940248432379e-09 2.81996096464476e-10 2.53185333749844e-10 1.42372020615939e-10 1.07398690450679e-10
"2100" 30168 1.42621814278013e-10 5.9284828402872e-10 1.72179817851552e-09 2.10581343653949e-09 2.83137659550003e-10 2.52743956928366e-10 1.44163008019356e-10 1.07398690450679e-10
"2101" 30169 1.42183071865571e-10 5.93612810304141e-10 1.72618787824058e-09 2.11760202984107e-09 2.84279222635531e-10 2.52302580106888e-10 1.45953995422774e-10 1.07398690450679e-10
"2102" 30170 1.4174432945313e-10 5.94377336579562e-10 1.73057757796563e-09 2.12939062314266e-09 2.85420785721058e-10 2.5186120328541e-10 1.47744982826191e-10 1.07398690450679e-10
"2103" 30171 1.41305587040688e-10 5.95141862854983e-10 1.73496727769068e-09 2.14117921644424e-09 2.86562348806586e-10 2.51419826463932e-10 1.49535970229608e-10 1.07398690450679e-10
"2104" 30172 1.40866844628246e-10 5.95906389130404e-10 1.73935697741574e-09 2.15296780974583e-09 2.87703911892113e-10 2.50978449642454e-10 1.51326957633026e-10 1.07398690450679e-10
"2105" 30173 1.40866844628246e-10 5.96670915405825e-10 1.77406817749245e-09 2.15006603179828e-09 2.88845474977641e-10 2.52736587192693e-10 1.51425200316958e-10 1.07398690450679e-10
"2106" 30174 1.41804340157895e-10 5.96670915405825e-10 1.88614153247042e-09 2.15496282221466e-09 2.93241845706221e-10 2.52090708468327e-10 1.5152344300089e-10 1.08234846213371e-10
"2107" 30175 1.42741835687544e-10 5.96670915405825e-10 1.9982148874484e-09 2.15985961263104e-09 2.97638216434802e-10 2.5144482974396e-10 1.51621685684822e-10 1.09071001976063e-10
"2108" 30176 1.43679331217192e-10 5.96670915405825e-10 2.11028824242638e-09 2.16475640304742e-09 3.02034587163383e-10 2.50798951019594e-10 1.51719928368754e-10 1.09907157738755e-10
"2109" 30177 1.44616826746841e-10 5.96670915405825e-10 2.22236159740436e-09 2.16965319346379e-09 3.06430957891964e-10 2.50153072295228e-10 1.51818171052687e-10 1.10743313501447e-10
"2110" 30178 1.4555432227649e-10 5.96670915405825e-10 2.33443495238234e-09 2.17454998388017e-09 3.10827328620544e-10 2.49507193570862e-10 1.51916413736619e-10 1.11579469264139e-10
"2111" 30179 1.46491817806138e-10 5.96670915405825e-10 2.44650830736031e-09 2.17944677429655e-09 3.15223699349125e-10 2.48861314846495e-10 1.52014656420551e-10 1.12415625026831e-10
"2112" 30180 1.47429313335787e-10 5.95906389130404e-10 2.55663702940141e-09 2.17255497141134e-09 3.19738302166404e-10 2.48656812943607e-10 1.51417660619412e-10 1.13251780789523e-10
"2113" 30181 1.48805551277877e-10 5.95906389130404e-10 2.65195093505397e-09 2.1720105268772e-09 3.24134672894985e-10 2.48010934219241e-10 1.49724915899926e-10 1.14087936552214e-10
"2114" 30182 1.50181789219968e-10 5.95906389130404e-10 2.76207965709506e-09 2.17470829864399e-09 3.27389480538038e-10 2.47806432316352e-10 1.49724915899926e-10 1.14755390992164e-10
"2115" 30183 1.51558027162058e-10 5.94011470041462e-10 2.87160886695506e-09 2.18311888555019e-09 3.31785851266619e-10 2.46751549786209e-10 1.49724915899926e-10 1.1443269004872e-10
"2116" 30184 1.52934265104148e-10 5.9211655095252e-10 2.98113807681506e-09 2.1915294724564e-09 3.36182221995199e-10 2.45696667256066e-10 1.49724915899926e-10 1.14109989105275e-10
"2117" 30185 1.54310503046238e-10 5.90221631863578e-10 3.09066728667506e-09 2.1999400593626e-09 3.4057859272378e-10 2.44641784725923e-10 1.49724915899926e-10 1.13787288161831e-10
"2118" 30186 1.55686740988329e-10 5.88326712774636e-10 3.20019649653505e-09 2.2083506462688e-09 3.44974963452361e-10 2.4358690219578e-10 1.49724915899926e-10 1.13464587218387e-10
"2119" 30187 1.57062978930419e-10 5.86431793685694e-10 3.30972570639505e-09 2.21676123317501e-09 3.49371334180942e-10 2.42532019665637e-10 1.49724915899926e-10 1.13141886274943e-10
"2120" 30188 1.58439216872509e-10 5.84536874596752e-10 3.41925491625505e-09 2.22517182008121e-09 3.53767704909522e-10 2.41477137135494e-10 1.49724915899926e-10 1.12819185331499e-10
"2121" 30189 1.598154548146e-10 5.8264195550781e-10 3.52878412611505e-09 2.23358240698742e-09 3.58164075638103e-10 2.40422254605351e-10 1.49724915899926e-10 1.12496484388054e-10
"2122" 30190 1.60254197227041e-10 5.81112902956968e-10 3.52638943885882e-09 2.23566816021193e-09 3.59305638723631e-10 2.40013250799574e-10 1.5232446386744e-10 1.11506329004661e-10
"2123" 30191 1.60314207931807e-10 5.79982510143447e-10 3.52578992667773e-09 2.23628017875421e-09 3.61038362252647e-10 2.39162870172319e-10 1.5232446386744e-10 1.10677524092989e-10
"2124" 30192 1.60374218636572e-10 5.78852117329926e-10 3.52519041449663e-09 2.23689219729648e-09 3.62771085781664e-10 2.38312489545064e-10 1.5232446386744e-10 1.09848719181318e-10
"2125" 30193 1.60434229341337e-10 5.77721724516405e-10 3.52459090231553e-09 2.23750421583876e-09 3.6450380931068e-10 2.3746210891781e-10 1.5232446386744e-10 1.09019914269646e-10
"2126" 30194 1.60434229341337e-10 5.77255764598419e-10 3.50543676573389e-09 2.23630270342358e-09 3.65094969754169e-10 2.33414707684425e-10 1.51122932567615e-10 1.09019914269646e-10
"2127" 30195 1.60434229341337e-10 5.76789804680433e-10 3.48628262915224e-09 2.23510119100841e-09 3.65686130197658e-10 2.2936730645104e-10 1.49921401267791e-10 1.09019914269646e-10
"2128" 30196 1.60434229341337e-10 5.76323844762447e-10 3.4671284925706e-09 2.23389967859324e-09 3.66277290641147e-10 2.25319905217655e-10 1.48719869967966e-10 1.09019914269646e-10
"2129" 30197 1.60434229341337e-10 5.75857884844461e-10 3.44797435598895e-09 2.23269816617807e-09 3.66868451084637e-10 2.2127250398427e-10 1.47518338668142e-10 1.09019914269646e-10
"2130" 30198 1.60434229341337e-10 5.75391924926475e-10 3.42882021940731e-09 2.2314966537629e-09 3.67459611528126e-10 2.17225102750885e-10 1.46316807368317e-10 1.09019914269646e-10
"2131" 30199 1.60434229341337e-10 5.7492596500849e-10 3.40966608282567e-09 2.23029514134772e-09 3.68050771971615e-10 2.131777015175e-10 1.45115276068493e-10 1.09019914269646e-10
"2132" 30200 1.60434229341337e-10 5.74460005090504e-10 3.39051194624402e-09 2.22909362893255e-09 3.68641932415104e-10 2.09130300284115e-10 1.43913744768668e-10 1.09019914269646e-10
"2133" 30201 1.60434229341337e-10 5.73994045172518e-10 3.37135780966238e-09 2.22789211651738e-09 3.69233092858593e-10 2.0508289905073e-10 1.42712213468844e-10 1.09019914269646e-10
"2134" 30202 1.60434229341337e-10 5.73528085254532e-10 3.35220367308073e-09 2.22669060410221e-09 3.69824253302082e-10 2.01035497817345e-10 1.41510682169019e-10 1.09019914269646e-10
"2135" 30203 1.60494240046103e-10 5.74292611529953e-10 3.35160416089963e-09 2.22548909168704e-09 3.68209761861763e-10 2.00594120995867e-10 1.41608924852951e-10 1.09349966064111e-10
"2136" 30204 1.60554250750868e-10 5.75057137805374e-10 3.35100464871854e-09 2.22428757927186e-09 3.66595270421444e-10 2.00152744174389e-10 1.41707167536884e-10 1.09680017858575e-10
"2137" 30205 1.60614261455633e-10 5.75821664080795e-10 3.35040513653744e-09 2.22308606685669e-09 3.64980778981126e-10 1.99711367352911e-10 1.41805410220816e-10 1.1001006965304e-10
"2138" 30206 1.60674272160399e-10 5.76586190356216e-10 3.34980562435634e-09 2.22188455444152e-09 3.63366287540807e-10 1.99269990531433e-10 1.41903652904748e-10 1.10340121447504e-10
"2139" 30207 1.60734282865164e-10 5.77350716631637e-10 3.34920611217525e-09 2.22068304202635e-09 3.61751796100488e-10 1.98828613709956e-10 1.4200189558868e-10 1.10670173241969e-10
"2140" 30208 1.60794293569929e-10 5.78115242907058e-10 3.34860659999415e-09 2.21948152961118e-09 3.60137304660169e-10 1.98387236888478e-10 1.42100138272612e-10 1.11000225036433e-10
"2141" 30209 1.60854304274695e-10 5.78879769182479e-10 3.34800708781305e-09 2.218280017196e-09 3.58522813219851e-10 1.97945860067e-10 1.42198380956544e-10 1.11330276830898e-10
"2142" 30210 1.6091431497946e-10 5.796442954579e-10 3.34740757563196e-09 2.21707850478083e-09 3.56908321779532e-10 1.97504483245522e-10 1.42296623640476e-10 1.11660328625363e-10
"2143" 30211 1.60974325684225e-10 5.80408821733321e-10 3.34680806345086e-09 2.21587699236566e-09 3.55293830339213e-10 1.97063106424044e-10 1.42394866324409e-10 1.11990380419827e-10
"2144" 30212 1.61034336388991e-10 5.81173348008742e-10 3.34620855126976e-09 2.21467547995049e-09 3.53679338898894e-10 1.96621729602566e-10 1.42493109008341e-10 1.12320432214292e-10
"2145" 30213 1.61094347093756e-10 5.81937874284164e-10 3.34560903908867e-09 2.21347396753532e-09 3.52064847458576e-10 1.96180352781088e-10 1.42591351692273e-10 1.12650484008756e-10
"2146" 30214 1.61154357798521e-10 5.82702400559585e-10 3.34500952690757e-09 2.21227245512015e-09 3.50450356018257e-10 1.95738975959611e-10 1.42689594376205e-10 1.12980535803221e-10
"2147" 30215 1.61214368503287e-10 5.83466926835006e-10 3.34441001472647e-09 2.21107094270497e-09 3.48835864577938e-10 1.95297599138133e-10 1.42787837060137e-10 1.13310587597685e-10
"2148" 30216 1.61274379208052e-10 5.84231453110427e-10 3.34381050254538e-09 2.2098694302898e-09 3.47221373137619e-10 1.94856222316655e-10 1.42886079744069e-10 1.1364063939215e-10
"2149" 30217 1.61274379208052e-10 5.80539994530206e-10 3.34002031500142e-09 2.20866791787463e-09 3.48337111460731e-10 1.93270213653604e-10 1.42984322428001e-10 1.13970691186614e-10
"2150" 30218 1.61274379208052e-10 5.76848535949985e-10 3.39189400065911e-09 2.21256720205659e-09 3.47601894166128e-10 1.92534585617807e-10 1.43384832861276e-10 1.14139392509357e-10
"2151" 30219 1.61334389912817e-10 5.78743455038927e-10 3.39992274933228e-09 2.21177370200294e-09 3.49072328755334e-10 1.9358946814795e-10 1.42984322428001e-10 1.14139392509357e-10
"2152" 30220 1.61334389912817e-10 5.83199439894569e-10 3.40530827455767e-09 2.21714672086715e-09 3.49072328755334e-10 1.9537997871389e-10 1.42583811994727e-10 1.13809340714892e-10
"2153" 30221 1.61334389912817e-10 5.87655424750211e-10 3.41069379978306e-09 2.22251973973136e-09 3.49072328755334e-10 1.97170489279829e-10 1.42183301561452e-10 1.13479288920428e-10
"2154" 30222 1.61334389912817e-10 5.92111409605852e-10 3.41607932500845e-09 2.22789275859557e-09 3.49072328755334e-10 1.98960999845769e-10 1.41782791128177e-10 1.13149237125963e-10
"2155" 30223 1.61334389912817e-10 5.96567394461494e-10 3.42146485023383e-09 2.23326577745978e-09 3.49072328755334e-10 2.00751510411708e-10 1.41382280694902e-10 1.12819185331499e-10
"2156" 30224 1.61334389912817e-10 6.01023379317136e-10 3.42685037545922e-09 2.23863879632399e-09 3.49072328755334e-10 2.02542020977648e-10 1.40981770261627e-10 1.12489133537034e-10
"2157" 30225 1.61773132325259e-10 6.01023379317136e-10 3.42769842383188e-09 2.23993104949485e-09 3.48810039815522e-10 2.02746522880536e-10 1.41276498313424e-10 1.1215908174257e-10
"2158" 30226 1.622118747377e-10 6.01023379317136e-10 3.42854647220454e-09 2.24122330266571e-09 3.48547750875711e-10 2.02951024783425e-10 1.4157122636522e-10 1.11829029948105e-10
"2159" 30227 1.62650617150142e-10 6.01023379317136e-10 3.4293945205772e-09 2.24251555583658e-09 3.482854619359e-10 2.03155526686313e-10 1.41865954417017e-10 1.1149897815364e-10
"2160" 30228 1.63089359562584e-10 6.01023379317136e-10 3.43024256894986e-09 2.24380780900744e-09 3.48023172996088e-10 2.03360028589202e-10 1.42160682468813e-10 1.11168926359176e-10
"2161" 30229 1.63528101975025e-10 6.01023379317136e-10 3.43109061732252e-09 2.2451000621783e-09 3.47760884056277e-10 2.0356453049209e-10 1.4245541052061e-10 1.10838874564711e-10
"2162" 30230 1.63966844387467e-10 6.01023379317136e-10 3.43193866569518e-09 2.24639231534917e-09 3.47498595116466e-10 2.03769032394978e-10 1.42750138572406e-10 1.10508822770247e-10
"2163" 30231 1.64405586799909e-10 6.01023379317136e-10 3.43278671406784e-09 2.24768456852003e-09 3.47236306176654e-10 2.03973534297867e-10 1.43044866624202e-10 1.10178770975782e-10
"2164" 30232 1.64465597504674e-10 6.01787905592557e-10 3.43258687667414e-09 2.25076782797896e-09 3.52434476763704e-10 2.04178036200755e-10 1.4274259887486e-10 1.1001742050406e-10
"2165" 30233 1.64525608209439e-10 6.02552431867978e-10 3.43238703928044e-09 2.25385108743790e-09 3.57632647350754e-10 2.04382538103644e-10 1.42440331125517e-10 1.09856070032338e-10
"2166" 30234 1.64585618914205e-10 6.03316958143399e-10 3.43218720188674e-09 2.25693434689683e-09 3.62830817937803e-10 2.04587040006532e-10 1.42138063376174e-10 1.09694719560616e-10
"2167" 30235 1.6464562961897e-10 6.0408148441882e-10 3.43198736449304e-09 2.26001760635576e-09 3.68028988524853e-10 2.04791541909421e-10 1.41835795626832e-10 1.09533369088894e-10
"2168" 30236 1.64705640323735e-10 6.04846010694241e-10 3.43178752709935e-09 2.26310086581469e-09 3.73227159111903e-10 2.04996043812309e-10 1.41533527877489e-10 1.09372018617172e-10
"2169" 30237 1.64765651028501e-10 6.05610536969662e-10 3.43158768970565e-09 2.26618412527363e-09 3.78425329698953e-10 2.05200545715197e-10 1.41231260128146e-10 1.0921066814545e-10
"2170" 30238 1.64825661733266e-10 6.06375063245083e-10 3.43138785231195e-09 2.26926738473256e-09 3.83623500286002e-10 2.05405047618086e-10 1.40928992378804e-10 1.09049317673728e-10
"2171" 30239 1.64885672438031e-10 6.07139589520504e-10 3.43118801491825e-09 2.27235064419149e-09 3.88821670873052e-10 2.05609549520974e-10 1.40626724629461e-10 1.08887967202006e-10
"2172" 30240 1.64945683142797e-10 6.07771229216818e-10 3.40006380352364e-09 2.27622740370408e-09 3.94282130399913e-10 2.05961177031022e-10 1.40724967313393e-10 1.08887967202006e-10
"2173" 30241 1.64386919320824e-10 6.08402868913132e-10 3.39183521745676e-09 2.26786186613663e-09 3.99480300986963e-10 2.0616567893391e-10 1.40724967313393e-10 1.08220512762056e-10
"2174" 30242 1.63828155498852e-10 6.09034508609446e-10 3.38360663138989e-09 2.25949632856918e-09 4.04678471574013e-10 2.06370180836799e-10 1.40724967313393e-10 1.07553058322107e-10
"2175" 30243 1.6326939167688e-10 6.0966614830576e-10 3.37537804532301e-09 2.25113079100173e-09 4.09876642161062e-10 2.06574682739687e-10 1.40724967313393e-10 1.06885603882157e-10
"2176" 30244 1.62710627854907e-10 6.10297788002074e-10 3.36714945925614e-09 2.24276525343427e-09 4.15074812748112e-10 2.06779184642576e-10 1.40724967313393e-10 1.06218149442208e-10
"2177" 30245 1.62151864032935e-10 6.10929427698388e-10 3.35892087318926e-09 2.23439971586682e-09 4.20272983335162e-10 2.06983686545464e-10 1.40724967313393e-10 1.05550695002258e-10
"2178" 30246 1.61593100210963e-10 6.11561067394702e-10 3.35069228712239e-09 2.22603417829937e-09 4.25471153922211e-10 2.07188188448352e-10 1.40724967313393e-10 1.04883240562309e-10
"2179" 30247 1.61034336388991e-10 6.12192707091016e-10 3.34246370105551e-09 2.21766864073192e-09 4.30669324509261e-10 2.07392690351241e-10 1.40724967313393e-10 1.0421578612236e-10
"2180" 30248 1.60475572567018e-10 6.1282434678733e-10 3.34246370105551e-09 2.20542634365188e-09 4.30288803480752e-10 2.1082658587596e-10 1.41027235062736e-10 1.03709682154132e-10
"2181" 30249 1.59856798040281e-10 6.1282434678733e-10 3.33528300075500e-09 2.20159463347804e-09 4.30026514540941e-10 2.11472464600327e-10 1.40928992378804e-10 1.03709682154132e-10
"2182" 30250 1.59676765925985e-10 6.19508324070793e-10 3.32705441468812e-09 2.2009594481882e-09 4.30026514540941e-10 2.11325338993167e-10 1.40928992378804e-10 1.03042227714183e-10
"2183" 30251 1.59496733811689e-10 6.26192301354255e-10 3.31882582862125e-09 2.20032426289837e-09 4.30026514540941e-10 2.11178213386008e-10 1.40928992378804e-10 1.02374773274233e-10
"2184" 30252 1.59316701697393e-10 6.32876278637718e-10 3.31059724255437e-09 2.19968907760853e-09 4.30026514540941e-10 2.11031087778849e-10 1.40928992378804e-10 1.01707318834284e-10
"2185" 30253 1.59136669583097e-10 6.39560255921181e-10 3.30236865648750e-09 2.19905389231869e-09 4.30026514540941e-10 2.1088396217169e-10 1.40928992378804e-10 1.01039864394335e-10
"2186" 30254 1.58956637468801e-10 6.46244233204643e-10 3.29414007042062e-09 2.19841870702885e-09 4.30026514540941e-10 2.1073683656453e-10 1.40928992378804e-10 1.00372409954385e-10
"2187" 30255 1.58776605354505e-10 6.52928210488106e-10 3.28591148435375e-09 2.19778352173902e-09 4.30026514540941e-10 2.10589710957371e-10 1.40928992378804e-10 9.97049555144357e-11
"2188" 30256 1.58596573240209e-10 6.59612187771568e-10 3.27768289828687e-09 2.19714833644918e-09 4.30026514540941e-10 2.10442585350212e-10 1.40928992378804e-10 9.90375010744863e-11
"2189" 30257 1.58416541125913e-10 6.66296165055031e-10 3.26945431222000e-09 2.19651315115934e-09 4.30026514540941e-10 2.10295459743052e-10 1.40928992378804e-10 9.83700466345368e-11
"2190" 30258 1.58236509011617e-10 6.72980142338493e-10 3.26122572615312e-09 2.1958779658695e-09 4.30026514540941e-10 2.10148334135893e-10 1.40928992378804e-10 9.77025921945874e-11
"2191" 30259 1.58056476897321e-10 6.79664119621956e-10 3.25299714008625e-09 2.19524278057966e-09 4.30026514540941e-10 2.10001208528734e-10 1.40928992378804e-10 9.7035137754638e-11
"2192" 30260 1.57876444783025e-10 6.86348096905419e-10 3.24476855401937e-09 2.19460759528983e-09 4.30026514540941e-10 2.09854082921575e-10 1.40928992378804e-10 9.63676833146885e-11
"2193" 30261 1.57696412668729e-10 6.93032074188881e-10 3.2365399679525e-09 2.19397240999999e-09 4.30026514540941e-10 2.09706957314415e-10 1.40928992378804e-10 9.57002288747391e-11
"2194" 30262 1.58075144376405e-10 6.99716051472344e-10 3.22516940532062e-09 2.2017027622776e-09 4.27769213132301e-10 2.07769321141317e-10 1.39236247659318e-10 9.58689301974816e-11
"2195" 30263 1.58453876084082e-10 7.05302429141506e-10 3.21239998093286e-09 2.2134006148235e-09 4.27769213132301e-10 2.07769321141317e-10 1.39334490343251e-10 9.6037631520224e-11
"2196" 30264 1.58832607791758e-10 7.10888806810669e-10 3.1996305565451e-09 2.22509846736939e-09 4.27769213132301e-10 2.07769321141317e-10 1.39432733027183e-10 9.62063328429664e-11
"2197" 30265 1.59211339499434e-10 7.16475184479832e-10 3.18686113215734e-09 2.23679631991529e-09 4.27769213132301e-10 2.07769321141317e-10 1.39530975711115e-10 9.63750341657089e-11
"2198" 30266 1.59590071207111e-10 7.22061562148994e-10 3.17409170776957e-09 2.24849417246118e-09 4.27769213132301e-10 2.07769321141317e-10 1.39629218395047e-10 9.65437354884513e-11
"2199" 30267 1.59968802914787e-10 7.27647939818157e-10 3.16132228338181e-09 2.26019202500707e-09 4.27769213132301e-10 2.07769321141317e-10 1.39727461078979e-10 9.67124368111938e-11
"2200" 30268 1.60347534622463e-10 7.3323431748732e-10 3.14855285899405e-09 2.27188987755297e-09 4.27769213132301e-10 2.07769321141317e-10 1.39825703762911e-10 9.68811381339362e-11
"2201" 30269 1.6072626633014e-10 7.38820695156482e-10 3.13578343460628e-09 2.28358773009886e-09 4.27769213132301e-10 2.07769321141317e-10 1.39923946446843e-10 9.70498394566787e-11
"2202" 30270 1.6072626633014e-10 7.37956075501176e-10 3.12366222119748e-09 2.28576422407907e-09 4.30026514540941e-10 2.07916446748476e-10 1.39923946446843e-10 9.70498394566787e-11
"2203" 30271 1.6072626633014e-10 7.37091455845869e-10 3.11154100778868e-09 2.28794071805928e-09 4.3228381594958e-10 2.08063572355635e-10 1.39923946446843e-10 9.70498394566787e-11
"2204" 30272 1.60666255625375e-10 7.37755888741404e-10 3.09941979437988e-09 2.28882495886863e-09 4.3228381594958e-10 2.08063572355635e-10 1.40324456880118e-10 9.70498394566787e-11
"2205" 30273 1.60606244920609e-10 7.38420321636939e-10 3.08729858097107e-09 2.28970919967798e-09 4.3228381594958e-10 2.08063572355635e-10 1.40724967313393e-10 9.70498394566787e-11
"2206" 30274 1.60167502508168e-10 7.3955071445046e-10 3.08689890618368e-09 2.28841694650711e-09 4.3228381594958e-10 2.07711944845587e-10 1.40724967313393e-10 9.67197876622141e-11
"2207" 30275 1.59728760095726e-10 7.40681107263981e-10 3.08649923139628e-09 2.28712469333625e-09 4.3228381594958e-10 2.0736031733554e-10 1.40724967313393e-10 9.63897358677496e-11
"2208" 30276 1.59290017683284e-10 7.41811500077502e-10 3.08609955660888e-09 2.28583244016539e-09 4.3228381594958e-10 2.07008689825492e-10 1.40724967313393e-10 9.60596840732850e-11
"2209" 30277 1.58851275270843e-10 7.42941892891023e-10 3.08569988182148e-09 2.28454018699453e-09 4.3228381594958e-10 2.06657062315444e-10 1.40724967313393e-10 9.57296322788205e-11
"2210" 30278 1.58412532858401e-10 7.44072285704544e-10 3.08530020703409e-09 2.28324793382366e-09 4.3228381594958e-10 2.06305434805397e-10 1.40724967313393e-10 9.5399580484356e-11
"2211" 30279 1.57973790445959e-10 7.45202678518065e-10 3.08490053224669e-09 2.2819556806528e-09 4.3228381594958e-10 2.05953807295349e-10 1.40724967313393e-10 9.50695286898914e-11
"2212" 30280 1.57535048033518e-10 7.46333071331586e-10 3.08450085745929e-09 2.28066342748194e-09 4.3228381594958e-10 2.05602179785301e-10 1.40724967313393e-10 9.47394768954269e-11
"2213" 30281 1.57096305621076e-10 7.47463464145107e-10 3.08410118267189e-09 2.27937117431107e-09 4.3228381594958e-10 2.05250552275254e-10 1.40724967313393e-10 9.44094251009623e-11
"2214" 30282 1.57036294916311e-10 7.48593856958628e-10 3.08050915178755e-09 2.27445185922532e-09 4.32664336978089e-10 2.05103426668094e-10 1.41125477746668e-10 9.42407237782199e-11
"2215" 30283 1.56976284211545e-10 7.49724249772149e-10 3.07691712090322e-09 2.26953254413956e-09 4.33044858006598e-10 2.04956301060935e-10 1.41525988179943e-10 9.40720224554775e-11
"2216" 30284 1.56976284211545e-10 7.49092610075835e-10 3.07507156629614e-09 2.26372898824446e-09 4.33163090095296e-10 2.05160802963823e-10 1.41624230863875e-10 9.42333729271996e-11
"2217" 30285 1.56976284211545e-10 7.48460970379521e-10 3.07322601168907e-09 2.25792543234936e-09 4.33281322183994e-10 2.05365304866712e-10 1.41722473547807e-10 9.43947233989217e-11
"2218" 30286 1.56976284211545e-10 7.47829330683207e-10 3.07138045708199e-09 2.25212187645426e-09 4.33399554272692e-10 2.055698067696e-10 1.41820716231739e-10 9.45560738706438e-11
"2219" 30287 1.56976284211545e-10 7.47197690986893e-10 3.06953490247492e-09 2.24631832055916e-09 4.33517786361389e-10 2.05774308672489e-10 1.41918958915671e-10 9.47174243423659e-11
"2220" 30288 1.56976284211545e-10 7.46566051290579e-10 3.06768934786785e-09 2.24051476466406e-09 4.33636018450087e-10 2.05978810575377e-10 1.42017201599604e-10 9.4878774814088e-11
"2221" 30289 1.56976284211545e-10 7.45934411594265e-10 3.06584379326077e-09 2.23471120876896e-09 4.33754250538785e-10 2.06183312478265e-10 1.42115444283536e-10 9.50401252858100e-11
"2222" 30290 1.56976284211545e-10 7.45302771897951e-10 3.0639982386537e-09 2.22890765287385e-09 4.33872482627483e-10 2.06387814381154e-10 1.42213686967468e-10 9.52014757575321e-11
"2223" 30291 1.56976284211545e-10 7.46433164711472e-10 3.06155317186553e-09 2.25257558023272e-09 4.33990714716181e-10 2.06240688773995e-10 1.423119296514e-10 9.50327744347897e-11
"2224" 30292 1.56976284211545e-10 7.47563557524993e-10 3.05910810507736e-09 2.27624350759158e-09 4.34108946804879e-10 2.06093563166835e-10 1.42410172335332e-10 9.48640731120473e-11
"2225" 30293 1.56976284211545e-10 7.48693950338514e-10 3.05666303828919e-09 2.29991143495044e-09 4.34227178893576e-10 2.05946437559676e-10 1.42508415019264e-10 9.46953717893048e-11
"2226" 30294 1.56976284211545e-10 7.49824343152035e-10 3.05421797150102e-09 2.3235793623093e-09 4.34345410982274e-10 2.05799311952517e-10 1.42606657703196e-10 9.45266704665624e-11
"2227" 30295 1.56976284211545e-10 7.50954735965556e-10 3.05177290471285e-09 2.34724728966816e-09 4.34463643070972e-10 2.05652186345357e-10 1.42704900387129e-10 9.43579691438199e-11
"2228" 30296 1.56976284211545e-10 7.52085128779077e-10 3.04932783792467e-09 2.37091521702702e-09 4.3458187515967e-10 2.05505060738198e-10 1.42803143071061e-10 9.41892678210775e-11
"2229" 30297 1.57036294916311e-10 7.52085128779077e-10 3.05047480202084e-09 2.39821020630078e-09 4.29121415632809e-10 2.01106031994765e-10 1.42500875321718e-10 9.41892678210775e-11
"2230" 30298 1.56657563208634e-10 7.53980047868019e-10 3.05162176611701e-09 2.39821020630078e-09 4.28504430426904e-10 1.99904023857463e-10 1.42500875321718e-10 9.41892678210775e-11
"2231" 30299 1.56657563208634e-10 7.55874966956961e-10 3.04398933076307e-09 2.42577741784161e-09 4.27362867341376e-10 1.98702015720161e-10 1.42198607572375e-10 9.3859216026613e-11
"2232" 30300 1.56657563208634e-10 7.57769886045903e-10 3.03635689540913e-09 2.45334462938243e-09 4.26221304255849e-10 1.97500007582858e-10 1.41896339823033e-10 9.35291642321484e-11
"2233" 30301 1.56657563208634e-10 7.59664805134845e-10 3.02872446005519e-09 2.48091184092326e-09 4.25079741170321e-10 1.96297999445556e-10 1.4159407207369e-10 9.31991124376839e-11
"2234" 30302 1.56657563208634e-10 7.61559724223787e-10 3.02109202470125e-09 2.50847905246409e-09 4.23938178084794e-10 1.95095991308254e-10 1.41291804324347e-10 9.28690606432193e-11
"2235" 30303 1.56657563208634e-10 7.63454643312729e-10 3.01345958934731e-09 2.53604626400491e-09 4.22796614999266e-10 1.93893983170951e-10 1.40989536575005e-10 9.25390088487548e-11
"2236" 30304 1.56657563208634e-10 7.65349562401671e-10 3.00582715399338e-09 2.56361347554574e-09 4.21655051913739e-10 1.92691975033649e-10 1.40687268825662e-10 9.22089570542903e-11
"2237" 30305 1.56657563208634e-10 7.67244481490613e-10 2.99819471863944e-09 2.59118068708656e-09 4.20513488828211e-10 1.91489966896346e-10 1.40385001076319e-10 9.18789052598257e-11
"2238" 30306 1.56657563208634e-10 7.69139400579555e-10 2.9905622832855e-09 2.61874789862739e-09 4.19371925742684e-10 1.90287958759044e-10 1.40082733326977e-10 9.15488534653612e-11
"2239" 30307 1.56657563208634e-10 7.70369886772962e-10 2.98133451025013e-09 2.61684362691425e-09 4.18230362657156e-10 1.90287958759044e-10 1.40082733326977e-10 9.13875029936391e-11
"2240" 30308 1.56657563208634e-10 7.73893951792632e-10 2.97255511080002e-09 2.61493935520112e-09 4.18230362657156e-10 2.13001096967649e-10 1.40082733326977e-10 9.13875029936391e-11
"2241" 30309 1.56657563208634e-10 7.77418016812302e-10 2.96377571134991e-09 2.61303508348798e-09 4.18230362657156e-10 2.35714235176253e-10 1.40082733326977e-10 9.13875029936391e-11
"2242" 30310 1.56657563208634e-10 7.80942081831972e-10 2.95499631189981e-09 2.61113081177484e-09 4.18230362657156e-10 2.58427373384858e-10 1.40082733326977e-10 9.13875029936391e-11
"2243" 30311 1.56657563208634e-10 7.84466146851642e-10 2.9462169124497e-09 2.60922654006171e-09 4.18230362657156e-10 2.81140511593463e-10 1.40082733326977e-10 9.13875029936391e-11
"2244" 30312 1.56657563208634e-10 7.87990211871312e-10 2.93743751299959e-09 2.60732226834857e-09 4.18230362657156e-10 3.03853649802067e-10 1.40082733326977e-10 9.13875029936391e-11
"2245" 30313 1.56657563208634e-10 7.91514276890982e-10 2.92865811354948e-09 2.60541799663543e-09 4.18230362657156e-10 3.26566788010672e-10 1.40082733326977e-10 9.13875029936391e-11
"2246" 30314 1.56657563208634e-10 7.95038341910652e-10 2.91987871409938e-09 2.6035137249223e-09 4.18230362657156e-10 3.49279926219277e-10 1.40082733326977e-10 9.13875029936391e-11
"2247" 30315 1.56657563208634e-10 7.98562406930322e-10 2.91109931464927e-09 2.60160945320916e-09 4.18230362657156e-10 3.71993064427882e-10 1.40082733326977e-10 9.13875029936391e-11
"2248" 30316 1.56657563208634e-10 8.02086471949992e-10 2.90231991519916e-09 2.59970518149602e-09 4.18230362657156e-10 3.94706202636486e-10 1.40082733326977e-10 9.13875029936391e-11
"2249" 30317 1.56657563208634e-10 8.05610536969662e-10 2.89354051574906e-09 2.59780090978289e-09 4.18230362657156e-10 4.17419340845091e-10 1.40082733326977e-10 9.13875029936391e-11
"2250" 30318 1.56657563208634e-10 8.09134601989332e-10 2.88476111629895e-09 2.59589663806975e-09 4.18230362657156e-10 4.40132479053696e-10 1.40082733326977e-10 9.13875029936391e-11
"2251" 30319 1.56278831500958e-10 8.12292800470902e-10 2.88555878513966e-09 2.58963937839619e-09 4.16852335394233e-10 4.64047625399603e-10 1.40483243760251e-10 9.08813990254117e-11
"2252" 30320 1.56338842205723e-10 8.11360880634931e-10 2.88555878513966e-09 2.58963937839619e-09 4.17376913273856e-10 4.86760763608207e-10 1.3958398020977e-10 9.10427494971338e-11
"2253" 30321 1.56338842205723e-10 8.13654459461194e-10 2.88062163349954e-09 2.57352032180356e-09 4.17376913273856e-10 5.10528784346955e-10 1.38684716659288e-10 9.13728012915984e-11
"2254" 30322 1.56338842205723e-10 8.15948038287457e-10 2.87568448185941e-09 2.55740126521093e-09 4.17376913273856e-10 5.34296805085703e-10 1.37785453108806e-10 9.17028530860629e-11
"2255" 30323 1.56338842205723e-10 8.1824161711372e-10 2.87074733021929e-09 2.5412822086183e-09 4.17376913273856e-10 5.58064825824451e-10 1.36886189558324e-10 9.20329048805275e-11
"2256" 30324 1.56338842205723e-10 8.20535195939983e-10 2.86581017857916e-09 2.52516315202567e-09 4.17376913273856e-10 5.81832846563198e-10 1.35986926007842e-10 9.2362956674992e-11
"2257" 30325 1.56338842205723e-10 8.22828774766246e-10 2.86087302693904e-09 2.50904409543304e-09 4.17376913273856e-10 6.05600867301946e-10 1.3508766245736e-10 9.26930084694565e-11
"2258" 30326 1.56338842205723e-10 8.25122353592509e-10 2.85593587529891e-09 2.49292503884041e-09 4.17376913273856e-10 6.29368888040694e-10 1.34188398906879e-10 9.30230602639211e-11
"2259" 30327 1.56338842205723e-10 8.27415932418772e-10 2.85099872365879e-09 2.47680598224778e-09 4.17376913273856e-10 6.53136908779442e-10 1.33289135356397e-10 9.33531120583856e-11
"2260" 30328 1.56338842205723e-10 8.29709511245036e-10 2.84606157201866e-09 2.46068692565515e-09 4.17376913273856e-10 6.7690492951819e-10 1.32389871805915e-10 9.36831638528502e-11
"2261" 30329 1.56897606027696e-10 8.28479025051629e-10 2.92845323395354e-09 2.45361364125857e-09 4.17968073717345e-10 6.7690492951819e-10 1.31188340506091e-10 9.4519319615542e-11
"2262" 30330 1.57456369849668e-10 8.27248538858222e-10 3.01084489588842e-09 2.44654035686198e-09 4.18559234160834e-10 6.7690492951819e-10 1.29986809206266e-10 9.53554753782339e-11
"2263" 30331 1.58772597086993e-10 8.26383919202915e-10 3.01663009590121e-09 2.43438880053763e-09 4.17417671075307e-10 6.77959812048333e-10 1.28785277906442e-10 9.56855271726984e-11
"2264" 30332 1.60088824324318e-10 8.25519299547608e-10 3.02241529591399e-09 2.42223724421328e-09 4.16276107989779e-10 6.79014694578476e-10 1.27583746606617e-10 9.6015578967163e-11
"2265" 30333 1.61405051561643e-10 8.24654679892301e-10 3.02820049592678e-09 2.41008568788893e-09 4.15134544904252e-10 6.80069577108619e-10 1.26382215306793e-10 9.63456307616275e-11
"2266" 30334 1.62781289503733e-10 8.25020546430401e-10 3.01862174690188e-09 2.41008568788893e-09 4.13401821375235e-10 6.79333949072822e-10 1.25785219505653e-10 9.5516825849956e-11
"2267" 30335 1.64157527445823e-10 8.25386412968501e-10 3.00904299787697e-09 2.41008568788893e-09 4.11669097846218e-10 6.78598321037026e-10 1.25188223704514e-10 9.46880209382845e-11
"2268" 30336 1.65533765387914e-10 8.25752279506601e-10 3.01861838543372e-09 2.41044865091169e-09 4.11669097846218e-10 6.79800329174328e-10 1.25188223704514e-10 9.5018072732749e-11
"2269" 30337 1.66910003330004e-10 8.26118146044701e-10 3.02819377299046e-09 2.41081161393446e-09 4.11669097846218e-10 6.81002337311631e-10 1.25188223704514e-10 9.53481245272136e-11
"2270" 30338 1.68286241272094e-10 8.26484012582801e-10 3.0377691605472e-09 2.41117457695722e-09 4.11669097846218e-10 6.82204345448933e-10 1.25188223704514e-10 9.56781763216781e-11
"2271" 30339 1.69662479214185e-10 8.26849879120901e-10 3.04734454810394e-09 2.41153753997998e-09 4.11669097846218e-10 6.83406353586236e-10 1.25188223704514e-10 9.60082281161426e-11
"2272" 30340 1.71038717156275e-10 8.27215745659001e-10 3.05691993566068e-09 2.41190050300275e-09 4.11669097846218e-10 6.84608361723538e-10 1.25188223704514e-10 9.63382799106072e-11
"2273" 30341 1.72414955098365e-10 8.27581612197101e-10 3.06649532321743e-09 2.41226346602551e-09 4.11669097846218e-10 6.8581036986084e-10 1.25188223704514e-10 9.66683317050717e-11
"2274" 30342 1.73791193040456e-10 8.27947478735201e-10 3.07607071077417e-09 2.41262642904828e-09 4.11669097846218e-10 6.87012377998143e-10 1.25188223704514e-10 9.69983834995363e-11
"2275" 30343 1.74229935452897e-10 8.27947478735201e-10 3.0870449600868e-09 2.40972465110073e-09 4.16065468574799e-10 6.88950014171241e-10 1.27787771672028e-10 9.73284352940008e-11
"2276" 30344 1.74668677865339e-10 8.27947478735201e-10 3.09801920939944e-09 2.40682287315318e-09 4.2046183930338e-10 6.9088765034434e-10 1.30387319639541e-10 9.76584870884653e-11
"2277" 30345 1.75107420277781e-10 8.27947478735201e-10 3.10899345871207e-09 2.40392109520562e-09 4.24858210031961e-10 6.92825286517439e-10 1.32986867607054e-10 9.79885388829299e-11
"2278" 30346 1.75546162690222e-10 8.27947478735201e-10 3.1199677080247e-09 2.40101931725807e-09 4.29254580760541e-10 6.94762922690538e-10 1.35586415574567e-10 9.83185906773944e-11
"2279" 30347 1.75984905102664e-10 8.27947478735201e-10 3.13094195733734e-09 2.39811753931052e-09 4.33650951489122e-10 6.96700558863637e-10 1.38185963542081e-10 9.8648642471859e-11
"2280" 30348 1.76423647515106e-10 8.27947478735201e-10 3.14191620664997e-09 2.39521576136297e-09 4.38047322217703e-10 6.98638195036736e-10 1.40785511509594e-10 9.89786942663235e-11
"2281" 30349 1.76862389927547e-10 8.27947478735201e-10 3.15289045596261e-09 2.39231398341542e-09 4.42443692946284e-10 7.00575831209834e-10 1.43385059477107e-10 9.9308746060788e-11
"2282" 30350 1.78238627869637e-10 8.28313345273301e-10 3.16610657320155e-09 2.39061371788304e-09 4.45790907915619e-10 7.00927458719882e-10 1.45984607444621e-10 9.9308746060788e-11
"2283" 30351 1.78857402396375e-10 8.30907204239221e-10 3.16535928389278e-09 2.39326644031108e-09 4.4605319685543e-10 7.0767312744219e-10 1.45886364760689e-10 9.94774473835305e-11
"2284" 30352 1.79476176923113e-10 8.33501063205142e-10 3.16461199458401e-09 2.39591916273913e-09 4.46315485795242e-10 7.14418796164499e-10 1.45788122076756e-10 9.96461487062729e-11
"2285" 30353 1.8009495144985e-10 8.36094922171063e-10 3.16386470527524e-09 2.39857188516717e-09 4.46577774735053e-10 7.21164464886807e-10 1.45689879392824e-10 9.98148500290154e-11
"2286" 30354 1.80713725976588e-10 8.38688781136984e-10 3.16311741596647e-09 2.40122460759521e-09 4.46840063674864e-10 7.27910133609115e-10 1.45591636708892e-10 9.99835513517578e-11
"2287" 30355 1.81332500503326e-10 8.41282640102905e-10 3.1623701266577e-09 2.40387733002325e-09 4.47102352614676e-10 7.34655802331424e-10 1.4549339402496e-10 1.001522526745e-10
"2288" 30356 1.81951275030063e-10 8.42646012875419e-10 3.15204744979219e-09 2.41004384894112e-09 4.46747656348582e-10 7.41401471053732e-10 1.4549339402496e-10 9.99909022027781e-11
"2289" 30357 1.82510038852036e-10 8.44009385647932e-10 3.15130016048342e-09 2.41269657136916e-09 4.45277221759377e-10 7.48000014168881e-10 1.44193620041203e-10 1.00159603525521e-10
"2290" 30358 1.82690070966331e-10 8.45838718338432e-10 3.15234804624978e-09 2.41886309028702e-09 4.45277221759377e-10 7.5459855728403e-10 1.43793109607928e-10 1.00328304848263e-10
"2291" 30359 1.82870103080627e-10 8.47668051028932e-10 3.15339593201613e-09 2.42502960920489e-09 4.45277221759377e-10 7.61197100399179e-10 1.43392599174654e-10 1.00497006171005e-10
"2292" 30360 1.83050135194923e-10 8.49497383719432e-10 3.15444381778249e-09 2.43119612812275e-09 4.45277221759377e-10 7.67795643514328e-10 1.42992088741379e-10 1.00665707493748e-10
"2293" 30361 1.83230167309219e-10 8.51326716409931e-10 3.15549170354885e-09 2.43736264704062e-09 4.45277221759377e-10 7.74394186629477e-10 1.42591578308104e-10 1.0083440881649e-10
"2294" 30362 1.83410199423515e-10 8.53156049100431e-10 3.15653958931521e-09 2.44352916595849e-09 4.45277221759377e-10 7.80992729744626e-10 1.42191067874829e-10 1.01003110139233e-10
"2295" 30363 1.83590231537811e-10 8.54985381790931e-10 3.15758747508157e-09 2.44969568487635e-09 4.45277221759377e-10 7.87591272859775e-10 1.41790557441554e-10 1.01171811461975e-10
"2296" 30364 1.83770263652107e-10 8.56814714481431e-10 3.15863536084793e-09 2.45586220379422e-09 4.45277221759377e-10 7.94189815974924e-10 1.41390047008279e-10 1.01340512784718e-10
"2297" 30365 1.83331521239666e-10 8.5605018820601e-10 3.15863536084793e-09 2.45767573475166e-09 4.45014932819566e-10 7.94394317877813e-10 1.40989536575005e-10 1.01340512784718e-10
"2298" 30366 1.82892778827224e-10 8.57180581019531e-10 3.16043053592306e-09 2.45758499399597e-09 4.44634411791057e-10 7.95449200407956e-10 1.41284264626801e-10 1.01340512784718e-10
"2299" 30367 1.82454036414782e-10 8.5641605474411e-10 3.16063037331676e-09 2.46375151291384e-09 4.46104846380262e-10 7.95302074800796e-10 1.40981996877458e-10 1.01670564579182e-10
"2300" 30368 1.82015294002341e-10 8.55651528468689e-10 3.16083021071046e-09 2.46991803183171e-09 4.47575280969467e-10 7.95154949193637e-10 1.40679729128116e-10 1.02000616373647e-10
"2301" 30369 1.81576551589899e-10 8.54887002193268e-10 3.16103004810415e-09 2.47608455074957e-09 4.49045715558672e-10 7.95007823586478e-10 1.40377461378773e-10 1.02330668168111e-10
"2302" 30370 1.81137809177457e-10 8.54122475917847e-10 3.16122988549785e-09 2.48225106966744e-09 4.50516150147878e-10 7.94860697979319e-10 1.4007519362943e-10 1.02660719962576e-10
"2303" 30371 1.80699066765016e-10 8.53357949642425e-10 3.16142972289155e-09 2.4884175885853e-09 4.51986584737083e-10 7.94713572372159e-10 1.39772925880088e-10 1.0299077175704e-10
"2304" 30372 1.80260324352574e-10 8.52593423367004e-10 3.16162956028525e-09 2.49458410750317e-09 4.53457019326288e-10 7.94566446765e-10 1.39470658130745e-10 1.03320823551505e-10
"2305" 30373 1.79821581940132e-10 8.51828897091583e-10 3.16182939767895e-09 2.50075062642103e-09 4.54927453915493e-10 7.94419321157841e-10 1.39168390381402e-10 1.03650875345969e-10
"2306" 30374 1.79382839527691e-10 8.51064370816162e-10 3.16202923507265e-09 2.5069171453389e-09 4.56397888504698e-10 7.94272195550681e-10 1.3886612263206e-10 1.03980927140434e-10
"2307" 30375 1.78944097115249e-10 8.50299844540741e-10 3.16222907246635e-09 2.51308366425677e-09 4.57868323093904e-10 7.94125069943522e-10 1.38563854882717e-10 1.04310978934899e-10
"2308" 30376 1.78505354702807e-10 8.4953531826532e-10 3.16242890986005e-09 2.51925018317463e-09 4.59338757683109e-10 7.93977944336363e-10 1.38261587133374e-10 1.04641030729363e-10
"2309" 30377 1.78066612290366e-10 8.48770791989899e-10 3.16262874725375e-09 2.5254167020925e-09 4.60809192272314e-10 7.93830818729204e-10 1.37959319384032e-10 1.04971082523828e-10
"2310" 30378 1.780066015856e-10 8.40492175757152e-10 3.16103340957231e-09 2.52976969005292e-09 4.6002232545288e-10 7.93479191219156e-10 1.37959319384032e-10 1.04971082523828e-10
"2311" 30379 1.77946590880835e-10 8.32213559524405e-10 3.15943807189088e-09 2.53412267801334e-09 4.59235458633446e-10 7.93127563709108e-10 1.37959319384032e-10 1.04971082523828e-10
"2312" 30380 1.77946590880835e-10 8.32080672945298e-10 3.15978736714634e-09 2.53967717838893e-09 4.60351196956558e-10 7.92980438101949e-10 1.36266574664546e-10 1.044649785556e-10
"2313" 30381 1.77946590880835e-10 8.31947786366191e-10 3.16013666240179e-09 2.54523167876452e-09 4.6146693527967e-10 7.9283331249479e-10 1.34573829945061e-10 1.03958874587373e-10
"2314" 30382 1.77946590880835e-10 8.31814899787084e-10 3.16048595765724e-09 2.55078617914012e-09 4.62582673602781e-10 7.9268618688763e-10 1.32881085225576e-10 1.03452770619146e-10
"2315" 30383 1.77946590880835e-10 8.31682013207977e-10 3.1608352529127e-09 2.55634067951571e-09 4.63698411925893e-10 7.92539061280471e-10 1.31188340506091e-10 1.02946666650918e-10
"2316" 30384 1.77946590880835e-10 8.3154912662887e-10 3.16118454816815e-09 2.5618951798913e-09 4.64814150249005e-10 7.92391935673312e-10 1.29495595786605e-10 1.02440562682691e-10
"2317" 30385 1.77946590880835e-10 8.31416240049763e-10 3.1615338434236e-09 2.56744968026689e-09 4.65929888572117e-10 7.92244810066152e-10 1.2780285106712e-10 1.01934458714464e-10
"2318" 30386 1.77946590880835e-10 8.31283353470656e-10 3.16188313867906e-09 2.57300418064248e-09 4.67045626895228e-10 7.92097684458993e-10 1.26110106347635e-10 1.01428354746236e-10
"2319" 30387 1.77946590880835e-10 8.31150466891549e-10 3.16223243393451e-09 2.57855868101808e-09 4.6816136521834e-10 7.91950558851834e-10 1.2441736162815e-10 1.00922250778009e-10
"2320" 30388 1.77946590880835e-10 8.32248066505849e-10 3.17180950222533e-09 2.58003241570032e-09 4.74316284238353e-10 7.93005441381977e-10 1.22724616908664e-10 1.00416146809782e-10
"2321" 30389 1.77946590880835e-10 8.33345666120149e-10 3.18138657051615e-09 2.58150615038257e-09 4.80471203258366e-10 7.9406032391212e-10 1.21031872189179e-10 9.99100428415544e-11
"2322" 30390 1.79322828822925e-10 8.37668764396684e-10 3.18173586577161e-09 2.58168763189395e-09 4.79735985963764e-10 7.94264825815008e-10 1.19641395219036e-10 9.92425884016049e-11
"2323" 30391 1.80699066765016e-10 8.41991862673218e-10 3.18208516102706e-09 2.58186911340533e-09 4.79000768669161e-10 7.94469327717897e-10 1.18250918248894e-10 9.85751339616555e-11
"2324" 30392 1.82075304707106e-10 8.46314960949753e-10 3.18243445628251e-09 2.58205059491671e-09 4.78265551374558e-10 7.94673829620785e-10 1.16860441278751e-10 9.79076795217061e-11
"2325" 30393 1.83451542649196e-10 8.4109444981869e-10 3.17704893105712e-09 2.58103056401292e-09 4.78147319285861e-10 7.95025457130833e-10 1.17162709028094e-10 9.79076795217061e-11
"2326" 30394 1.84827780591287e-10 8.35873938687627e-10 3.17166340583174e-09 2.58001053310913e-09 4.78029087197163e-10 7.95377084640881e-10 1.17464976777437e-10 9.79076795217061e-11
"2327" 30395 1.85765276120935e-10 8.35873938687627e-10 3.17201270108719e-09 2.58019201462052e-09 4.77648566168654e-10 7.95581586543769e-10 1.17767244526779e-10 9.80763808444485e-11
"2328" 30396 1.86702771650584e-10 8.35873938687627e-10 3.17236199634264e-09 2.5803734961319e-09 4.77268045140144e-10 7.95786088446657e-10 1.18069512276122e-10 9.8245082167191e-11
"2329" 30397 1.87640267180232e-10 8.35873938687627e-10 3.1727112915981e-09 2.58055497764328e-09 4.76887524111635e-10 7.95990590349546e-10 1.18371780025465e-10 9.84137834899334e-11
"2330" 30398 1.88577762709881e-10 8.35873938687627e-10 3.17306058685355e-09 2.58073645915466e-09 4.76507003083126e-10 7.96195092252434e-10 1.18674047774807e-10 9.85824848126759e-11
"2331" 30399 1.8951525823953e-10 8.35873938687627e-10 3.173409882109e-09 2.58091794066604e-09 4.76126482054617e-10 7.96399594155323e-10 1.1897631552415e-10 9.87511861354183e-11
"2332" 30400 1.90452753769178e-10 8.35873938687627e-10 3.17375917736445e-09 2.58109942217743e-09 4.75745961026108e-10 7.96604096058211e-10 1.19278583273493e-10 9.89198874581607e-11
"2333" 30401 1.90014011356737e-10 8.32648440025393e-10 3.17495652099257e-09 2.58436416314774e-09 4.75745961026108e-10 7.97249974782577e-10 1.19580851022836e-10 9.92499392526253e-11
"2334" 30402 1.89575268944295e-10 8.29422941363158e-10 3.17615386462068e-09 2.58762890411806e-09 4.75745961026108e-10 7.97895853506944e-10 1.19883118772178e-10 9.95799910470898e-11
"2335" 30403 1.89136526531853e-10 8.26197442700923e-10 3.17735120824879e-09 2.59089364508837e-09 4.75745961026108e-10 7.9854173223131e-10 1.20185386521521e-10 9.99100428415544e-11
"2336" 30404 1.88697784119412e-10 8.22971944038688e-10 3.17854855187691e-09 2.59415838605869e-09 4.75745961026108e-10 7.99187610955676e-10 1.20487654270864e-10 1.00240094636019e-10
"2337" 30405 1.8825904170697e-10 8.19746445376453e-10 3.17974589550502e-09 2.597423127029e-09 4.75745961026108e-10 7.99833489680042e-10 1.20789922020206e-10 1.00570146430483e-10
"2338" 30406 1.87820299294528e-10 8.16520946714218e-10 3.18094323913313e-09 2.60068786799932e-09 4.75745961026108e-10 8.00479368404409e-10 1.21092189769549e-10 1.00900198224948e-10
"2339" 30407 1.87381556882087e-10 8.13295448051984e-10 3.18214058276124e-09 2.60395260896963e-09 4.75745961026108e-10 8.01125247128775e-10 1.21394457518892e-10 1.01230250019413e-10
"2340" 30408 1.86942814469645e-10 8.10069949389749e-10 3.18333792638936e-09 2.60721734993995e-09 4.75745961026108e-10 8.01771125853141e-10 1.21696725268234e-10 1.01560301813877e-10
"2341" 30409 1.86504072057203e-10 8.06844450727514e-10 3.18453527001747e-09 2.61048209091026e-09 4.75745961026108e-10 8.02417004577507e-10 1.21998993017577e-10 1.01890353608342e-10
"2342" 30410 1.86125340349527e-10 8.02521352450979e-10 3.18533293885819e-09 2.61603659128586e-09 4.75483672086296e-10 8.03471887107651e-10 1.21998993017577e-10 1.02220405402806e-10
"2343" 30411 1.85746608641851e-10 7.98198254174445e-10 3.1861306076989e-09 2.62159109166145e-09 4.75221383146485e-10 8.04526769637794e-10 1.21998993017577e-10 1.02550457197271e-10
"2344" 30412 1.85367876934174e-10 7.9387515589791e-10 3.18692827653962e-09 2.62714559203704e-09 4.74959094206674e-10 8.05581652167937e-10 1.21998993017577e-10 1.02880508991735e-10
"2345" 30413 1.84989145226498e-10 7.89552057621375e-10 3.18772594538033e-09 2.63270009241263e-09 4.74696805266862e-10 8.0663653469808e-10 1.21998993017577e-10 1.032105607862e-10
"2346" 30414 1.85049155931263e-10 7.85228959344841e-10 3.18413391449599e-09 2.6388666113305e-09 4.74696805266862e-10 8.07486915325335e-10 1.21401997216438e-10 1.02381755874528e-10
"2347" 30415 1.85049155931263e-10 7.79709881856343e-10 3.17919676285587e-09 2.64115637073577e-09 4.74696805266862e-10 8.07895919131111e-10 1.21099729467095e-10 1.0254310634625e-10
"2348" 30416 1.85109166636029e-10 7.79078242160029e-10 3.17425961121574e-09 2.64761763659009e-09 4.74696805266862e-10 8.08950801661254e-10 1.20797461717753e-10 1.02873158140715e-10
"2349" 30417 1.85169177340794e-10 7.78446602463715e-10 3.16932245957562e-09 2.6540789024444e-09 4.74696805266862e-10 8.10005684191398e-10 1.2049519396841e-10 1.03203209935179e-10
"2350" 30418 1.85229188045559e-10 7.77814962767401e-10 3.16438530793549e-09 2.66054016829872e-09 4.74696805266862e-10 8.11060566721541e-10 1.20192926219067e-10 1.03533261729644e-10
"2351" 30419 1.85289198750325e-10 7.77183323071087e-10 3.15944815629537e-09 2.66700143415304e-09 4.74696805266862e-10 8.12115449251684e-10 1.19890658469724e-10 1.03863313524108e-10
"2352" 30420 1.8534920945509e-10 7.76551683374773e-10 3.15451100465524e-09 2.67346270000735e-09 4.74696805266862e-10 8.13170331781827e-10 1.19588390720382e-10 1.04193365318573e-10
"2353" 30421 1.85409220159855e-10 7.75920043678459e-10 3.14957385301512e-09 2.67992396586167e-09 4.74696805266862e-10 8.1422521431197e-10 1.19286122971039e-10 1.04523417113038e-10
"2354" 30422 1.85469230864621e-10 7.75288403982145e-10 3.14463670137499e-09 2.68638523171598e-09 4.74696805266862e-10 8.15280096842113e-10 1.18983855221696e-10 1.04853468907502e-10
"2355" 30423 1.85529241569386e-10 7.74656764285831e-10 3.13969954973487e-09 2.69284649757030e-09 4.74696805266862e-10 8.16334979372256e-10 1.18681587472354e-10 1.05183520701967e-10
"2356" 30424 1.85529241569386e-10 7.74025124589517e-10 3.13431402450948e-09 2.69885405964615e-09 4.75313790472767e-10 8.16539481275145e-10 1.18281077039079e-10 1.05352222024709e-10
"2357" 30425 1.85589252274151e-10 7.73260598314096e-10 3.12977654765675e-09 2.70531532550047e-09 4.75313790472767e-10 8.17594363805288e-10 1.17880566605804e-10 1.05682273819174e-10
"2358" 30426 1.85589252274151e-10 7.74390991127617e-10 3.12483939601663e-09 2.70531532550047e-09 4.77046514001784e-10 8.18240242529654e-10 1.17578298856461e-10 1.06518429581866e-10
"2359" 30427 1.85589252274151e-10 7.75521383941138e-10 3.1199022443765e-09 2.70531532550047e-09 4.787792375308e-10 8.1888612125402e-10 1.17276031107119e-10 1.07354585344557e-10
"2360" 30428 1.85589252274151e-10 7.76651776754659e-10 3.11496509273638e-09 2.70531532550047e-09 4.80511961059817e-10 8.19531999978386e-10 1.16973763357776e-10 1.08190741107249e-10
"2361" 30429 1.85589252274151e-10 7.77782169568179e-10 3.11002794109625e-09 2.70531532550047e-09 4.82244684588834e-10 8.20177878702753e-10 1.16671495608433e-10 1.09026896869941e-10
"2362" 30430 1.85589252274151e-10 7.789125623817e-10 3.10509078945613e-09 2.70531532550047e-09 4.8397740811785e-10 8.20823757427119e-10 1.16369227859091e-10 1.09863052632633e-10
"2363" 30431 1.85589252274151e-10 7.80042955195222e-10 3.100153637816e-09 2.70531532550047e-09 4.85710131646867e-10 8.21469636151485e-10 1.16066960109748e-10 1.10699208395325e-10
"2364" 30432 1.85589252274151e-10 7.81173348008743e-10 3.09521648617588e-09 2.70531532550047e-09 4.87442855175883e-10 8.22115514875851e-10 1.15764692360405e-10 1.11535364158017e-10
"2365" 30433 1.85589252274151e-10 7.82303740822264e-10 3.09027933453575e-09 2.70531532550047e-09 4.891755787049e-10 8.22761393600218e-10 1.15462424611063e-10 1.12371519920709e-10
"2366" 30434 1.85589252274151e-10 7.83434133635785e-10 3.08534218289563e-09 2.70531532550047e-09 4.90908302233916e-10 8.23407272324584e-10 1.1516015686172e-10 1.132076756834e-10
"2367" 30435 1.85589252274151e-10 7.84564526449306e-10 3.0804050312555e-09 2.70531532550047e-09 4.92641025762933e-10 8.2405315104895e-10 1.14857889112377e-10 1.14043831446092e-10
"2368" 30436 1.85589252274151e-10 7.85694919262826e-10 3.07546787961538e-09 2.70531532550047e-09 4.94373749291950e-10 8.24699029773317e-10 1.14555621363035e-10 1.14879987208784e-10
"2369" 30437 1.85529241569386e-10 7.84995979385848e-10 3.05950609913067e-09 2.69341346677382e-09 4.96106472820966e-10 8.17127983703782e-10 1.14653864046967e-10 1.15547441648734e-10
"2370" 30438 1.84153003627296e-10 7.84297039508869e-10 3.05835913503451e-09 2.69130518887992e-09 4.93442825621402e-10 8.15369846153543e-10 1.14351596297624e-10 1.16053545616961e-10
"2371" 30439 1.83534229100558e-10 7.8359809963189e-10 3.05880750861977e-09 2.68484392302561e-09 4.94558563944514e-10 8.15811222975021e-10 1.14449838981556e-10 1.1672100005691e-10
"2372" 30440 1.8291545457382e-10 7.82899159754911e-10 3.05925588220503e-09 2.67838265717129e-09 4.95674302267626e-10 8.16252599796499e-10 1.14548081665488e-10 1.1738845449686e-10
"2373" 30441 1.82296680047083e-10 7.82200219877933e-10 3.05970425579029e-09 2.67192139131698e-09 4.96790040590737e-10 8.16693976617977e-10 1.1464632434942e-10 1.18055908936809e-10
"2374" 30442 1.81677905520345e-10 7.81501280000954e-10 3.06015262937555e-09 2.66546012546266e-09 4.97905778913849e-10 8.17135353439455e-10 1.14744567033353e-10 1.18723363376759e-10
"2375" 30443 1.81059130993608e-10 7.80802340123975e-10 3.06060100296082e-09 2.65899885960835e-09 4.99021517236961e-10 8.17576730260932e-10 1.14842809717285e-10 1.19390817816708e-10
"2376" 30444 1.8044035646687e-10 7.80103400246996e-10 3.06104937654608e-09 2.65253759375403e-09 5.00137255560073e-10 8.1801810708241e-10 1.14941052401217e-10 1.20058272256657e-10
"2377" 30445 1.79821581940132e-10 7.79404460370018e-10 3.06149775013134e-09 2.64607632789972e-09 5.01252993883184e-10 8.18459483903888e-10 1.15039295085149e-10 1.20725726696607e-10
"2378" 30446 1.79202807413395e-10 7.78705520493039e-10 3.0619461237166e-09 2.6396150620454e-09 5.02368732206296e-10 8.18900860725366e-10 1.15137537769081e-10 1.21393181136556e-10
"2379" 30447 1.79022775299099e-10 7.76244548106225e-10 3.08089706143639e-09 2.6396150620454e-09 5.02014035940203e-10 8.18549233215318e-10 1.17835328420527e-10 1.21224479813814e-10
"2380" 30448 1.78842743184803e-10 7.73783575719411e-10 3.09984799915617e-09 2.6396150620454e-09 5.01659339674109e-10 8.18197605705271e-10 1.20533119071972e-10 1.21055778491071e-10
"2381" 30449 1.78662711070507e-10 7.71322603332598e-10 3.11879893687596e-09 2.6396150620454e-09 5.01304643408016e-10 8.17845978195223e-10 1.23230909723418e-10 1.20887077168329e-10
"2382" 30450 1.78482678956211e-10 7.68861630945784e-10 3.13774987459574e-09 2.6396150620454e-09 5.00949947141922e-10 8.17494350685175e-10 1.25928700374863e-10 1.20718375845587e-10
"2383" 30451 1.78861410663887e-10 7.67099598435949e-10 3.15670081231553e-09 2.64369582773875e-09 4.98692645733283e-10 8.14943208803411e-10 1.28626491026308e-10 1.20549674522844e-10
"2384" 30452 1.79240142371563e-10 7.65337565926114e-10 3.17565175003531e-09 2.6477765934321e-09 4.96435344324644e-10 8.12392066921647e-10 1.31324281677754e-10 1.20380973200102e-10
"2385" 30453 1.7961887407924e-10 7.63575533416279e-10 3.1946026877551e-09 2.65185735912544e-09 4.94178042916005e-10 8.09840925039883e-10 1.34022072329199e-10 1.20212271877359e-10
"2386" 30454 1.79997605786916e-10 7.61813500906444e-10 3.21355362547488e-09 2.65593812481879e-09 4.91920741507365e-10 8.07289783158119e-10 1.36719862980645e-10 1.20043570554617e-10
"2387" 30455 1.80376337494593e-10 7.60051468396609e-10 3.23250456319467e-09 2.66001889051214e-09 4.89663440098726e-10 8.04738641276355e-10 1.3941765363209e-10 1.19874869231874e-10
"2388" 30456 1.80755069202269e-10 7.58289435886774e-10 3.25145550091445e-09 2.66409965620548e-09 4.87406138690087e-10 8.02187499394591e-10 1.42115444283536e-10 1.19706167909132e-10
"2389" 30457 1.81193811614711e-10 7.56527403376939e-10 3.26995806504897e-09 2.65865906333315e-09 4.86526864544371e-10 8.00985491257289e-10 1.44714992251049e-10 1.1887001214644e-10
"2390" 30458 1.81632554027152e-10 7.54765370867104e-10 3.2884606291835e-09 2.65321847046081e-09 4.85647590398654e-10 7.99783483119986e-10 1.47314540218562e-10 1.18033856383748e-10
"2391" 30459 1.81632554027152e-10 7.54100937971569e-10 3.3044224096682e-09 2.64152061791492e-09 4.84768316252938e-10 7.98933102492732e-10 1.48516071518387e-10 1.17366401943799e-10
"2392" 30460 1.81632554027152e-10 7.53436505076033e-10 3.32038419015291e-09 2.62982276536902e-09 4.83889042107222e-10 7.98082721865477e-10 1.49717602818211e-10 1.16698947503849e-10
"2393" 30461 1.81632554027152e-10 7.52772072180498e-10 3.33634597063761e-09 2.61812491282313e-09 4.83009767961506e-10 7.97232341238222e-10 1.50919134118036e-10 1.160314930639e-10
"2394" 30462 1.81632554027152e-10 7.52107639284963e-10 3.35230775112231e-09 2.60642706027723e-09 4.8213049381579e-10 7.96381960610968e-10 1.5212066541786e-10 1.1536403862395e-10
"2395" 30463 1.81632554027152e-10 7.51443206389428e-10 3.36826953160702e-09 2.59472920773134e-09 4.81251219670074e-10 7.95531579983713e-10 1.53322196717685e-10 1.14696584184001e-10
"2396" 30464 1.81632554027152e-10 7.50778773493893e-10 3.38423131209172e-09 2.58303135518544e-09 4.80371945524357e-10 7.94681199356458e-10 1.54523728017509e-10 1.14029129744052e-10
"2397" 30465 1.81632554027152e-10 7.50114340598358e-10 3.40019309257643e-09 2.57133350263955e-09 4.79492671378641e-10 7.93830818729204e-10 1.55725259317334e-10 1.13361675304102e-10
"2398" 30466 1.81632554027152e-10 7.49449907702822e-10 3.41615487306113e-09 2.55963565009366e-09 4.78613397232925e-10 7.92980438101949e-10 1.56926790617158e-10 1.12694220864153e-10
"2399" 30467 1.81632554027152e-10 7.48785474807287e-10 3.43211665354583e-09 2.54793779754776e-09 4.77734123087209e-10 7.92130057474694e-10 1.58128321916983e-10 1.12026766424203e-10
"2400" 30468 1.81692564731918e-10 7.47655081993766e-10 3.43131898470512e-09 2.53984448224738e-09 4.80988930730262e-10 7.91075174944551e-10 1.58030079233051e-10 1.11520662455976e-10
"2401" 30469 1.81752575436683e-10 7.46524689180245e-10 3.4305213158644e-09 2.531751166947e-09 4.84243738373316e-10 7.90020292414408e-10 1.57931836549118e-10 1.11014558487749e-10
"2402" 30470 1.81812586141448e-10 7.45394296366724e-10 3.42972364702369e-09 2.52365785164663e-09 4.87498546016369e-10 7.88965409884265e-10 1.57833593865186e-10 1.10508454519521e-10
"2403" 30471 1.81872596846213e-10 7.44263903553203e-10 3.42892597818297e-09 2.51556453634625e-09 4.90753353659422e-10 7.87910527354122e-10 1.57735351181254e-10 1.10002350551294e-10
"2404" 30472 1.81932607550979e-10 7.43133510739682e-10 3.42812830934226e-09 2.50747122104587e-09 4.94008161302475e-10 7.86855644823979e-10 1.57637108497322e-10 1.09496246583067e-10
"2405" 30473 1.81553875843302e-10 7.38246072947498e-10 3.4279788514805e-09 2.50481849861783e-09 4.98522764119754e-10 7.85065134258039e-10 1.57236598064047e-10 1.09657597054789e-10
"2406" 30474 1.81553875843302e-10 7.39010599222919e-10 3.42762955622505e-09 2.50651876415021e-09 5.02656845908523e-10 7.85065134258039e-10 1.57138355380115e-10 1.09657597054789e-10
"2407" 30475 1.80237648605977e-10 7.39409258960241e-10 3.41087010689963e-09 2.51012330139572e-09 5.07053216637104e-10 7.84860632355151e-10 1.57138355380115e-10 1.09657597054789e-10
"2408" 30476 1.78921421368652e-10 7.39807918697562e-10 3.39411065757421e-09 2.51372783864124e-09 5.11449587365685e-10 7.84656130452262e-10 1.57138355380115e-10 1.09657597054789e-10
"2409" 30477 1.77605194131327e-10 7.40206578434883e-10 3.37735120824879e-09 2.51733237588675e-09 5.15845958094266e-10 7.84451628549374e-10 1.57138355380115e-10 1.09657597054789e-10
"2410" 30478 1.76288966894003e-10 7.40605238172204e-10 3.36059175892337e-09 2.52093691313227e-09 5.20242328822846e-10 7.84247126646486e-10 1.57138355380115e-10 1.09657597054789e-10
"2411" 30479 1.74972739656678e-10 7.41003897909525e-10 3.34383230959796e-09 2.52454145037778e-09 5.24638699551427e-10 7.84042624743597e-10 1.57138355380115e-10 1.09657597054789e-10
"2412" 30480 1.73656512419353e-10 7.41402557646846e-10 3.32707286027254e-09 2.5281459876233e-09 5.29035070280008e-10 7.83838122840709e-10 1.57138355380115e-10 1.09657597054789e-10
"2413" 30481 1.72340285182028e-10 7.41801217384167e-10 3.31031341094712e-09 2.53175052486882e-09 5.33431441008589e-10 7.8363362093782e-10 1.57138355380115e-10 1.09657597054789e-10
"2414" 30482 1.72340285182028e-10 7.41801217384167e-10 3.29794366134675e-09 2.53184126562451e-09 5.33431441008589e-10 7.86863014559652e-10 1.57833593865186e-10 1.09327545260324e-10
"2415" 30483 1.72340285182028e-10 7.41801217384167e-10 3.28557391174639e-09 2.5319320063802e-09 5.33431441008589e-10 7.90092408181483e-10 1.58528832350258e-10 1.0899749346586e-10
"2416" 30484 1.72340285182028e-10 7.41801217384167e-10 3.27320416214602e-09 2.53202274713589e-09 5.33431441008589e-10 7.93321801803314e-10 1.59224070835329e-10 1.08667441671395e-10
"2417" 30485 1.72340285182028e-10 7.41801217384167e-10 3.26083441254566e-09 2.53211348789158e-09 5.33431441008589e-10 7.96551195425146e-10 1.599193093204e-10 1.08337389876931e-10
"2418" 30486 1.72340285182028e-10 7.41801217384167e-10 3.24846466294529e-09 2.53220422864727e-09 5.33431441008589e-10 7.99780589046977e-10 1.60614547805471e-10 1.08007338082466e-10
"2419" 30487 1.72340285182028e-10 7.41801217384167e-10 3.23609491334493e-09 2.53229496940296e-09 5.33431441008589e-10 8.03009982668808e-10 1.61309786290543e-10 1.07677286288002e-10
"2420" 30488 1.72340285182028e-10 7.41801217384167e-10 3.22372516374456e-09 2.53238571015865e-09 5.33431441008589e-10 8.0623937629064e-10 1.62005024775614e-10 1.07347234493537e-10
"2421" 30489 1.72340285182028e-10 7.41435350846067e-10 3.21369972186848e-09 2.53308846945662e-09 5.36778655977924e-10 8.06034874387751e-10 1.62405535208889e-10 1.07017182699072e-10
"2422" 30490 1.72340285182028e-10 7.41069484307967e-10 3.20367427999239e-09 2.53379122875458e-09 5.40125870947259e-10 8.05830372484863e-10 1.62806045642164e-10 1.06687130904608e-10
"2423" 30491 1.72340285182028e-10 7.40703617769867e-10 3.19364883811631e-09 2.53449398805255e-09 5.43473085916595e-10 8.05625870581974e-10 1.63206556075439e-10 1.06357079110143e-10
"2424" 30492 1.72340285182028e-10 7.40337751231767e-10 3.18362339624022e-09 2.53519674735051e-09 5.4682030088593e-10 8.05421368679086e-10 1.63607066508713e-10 1.06027027315679e-10
"2425" 30493 1.72340285182028e-10 7.39971884693667e-10 3.17359795436414e-09 2.53589950664848e-09 5.50167515855265e-10 8.05216866776198e-10 1.64007576941988e-10 1.05696975521214e-10
"2426" 30494 1.72340285182028e-10 7.39606018155567e-10 3.16357251248805e-09 2.53660226594644e-09 5.53514730824601e-10 8.05012364873309e-10 1.64408087375263e-10 1.0536692372675e-10
"2427" 30495 1.72340285182028e-10 7.39240151617467e-10 3.15354707061197e-09 2.53730502524441e-09 5.56861945793936e-10 8.04807862970421e-10 1.64808597808538e-10 1.05036871932285e-10
"2428" 30496 1.73716523124118e-10 7.38009665424061e-10 3.16013162019955e-09 2.53404028427409e-09 5.60327392851969e-10 8.01373967445701e-10 1.65209108241813e-10 1.05036871932285e-10
"2429" 30497 1.75092761066208e-10 7.36779179230654e-10 3.16671616978713e-09 2.53077554330378e-09 5.63792839910002e-10 7.97940071920981e-10 1.65609618675087e-10 1.05036871932285e-10
"2430" 30498 1.76408988303533e-10 7.36413312692554e-10 3.17330071937471e-09 2.51189114093623e-09 5.66877765939526e-10 7.98087197528141e-10 1.65609618675087e-10 1.05036871932285e-10
"2431" 30499 1.77725215540858e-10 7.36047446154454e-10 3.17988526896229e-09 2.49300673856868e-09 5.6996269196905e-10 7.982343231353e-10 1.65609618675087e-10 1.05036871932285e-10
"2432" 30500 1.79041442778183e-10 7.35681579616354e-10 3.18646981854987e-09 2.47412233620113e-09 5.73047617998574e-10 7.98381448742459e-10 1.65609618675087e-10 1.05036871932285e-10
"2433" 30501 1.80357670015508e-10 7.35315713078254e-10 3.19305436813745e-09 2.45523793383358e-09 5.76132544028098e-10 7.98528574349618e-10 1.65609618675087e-10 1.05036871932285e-10
"2434" 30502 1.81673897252833e-10 7.34949846540154e-10 3.19963891772503e-09 2.43635353146603e-09 5.79217470057622e-10 7.98675699956778e-10 1.65609618675087e-10 1.05036871932285e-10
"2435" 30503 1.81673897252833e-10 7.35348506277475e-10 3.20307981001354e-09 2.41656236361975e-09 5.83351551846392e-10 8.01226841838542e-10 1.66508882225569e-10 1.0536692372675e-10
"2436" 30504 1.81673897252833e-10 7.35747166014796e-10 3.20652070230204e-09 2.39677119577348e-09 5.87485633635161e-10 8.03777983720306e-10 1.67408145776051e-10 1.05696975521214e-10
"2437" 30505 1.81673897252833e-10 7.36145825752117e-10 3.20996159459054e-09 2.37698002792721e-09 5.9161971542393e-10 8.0632912560207e-10 1.68307409326533e-10 1.06027027315679e-10
"2438" 30506 1.81673897252833e-10 7.36544485489438e-10 3.21340248687905e-09 2.35718886008094e-09 5.957537972127e-10 8.08880267483834e-10 1.69206672877015e-10 1.06357079110143e-10
"2439" 30507 1.81673897252833e-10 7.36943145226759e-10 3.21684337916755e-09 2.33739769223466e-09 5.99887879001469e-10 8.11431409365598e-10 1.70105936427497e-10 1.06687130904608e-10
"2440" 30508 1.81673897252833e-10 7.3734180496408e-10 3.22028427145606e-09 2.31760652438839e-09 6.04021960790239e-10 8.13982551247362e-10 1.71005199977978e-10 1.07017182699072e-10
"2441" 30509 1.81295165545157e-10 7.36211412150559e-10 3.21948492188126e-09 2.29221516474959e-09 6.08418331518819e-10 8.15331684991824e-10 1.72206731277803e-10 1.07017182699072e-10
"2442" 30510 1.79978938307832e-10 7.35081019337038e-10 3.21469722810289e-09 2.29130839927086e-09 6.12552413307589e-10 8.1753119936354e-10 1.73408262577627e-10 1.07178533170795e-10
"2443" 30511 1.78662711070507e-10 7.33950626523517e-10 3.20990953432452e-09 2.29040163379214e-09 6.16686495096358e-10 8.19730713735256e-10 1.74609793877452e-10 1.07339883642517e-10
"2444" 30512 1.78962764594333e-10 7.33286193627982e-10 3.20592119012094e-09 2.28949486831342e-09 6.16686495096358e-10 8.20581094362511e-10 1.74912061626795e-10 1.0833003902591e-10
"2445" 30513 1.7926281811816e-10 7.32621760732447e-10 3.20193284591737e-09 2.28858810283469e-09 6.16686495096358e-10 8.21431474989766e-10 1.75214329376137e-10 1.09320194409304e-10
"2446" 30514 1.79562871641987e-10 7.31957327836912e-10 3.19794450171379e-09 2.28768133735597e-09 6.16686495096358e-10 8.2228185561702e-10 1.7551659712548e-10 1.10310349792698e-10
"2447" 30515 1.79862925165813e-10 7.31292894941377e-10 3.19395615751022e-09 2.28677457187725e-09 6.16686495096358e-10 8.23132236244275e-10 1.75818864874823e-10 1.11300505176091e-10
"2448" 30516 1.81479205926965e-10 7.28999316115114e-10 3.19799656197982e-09 2.2864798249408e-09 6.15807220950642e-10 8.23132236244275e-10 1.75818864874823e-10 1.12459361882227e-10
"2449" 30517 1.83095486688116e-10 7.26705737288851e-10 3.20203696644942e-09 2.28618507800435e-09 6.14927946804926e-10 8.23132236244275e-10 1.75818864874823e-10 1.13618218588363e-10
"2450" 30518 1.83095486688116e-10 7.24412158462587e-10 3.20288501482208e-09 2.28618507800435e-09 6.13786383719398e-10 8.22077353714132e-10 1.7551659712548e-10 1.13786919911106e-10
"2451" 30519 1.83095486688116e-10 7.22118579636324e-10 3.20373306319474e-09 2.28618507800435e-09 6.12644820633871e-10 8.21022471183989e-10 1.75214329376137e-10 1.13955621233848e-10
"2452" 30520 1.83095486688116e-10 7.19825000810061e-10 3.2045811115674e-09 2.28618507800435e-09 6.11503257548343e-10 8.19967588653846e-10 1.74912061626795e-10 1.14124322556591e-10
"2453" 30521 1.83095486688116e-10 7.17531421983798e-10 3.20542915994006e-09 2.28618507800435e-09 6.10361694462816e-10 8.18912706123703e-10 1.74609793877452e-10 1.14293023879333e-10
"2454" 30522 1.83095486688116e-10 7.15237843157535e-10 3.20627720831272e-09 2.28618507800435e-09 6.09220131377288e-10 8.1785782359356e-10 1.74307526128109e-10 1.14461725202075e-10
"2455" 30523 1.83095486688116e-10 7.12944264331272e-10 3.20712525668538e-09 2.28618507800435e-09 6.08078568291761e-10 8.16802941063416e-10 1.74005258378767e-10 1.14630426524818e-10
"2456" 30524 1.83095486688116e-10 7.10650685505009e-10 3.20797330505804e-09 2.28618507800435e-09 6.06937005206233e-10 8.15748058533273e-10 1.73702990629424e-10 1.1479912784756e-10
"2457" 30525 1.83095486688116e-10 7.08357106678746e-10 3.2088213534307e-09 2.28618507800435e-09 6.05795442120706e-10 8.1469317600313e-10 1.73400722880081e-10 1.14967829170303e-10
"2458" 30526 1.83095486688116e-10 7.06063527852482e-10 3.20966940180336e-09 2.28618507800435e-09 6.04653879035178e-10 8.13638293472987e-10 1.73098455130738e-10 1.15136530493045e-10
"2459" 30527 1.83474218395793e-10 7.08191426900417e-10 3.20966940180336e-09 2.29235159692222e-09 6.06031906298101e-10 8.12436285335685e-10 1.73393183182535e-10 1.1546658228751e-10
"2460" 30528 1.83852950103469e-10 7.10319325948352e-10 3.20966940180336e-09 2.29851811584008e-09 6.07409933561025e-10 8.11234277198382e-10 1.73687911234331e-10 1.15796634081974e-10
"2461" 30529 1.84231681811145e-10 7.12447224996287e-10 3.20966940180336e-09 2.30468463475795e-09 6.08787960823948e-10 8.1003226906108e-10 1.73982639286128e-10 1.16126685876439e-10
"2462" 30530 1.84610413518822e-10 7.14575124044222e-10 3.20966940180336e-09 2.31085115367581e-09 6.10165988086871e-10 8.08830260923778e-10 1.74277367337924e-10 1.16456737670903e-10
"2463" 30531 1.84989145226498e-10 7.16703023092157e-10 3.20966940180336e-09 2.31701767259368e-09 6.11544015349794e-10 8.07628252786475e-10 1.74572095389721e-10 1.16786789465368e-10
"2464" 30532 1.8542788763894e-10 7.21989120621662e-10 3.20986923919706e-09 2.31967039502172e-09 6.13801316758433e-10 8.07628252786475e-10 1.7516909119086e-10 1.15114477939984e-10
"2465" 30533 1.85806619346616e-10 7.25047225723346e-10 3.21006907659076e-09 2.32375116071507e-09 6.16439139195582e-10 8.07276625276428e-10 1.75463819242656e-10 1.15275828411706e-10
"2466" 30534 1.84869123816967e-10 7.23882325928382e-10 3.21041837184621e-09 2.32991767963293e-09 6.1907696163273e-10 8.06483620944902e-10 1.75758547294453e-10 1.15275828411706e-10
"2467" 30535 1.83931628287319e-10 7.22717426133417e-10 3.21076766710166e-09 2.3360841985508e-09 6.21714784069879e-10 8.05690616613376e-10 1.76053275346249e-10 1.15275828411706e-10
"2468" 30536 1.8299413275767e-10 7.21552526338453e-10 3.21111696235711e-09 2.34225071746867e-09 6.24352606507027e-10 8.04897612281851e-10 1.76348003398046e-10 1.15275828411706e-10
"2469" 30537 1.82056637228021e-10 7.20387626543488e-10 3.21146625761257e-09 2.34841723638653e-09 6.26990428944175e-10 8.04104607950325e-10 1.76642731449842e-10 1.15275828411706e-10
"2470" 30538 1.81119141698373e-10 7.19222726748523e-10 3.21181555286802e-09 2.3545837553044e-09 6.29628251381324e-10 8.033116036188e-10 1.76937459501639e-10 1.15275828411706e-10
"2471" 30539 1.80181646168724e-10 7.18057826953559e-10 3.21216484812347e-09 2.36075027422226e-09 6.32266073818472e-10 8.02518599287274e-10 1.77232187553435e-10 1.15275828411706e-10
"2472" 30540 1.79244150639076e-10 7.16892927158594e-10 3.21251414337893e-09 2.36691679314013e-09 6.34903896255621e-10 8.01725594955749e-10 1.77526915605231e-10 1.15275828411706e-10
"2473" 30541 1.78306655109427e-10 7.13600128315695e-10 3.22403416387255e-09 2.37915909022017e-09 6.35022128344319e-10 8.02870226797322e-10 1.78426179155713e-10 1.14945776617242e-10
"2474" 30542 1.77549191694074e-10 7.11239249308767e-10 3.22597879680943e-09 2.38097262117762e-09 6.35757345638921e-10 8.02224348072956e-10 1.78123911406371e-10 1.14615724822777e-10
"2475" 30543 1.76791728278722e-10 7.04422385446197e-10 3.22632809206489e-09 2.38088188042193e-09 6.35875577727619e-10 8.01782971251478e-10 1.79023174956852e-10 1.14454374351055e-10
"2476" 30544 1.76034264863369e-10 6.97605521583628e-10 3.22667738732034e-09 2.38079113966623e-09 6.35993809816317e-10 8.0134159443e-10 1.79922438507334e-10 1.14293023879333e-10
"2477" 30545 1.75276801448016e-10 6.90788657721058e-10 3.22702668257579e-09 2.38070039891054e-09 6.36112041905015e-10 8.00900217608522e-10 1.80821702057816e-10 1.14131673407611e-10
"2478" 30546 1.74519338032664e-10 6.83971793858488e-10 3.22737597783125e-09 2.38060965815485e-09 6.36230273993713e-10 8.00458840787044e-10 1.81720965608298e-10 1.13970322935889e-10
"2479" 30547 1.73761874617311e-10 6.77154929995919e-10 3.2277252730867e-09 2.38051891739916e-09 6.3634850608241e-10 8.00017463965566e-10 1.8262022915878e-10 1.13808972464167e-10
"2480" 30548 1.73004411201958e-10 6.70338066133349e-10 3.22807456834215e-09 2.38042817664347e-09 6.36466738171108e-10 7.99576087144089e-10 1.83519492709261e-10 1.13647621992445e-10
"2481" 30549 1.72246947786605e-10 6.6352120227078e-10 3.2284238635976e-09 2.38033743588778e-09 6.36584970259806e-10 7.99134710322611e-10 1.84418756259743e-10 1.13486271520723e-10
"2482" 30550 1.71489484371253e-10 6.5670433840821e-10 3.22877315885306e-09 2.38024669513209e-09 6.36703202348504e-10 7.98693333501133e-10 1.85318019810225e-10 1.13324921049e-10
"2483" 30551 1.707320209559e-10 6.4988747454564e-10 3.22912245410851e-09 2.3801559543764e-09 6.36821434437202e-10 7.98251956679655e-10 1.86217283360707e-10 1.13163570577278e-10
"2484" 30552 1.69974557540547e-10 6.43070610683071e-10 3.22947174936396e-09 2.38006521362071e-09 6.36939666525899e-10 7.97810579858177e-10 1.87116546911189e-10 1.13002220105556e-10
"2485" 30553 1.69217094125195e-10 6.36253746820501e-10 3.22982104461942e-09 2.37997447286501e-09 6.37057898614597e-10 7.97369203036699e-10 1.88015810461671e-10 1.12840869633834e-10
"2486" 30554 1.69835868651932e-10 6.3179776196486e-10 3.22897299624676e-09 2.3777979788848e-09 6.36795609674786e-10 7.97573704939588e-10 1.88620345960356e-10 1.11850714250441e-10
"2487" 30555 1.69835868651932e-10 6.31033235689439e-10 3.22852462266149e-09 2.33526753174958e-09 6.36178624468881e-10 7.97778206842476e-10 1.8982187726018e-10 1.12019415573183e-10
"2488" 30556 1.69835868651932e-10 6.30268709414017e-10 3.22807624907623e-09 2.29273708461436e-09 6.35561639262976e-10 7.97982708745365e-10 1.91023408560005e-10 1.12188116895925e-10
"2489" 30557 1.69835868651932e-10 6.29504183138596e-10 3.22762787549097e-09 2.25020663747913e-09 6.34944654057071e-10 7.98187210648253e-10 1.92224939859829e-10 1.12356818218668e-10
"2490" 30558 1.69835868651932e-10 6.28739656863175e-10 3.22717950190571e-09 2.20767619034391e-09 6.34327668851167e-10 7.98391712551141e-10 1.93426471159654e-10 1.1252551954141e-10
"2491" 30559 1.69835868651932e-10 6.27975130587754e-10 3.22673112832045e-09 2.16514574320868e-09 6.33710683645262e-10 7.9859621445403e-10 1.94628002459478e-10 1.12694220864153e-10
"2492" 30560 1.69835868651932e-10 6.27210604312333e-10 3.22628275473518e-09 2.12261529607346e-09 6.33093698439357e-10 7.98800716356918e-10 1.95829533759303e-10 1.12862922186895e-10
"2493" 30561 1.69835868651932e-10 6.26446078036912e-10 3.22583438114992e-09 2.08008484893824e-09 6.32476713233452e-10 7.99005218259807e-10 1.97031065059127e-10 1.13031623509638e-10
"2494" 30562 1.72029580714141e-10 6.28275410727412e-10 3.33711006728718e-09 2.03755440180301e-09 6.3174149593885e-10 8.0006010078995e-10 1.98232596358952e-10 1.13031623509638e-10
"2495" 30563 1.74223292776349e-10 6.30104743417912e-10 3.44838575342445e-09 1.99502395466779e-09 6.31006278644247e-10 8.01114983320093e-10 1.99434127658776e-10 1.13031623509638e-10
"2496" 30564 1.73604518249611e-10 6.29473103721598e-10 3.44773754244549e-09 1.9543977792457e-09 6.31006278644247e-10 8.10558919531324e-10 1.99335884974844e-10 1.13361675304102e-10
"2497" 30565 1.72985743722874e-10 6.28841464025284e-10 3.44708933146652e-09 1.91377160382361e-09 6.31006278644247e-10 8.20002855742556e-10 1.99237642290912e-10 1.13691727098567e-10
"2498" 30566 1.72366969196136e-10 6.2820982432897e-10 3.44644112048756e-09 1.87314542840153e-09 6.31006278644247e-10 8.29446791953788e-10 1.9913939960698e-10 1.14021778893031e-10
"2499" 30567 1.72366969196136e-10 6.27578184632656e-10 3.44220087862426e-09 1.85965656956756e-09 6.30481700764624e-10 8.38686226262131e-10 1.97348412203563e-10 1.14351830687496e-10
"2500" 30568 1.72366969196136e-10 6.26946544936342e-10 3.43796063676096e-09 1.8461677107336e-09 6.29957122885002e-10 8.47925660570474e-10 1.95557424800145e-10 1.1468188248196e-10
"2501" 30569 1.72366969196136e-10 6.26314905240028e-10 3.43372039489767e-09 1.83267885189963e-09 6.29432545005379e-10 8.57165094878817e-10 1.93766437396728e-10 1.15011934276425e-10
"2502" 30570 1.72366969196136e-10 6.25683265543714e-10 3.42948015303437e-09 1.81918999306567e-09 6.28907967125756e-10 8.66404529187161e-10 1.9197544999331e-10 1.15341986070889e-10
"2503" 30571 1.72366969196136e-10 6.250516258474e-10 3.42523991117107e-09 1.8057011342317e-09 6.28383389246134e-10 8.75643963495504e-10 1.90184462589893e-10 1.15672037865354e-10
"2504" 30572 1.72366969196136e-10 6.24419986151086e-10 3.42099966930777e-09 1.79221227539774e-09 6.27858811366511e-10 8.84883397803847e-10 1.88393475186476e-10 1.16002089659819e-10
"2505" 30573 1.72366969196136e-10 6.23788346454772e-10 3.41675942744447e-09 1.77872341656378e-09 6.27334233486888e-10 8.9412283211219e-10 1.86602487783058e-10 1.16332141454283e-10
"2506" 30574 1.71928226783694e-10 6.23156706758458e-10 3.38219768522951e-09 1.77992492897895e-09 6.26809655607265e-10 9.01162752048817e-10 1.86504245099126e-10 1.16662193248748e-10
"2507" 30575 1.70551988841604e-10 6.23289593337565e-10 3.27027378811329e-09 1.77332787303019e-09 6.23030270084589e-10 9.10606688260049e-10 1.86406002415194e-10 1.1615608928052e-10
"2508" 30576 1.69794525426251e-10 6.25184512426507e-10 3.16393525361615e-09 1.76700303934851e-09 6.1889618829582e-10 9.10606688260049e-10 1.88098747134679e-10 1.15488634840571e-10
"2509" 30577 1.69037062010899e-10 6.27079431515449e-10 3.05759671911901e-09 1.76067820566682e-09 6.14762106507051e-10 9.10606688260049e-10 1.89791491854164e-10 1.14821180400621e-10
"2510" 30578 1.68279598595546e-10 6.28974350604391e-10 2.95125818462187e-09 1.75435337198514e-09 6.10628024718281e-10 9.10606688260049e-10 1.9148423657365e-10 1.14153725960672e-10
"2511" 30579 1.67522135180193e-10 6.30869269693333e-10 2.84491965012474e-09 1.74802853830345e-09 6.06493942929512e-10 9.10606688260049e-10 1.93176981293135e-10 1.13486271520723e-10
"2512" 30580 1.66764671764841e-10 6.32764188782275e-10 2.7385811156276e-09 1.74170370462177e-09 6.02359861140742e-10 9.10606688260049e-10 1.9486972601262e-10 1.12818817080773e-10
"2513" 30581 1.66007208349488e-10 6.34659107871217e-10 2.63224258113046e-09 1.73537887094008e-09 5.98225779351973e-10 9.10606688260049e-10 1.96562470732105e-10 1.12151362640824e-10
"2514" 30582 1.65249744934135e-10 6.36554026960159e-10 2.52590404663332e-09 1.7290540372584e-09 5.94091697563204e-10 9.10606688260049e-10 1.98255215451591e-10 1.11483908200874e-10
"2515" 30583 1.64492281518783e-10 6.38448946049101e-10 2.41956551213619e-09 1.72272920357671e-09 5.89957615774434e-10 9.10606688260049e-10 1.99947960171076e-10 1.10816453760925e-10
"2516" 30584 1.6373481810343e-10 6.40343865138043e-10 2.31322697763905e-09 1.71640436989503e-09 5.85823533985665e-10 9.10606688260049e-10 2.01640704890561e-10 1.10148999320975e-10
"2517" 30585 1.62797322573781e-10 6.4157435133145e-10 2.20195129150178e-09 1.70799378298883e-09 5.82568726342612e-10 9.10459562652889e-10 2.01640704890561e-10 1.09481544881026e-10
"2518" 30586 1.61859827044133e-10 6.42804837524857e-10 2.09067560536452e-09 1.69958319608262e-09 5.79313918699558e-10 9.1031243704573e-10 2.01640704890561e-10 1.08814090441077e-10
"2519" 30587 1.60922331514484e-10 6.44035323718264e-10 1.97939991922726e-09 1.69117260917642e-09 5.76059111056505e-10 9.10165311438571e-10 2.01640704890561e-10 1.08146636001127e-10
"2520" 30588 1.59984835984835e-10 6.45265809911671e-10 1.86812423309e-09 1.68276202227022e-09 5.72804303413452e-10 9.10018185831412e-10 2.01640704890561e-10 1.07479181561178e-10
"2521" 30589 1.59047340455187e-10 6.46496296105077e-10 1.75684854695273e-09 1.67435143536401e-09 5.69549495770399e-10 9.09871060224252e-10 2.01640704890561e-10 1.06811727121228e-10
"2522" 30590 1.58109844925538e-10 6.47726782298484e-10 1.64557286081547e-09 1.66594084845781e-09 5.66294688127345e-10 9.09723934617093e-10 2.01640704890561e-10 1.06144272681279e-10
"2523" 30591 1.58109844925538e-10 6.48591401953791e-10 1.64622107179443e-09 1.66385509523329e-09 5.66294688127345e-10 9.08930930285567e-10 1.99041156923048e-10 1.06144272681279e-10
"2524" 30592 1.58488576633214e-10 6.49057361871777e-10 1.64507410769826e-09 1.66324307669102e-09 5.65703527683856e-10 9.0857930277552e-10 1.99041156923048e-10 1.05982922209557e-10
"2525" 30593 1.58867308340891e-10 6.49523321789763e-10 1.6439271436021e-09 1.66263105814874e-09 5.65112367240367e-10 9.08227675265472e-10 1.99041156923048e-10 1.05821571737835e-10
"2526" 30594 1.59246040048567e-10 6.49989281707749e-10 1.64278017950593e-09 1.66201903960647e-09 5.64521206796878e-10 9.07876047755424e-10 1.99041156923048e-10 1.05660221266113e-10
"2527" 30595 1.59624771756243e-10 6.50455241625735e-10 1.64163321540976e-09 1.6614070210642e-09 5.63930046353389e-10 9.07524420245377e-10 1.99041156923048e-10 1.05498870794391e-10
"2528" 30596 1.6000350346392e-10 6.5092120154372e-10 1.64048625131359e-09 1.66079500252192e-09 5.633388859099e-10 9.07172792735329e-10 1.99041156923048e-10 1.05337520322668e-10
"2529" 30597 1.60382235171596e-10 6.51387161461706e-10 1.63933928721742e-09 1.66018298397965e-09 5.62747725466411e-10 9.06821165225281e-10 1.99041156923048e-10 1.05176169850946e-10
"2530" 30598 1.60940998993568e-10 6.57439499048855e-10 1.63859199790865e-09 1.65957096543737e-09 5.61277290877206e-10 9.07671545852536e-10 1.9934342467239e-10 1.04846118056482e-10
"2531" 30599 1.61319730701245e-10 6.57040839311534e-10 1.63699666022722e-09 1.66512546581297e-09 5.59426335259491e-10 9.07319918342488e-10 1.99645692421733e-10 1.04516066262017e-10
"2532" 30600 1.61878494523217e-10 6.58171232125055e-10 1.63699666022722e-09 1.66421870033424e-09 5.60213202078925e-10 9.1054931196432e-10 2.00242688222872e-10 1.04516066262017e-10
"2533" 30601 1.62437258345189e-10 6.59301624938576e-10 1.63699666022722e-09 1.66331193485552e-09 5.61000068898359e-10 9.13778705586151e-10 2.00839684024011e-10 1.04516066262017e-10
"2534" 30602 1.62996022167162e-10 6.60432017752097e-10 1.63699666022722e-09 1.6624051693768e-09 5.61786935717793e-10 9.17008099207982e-10 2.01436679825151e-10 1.04516066262017e-10
"2535" 30603 1.63554785989134e-10 6.61562410565618e-10 1.63699666022722e-09 1.66149840389807e-09 5.62573802537228e-10 9.20237492829814e-10 2.0203367562629e-10 1.04516066262017e-10
"2536" 30604 1.64113549811106e-10 6.62692803379139e-10 1.63699666022722e-09 1.66059163841935e-09 5.63360669356662e-10 9.23466886451645e-10 2.02630671427429e-10 1.04516066262017e-10
"2537" 30605 1.64672313633079e-10 6.6382319619266e-10 1.63699666022722e-09 1.65968487294063e-09 5.64147536176096e-10 9.26696280073476e-10 2.03227667228568e-10 1.04516066262017e-10
"2538" 30606 1.65231077455051e-10 6.64953589006181e-10 1.63699666022722e-09 1.65877810746191e-09 5.6493440299553e-10 9.29925673695308e-10 2.03824663029707e-10 1.04516066262017e-10
"2539" 30607 1.65789841277023e-10 6.66083981819702e-10 1.63699666022722e-09 1.65787134198318e-09 5.65721269814964e-10 9.33155067317139e-10 2.04421658830846e-10 1.04516066262017e-10
"2540" 30608 1.66348605098996e-10 6.67214374633223e-10 1.63699666022722e-09 1.65696457650446e-09 5.66508136634398e-10 9.3638446093897e-10 2.05018654631985e-10 1.04516066262017e-10
"2541" 30609 1.66907368920968e-10 6.68344767446744e-10 1.63699666022722e-09 1.65605781102574e-09 5.67295003453832e-10 9.39613854560802e-10 2.05615650433124e-10 1.04516066262017e-10
"2542" 30610 1.6746613274294e-10 6.69475160260265e-10 1.63699666022722e-09 1.65515104554701e-09 5.68081870273266e-10 9.42843248182633e-10 2.06212646234264e-10 1.04516066262017e-10
"2543" 30611 1.68024896564912e-10 6.70605553073786e-10 1.63699666022722e-09 1.65424428006829e-09 5.688687370927e-10 9.46072641804464e-10 2.06809642035403e-10 1.04516066262017e-10
"2544" 30612 1.68583660386885e-10 6.71735945887307e-10 1.63699666022722e-09 1.65333751458957e-09 5.69655603912134e-10 9.49302035426296e-10 2.07406637836542e-10 1.04516066262017e-10
