"time" "channel1" "channel2" "channel3" "channel4" "channel5" "channel6" "channel7" "channel8"
"1" 3953 1.35566600238931e-08 2.14412724847571e-09 5.78303577016978e-09 1.1851194415892e-07 1.27452642459151e-08 1.03184808551094e-08 7.7456690853148e-08 1.1985621010007e-07
"2" 3954 1.35049370628138e-08 2.14614379194126e-09 5.76582894289775e-09 1.17999709242496e-07 1.27826847869621e-08 1.02935576498603e-08 7.62008614755315e-08 1.19266351303038e-07
"3" 3955 1.34532141017345e-08 2.1481603354068e-09 5.74862211562572e-09 1.17487474326072e-07 1.28201053280092e-08 1.02686344446112e-08 7.4945032097915e-08 1.18676492506006e-07
"4" 3956 1.34014911406552e-08 2.15017687887235e-09 5.73141528835369e-09 1.16975239409648e-07 1.28575258690562e-08 1.02437112393621e-08 7.36892027202985e-08 1.18086633708974e-07
"5" 3957 1.33497681795759e-08 2.15219342233789e-09 5.71420846108166e-09 1.16463004493224e-07 1.28949464101033e-08 1.02187880341131e-08 7.24333733426819e-08 1.17496774911942e-07
"6" 3958 1.32980452184965e-08 2.15420996580344e-09 5.69700163380963e-09 1.159507695768e-07 1.29323669511503e-08 1.0193864828864e-08 7.11775439650654e-08 1.1690691611491e-07
"7" 3959 1.3254120950051e-08 2.15622650926898e-09 5.67505670368134e-09 1.1651397632271e-07 1.31741129245175e-08 1.01692693088226e-08 6.99629039638481e-08 1.16409991538302e-07
"8" 3960 1.32101966816054e-08 2.15824305273452e-09 5.65311177355305e-09 1.1707718306862e-07 1.34158588978847e-08 1.01446737887812e-08 6.87482639626308e-08 1.15913066961694e-07
"9" 3961 1.32213846222598e-08 2.15160677513745e-09 5.67231319923628e-09 1.17975315896444e-07 1.36522665401049e-08 1.0145503839759e-08 6.8789468700568e-08 1.16050673321453e-07
"10" 3962 1.32256126889284e-08 2.15160677513745e-09 5.69026800091251e-09 1.19050431612612e-07 1.38954143780357e-08 1.01466651885972e-08 6.88254480519281e-08 1.15671724363269e-07
"11" 3963 1.32298407555971e-08 2.15160677513745e-09 5.70822280258874e-09 1.2012554732878e-07 1.41385622159665e-08 1.01478265374355e-08 6.88614274032882e-08 1.15292775405084e-07
"12" 3964 1.32340688222658e-08 2.15160677513745e-09 5.72617760426497e-09 1.21200663044948e-07 1.43817100538973e-08 1.01489878862738e-08 6.88974067546483e-08 1.149138264469e-07
"13" 3965 1.32382968889344e-08 2.15160677513745e-09 5.74413240594120e-09 1.22275778761116e-07 1.46248578918281e-08 1.01501492351121e-08 6.89333861060084e-08 1.14534877488716e-07
"14" 3966 1.32425249556031e-08 2.15160677513745e-09 5.76208720761742e-09 1.23350894477284e-07 1.48680057297589e-08 1.01513105839503e-08 6.89693654573685e-08 1.14155928530531e-07
"15" 3967 1.32467530222717e-08 2.15160677513745e-09 5.78004200929365e-09 1.24426010193452e-07 1.51111535676898e-08 1.01524719327886e-08 6.90053448087285e-08 1.13776979572347e-07
"16" 3968 1.32330939856865e-08 2.15034912684608e-09 5.77804720385364e-09 1.24435553238418e-07 1.70108606840258e-08 1.01591159532633e-08 6.90031042600856e-08 1.13299079825843e-07
"17" 3969 1.32194349491013e-08 2.1490914785547e-09 5.77605239841363e-09 1.24445096283383e-07 1.89105678003618e-08 1.01657599737381e-08 6.90008637114427e-08 1.1282118007934e-07
"18" 3970 1.32057759125161e-08 2.14783383026333e-09 5.77405759297361e-09 1.24454639328348e-07 2.08102749166978e-08 1.01724039942128e-08 6.89986231627998e-08 1.12343280332836e-07
"19" 3971 1.31921168759309e-08 2.14657618197195e-09 5.7720627875336e-09 1.24464182373313e-07 2.27099820330338e-08 1.01790480146875e-08 6.89963826141569e-08 1.11865380586332e-07
"20" 3972 1.31784578393457e-08 2.14531853368057e-09 5.77006798209359e-09 1.24473725418279e-07 2.46096891493698e-08 1.01856920351623e-08 6.89941420655139e-08 1.11387480839829e-07
"21" 3973 1.31647988027605e-08 2.1440608853892e-09 5.76807317665357e-09 1.24483268463244e-07 2.65093962657058e-08 1.0192336055637e-08 6.8991901516871e-08 1.10909581093325e-07
"22" 3974 1.31511397661753e-08 2.14280323709782e-09 5.76607837121356e-09 1.24492811508209e-07 2.84091033820418e-08 1.01989800761117e-08 6.89896609682281e-08 1.10431681346822e-07
"23" 3975 1.31374807295901e-08 2.14154558880645e-09 5.76408356577355e-09 1.24502354553175e-07 3.03088104983779e-08 1.02056240965865e-08 6.89874204195852e-08 1.09953781600318e-07
"24" 3976 1.31238216930049e-08 2.14028794051507e-09 5.76208876033353e-09 1.2451189759814e-07 3.22085176147139e-08 1.02122681170612e-08 6.89851798709423e-08 1.09475881853815e-07
"25" 3977 1.31101626564197e-08 2.1390302922237e-09 5.76009395489352e-09 1.24521440643105e-07 3.41082247310499e-08 1.0218912137536e-08 6.89829393222993e-08 1.08997982107311e-07
"26" 3978 1.30965036198345e-08 2.13777264393232e-09 5.75809914945351e-09 1.24530983688071e-07 3.60079318473859e-08 1.02255561580107e-08 6.89806987736564e-08 1.08520082360807e-07
"27" 3979 1.30828445832493e-08 2.13651499564095e-09 5.75610434401349e-09 1.24540526733036e-07 3.79076389637219e-08 1.02322001784854e-08 6.89784582250135e-08 1.08042182614304e-07
"28" 3980 1.30691855466641e-08 2.13525734734957e-09 5.75410953857348e-09 1.24550069778001e-07 3.98073460800579e-08 1.02388441989602e-08 6.89762176763706e-08 1.075642828678e-07
"29" 3981 1.30555265100789e-08 2.13399969905819e-09 5.75211473313347e-09 1.24559612822967e-07 4.17070531963939e-08 1.02454882194349e-08 6.89739771277277e-08 1.07086383121297e-07
"30" 3982 1.30418674734937e-08 2.13274205076682e-09 5.75011992769345e-09 1.24569155867932e-07 4.36067603127299e-08 1.02521322399096e-08 6.89717365790847e-08 1.06608483374793e-07
"31" 3983 1.29185961201019e-08 2.12905522987956e-09 5.72019411957459e-09 1.24622243573308e-07 4.40004371972692e-08 1.02516407120981e-08 6.89804839605584e-08 1.03500024415513e-07
"32" 3984 1.27632798530508e-08 2.1253684089923e-09 5.72842297667927e-09 1.24636534606756e-07 4.42624024224322e-08 1.02123958331369e-08 6.89006220156531e-08 1.02954379685861e-07
"33" 3985 1.26079635859998e-08 2.12168158810503e-09 5.73665183378394e-09 1.24650825640203e-07 4.45243676475952e-08 1.01731509541758e-08 6.88207600707478e-08 1.02408734956209e-07
"34" 3986 1.24526473189488e-08 2.11799476721777e-09 5.74488069088862e-09 1.24665116673651e-07 4.47863328727582e-08 1.01339060752147e-08 6.87408981258426e-08 1.01863090226557e-07
"35" 3987 1.22973310518978e-08 2.11430794633051e-09 5.75310954799329e-09 1.24679407707098e-07 4.50482980979212e-08 1.00946611962536e-08 6.86610361809373e-08 1.01317445496905e-07
"36" 3988 1.21420147848467e-08 2.11062112544325e-09 5.76133840509797e-09 1.24693698740546e-07 4.53102633230842e-08 1.00554163172924e-08 6.8581174236032e-08 1.00771800767253e-07
"37" 3989 1.19866985177957e-08 2.10693430455599e-09 5.76956726220264e-09 1.24707989773993e-07 4.55722285482472e-08 1.00161714383313e-08 6.85013122911267e-08 1.00226156037601e-07
"38" 3990 1.18313822507447e-08 2.10324748366873e-09 5.77779611930732e-09 1.24722280807441e-07 4.58341937734101e-08 9.97692655937021e-09 6.84214503462214e-08 9.96805113079489e-08
"39" 3991 1.16760659836937e-08 2.09956066278147e-09 5.78602497641199e-09 1.24736571840888e-07 4.60961589985731e-08 9.93768168040909e-09 6.83415884013161e-08 9.9134866578297e-08
"40" 3992 1.15207497166427e-08 2.0958738418942e-09 5.79425383351667e-09 1.24750862874336e-07 4.63581242237361e-08 9.89843680144797e-09 6.82617264564108e-08 9.85892218486451e-08
"41" 3993 1.13654334495916e-08 2.09218702100694e-09 5.80248269062134e-09 1.24765153907783e-07 4.66200894488991e-08 9.85919192248684e-09 6.81818645115056e-08 9.80435771189931e-08
"42" 3994 1.12101171825406e-08 2.08850020011968e-09 5.81071154772602e-09 1.24779444941231e-07 4.68820546740621e-08 9.81994704352572e-09 6.81020025666003e-08 9.74979323893412e-08
"43" 3995 1.10548009154896e-08 2.08481337923242e-09 5.81894040483069e-09 1.24793735974678e-07 4.71440198992251e-08 9.7807021645646e-09 6.8022140621695e-08 9.69522876596892e-08
"44" 3996 1.08994846484386e-08 2.08112655834516e-09 5.82716926193537e-09 1.24808027008126e-07 4.74059851243881e-08 9.74145728560348e-09 6.79422786767897e-08 9.64066429300373e-08
"45" 3997 1.07441683813875e-08 2.0774397374579e-09 5.8241764326889e-09 1.24797718267089e-07 4.84226300961602e-08 9.69572500346585e-09 6.78773409215555e-08 9.58654690083391e-08
"46" 3998 1.07143792122863e-08 2.0774397374579e-09 5.78926298988356e-09 1.24626673348151e-07 4.9453590955189e-08 9.68110815842143e-09 6.78293684530754e-08 9.54780368374484e-08
"47" 3999 1.07124295391279e-08 2.07672390427716e-09 5.79026039260357e-09 1.24576896375117e-07 5.0484956172547e-08 9.66649131337702e-09 6.77551999247884e-08 9.54776954055274e-08
"48" 4000 1.07104798659694e-08 2.06807108321455e-09 5.74911248407594e-09 1.24244558194791e-07 5.15136120555658e-08 9.66848993849866e-09 6.75615149868282e-08 9.5349902377202e-08
"49" 4001 1.0708530192811e-08 2.05941826215193e-09 5.70796457554831e-09 1.23912220014464e-07 5.25422679385846e-08 9.6704885636203e-09 6.7367830048868e-08 9.52221093488767e-08
"50" 4002 1.07065805196526e-08 2.05076544108932e-09 5.66681666702068e-09 1.23579881834138e-07 5.35709238216033e-08 9.67248718874194e-09 6.71741451109078e-08 9.50943163205513e-08
"51" 4003 1.07046308464941e-08 2.0421126200267e-09 5.62566875849305e-09 1.23247543653812e-07 5.45995797046221e-08 9.67448581386359e-09 6.69804601729476e-08 9.49665232922259e-08
"52" 4004 1.07026811733357e-08 2.03345979896409e-09 5.58452084996542e-09 1.22915205473485e-07 5.56282355876409e-08 9.67648443898523e-09 6.67867752349874e-08 9.48387302639005e-08
"53" 4005 1.07007315001773e-08 2.02480697790147e-09 5.54337294143779e-09 1.22582867293159e-07 5.66568914706597e-08 9.67848306410687e-09 6.65930902970272e-08 9.47109372355752e-08
"54" 4006 1.06987818270188e-08 2.01615415683886e-09 5.50222503291016e-09 1.22250529112832e-07 5.76855473536785e-08 9.68048168922851e-09 6.6399405359067e-08 9.45831442072498e-08
"55" 4007 1.06968321538604e-08 2.00750133577624e-09 5.46107712438252e-09 1.21918190932506e-07 5.87142032366973e-08 9.68248031435016e-09 6.62057204211068e-08 9.44553511789244e-08
"56" 4008 1.0694882480702e-08 1.99884851471363e-09 5.41992921585489e-09 1.21585852752179e-07 5.9742859119716e-08 9.6844789394718e-09 6.60120354831467e-08 9.43275581505991e-08
"57" 4009 1.06929328075435e-08 1.99019569365102e-09 5.37878130732726e-09 1.21253514571853e-07 6.07715150027348e-08 9.68647756459344e-09 6.58183505451865e-08 9.41997651222737e-08
"58" 4010 1.06909831343851e-08 1.9815428725884e-09 5.33763339879963e-09 1.20921176391526e-07 6.18001708857536e-08 9.68847618971508e-09 6.56246656072263e-08 9.40719720939483e-08
"59" 4011 1.06887727498405e-08 1.97657687241305e-09 5.30446595420494e-09 1.20572147548168e-07 6.35700810176506e-08 9.69279389986046e-09 6.54638753326947e-08 9.39495259988171e-08
"60" 4012 1.06865623652958e-08 1.97161087223769e-09 5.27129850961025e-09 1.20223118704811e-07 6.53399911495476e-08 9.69711161000583e-09 6.53030850581631e-08 9.38270799036859e-08
"61" 4013 1.06843519807512e-08 1.96664487206234e-09 5.23813106501556e-09 1.19874089861453e-07 6.71099012814447e-08 9.70142932015121e-09 6.51422947836315e-08 9.37046338085548e-08
"62" 4014 1.06821415962065e-08 1.96167887188699e-09 5.20496362042087e-09 1.19525061018095e-07 6.88798114133417e-08 9.70574703029658e-09 6.49815045090999e-08 9.35821877134236e-08
"63" 4015 1.06799312116619e-08 1.95671287171163e-09 5.17179617582618e-09 1.19176032174737e-07 7.06497215452387e-08 9.71006474044196e-09 6.48207142345683e-08 9.34597416182924e-08
"64" 4016 1.06777208271173e-08 1.95174687153628e-09 5.13862873123149e-09 1.18827003331379e-07 7.24196316771357e-08 9.71438245058733e-09 6.46599239600367e-08 9.33372955231612e-08
"65" 4017 1.06765306184622e-08 1.9428339084167e-09 5.108702509055e-09 1.18567263231212e-07 7.36148978804788e-08 9.74365587985713e-09 6.44924043588073e-08 9.3192297717149e-08
"66" 4018 1.06803279409793e-08 1.94207501324254e-09 5.03663356349105e-09 1.17021426440929e-07 7.39418898004547e-08 9.76741412361513e-09 6.44881687976956e-08 9.27855219952939e-08
"67" 4019 1.06841252634963e-08 1.94131611806837e-09 4.96456461792711e-09 1.15475589650645e-07 7.42688817204306e-08 9.79117236737313e-09 6.44839332365838e-08 9.23787462734388e-08
"68" 4020 1.06521143853743e-08 1.93528801866845e-09 4.93962747963879e-09 1.15662303855959e-07 7.45877456373889e-08 9.79281079341173e-09 6.44278580743586e-08 9.14396389133678e-08
"69" 4021 1.06201035072523e-08 1.92925991926853e-09 4.91469034135048e-09 1.15849018061272e-07 7.49066095543472e-08 9.79444921945032e-09 6.43717829121334e-08 9.05005315532967e-08
"70" 4022 1.05880926291302e-08 1.92323181986862e-09 4.88975320306217e-09 1.16035732266585e-07 7.52254734713054e-08 9.79608764548891e-09 6.43157077499082e-08 8.95614241932257e-08
"71" 4023 1.05560817510082e-08 1.9172037204687e-09 4.86481606477386e-09 1.16222446471898e-07 7.55443373882637e-08 9.79772607152751e-09 6.42596325876831e-08 8.86223168331546e-08
"72" 4024 1.05240708728862e-08 1.91117562106878e-09 4.83987892648554e-09 1.16409160677211e-07 7.58632013052219e-08 9.7993644975661e-09 6.42035574254579e-08 8.76832094730836e-08
"73" 4025 1.04920599947641e-08 1.90514752166887e-09 4.81494178819723e-09 1.16595874882524e-07 7.61820652221802e-08 9.8010029236047e-09 6.41474822632327e-08 8.67441021130126e-08
"74" 4026 1.04621914922211e-08 1.89983525544969e-09 4.79623880508799e-09 1.18205473400861e-07 7.61955456136013e-08 9.83176538692048e-09 6.46033351800254e-08 8.62117704747967e-08
"75" 4027 1.04323229896782e-08 1.8945229892305e-09 4.77753582197874e-09 1.19815071919197e-07 7.62090260050224e-08 9.86252785023627e-09 6.50591880968181e-08 8.56794388365808e-08
"76" 4028 1.04024544871352e-08 1.88921072301132e-09 4.7588328388695e-09 1.21424670437533e-07 7.62225063964435e-08 9.89329031355206e-09 6.55150410136109e-08 8.51471071983649e-08
"77" 4029 1.03725859845922e-08 1.88389845679214e-09 4.74012985576026e-09 1.23034268955869e-07 7.62359867878646e-08 9.92405277686785e-09 6.59708939304036e-08 8.46147755601489e-08
"78" 4030 1.03427174820492e-08 1.87858619057296e-09 4.72142687265101e-09 1.24643867474205e-07 7.62494671792857e-08 9.95481524018364e-09 6.64267468471964e-08 8.4082443921933e-08
"79" 4031 1.03128489795062e-08 1.87327392435378e-09 4.70272388954177e-09 1.26253465992542e-07 7.62629475707068e-08 9.98557770349942e-09 6.68825997639891e-08 8.35501122837171e-08
"80" 4032 1.02829804769632e-08 1.8679616581346e-09 4.68402090643253e-09 1.27863064510878e-07 7.62764279621279e-08 1.00163401668152e-08 6.73384526807818e-08 8.30177806455012e-08
"81" 4033 1.02531119744202e-08 1.86264939191542e-09 4.66531792332328e-09 1.29472663029214e-07 7.6289908353549e-08 1.0047102630131e-08 6.77943055975746e-08 8.24854490072853e-08
"82" 4034 1.02232434718773e-08 1.85733712569624e-09 4.64661494021404e-09 1.3108226154755e-07 7.63033887449701e-08 1.00778650934468e-08 6.82501585143673e-08 8.19531173690694e-08
"83" 4035 1.01933749693343e-08 1.85202485947706e-09 4.62791195710480e-09 1.32691860065886e-07 7.63168691363912e-08 1.01086275567626e-08 6.87060114311601e-08 8.14207857308535e-08
"84" 4036 1.01635064667913e-08 1.84671259325788e-09 4.60920897399555e-09 1.34301458584222e-07 7.63303495278123e-08 1.01393900200784e-08 6.91618643479528e-08 8.08884540926376e-08
"85" 4037 1.01336379642483e-08 1.8414003270387e-09 4.59050599088631e-09 1.35911057102559e-07 7.63438299192334e-08 1.01701524833942e-08 6.96177172647455e-08 8.03561224544217e-08
"86" 4038 1.01037694617053e-08 1.83608806081952e-09 4.57180300777706e-09 1.37520655620895e-07 7.63573103106545e-08 1.02009149467099e-08 7.00735701815383e-08 7.98237908162058e-08
"87" 4039 1.00739009591623e-08 1.83077579460034e-09 4.55310002466782e-09 1.39130254139231e-07 7.63707907020756e-08 1.02316774100257e-08 7.0529423098331e-08 7.92914591779899e-08
"88" 4040 1.00626790243766e-08 1.82546352838115e-09 4.52816288637951e-09 1.39563638995135e-07 7.65128690602046e-08 1.02810214547539e-08 7.05062425995344e-08 7.86822476793197e-08
"89" 4041 1.01253178902479e-08 1.8232514358488e-09 4.5201829400186e-09 1.39508269666599e-07 7.65380490639953e-08 1.02485844388714e-08 7.05311418515497e-08 7.87498489016592e-08
"90" 4042 1.01889769320088e-08 1.82301282478855e-09 4.52616787391068e-09 1.39458115476714e-07 7.65534019585842e-08 1.02510745918046e-08 7.03005566152506e-08 7.86149699188001e-08
"91" 4043 1.02526359737698e-08 1.82277421372831e-09 4.53215280780276e-09 1.39407961286828e-07 7.65687548531731e-08 1.02535647447378e-08 7.00699713789515e-08 7.84800909359409e-08
"92" 4044 1.03162950155307e-08 1.82253560266806e-09 4.53813774169483e-09 1.39357807096943e-07 7.6584107747762e-08 1.0256054897671e-08 6.98393861426525e-08 7.83452119530818e-08
"93" 4045 1.03799540572916e-08 1.82229699160782e-09 4.54412267558691e-09 1.39307652907058e-07 7.65994606423509e-08 1.02585450506042e-08 6.96088009063534e-08 7.82103329702226e-08
"94" 4046 1.04436130990525e-08 1.82205838054757e-09 4.55010760947899e-09 1.39257498717172e-07 7.66148135369398e-08 1.02610352035375e-08 6.93782156700543e-08 7.80754539873635e-08
"95" 4047 1.05072721408134e-08 1.82181976948733e-09 4.55609254337106e-09 1.39207344527287e-07 7.66301664315286e-08 1.02635253564707e-08 6.91476304337553e-08 7.79405750045043e-08
"96" 4048 1.05709311825744e-08 1.82158115842708e-09 4.56207747726314e-09 1.39157190337401e-07 7.66455193261176e-08 1.02660155094039e-08 6.89170451974562e-08 7.78056960216452e-08
"97" 4049 1.06345902243353e-08 1.82134254736684e-09 4.56806241115522e-09 1.39107036147516e-07 7.66608722207065e-08 1.02685056623371e-08 6.86864599611571e-08 7.7670817038786e-08
"98" 4050 1.06982492660962e-08 1.82110393630659e-09 4.57404734504729e-09 1.39056881957631e-07 7.66762251152953e-08 1.02709958152703e-08 6.84558747248581e-08 7.75359380559269e-08
"99" 4051 1.07619083078571e-08 1.82086532524635e-09 4.58003227893937e-09 1.39006727767745e-07 7.66915780098842e-08 1.02734859682036e-08 6.8225289488559e-08 7.74010590730677e-08
"100" 4052 1.0825567349618e-08 1.8206267141861e-09 4.58601721283145e-09 1.3895657357786e-07 7.67069309044731e-08 1.02759761211368e-08 6.79947042522599e-08 7.72661800902085e-08
"101" 4053 1.0889226391379e-08 1.82038810312585e-09 4.59200214672352e-09 1.38906419387975e-07 7.6722283799062e-08 1.027846627407e-08 6.77641190159609e-08 7.71313011073494e-08
"102" 4054 1.09528854331399e-08 1.82014949206561e-09 4.5979870806156e-09 1.38856265198089e-07 7.67376366936509e-08 1.02809564270032e-08 6.75335337796618e-08 7.69964221244903e-08
"103" 4055 1.10165444749008e-08 1.81991088100536e-09 4.60397201450767e-09 1.38806111008204e-07 7.67529895882398e-08 1.02834465799364e-08 6.73029485433627e-08 7.68615431416311e-08
"104" 4056 1.10711579515864e-08 1.81763419548286e-09 4.61619110357882e-09 1.38793881722964e-07 7.67683424828287e-08 1.01776820178661e-08 6.73118569725513e-08 7.68352573969417e-08
"105" 4057 1.1109765989211e-08 1.81665822024516e-09 4.62816086784857e-09 1.38350870948459e-07 7.6794735561607e-08 1.01765098310693e-08 6.6315064055918e-08 7.68438124900524e-08
"106" 4058 1.11483740268356e-08 1.81568224500746e-09 4.64013063211831e-09 1.37907860173955e-07 7.68211286403853e-08 1.01753376442726e-08 6.53182711392846e-08 7.68523675831631e-08
"107" 4059 1.11869820644602e-08 1.81470626976977e-09 4.65210039638806e-09 1.37464849399451e-07 7.68475217191636e-08 1.01741654574759e-08 6.43214782226513e-08 7.68609226762738e-08
"108" 4060 1.12255901020848e-08 1.81373029453207e-09 4.6640701606578e-09 1.37021838624947e-07 7.68739147979419e-08 1.01729932706792e-08 6.3324685306018e-08 7.68694777693845e-08
"109" 4061 1.12641981397094e-08 1.81275431929437e-09 4.67603992492755e-09 1.36578827850443e-07 7.69003078767202e-08 1.01718210838825e-08 6.23278923893847e-08 7.68780328624952e-08
"110" 4062 1.13028061773339e-08 1.81177834405667e-09 4.68800968919729e-09 1.36135817075939e-07 7.69267009554985e-08 1.01706488970858e-08 6.13310994727513e-08 7.68865879556059e-08
"111" 4063 1.1293805951569e-08 1.81182140605011e-09 4.70372005008889e-09 1.35833513683699e-07 7.69346542261967e-08 1.01736305778306e-08 6.03216536381659e-08 7.68299457414575e-08
"112" 4064 1.127269963306e-08 1.81182140605011e-09 4.71943123909574e-09 1.3550370793159e-07 7.69345598314086e-08 1.01708019017312e-08 5.93248607215326e-08 7.67842042154833e-08
"113" 4065 1.12515933145509e-08 1.81182140605011e-09 4.73514242810259e-09 1.35173902179481e-07 7.69344654366206e-08 1.01679732256318e-08 5.83280678048992e-08 7.67384626895091e-08
"114" 4066 1.12304869960418e-08 1.81182140605011e-09 4.75085361710945e-09 1.34844096427371e-07 7.69343710418326e-08 1.01651445495324e-08 5.73312748882659e-08 7.66927211635349e-08
"115" 4067 1.12093806775327e-08 1.81182140605011e-09 4.7665648061163e-09 1.34514290675262e-07 7.69342766470446e-08 1.0162315873433e-08 5.63344819716326e-08 7.66469796375607e-08
"116" 4068 1.11882743590237e-08 1.81182140605011e-09 4.78227599512315e-09 1.34184484923153e-07 7.69341822522566e-08 1.01594871973336e-08 5.53376890549993e-08 7.66012381115866e-08
"117" 4069 1.11671680405146e-08 1.81182140605011e-09 4.79798718413001e-09 1.33854679171044e-07 7.69340878574686e-08 1.01566585212343e-08 5.43408961383659e-08 7.65554965856124e-08
"118" 4070 1.11460617220055e-08 1.81182140605011e-09 4.81369837313686e-09 1.33524873418934e-07 7.69339934626806e-08 1.01538298451349e-08 5.33441032217326e-08 7.65097550596382e-08
"119" 4071 1.11249554034965e-08 1.81182140605011e-09 4.82940956214371e-09 1.33195067666825e-07 7.69338990678926e-08 1.01510011690355e-08 5.23473103050993e-08 7.6464013533664e-08
"120" 4072 1.11038490849874e-08 1.81182140605011e-09 4.84512075115056e-09 1.32865261914716e-07 7.69338046731046e-08 1.01481724929361e-08 5.1350517388466e-08 7.64182720076898e-08
"121" 4073 1.10827427664783e-08 1.81182140605011e-09 4.86083194015742e-09 1.32535456162606e-07 7.69337102783166e-08 1.01453438168367e-08 5.03537244718326e-08 7.63725304817156e-08
"122" 4074 1.10616364479693e-08 1.81182140605011e-09 4.87654312916427e-09 1.32205650410497e-07 7.69336158835286e-08 1.01425151407373e-08 4.93569315551993e-08 7.63267889557414e-08
"123" 4075 1.10405301294602e-08 1.81182140605011e-09 4.89225431817112e-09 1.31875844658388e-07 7.69335214887406e-08 1.0139686464638e-08 4.8360138638566e-08 7.62810474297672e-08
"124" 4076 1.09959823937395e-08 1.80889348033701e-09 4.90497236738829e-09 1.31386611388567e-07 7.69273336045015e-08 9.87820488984016e-09 4.83199621299392e-08 7.54479862944688e-08
"125" 4077 1.09514346580188e-08 1.80596555462392e-09 4.91769041660546e-09 1.30897378118747e-07 7.69211457202625e-08 9.61672331504236e-09 4.82797856213125e-08 7.46149251591704e-08
"126" 4078 1.09068869222981e-08 1.80303762891083e-09 4.93040846582262e-09 1.30408144848927e-07 7.69149578360235e-08 9.35524174024455e-09 4.82396091126858e-08 7.3781864023872e-08
"127" 4079 1.08623391865775e-08 1.80010970319774e-09 4.94312651503979e-09 1.29918911579106e-07 7.69087699517845e-08 9.09376016544675e-09 4.8199432604059e-08 7.29488028885736e-08
"128" 4080 1.08177914508568e-08 1.79718177748464e-09 4.95584456425696e-09 1.29429678309286e-07 7.69025820675455e-08 8.83227859064895e-09 4.81592560954323e-08 7.21157417532752e-08
"129" 4081 1.07732437151361e-08 1.79425385177155e-09 4.96856261347412e-09 1.28940445039466e-07 7.68963941833065e-08 8.57079701585115e-09 4.81190795868056e-08 7.12826806179768e-08
"130" 4082 1.07286959794154e-08 1.79132592605846e-09 4.98128066269129e-09 1.28451211769645e-07 7.68902062990675e-08 8.30931544105334e-09 4.80789030781788e-08 7.04496194826784e-08
"131" 4083 1.06841482436948e-08 1.78839800034536e-09 4.99399871190846e-09 1.27961978499825e-07 7.68840184148285e-08 8.04783386625554e-09 4.80387265695521e-08 6.961655834738e-08
"132" 4084 1.06396005079741e-08 1.78547007463227e-09 5.00671676112563e-09 1.27472745230005e-07 7.68778305305895e-08 7.78635229145774e-09 4.79985500609254e-08 6.87834972120816e-08
"133" 4085 1.06388410434707e-08 1.7847111794581e-09 5.0049710734582e-09 1.27389685269595e-07 7.68551302351283e-08 7.79965839567128e-09 4.80305009835027e-08 6.87884128628492e-08
"134" 4086 1.06380815789673e-08 1.78395228428393e-09 5.00322538579077e-09 1.27306625309185e-07 7.68324299396671e-08 7.81296449988482e-09 4.806245190608e-08 6.87933285136168e-08
"135" 4087 1.06373221144638e-08 1.78319338910977e-09 5.00147969812334e-09 1.27223565348775e-07 7.68097296442059e-08 7.82627060409837e-09 4.80944028286574e-08 6.87982441643845e-08
"136" 4088 1.06365626499604e-08 1.7824344939356e-09 4.99973401045591e-09 1.27140505388365e-07 7.67870293487448e-08 7.83957670831191e-09 4.81263537512347e-08 6.88031598151521e-08
"137" 4089 1.0635803185457e-08 1.78167559876143e-09 4.99798832278849e-09 1.27057445427955e-07 7.67643290532836e-08 7.85288281252545e-09 4.8158304673812e-08 6.88080754659198e-08
"138" 4090 1.06350437209536e-08 1.78091670358726e-09 4.99624263512106e-09 1.26974385467545e-07 7.67416287578224e-08 7.866188916739e-09 4.81902555963893e-08 6.88129911166874e-08
"139" 4091 1.06342842564502e-08 1.78015780841309e-09 4.99449694745363e-09 1.26891325507136e-07 7.67189284623612e-08 7.87949502095254e-09 4.82222065189667e-08 6.88179067674551e-08
"140" 4092 1.06335247919468e-08 1.77939891323892e-09 4.9927512597862e-09 1.26808265546726e-07 7.66962281669001e-08 7.89280112516609e-09 4.8254157441544e-08 6.88228224182227e-08
"141" 4093 1.06327653274434e-08 1.77864001806475e-09 4.99100557211877e-09 1.26725205586316e-07 7.66735278714389e-08 7.90610722937963e-09 4.82861083641213e-08 6.88277380689904e-08
"142" 4094 1.063200586294e-08 1.77788112289059e-09 4.98925988445135e-09 1.26642145625906e-07 7.66508275759777e-08 7.91941333359317e-09 4.83180592866987e-08 6.8832653719758e-08
"143" 4095 1.06312463984366e-08 1.77712222771642e-09 4.98751419678392e-09 1.26559085665496e-07 7.66281272805166e-08 7.93271943780672e-09 4.8350010209276e-08 6.88375693705257e-08
"144" 4096 1.06304869339332e-08 1.77636333254225e-09 4.98576850911649e-09 1.26476025705086e-07 7.66054269850554e-08 7.94602554202026e-09 4.83819611318533e-08 6.88424850212933e-08
"145" 4097 1.06297274694298e-08 1.77560443736808e-09 4.98402282144906e-09 1.26392965744676e-07 7.65827266895942e-08 7.9593316462338e-09 4.84139120544307e-08 6.8847400672061e-08
"146" 4098 1.06289680049264e-08 1.77484554219391e-09 4.98227713378163e-09 1.26309905784266e-07 7.6560026394133e-08 7.97263775044735e-09 4.8445862977008e-08 6.88523163228286e-08
"147" 4099 1.06301582135814e-08 1.78970048072654e-09 5.034397403859e-09 1.26287407093465e-07 7.65384179996943e-08 7.99639599420535e-09 4.85519133009511e-08 6.88661556194027e-08
"148" 4100 1.06300902046158e-08 1.8045984812526e-09 5.08951050318284e-09 1.26242087295537e-07 7.65355874913899e-08 8.00121607012075e-09 4.86318366920086e-08 6.88348419936253e-08
"149" 4101 1.06300221956502e-08 1.81819577149385e-09 5.13938685004761e-09 1.23875314809543e-07 7.65139790969511e-08 7.84296555262635e-09 4.8631997988158e-08 6.88457426817994e-08
"150" 4102 1.06299541866846e-08 1.8317930617351e-09 5.18926319691238e-09 1.21508542323548e-07 7.64923707025124e-08 7.68471503513195e-09 4.86321592843075e-08 6.88566433699735e-08
"151" 4103 1.0629886177719e-08 1.84539035197635e-09 5.23913954377715e-09 1.19141769837553e-07 7.64707623080736e-08 7.52646451763755e-09 4.86323205804569e-08 6.88675440581477e-08
"152" 4104 1.06298181687534e-08 1.8589876422176e-09 5.28901589064192e-09 1.16774997351558e-07 7.64491539136349e-08 7.36821400014315e-09 4.86324818766064e-08 6.88784447463218e-08
"153" 4105 1.06297501597878e-08 1.87258493245886e-09 5.33889223750669e-09 1.14408224865564e-07 7.64275455191961e-08 7.20996348264874e-09 4.86326431727558e-08 6.88893454344959e-08
"154" 4106 1.06296821508222e-08 1.88618222270011e-09 5.38876858437146e-09 1.12041452379569e-07 7.64059371247574e-08 7.05171296515434e-09 4.86328044689052e-08 6.890024612267e-08
"155" 4107 1.06296141418567e-08 1.89977951294136e-09 5.43864493123624e-09 1.09674679893574e-07 7.63843287303186e-08 6.89346244765994e-09 4.86329657650547e-08 6.89111468108442e-08
"156" 4108 1.06295461328911e-08 1.91337680318261e-09 5.48852127810101e-09 1.07307907407579e-07 7.63627203358799e-08 6.73521193016554e-09 4.86331270612041e-08 6.89220474990183e-08
"157" 4109 1.06294781239255e-08 1.92697409342386e-09 5.53839762496578e-09 1.04941134921585e-07 7.63411119414411e-08 6.57696141267114e-09 4.86332883573536e-08 6.89329481871924e-08
"158" 4110 1.06294101149599e-08 1.94057138366512e-09 5.58827397183055e-09 1.0257436243559e-07 7.63195035470024e-08 6.41871089517674e-09 4.8633449653503e-08 6.89438488753666e-08
"159" 4111 1.06293421059943e-08 1.95416867390637e-09 5.63815031869532e-09 1.00207589949595e-07 7.62978951525636e-08 6.26046037768234e-09 4.86336109496524e-08 6.89547495635407e-08
"160" 4112 1.06292740970287e-08 1.96776596414762e-09 5.68802666556009e-09 9.78408174636003e-08 7.62762867581249e-08 6.10220986018794e-09 4.86337722458019e-08 6.89656502517148e-08
"161" 4113 1.06136653872851e-08 1.96780902614105e-09 5.68503383631363e-09 9.79325487016916e-08 7.62761923633369e-08 6.08474627578007e-09 4.84393583800884e-08 6.90196773192831e-08
"162" 4114 1.05980566775414e-08 1.96785208813448e-09 5.68204100706716e-09 9.80242799397829e-08 7.62760979685489e-08 6.06728269137219e-09 4.8244944514375e-08 6.90737043868514e-08
"163" 4115 1.05824479677978e-08 1.96789515012792e-09 5.6790481778207e-09 9.81160111778742e-08 7.62760035737609e-08 6.04981910696432e-09 4.80505306486615e-08 6.91277314544198e-08
"164" 4116 1.05668392580542e-08 1.96793821212135e-09 5.67605534857424e-09 9.82077424159656e-08 7.62759091789729e-08 6.03235552255645e-09 4.78561167829481e-08 6.9181758521988e-08
"165" 4117 1.05512305483105e-08 1.96798127411478e-09 5.67306251932777e-09 9.82994736540569e-08 7.62758147841849e-08 6.01489193814857e-09 4.76617029172346e-08 6.92357855895564e-08
"166" 4118 1.05356218385669e-08 1.96802433610822e-09 5.67006969008131e-09 9.83912048921482e-08 7.62757203893968e-08 5.9974283537407e-09 4.74672890515212e-08 6.92898126571247e-08
"167" 4119 1.05200131288233e-08 1.96806739810165e-09 5.66707686083484e-09 9.84829361302395e-08 7.62756259946088e-08 5.97996476933283e-09 4.72728751858077e-08 6.9343839724693e-08
"168" 4120 1.05192536643199e-08 1.96811046009508e-09 5.66707665380603e-09 9.83135954103941e-08 7.62756259946088e-08 5.9817959391978e-09 4.70340950865353e-08 6.94089112412443e-08
"169" 4121 1.0530532283595e-08 1.97116757178847e-09 5.68627807948926e-09 9.84776023123207e-08 7.62789960924641e-08 6.01852176400318e-09 4.75761549880455e-08 6.95206814400882e-08
"170" 4122 1.05418109028702e-08 1.97422468348186e-09 5.70547950517249e-09 9.86416092142473e-08 7.62823661903194e-08 6.05524758880857e-09 4.81182148895557e-08 6.96324516389321e-08
"171" 4123 1.05530895221453e-08 1.97728179517525e-09 5.72468093085572e-09 9.8805616116174e-08 7.62857362881747e-08 6.09197341361395e-09 4.86602747910659e-08 6.9744221837776e-08
"172" 4124 1.05643681414204e-08 1.98033890686865e-09 5.74388235653894e-09 9.89696230181006e-08 7.62891063860299e-08 6.12869923841934e-09 4.92023346925761e-08 6.985599203662e-08
"173" 4125 1.05756467606956e-08 1.98339601856204e-09 5.76308378222217e-09 9.91336299200272e-08 7.62924764838852e-08 6.16542506322472e-09 4.97443945940862e-08 6.99677622354639e-08
"174" 4126 1.05869253799707e-08 1.98645313025543e-09 5.7822852079054e-09 9.92976368219538e-08 7.62958465817405e-08 6.20215088803011e-09 5.02864544955964e-08 7.00795324343078e-08
"175" 4127 1.05982039992459e-08 1.98951024194882e-09 5.80148663358863e-09 9.94616437238804e-08 7.62992166795958e-08 6.23887671283549e-09 5.08285143971066e-08 7.01913026331518e-08
"176" 4128 1.0609482618521e-08 1.99256735364221e-09 5.82068805927186e-09 9.96256506258071e-08 7.6302586777451e-08 6.27560253764088e-09 5.13705742986168e-08 7.03030728319957e-08
"177" 4129 1.06207612377962e-08 1.9956244653356e-09 5.83988948495509e-09 9.97896575277337e-08 7.63059568753063e-08 6.31232836244626e-09 5.1912634200127e-08 7.04148430308396e-08
"178" 4130 1.06320398570713e-08 1.99868157702899e-09 5.85909091063832e-09 9.99536644296603e-08 7.63093269731616e-08 6.34905418725165e-09 5.24546941016372e-08 7.05266132296836e-08
"179" 4131 1.06433184763465e-08 2.00173868872238e-09 5.87829233632155e-09 1.00117671331587e-07 7.63126970710169e-08 6.38578001205703e-09 5.29967540031473e-08 7.06383834285275e-08
"180" 4132 1.06545970956216e-08 2.00479580041578e-09 5.89749376200477e-09 1.00281678233514e-07 7.63160671688721e-08 6.42250583686242e-09 5.35388139046575e-08 7.07501536273714e-08
"181" 4133 1.06658757148968e-08 2.00785291210917e-09 5.916695187688e-09 1.0044568513544e-07 7.63194372667274e-08 6.4592316616678e-09 5.40808738061677e-08 7.08619238262153e-08
"182" 4134 1.06771543341719e-08 2.01091002380256e-09 5.93589661337123e-09 1.00609692037367e-07 7.63228073645827e-08 6.49595748647319e-09 5.46229337076779e-08 7.09736940250593e-08
"183" 4135 1.06801695225304e-08 2.01095308579599e-09 5.93888882153125e-09 1.00942246562804e-07 7.63232117229119e-08 6.56094117104988e-09 5.43954101170033e-08 7.10157825483031e-08
"184" 4136 1.06912894542191e-08 2.01095308579599e-09 5.95385172559068e-09 1.00691475613378e-07 7.63238992656051e-08 6.57607844512839e-09 5.41716310150922e-08 7.1040347241754e-08
"185" 4137 1.07024093859079e-08 2.01095308579599e-09 5.96881462965011e-09 1.00440704663951e-07 7.63245868082983e-08 6.59121571920691e-09 5.39478519131811e-08 7.10649119352048e-08
"186" 4138 1.07135293175967e-08 2.01095308579599e-09 5.98377753370955e-09 1.00189933714524e-07 7.63252743509915e-08 6.60635299328542e-09 5.372407281127e-08 7.10894766286557e-08
"187" 4139 1.07246492492855e-08 2.01095308579599e-09 5.99874043776898e-09 9.99391627650969e-08 7.63259618936848e-08 6.62149026736393e-09 5.3500293709359e-08 7.11140413221066e-08
"188" 4140 1.07357691809742e-08 2.01095308579599e-09 6.01370334182841e-09 9.968839181567e-08 7.6326649436378e-08 6.63662754144244e-09 5.32765146074479e-08 7.11386060155575e-08
"189" 4141 1.0746889112663e-08 2.01095308579599e-09 6.02866624588784e-09 9.94376208662431e-08 7.63273369790712e-08 6.65176481552096e-09 5.30527355055368e-08 7.11631707090084e-08
"190" 4142 1.07580090443518e-08 2.01095308579599e-09 6.04362914994727e-09 9.91868499168162e-08 7.63280245217644e-08 6.66690208959947e-09 5.28289564036257e-08 7.11877354024592e-08
"191" 4143 1.07572495798484e-08 2.00997711055829e-09 6.04288086499985e-09 9.90071217849852e-08 7.63379319684977e-08 6.67337865481753e-09 5.26312811922933e-08 7.1202787846481e-08
"192" 4144 1.07452114960698e-08 1.99410313479453e-09 5.97105948449238e-09 9.8612478127639e-08 7.63460599715154e-08 6.68002267529227e-09 5.2643159097878e-08 7.12103050834413e-08
"193" 4145 1.05496436103381e-08 1.96381015072157e-09 5.941134815032e-09 9.84707851743512e-08 7.63489580954306e-08 6.68084188831156e-09 5.23061018406434e-08 7.04613304816328e-08
"194" 4146 1.03540757246064e-08 1.93351716664861e-09 5.91121014557161e-09 9.83290922210635e-08 7.63518562193459e-08 6.68166110133086e-09 5.19690445834087e-08 6.97123558798242e-08
"195" 4147 1.01585078388747e-08 1.90322418257565e-09 5.88128547611123e-09 9.81873992677757e-08 7.63547543432611e-08 6.68248031435016e-09 5.16319873261741e-08 6.89633812780157e-08
"196" 4148 9.96293995314306e-09 1.87293119850268e-09 5.85136080665085e-09 9.80457063144879e-08 7.63576524671763e-08 6.68329952736945e-09 5.12949300689394e-08 6.82144066762071e-08
"197" 4149 9.76737206741137e-09 1.84263821442972e-09 5.82143613719047e-09 9.79040133612001e-08 7.63605505910916e-08 6.68411874038875e-09 5.09578728117048e-08 6.74654320743986e-08
"198" 4150 9.57180418167968e-09 1.81234523035676e-09 5.79151146773008e-09 9.77623204079123e-08 7.63634487150068e-08 6.68493795340805e-09 5.06208155544701e-08 6.671645747259e-08
"199" 4151 9.376236295948e-09 1.7820522462838e-09 5.7615867982697e-09 9.76206274546246e-08 7.6366346838922e-08 6.68575716642734e-09 5.02837582972355e-08 6.59674828707815e-08
"200" 4152 9.18066841021631e-09 1.75175926221083e-09 5.73166212880932e-09 9.74789345013368e-08 7.63692449628373e-08 6.68657637944664e-09 4.99467010400009e-08 6.5218508268973e-08
"201" 4153 8.98510052448462e-09 1.72146627813787e-09 5.70173745934894e-09 9.7337241548049e-08 7.63721430867525e-08 6.68739559246594e-09 4.96096437827662e-08 6.44695336671644e-08
"202" 4154 8.78953263875293e-09 1.69117329406491e-09 5.67181278988855e-09 9.71955485947612e-08 7.63750412106677e-08 6.68821480548523e-09 4.92725865255316e-08 6.37205590653559e-08
"203" 4155 8.59396475302125e-09 1.66088030999194e-09 5.64188812042817e-09 9.70538556414734e-08 7.6377939334583e-08 6.68903401850453e-09 4.89355292682969e-08 6.29715844635473e-08
"204" 4156 8.59398742267644e-09 1.65183816089207e-09 5.63989321147375e-09 9.59583387883446e-08 7.63823872762041e-08 6.69367941385762e-09 4.89616331588756e-08 6.29846239249991e-08
"205" 4157 8.56809759989207e-09 1.6518812228855e-09 5.64512903230315e-09 9.56704563711879e-08 7.6411382572613e-08 6.70832877277737e-09 4.86392927105484e-08 6.26740716145627e-08
"206" 4158 8.55444988778303e-09 1.65994739674768e-09 5.62044028718657e-09 9.54726635260831e-08 7.64036180914909e-08 6.71165258934115e-09 4.8388097548729e-08 6.23550764413361e-08
"207" 4159 8.54080217567399e-09 1.66801357060986e-09 5.59575154206999e-09 9.52748706809782e-08 7.63958536103687e-08 6.71497640590492e-09 4.81369023869096e-08 6.20360812681093e-08
"208" 4160 8.52715446356494e-09 1.67607974447203e-09 5.57106279695341e-09 9.50770778358733e-08 7.63880891292466e-08 6.7183002224687e-09 4.78857072250902e-08 6.17170860948826e-08
"209" 4161 8.5135067514559e-09 1.68414591833421e-09 5.54637405183683e-09 9.48792849907684e-08 7.63803246481245e-08 6.72162403903247e-09 4.76345120632708e-08 6.13980909216559e-08
"210" 4162 8.49985903934686e-09 1.69221209219639e-09 5.52168530672026e-09 9.46814921456636e-08 7.63725601670023e-08 6.72494785559625e-09 4.73833169014514e-08 6.10790957484292e-08
"211" 4163 8.48621132723782e-09 1.70027826605857e-09 5.49699656160368e-09 9.44836993005587e-08 7.63647956858802e-08 6.72827167216002e-09 4.7132121739632e-08 6.07601005752025e-08
"212" 4164 8.47256361512877e-09 1.70834443992074e-09 5.4723078164871e-09 9.42859064554538e-08 7.63570312047581e-08 6.7315954887238e-09 4.68809265778125e-08 6.04411054019758e-08
"213" 4165 8.45891590301973e-09 1.71641061378292e-09 5.44761907137052e-09 9.4088113610349e-08 7.6349266723636e-08 6.73491930528757e-09 4.66297314159931e-08 6.01221102287491e-08
"214" 4166 8.44526819091069e-09 1.7244767876451e-09 5.42293032625394e-09 9.38903207652441e-08 7.63415022425138e-08 6.73824312185135e-09 4.63785362541737e-08 5.98031150555224e-08
"215" 4167 8.43162047880164e-09 1.73254296150728e-09 5.39824158113736e-09 9.36925279201392e-08 7.63337377613917e-08 6.74156693841512e-09 4.61273410923543e-08 5.94841198822957e-08
"216" 4168 8.4179727666926e-09 1.74060913536945e-09 5.37355283602078e-09 9.34947350750343e-08 7.63259732802696e-08 6.7448907549789e-09 4.58761459305349e-08 5.9165124709069e-08
"217" 4169 8.40432505458356e-09 1.74867530923163e-09 5.34886409090421e-09 9.32969422299295e-08 7.63182087991474e-08 6.74821457154267e-09 4.56249507687155e-08 5.88461295358423e-08
"218" 4170 8.37435452824075e-09 1.75745731627454e-09 5.33315300541176e-09 9.34003843324065e-08 7.63145695741846e-08 6.69033030872415e-09 4.56612217408638e-08 5.78556146644968e-08
"219" 4171 8.41436812589329e-09 1.75745731627454e-09 5.31744274803457e-09 9.34759159280572e-08 7.63152303377007e-08 6.69880549906385e-09 4.57032245334755e-08 5.78367339264473e-08
"220" 4172 8.4839668657503e-09 1.75236213011889e-09 5.30771721752065e-09 9.37734165312874e-08 7.63272412489474e-08 6.71860623175953e-09 4.57089563539388e-08 5.82341950699855e-08
"221" 4173 8.48797956034315e-09 1.74433901825015e-09 5.29275493454766e-09 9.3859834292041e-08 7.63712399753061e-08 6.75536818309306e-09 4.59033781488559e-08 5.86301646951318e-08
"222" 4174 8.491992254936e-09 1.7363159063814e-09 5.27779265157467e-09 9.39462520527946e-08 7.64152387016648e-08 6.79213013442659e-09 4.60977999437729e-08 5.90261343202782e-08
"223" 4175 8.49600494952886e-09 1.72829279451266e-09 5.26283036860169e-09 9.40326698135481e-08 7.64592374280236e-08 6.82889208576012e-09 4.629222173869e-08 5.94221039454246e-08
"224" 4176 8.50001764412171e-09 1.72026968264391e-09 5.2478680856287e-09 9.41190875743017e-08 7.65032361543823e-08 6.86565403709365e-09 4.6486643533607e-08 5.9818073570571e-08
"225" 4177 8.38536111165354e-09 1.6790041299924e-09 5.19998840746327e-09 9.42217049774958e-08 7.65498498202922e-08 6.89394079808747e-09 4.64230489192132e-08 6.00587197447665e-08
"226" 4178 8.27070457918536e-09 1.63773857734088e-09 5.15210872929785e-09 9.43243223806899e-08 7.65964634862022e-08 6.9222275590813e-09 4.63594543048194e-08 6.0299365918962e-08
"227" 4179 8.17005847330938e-09 1.59569259851848e-09 5.10323164841241e-09 9.4568849082283e-08 7.66577297820871e-08 6.91143328371786e-09 4.62532047777508e-08 6.01709032559358e-08
"228" 4180 8.06941236743339e-09 1.55364661969608e-09 5.05435456752698e-09 9.48133757838762e-08 7.67189960779721e-08 6.90063900835443e-09 4.61469552506823e-08 6.00424405929097e-08
"229" 4181 7.96876626155741e-09 1.51160064087368e-09 5.00547748664155e-09 9.50579024854693e-08 7.67802623738571e-08 6.88984473299099e-09 4.60407057236137e-08 5.99139779298836e-08
"230" 4182 7.86812015568142e-09 1.46955466205128e-09 4.95660040575611e-09 9.53024291870624e-08 7.6841528669742e-08 6.87905045762755e-09 4.59344561965452e-08 5.97855152668574e-08
"231" 4183 7.76747404980544e-09 1.42750868322887e-09 4.90772332487068e-09 9.55469558886555e-08 7.6902794965627e-08 6.86825618226412e-09 4.58282066694766e-08 5.96570526038313e-08
"232" 4184 7.66682794392945e-09 1.38546270440647e-09 4.85884624398525e-09 9.57914825902486e-08 7.69640612615119e-08 6.85746190690068e-09 4.57219571424081e-08 5.95285899408052e-08
"233" 4185 7.56618183805347e-09 1.34341672558407e-09 4.80996916309981e-09 9.60360092918417e-08 7.70253275573969e-08 6.84666763153724e-09 4.56157076153395e-08 5.9400127277779e-08
"234" 4186 7.46553573217748e-09 1.30137074676167e-09 4.76109208221438e-09 9.62805359934349e-08 7.70865938532819e-08 6.83587335617381e-09 4.5509458088271e-08 5.92716646147529e-08
"235" 4187 7.3648896263015e-09 1.25932476793927e-09 4.71221500132895e-09 9.6525062695028e-08 7.71478601491668e-08 6.82507908081037e-09 4.54032085612024e-08 5.91432019517268e-08
"236" 4188 7.26424352042551e-09 1.21727878911687e-09 4.66333792044351e-09 9.67695893966211e-08 7.72091264450518e-08 6.81428480544693e-09 4.52969590341339e-08 5.90147392887006e-08
"237" 4189 7.16359741454953e-09 1.17523281029447e-09 4.61446083955808e-09 9.70141160982142e-08 7.72703927409367e-08 6.8034905300835e-09 4.51907095070653e-08 5.88862766256745e-08
"238" 4190 7.06295130867354e-09 1.13318683147206e-09 4.56558375867265e-09 9.72586427998073e-08 7.73316590368217e-08 6.79269625472006e-09 4.50844599799968e-08 5.87578139626484e-08
"239" 4191 6.96230520279756e-09 1.09114085264966e-09 4.51670667778721e-09 9.75031695014005e-08 7.73929253327067e-08 6.78190197935662e-09 4.49782104529282e-08 5.86293512996222e-08
"240" 4192 6.84233241880552e-09 1.04983223800471e-09 4.46782959690178e-09 9.78671609382746e-08 7.74995513830803e-08 6.79004587183580e-09 4.47620662631557e-08 5.84443722131555e-08
"241" 4193 6.73725421936411e-09 1.00780779017903e-09 4.43117160508749e-09 9.78688026043142e-08 7.76770679917082e-08 6.77974312428394e-09 4.46695362871948e-08 5.83244646432401e-08
"242" 4194 6.73725421936411e-09 1.00188734576269e-09 4.43117088048664e-09 9.74164883275346e-08 7.78513088972687e-08 6.7813996135866e-09 4.48589398278637e-08 5.83539134569701e-08
"243" 4195 6.71734943398622e-09 9.98200524875432e-10 4.40747912403244e-09 9.70923697397734e-08 7.8027612430909e-08 6.77540373822168e-09 4.48986022218352e-08 5.8174092783259e-08
"244" 4196 6.69744464860833e-09 9.94513703988171e-10 4.38378736757824e-09 9.67682511520122e-08 7.82039159645493e-08 6.76940786285675e-09 4.49382646158067e-08 5.79942721095479e-08
"245" 4197 6.67753986323045e-09 9.9082688310091e-10 4.36009561112404e-09 9.6444132564251e-08 7.83802194981896e-08 6.76341198749182e-09 4.49779270097782e-08 5.78144514358368e-08
"246" 4198 6.65763507785256e-09 9.87140062213648e-10 4.33640385466984e-09 9.61200139764898e-08 7.85565230318298e-08 6.75741611212689e-09 4.50175894037497e-08 5.76346307621257e-08
"247" 4199 6.63773029247468e-09 9.83453241326387e-10 4.31271209821564e-09 9.57958953887285e-08 7.87328265654701e-08 6.75142023676197e-09 4.50572517977211e-08 5.74548100884146e-08
"248" 4200 6.61782550709679e-09 9.79766420439126e-10 4.28902034176144e-09 9.54717768009673e-08 7.89091300991103e-08 6.74542436139704e-09 4.50969141916926e-08 5.72749894147035e-08
"249" 4201 6.59419140816745e-09 9.95922069256562e-10 4.34313541727882e-09 9.57812903443266e-08 7.89078226293347e-08 6.98967844744712e-09 4.52465785306998e-08 5.70270328253335e-08
"250" 4202 6.57055730923811e-09 1.012077718074e-09 4.3972504927962e-09 9.60908038876858e-08 7.89065151595591e-08 7.23393253349720e-09 4.5396242869707e-08 5.67790762359635e-08
"251" 4203 6.54692321030877e-09 1.02823336689143e-09 4.45136556831358e-09 9.6400317431045e-08 7.89052076897835e-08 7.47818661954727e-09 4.55459072087142e-08 5.65311196465934e-08
"252" 4204 6.52328911137943e-09 1.04438901570887e-09 4.50548064383097e-09 9.67098309744043e-08 7.89039002200079e-08 7.72244070559735e-09 4.56955715477214e-08 5.62831630572234e-08
"253" 4205 6.49965501245009e-09 1.06054466452631e-09 4.55959571934835e-09 9.70193445177635e-08 7.89025927502323e-08 7.96669479164743e-09 4.58452358867286e-08 5.60352064678533e-08
"254" 4206 6.47602091352075e-09 1.07670031334374e-09 4.61371079486573e-09 9.73288580611227e-08 7.89012852804567e-08 8.2109488776975e-09 4.59949002257358e-08 5.57872498784833e-08
"255" 4207 6.45238681459141e-09 1.09285596216118e-09 4.66782587038312e-09 9.7638371604482e-08 7.88999778106811e-08 8.45520296374758e-09 4.6144564564743e-08 5.55392932891132e-08
"256" 4208 6.42875271566207e-09 1.10901161097861e-09 4.7219409459005e-09 9.79478851478412e-08 7.88986703409055e-08 8.69945704979766e-09 4.62942289037502e-08 5.52913366997432e-08
"257" 4209 6.40511861673273e-09 1.12516725979605e-09 4.77605602141788e-09 9.82573986912004e-08 7.88973628711299e-08 8.94371113584774e-09 4.64438932427574e-08 5.50433801103732e-08
"258" 4210 6.38148451780339e-09 1.14132290861348e-09 4.83017109693527e-09 9.85669122345597e-08 7.88960554013543e-08 9.18796522189782e-09 4.65935575817646e-08 5.47954235210031e-08
"259" 4211 6.35785041887405e-09 1.15747855743092e-09 4.88428617245265e-09 9.88764257779189e-08 7.88947479315787e-08 9.43221930794789e-09 4.67432219207718e-08 5.45474669316331e-08
"260" 4212 6.33421631994471e-09 1.17363420624836e-09 4.93840124797003e-09 9.91859393212781e-08 7.88934404618031e-08 9.67647339399797e-09 4.6892886259779e-08 5.4299510342263e-08
"261" 4213 6.31058222101537e-09 1.18978985506579e-09 4.99251632348742e-09 9.94954528646374e-08 7.88921329920275e-08 9.92072748004805e-09 4.70425505987862e-08 5.4051553752893e-08
"262" 4214 6.28694812208603e-09 1.20594550388323e-09 5.0466313990048e-09 9.98049664079966e-08 7.88908255222519e-08 1.01649815660981e-08 4.71922149377934e-08 5.38035971635229e-08
"263" 4215 6.29017868252027e-09 1.22507214040719e-09 5.13640799524613e-09 1.00424040562716e-07 7.88904211639227e-08 1.04173903825858e-08 4.73981618197894e-08 5.37854803203935e-08
"264" 4216 6.29091547736849e-09 1.21913016499414e-09 5.14314100705681e-09 1.00643503869498e-07 7.88950987315536e-08 1.0388116953316e-08 4.7368459126624e-08 5.34195257327851e-08
"265" 4217 6.29288782018212e-09 1.21923781997772e-09 5.17107076756277e-09 1.00665083725015e-07 7.89384366943962e-08 1.03716364245313e-08 4.73365082040467e-08 5.33834670065775e-08
"266" 4218 6.29486016299575e-09 1.2193454749613e-09 5.19900052806874e-09 1.00686663580532e-07 7.89817746572389e-08 1.03551558957466e-08 4.73045572814693e-08 5.33474082803699e-08
"267" 4219 6.29683250580938e-09 1.21945312994488e-09 5.2269302885747e-09 1.00708243436048e-07 7.90251126200816e-08 1.03386753669619e-08 4.7272606358892e-08 5.33113495541623e-08
"268" 4220 6.29880484862301e-09 1.21956078492847e-09 5.25486004908066e-09 1.00729823291565e-07 7.90684505829243e-08 1.03221948381772e-08 4.72406554363147e-08 5.32752908279547e-08
"269" 4221 6.30077719143664e-09 1.21966843991205e-09 5.28278980958662e-09 1.00751403147082e-07 7.9111788545767e-08 1.03057143093924e-08 4.72087045137373e-08 5.32392321017471e-08
"270" 4222 6.30274953425027e-09 1.21977609489563e-09 5.31071957009258e-09 1.00772983002598e-07 7.91551265086096e-08 1.02892337806077e-08 4.717675359116e-08 5.32031733755395e-08
"271" 4223 6.3047218770639e-09 1.21988374987921e-09 5.33864933059855e-09 1.00794562858115e-07 7.91984644714523e-08 1.0272753251823e-08 4.71448026685827e-08 5.31671146493319e-08
"272" 4224 6.30669421987754e-09 1.2199914048628e-09 5.36657909110451e-09 1.00816142713632e-07 7.9241802434295e-08 1.02562727230383e-08 4.71128517460053e-08 5.31310559231243e-08
"273" 4225 6.30866656269117e-09 1.22009905984638e-09 5.39450885161047e-09 1.00837722569148e-07 7.92851403971376e-08 1.02397921942536e-08 4.7080900823428e-08 5.30949971969167e-08
"274" 4226 6.3106389055048e-09 1.22020671482996e-09 5.42243861211643e-09 1.00859302424665e-07 7.93284783599803e-08 1.02233116654689e-08 4.70489499008507e-08 5.30589384707091e-08
"275" 4227 6.31261124831843e-09 1.22031436981354e-09 5.45036837262239e-09 1.00880882280182e-07 7.9371816322823e-08 1.02068311366841e-08 4.70169989782734e-08 5.30228797445015e-08
"276" 4228 6.31458359113206e-09 1.22042202479712e-09 5.47829813312835e-09 1.00902462135698e-07 7.94151542856657e-08 1.01903506078994e-08 4.6985048055696e-08 5.29868210182939e-08
"277" 4229 6.24453145817112e-09 1.22267717932291e-09 5.50822280258874e-09 1.00831006968461e-07 7.9460082902648e-08 1.01773866395049e-08 4.69867975319908e-08 5.31316120025203e-08
"278" 4230 6.2285486887653e-09 1.21962006762952e-09 5.54388432331268e-09 1.00747840936838e-07 7.94798977961146e-08 1.01993606778845e-08 4.70565461607095e-08 5.32227760023625e-08
"279" 4231 6.16023085688698e-09 1.21962006762952e-09 5.60747456939852e-09 1.00656474980387e-07 7.9483577857511e-08 1.02749928584848e-08 4.71350191285949e-08 5.31028684324471e-08
"280" 4232 6.09191302500866e-09 1.21962006762952e-09 5.67106481548436e-09 1.00565109023936e-07 7.94872579189075e-08 1.03506250390852e-08 4.72134920964803e-08 5.29829608625316e-08
"281" 4233 6.02359519313035e-09 1.21962006762952e-09 5.73465506157019e-09 1.00473743067485e-07 7.9490937980304e-08 1.04262572196855e-08 4.72919650643657e-08 5.28630532926162e-08
"282" 4234 5.95527736125203e-09 1.21962006762952e-09 5.79824530765603e-09 1.00382377111034e-07 7.94946180417004e-08 1.05018894002859e-08 4.7370438032251e-08 5.27431457227007e-08
"283" 4235 5.88695952937371e-09 1.21962006762952e-09 5.86183555374186e-09 1.00291011154583e-07 7.94982981030969e-08 1.05775215808862e-08 4.74489110001364e-08 5.26232381527853e-08
"284" 4236 5.89064350361477e-09 1.22339301250365e-09 5.92542569631329e-09 1.0001581744031e-07 7.94890373626231e-08 1.06789106303662e-08 4.74090261122979e-08 5.26387354396209e-08
"285" 4237 5.89667388033165e-09 1.22410884568438e-09 5.92517626799748e-09 9.97672501159365e-08 7.95027868811518e-08 1.06825729700961e-08 4.72974129448098e-08 5.26188168454211e-08
"286" 4238 5.90270425704853e-09 1.22482467886512e-09 5.92492683968168e-09 9.95186827915634e-08 7.95165363996804e-08 1.06862353098261e-08 4.71857997773218e-08 5.25988982512213e-08
"287" 4239 5.9087346337654e-09 1.22554051204586e-09 5.92467741136587e-09 9.92701154671904e-08 7.9530285918209e-08 1.0689897649556e-08 4.70741866098337e-08 5.25789796570215e-08
"288" 4240 5.91476501048228e-09 1.22625634522659e-09 5.92442798305006e-09 9.90215481428173e-08 7.95440354367376e-08 1.06935599892859e-08 4.69625734423456e-08 5.25590610628216e-08
"289" 4241 5.92079538719916e-09 1.22697217840733e-09 5.92417855473425e-09 9.87729808184443e-08 7.95577849552662e-08 1.06972223290159e-08 4.68509602748576e-08 5.25391424686218e-08
"290" 4242 5.92682576391603e-09 1.22768801158806e-09 5.92392912641845e-09 9.85244134940712e-08 7.95715344737948e-08 1.07008846687458e-08 4.67393471073695e-08 5.2519223874422e-08
"291" 4243 5.93285614063291e-09 1.2284038447688e-09 5.92367969810264e-09 9.82758461696982e-08 7.95852839923234e-08 1.07045470084757e-08 4.66277339398814e-08 5.24993052802222e-08
"292" 4244 5.93888651734979e-09 1.22911967794954e-09 5.92343026978683e-09 9.80272788453251e-08 7.95990335108521e-08 1.07082093482057e-08 4.65161207723933e-08 5.24793866860224e-08
"293" 4245 5.94491689406666e-09 1.22983551113027e-09 5.92318084147103e-09 9.7778711520952e-08 7.96127830293807e-08 1.07118716879356e-08 4.64045076049053e-08 5.24594680918226e-08
"294" 4246 5.95094727078354e-09 1.23055134431101e-09 5.92293141315522e-09 9.7530144196579e-08 7.96265325479093e-08 1.07155340276656e-08 4.62928944374172e-08 5.24395494976227e-08
"295" 4247 5.95697764750042e-09 1.23126717749174e-09 5.92268198483941e-09 9.72815768722059e-08 7.96402820664379e-08 1.07191963673955e-08 4.61812812699291e-08 5.24196309034229e-08
"296" 4248 5.9630080242173e-09 1.23198301067248e-09 5.9224325565236e-09 9.70330095478329e-08 7.96540315849665e-08 1.07228587071254e-08 4.60696681024411e-08 5.23997123092231e-08
"297" 4249 5.96903840093417e-09 1.23269884385322e-09 5.9221831282078e-09 9.67844422234598e-08 7.96677811034951e-08 1.07265210468554e-08 4.5958054934953e-08 5.23797937150233e-08
"298" 4250 5.9710560830582e-09 1.23872694325313e-09 5.98577327077923e-09 9.93451671389946e-08 7.96611085233954e-08 1.0752277915735e-08 4.58463956828508e-08 5.23276358692161e-08
"299" 4251 5.97307376518222e-09 1.24475504265305e-09 6.04936341335065e-09 1.01905892054529e-07 7.96544359432957e-08 1.07780347846147e-08 4.57347364307486e-08 5.22754780234088e-08
"300" 4252 5.97509144730625e-09 1.25078314205297e-09 6.11295355592208e-09 1.04466616970064e-07 7.9647763363196e-08 1.08037916534943e-08 4.56230771786464e-08 5.22233201776016e-08
"301" 4253 5.88712954143624e-09 1.2568327724496e-09 6.1745488930535e-09 1.07038098109066e-07 7.96410907830963e-08 1.08210624940758e-08 4.56198391237691e-08 5.01830242547546e-08
"302" 4254 5.79916763556624e-09 1.26288240284623e-09 6.23614423018491e-09 1.09609579248069e-07 7.96344182029966e-08 1.08383333346573e-08 4.56166010688917e-08 4.81427283319077e-08
"303" 4255 5.71120572969624e-09 1.26893203324286e-09 6.29773956731633e-09 1.12181060387071e-07 7.96277456228969e-08 1.08556041752388e-08 4.56133630140144e-08 4.61024324090607e-08
"304" 4256 5.6886598156221e-09 1.27300818216739e-09 6.35260127155061e-09 1.14894450824472e-07 7.96246587094056e-08 1.08805273804879e-08 4.55733859569476e-08 4.59977976653401e-08
"305" 4257 5.66611390154796e-09 1.27708433109191e-09 6.4074629757849e-09 1.17607841261873e-07 7.96215717959144e-08 1.0905450585737e-08 4.55334088998809e-08 4.58931629216195e-08
"306" 4258 5.64128959396360e-09 1.27708433109191e-09 6.40471978188306e-09 1.18115147650337e-07 7.9610531611725e-08 1.09131029504046e-08 4.55266718924141e-08 4.58406860237061e-08
"307" 4259 5.62537483352336e-09 1.27487223855955e-09 6.40471916079662e-09 1.18044529117594e-07 7.95998013910768e-08 1.09332060797383e-08 4.5749184661175e-08 4.57687038439184e-08
"308" 4260 5.60946007308313e-09 1.27266014602719e-09 6.40471853971017e-09 1.17973910584851e-07 7.95890711704286e-08 1.0953309209072e-08 4.59716974299359e-08 4.56967216641306e-08
"309" 4261 5.5935453126429e-09 1.27044805349484e-09 6.40471791862373e-09 1.17903292052107e-07 7.95783409497804e-08 1.09734123384057e-08 4.61942101986968e-08 4.56247394843429e-08
"310" 4262 5.57763055220267e-09 1.26823596096248e-09 6.40471729753729e-09 1.17832673519364e-07 7.95676107291322e-08 1.09935154677394e-08 4.64167229674578e-08 4.55527573045551e-08
"311" 4263 5.56171579176244e-09 1.26602386843012e-09 6.40471667645084e-09 1.17762054986621e-07 7.9556880508484e-08 1.10136185970731e-08 4.66392357362187e-08 4.54807751247674e-08
"312" 4264 5.54580103132221e-09 1.26381177589777e-09 6.4047160553644e-09 1.17691436453877e-07 7.95461502878357e-08 1.10337217264067e-08 4.68617485049796e-08 4.54087929449796e-08
"313" 4265 5.52988627088198e-09 1.26159968336541e-09 6.40471543427795e-09 1.17620817921134e-07 7.95354200671875e-08 1.10538248557404e-08 4.70842612737405e-08 4.53368107651918e-08
"314" 4266 5.51397151044175e-09 1.25938759083305e-09 6.40471481319151e-09 1.17550199388391e-07 7.95246898465393e-08 1.10739279850741e-08 4.73067740425015e-08 4.52648285854041e-08
"315" 4267 5.49805675000152e-09 1.2571754983007e-09 6.40471419210507e-09 1.17479580855647e-07 7.95139596258911e-08 1.10940311144078e-08 4.75292868112624e-08 4.51928464056163e-08
"316" 4268 5.50468790363543e-09 1.25322853535647e-09 6.41369143767157e-09 1.17373311308892e-07 7.95142695894323e-08 1.10672370001128e-08 4.77200022728264e-08 4.5173862256674e-08
"317" 4269 5.50145734320119e-09 1.25322853535647e-09 6.42167107348925e-09 1.16109945792585e-07 7.95066262822754e-08 1.10823489856216e-08 4.79352792810033e-08 4.5204056995223e-08
"318" 4270 5.49822678276694e-09 1.25322853535647e-09 6.42965070930694e-09 1.14846580276277e-07 7.94989829751184e-08 1.10974609711304e-08 4.81505562891802e-08 4.5234251733772e-08
"319" 4271 5.49499622233269e-09 1.25322853535647e-09 6.43763034512462e-09 1.1358321475997e-07 7.94913396679615e-08 1.11125729566392e-08 4.83658332973571e-08 4.5264446472321e-08
"320" 4272 5.48383095133353e-09 1.25420451059417e-09 6.46156987366411e-09 1.12273233393598e-07 7.95210620081613e-08 1.11416753179996e-08 4.86327197320114e-08 4.52664235146887e-08
"321" 4273 5.47266568033436e-09 1.25518048583187e-09 6.4855094022036e-09 1.10963252027227e-07 7.95507843483612e-08 1.11707776793599e-08 4.88996061666657e-08 4.52684005570565e-08
"322" 4274 5.46150040933519e-09 1.25615646106957e-09 6.50944893074309e-09 1.09653270660855e-07 7.95805066885611e-08 1.11998800407202e-08 4.916649260132e-08 4.52703775994242e-08
"323" 4275 5.45033513833603e-09 1.25713243630726e-09 6.53338845928258e-09 1.08343289294483e-07 7.9610229028761e-08 1.12289824020805e-08 4.94333790359744e-08 4.52723546417919e-08
"324" 4276 5.43916986733686e-09 1.25810841154496e-09 6.55732798782208e-09 1.07033307928112e-07 7.96399513689609e-08 1.12580847634408e-08 4.97002654706287e-08 4.52743316841596e-08
"325" 4277 5.4280045963377e-09 1.25908438678266e-09 6.58126751636157e-09 1.0572332656174e-07 7.96696737091608e-08 1.12871871248011e-08 4.9967151905283e-08 4.52763087265274e-08
"326" 4278 5.41683932533853e-09 1.26006036202036e-09 6.60520704490106e-09 1.04413345195369e-07 7.96993960493607e-08 1.13162894861614e-08 5.02340383399373e-08 4.52782857688951e-08
"327" 4279 5.40567405433937e-09 1.26103633725805e-09 6.62914657344055e-09 1.03103363828997e-07 7.97291183895606e-08 1.13453918475217e-08 5.05009247745916e-08 4.52802628112628e-08
"328" 4280 5.39773934377445e-09 1.26175217043879e-09 6.65408371172886e-09 1.02775046603713e-07 7.95616571808084e-08 1.13791576674992e-08 5.0703195797876e-08 4.5284643768711e-08
"329" 4281 5.39277448225758e-09 1.26543899132605e-09 6.66031838447997e-09 1.02500912928727e-07 7.93564259663701e-08 1.1394611788827e-08 5.05846459229266e-08 4.53168291100151e-08
"330" 4282 5.3878096207407e-09 1.26912581221331e-09 6.66655305723107e-09 1.02226779253741e-07 7.91511947519318e-08 1.14100659101548e-08 5.04660960479772e-08 4.53490144513192e-08
"331" 4283 5.38284475922383e-09 1.27281263310057e-09 6.67278772998218e-09 1.01952645578755e-07 7.89459635374936e-08 1.14255200314825e-08 5.03475461730277e-08 4.53811997926233e-08
"332" 4284 5.37787989770696e-09 1.27649945398783e-09 6.67902240273328e-09 1.01678511903769e-07 7.87407323230553e-08 1.14409741528103e-08 5.02289962980783e-08 4.54133851339273e-08
"333" 4285 5.37291503619008e-09 1.2801862748751e-09 6.68525707548439e-09 1.01404378228783e-07 7.8535501108617e-08 1.14564282741381e-08 5.01104464231289e-08 4.54455704752314e-08
"334" 4286 5.36795017467321e-09 1.28387309576236e-09 6.69149174823550e-09 1.01130244553797e-07 7.83302698941787e-08 1.14718823954659e-08 4.99918965481795e-08 4.54777558165355e-08
"335" 4287 5.38933987422368e-09 1.28458892894309e-09 6.6977264209866e-09 1.01970914701929e-07 7.81254430380697e-08 1.14999944758974e-08 4.98913478700636e-08 4.55099411578396e-08
"336" 4288 5.39933760622301e-09 1.27652275508092e-09 6.69772693855864e-09 1.03139902075345e-07 7.78257854740804e-08 1.15176219029092e-08 4.9862757894668e-08 4.54660285037105e-08
"337" 4289 5.40933533822235e-09 1.26845658121874e-09 6.69772745613067e-09 1.04308889448761e-07 7.75261279100912e-08 1.15352493299209e-08 4.98341679192723e-08 4.54221158495814e-08
"338" 4290 5.41933307022169e-09 1.26039040735656e-09 6.69772797370271e-09 1.05477876822177e-07 7.72264703461019e-08 1.15528767569326e-08 4.98055779438766e-08 4.53782031954524e-08
"339" 4291 5.42933080222102e-09 1.25232423349438e-09 6.69772849127475e-09 1.06646864195594e-07 7.69268127821127e-08 1.15705041839444e-08 4.9776987968481e-08 4.53342905413233e-08
"340" 4292 5.43932853422036e-09 1.24425805963221e-09 6.69772900884678e-09 1.0781585156901e-07 7.66271552181235e-08 1.15881316109561e-08 4.97483979930853e-08 4.52903778871942e-08
"341" 4293 5.44932626621970e-09 1.23619188577003e-09 6.69772952641882e-09 1.08984838942426e-07 7.63274976541342e-08 1.16057590379678e-08 4.97198080176897e-08 4.52464652330652e-08
"342" 4294 5.45932399821903e-09 1.22812571190785e-09 6.69773004399086e-09 1.10153826315842e-07 7.6027840090145e-08 1.16233864649796e-08 4.9691218042294e-08 4.52025525789361e-08
"343" 4295 5.47479669003149e-09 1.21932217386822e-09 6.69374012256761e-09 1.10636740869564e-07 7.57511660059809e-08 1.16374973316011e-08 4.96463993886666e-08 4.52525177411623e-08
"344" 4296 5.49026938184394e-09 1.21051863582859e-09 6.68975020114436e-09 1.11119655423286e-07 7.54744919218169e-08 1.16516081982227e-08 4.96015807350391e-08 4.53024829033885e-08
"345" 4297 5.5057420736564e-09 1.20171509778896e-09 6.68576027972111e-09 1.11602569977008e-07 7.51978178376528e-08 1.16657190648443e-08 4.95567620814117e-08 4.53524480656148e-08
"346" 4298 5.52121476546885e-09 1.19291155974933e-09 6.68177035829786e-09 1.1208548453073e-07 7.49211437534888e-08 1.16798299314659e-08 4.95119434277842e-08 4.5402413227841e-08
"347" 4299 5.53668745728131e-09 1.1841080217097e-09 6.67778043687461e-09 1.12568399084452e-07 7.46444696693247e-08 1.16939407980875e-08 4.94671247741568e-08 4.54523783900672e-08
"348" 4300 5.55216014909376e-09 1.17530448367007e-09 6.67379051545137e-09 1.13051313638174e-07 7.43677955851607e-08 1.17080516647091e-08 4.94223061205294e-08 4.55023435522935e-08
"349" 4301 5.56763284090622e-09 1.16650094563044e-09 6.66980059402812e-09 1.13534228191896e-07 7.40911215009967e-08 1.17221625313306e-08 4.93774874669019e-08 4.55523087145197e-08
"350" 4302 5.60119666286931e-09 1.16673955669069e-09 6.6231662976968e-09 1.13465659472148e-07 7.40860395750366e-08 1.17442570604803e-08 4.93812396364345e-08 4.53640451780183e-08
"351" 4303 5.63476048483239e-09 1.16697816775093e-09 6.57653200136549e-09 1.13397090752401e-07 7.40809576490765e-08 1.17663515896301e-08 4.93849918059671e-08 4.51757816415169e-08
"352" 4304 5.66832430679548e-09 1.16721677881118e-09 6.52989770503417e-09 1.13328522032654e-07 7.40758757231164e-08 1.17884461187798e-08 4.93887439754997e-08 4.49875181050155e-08
"353" 4305 5.70188812875857e-09 1.16745538987142e-09 6.48326340870286e-09 1.13259953312907e-07 7.40707937971563e-08 1.18105406479295e-08 4.93924961450323e-08 4.47992545685141e-08
"354" 4306 5.73545195072165e-09 1.16769400093167e-09 6.43662911237154e-09 1.13191384593159e-07 7.40657118711963e-08 1.18326351770792e-08 4.93962483145648e-08 4.46109910320127e-08
"355" 4307 5.76901577268474e-09 1.16793261199192e-09 6.38999481604023e-09 1.13122815873412e-07 7.40606299452362e-08 1.18547297062289e-08 4.94000004840974e-08 4.44227274955112e-08
"356" 4308 5.78285616651151e-09 1.16819275404888e-09 6.36131532138514e-09 1.12997338700461e-07 7.40328477238149e-08 1.1863860266984e-08 4.94037219305539e-08 4.42570607607666e-08
"357" 4309 5.78682352179397e-09 1.16921179128001e-09 6.34261192421827e-09 1.13070396198263e-07 7.40056854294761e-08 1.18718439295122e-08 4.94336010329722e-08 4.39497884906511e-08
"358" 4310 5.75695501925098e-09 1.16795414298863e-09 6.37253773233713e-09 1.13700230779135e-07 7.38670715639904e-08 1.17717945220856e-08 4.91406795862259e-08 4.36074190603603e-08
"359" 4311 5.727086516708e-09 1.16669649469726e-09 6.40246354045599e-09 1.14330065360006e-07 7.37284576985046e-08 1.1671745114659e-08 4.88477581394795e-08 4.32650496300694e-08
"360" 4312 5.69721801416501e-09 1.16543884640588e-09 6.43238934857486e-09 1.14959899940878e-07 7.35898438330189e-08 1.15716957072324e-08 4.85548366927332e-08 4.29226801997786e-08
"361" 4313 5.66734951162203e-09 1.1641811981145e-09 6.46231515669372e-09 1.1558973452175e-07 7.34512299675332e-08 1.14716462998058e-08 4.82619152459869e-08 4.25803107694877e-08
"362" 4314 5.63748100907904e-09 1.16292354982313e-09 6.49224096481258e-09 1.16219569102622e-07 7.33126161020475e-08 1.13715968923792e-08 4.79689937992405e-08 4.22379413391968e-08
"363" 4315 5.60761250653605e-09 1.16166590153175e-09 6.52216677293144e-09 1.16849403683493e-07 7.31740022365618e-08 1.12715474849526e-08 4.76760723524942e-08 4.1895571908906e-08
"364" 4316 5.57774400399306e-09 1.16040825324038e-09 6.55209258105031e-09 1.17479238264365e-07 7.3035388371076e-08 1.1171498077526e-08 4.73831509057478e-08 4.15532024786151e-08
"365" 4317 5.54390814616762e-09 1.16431215419117e-09 6.58201838916917e-09 1.17480216102862e-07 7.28961545785079e-08 1.10601339657018e-08 4.70850731993456e-08 4.12037247139756e-08
"366" 4318 5.51007228834217e-09 1.16821605514196e-09 6.61194419728803e-09 1.17481193941359e-07 7.27569207859398e-08 1.09487698538777e-08 4.67869954929433e-08 4.08542469493361e-08
"367" 4319 5.47623643051673e-09 1.17211995609275e-09 6.6418700054069e-09 1.17482171779856e-07 7.26176869933717e-08 1.08374057420536e-08 4.6488917786541e-08 4.05047691846966e-08
"368" 4320 5.44240057269128e-09 1.17602385704354e-09 6.67179581352576e-09 1.17483149618353e-07 7.24784532008036e-08 1.07260416302294e-08 4.61908400801387e-08 4.01552914200571e-08
"369" 4321 5.40856471486584e-09 1.17992775799433e-09 6.70172162164462e-09 1.1748412745685e-07 7.23392194082355e-08 1.06146775184053e-08 4.58927623737364e-08 3.98058136554176e-08
"370" 4322 5.37472885704039e-09 1.18383165894512e-09 6.73164742976348e-09 1.17485105295347e-07 7.21999856156674e-08 1.05033134065812e-08 4.55946846673341e-08 3.94563358907781e-08
"371" 4323 5.34089299921494e-09 1.18773555989591e-09 6.76157323788235e-09 1.17486083133844e-07 7.20607518230993e-08 1.03919492947571e-08 4.52966069609318e-08 3.91068581261386e-08
"372" 4324 5.3070571413895e-09 1.1916394608467e-09 6.79149904600121e-09 1.17487060972341e-07 7.19215180305312e-08 1.02805851829329e-08 4.49985292545295e-08 3.87573803614991e-08
"373" 4325 5.28917003813564e-09 1.19387308437577e-09 6.80945436524947e-09 1.17123501552846e-07 7.19222055732245e-08 1.02398368193146e-08 4.49334074092734e-08 3.87352375532298e-08
"374" 4326 5.27128293488177e-09 1.19610670790485e-09 6.82740968449774e-09 1.16759942133351e-07 7.19228931159177e-08 1.01990884556962e-08 4.48682855640173e-08 3.87130947449606e-08
"375" 4327 5.25339583162791e-09 1.19834033143392e-09 6.84536500374601e-09 1.16396382713855e-07 7.19235806586109e-08 1.01583400920778e-08 4.48031637187612e-08 3.86909519366913e-08
"376" 4328 5.23550872837405e-09 1.20057395496299e-09 6.86332032299427e-09 1.1603282329436e-07 7.19242682013041e-08 1.01175917284594e-08 4.47380418735051e-08 3.8668809128422e-08
"377" 4329 5.21762162512019e-09 1.20280757849207e-09 6.88127564224254e-09 1.15669263874864e-07 7.19249557439973e-08 1.00768433648411e-08 4.4672920028249e-08 3.86466663201528e-08
"378" 4330 5.19973452186633e-09 1.20504120202114e-09 6.8992309614908e-09 1.15305704455369e-07 7.19256432866906e-08 1.00360950012227e-08 4.46077981829929e-08 3.86245235118835e-08
"379" 4331 5.18065720995744e-09 1.20109423907692e-09 6.89100137978528e-09 1.1496271965263e-07 7.19336909521767e-08 9.99701396486544e-09 4.46275946923007e-08 3.86092913668507e-08
"380" 4332 5.16157989804855e-09 1.19714727613269e-09 6.88277179807975e-09 1.1461973484989e-07 7.19417386176629e-08 9.95793292850817e-09 4.46473912016086e-08 3.85940592218179e-08
"381" 4333 5.14250258613967e-09 1.19320031318847e-09 6.87454221637423e-09 1.14276750047151e-07 7.1949786283149e-08 9.91885189215091e-09 4.46671877109164e-08 3.85788270767851e-08
"382" 4334 5.12342527423078e-09 1.18925335024425e-09 6.8663126346687e-09 1.13933765244412e-07 7.19578339486352e-08 9.87977085579365e-09 4.46869842202243e-08 3.85635949317523e-08
"383" 4335 5.10434796232189e-09 1.18530638730002e-09 6.85808305296317e-09 1.13590780441673e-07 7.19658816141213e-08 9.84068981943639e-09 4.47067807295322e-08 3.85483627867195e-08
"384" 4336 5.085270650413e-09 1.1813594243558e-09 6.84985347125765e-09 1.13247795638933e-07 7.19739292796075e-08 9.80160878307913e-09 4.472657723884e-08 3.85331306416867e-08
"385" 4337 5.06619333850412e-09 1.17741246141158e-09 6.84162388955212e-09 1.12904810836194e-07 7.19819769450936e-08 9.76252774672187e-09 4.47463737481479e-08 3.85178984966539e-08
"386" 4338 5.04711602659523e-09 1.17346549846735e-09 6.8333943078466e-09 1.12561826033455e-07 7.19900246105798e-08 9.7234467103646e-09 4.47661702574557e-08 3.85026663516211e-08
"387" 4339 5.04894100629864e-09 1.17346549846735e-09 6.81967916645264e-09 1.12549137330572e-07 7.18612378542959e-08 9.81469685489659e-09 4.48222991850641e-08 3.80154835572891e-08
"388" 4340 5.05887072933239e-09 1.17975373992423e-09 6.81269672632615e-09 1.12542826347e-07 7.17429108562168e-08 9.81469685489659e-09 4.547662462256e-08 3.78013207988951e-08
"389" 4341 5.06880045236613e-09 1.18604198138111e-09 6.80571428619966e-09 1.12536515363428e-07 7.16245838581377e-08 9.81469685489659e-09 4.61309500600558e-08 3.75871580405011e-08
"390" 4342 5.07873017539988e-09 1.19233022283799e-09 6.79873184607317e-09 1.12530204379855e-07 7.15062568600586e-08 9.81469685489659e-09 4.67852754975517e-08 3.73729952821072e-08
"391" 4343 5.08865989843363e-09 1.19861846429487e-09 6.79174940594668e-09 1.12523893396283e-07 7.13879298619795e-08 9.81469685489659e-09 4.74396009350476e-08 3.71588325237132e-08
"392" 4344 5.09858962146737e-09 1.20490670575175e-09 6.78476696582019e-09 1.12517582412711e-07 7.12696028639005e-08 9.81469685489659e-09 4.80939263725435e-08 3.69446697653193e-08
"393" 4345 5.11243001529415e-09 1.20592574298288e-09 6.80471812565254e-09 1.14538839851903e-07 7.11351410337512e-08 9.83382776656558e-09 4.80299630812366e-08 3.64832288716835e-08
"394" 4346 5.12627040912092e-09 1.20694478021401e-09 6.8246692854849e-09 1.16560097291096e-07 7.1000679203602e-08 9.85295867823456e-09 4.79659997899298e-08 3.60217879780478e-08
"395" 4347 5.14011080294769e-09 1.20796381744514e-09 6.84462044531725e-09 1.18581354730288e-07 7.08662173734528e-08 9.87208958990354e-09 4.7902036498623e-08 3.55603470844121e-08
"396" 4348 5.15395119677447e-09 1.20898285467627e-09 6.8645716051496e-09 1.2060261216948e-07 7.07317555433036e-08 9.89122050157252e-09 4.78380732073162e-08 3.50989061907763e-08
"397" 4349 5.16779159060124e-09 1.2100018919074e-09 6.88452276498195e-09 1.22623869608672e-07 7.05972937131544e-08 9.91035141324151e-09 4.77741099160093e-08 3.46374652971406e-08
"398" 4350 5.18163198442801e-09 1.21102092913853e-09 6.9044739248143e-09 1.24645127047865e-07 7.04628318830052e-08 9.92948232491049e-09 4.77101466247025e-08 3.41760244035048e-08
"399" 4351 5.19547237825479e-09 1.21203996636966e-09 6.92442508464666e-09 1.26666384487057e-07 7.0328370052856e-08 9.94861323657947e-09 4.76461833333957e-08 3.37145835098691e-08
"400" 4352 5.20931277208156e-09 1.21305900360079e-09 6.94437624447901e-09 1.28687641926249e-07 7.01939082227068e-08 9.96774414824845e-09 4.75822200420888e-08 3.32531426162334e-08
"401" 4353 5.22315316590833e-09 1.21407804083192e-09 6.96432740431136e-09 1.30708899365441e-07 7.00594463925575e-08 9.98687505991744e-09 4.7518256750782e-08 3.27917017225976e-08
"402" 4354 5.21306475528821e-09 1.21401344784177e-09 6.95161007969505e-09 1.31252026045027e-07 7.00247760222834e-08 9.98687505991744e-09 4.75981186956873e-08 3.27569147951009e-08
"403" 4355 5.20297634466809e-09 1.21394885485162e-09 6.93889275507873e-09 1.31795152724613e-07 6.99901056520093e-08 9.98687505991744e-09 4.76779806405926e-08 3.27221278676041e-08
"404" 4356 5.19288793404797e-09 1.21388426186147e-09 6.92617543046241e-09 1.32338279404199e-07 6.99554352817351e-08 9.98687505991744e-09 4.77578425854979e-08 3.26873409401074e-08
"405" 4357 5.18279952342784e-09 1.21381966887132e-09 6.9134581058461e-09 1.32881406083785e-07 6.9920764911461e-08 9.98687505991744e-09 4.78377045304032e-08 3.26525540126106e-08
"406" 4358 5.17271111280772e-09 1.21375507588117e-09 6.90074078122978e-09 1.33424532763371e-07 6.98860945411869e-08 9.98687505991744e-09 4.79175664753084e-08 3.26177670851139e-08
"407" 4359 5.1626227021876e-09 1.21369048289102e-09 6.88802345661346e-09 1.33967659442957e-07 6.98514241709127e-08 9.98687505991744e-09 4.79974284202137e-08 3.25829801576171e-08
"408" 4360 5.14473559893374e-09 1.21362588990087e-09 6.88004423485341e-09 1.33435344460209e-07 6.96124283683184e-08 9.98654737470972e-09 4.80361009887198e-08 3.24552590096962e-08
"409" 4361 5.12684849567987e-09 1.21356129691073e-09 6.87206501309336e-09 1.32903029477462e-07 6.93734325657241e-08 9.986219689502e-09 4.80747735572259e-08 3.23275378617752e-08
"410" 4362 5.10896139242601e-09 1.21349670392058e-09 6.8640857913333e-09 1.32370714494714e-07 6.91344367631298e-08 9.98589200429428e-09 4.8113446125732e-08 3.21998167138543e-08
"411" 4363 5.09107428917215e-09 1.21343211093043e-09 6.85610656957325e-09 1.31838399511966e-07 6.88954409605355e-08 9.98556431908656e-09 4.81521186942381e-08 3.20720955659333e-08
"412" 4364 5.07318718591829e-09 1.21336751794028e-09 6.8481273478132e-09 1.31306084529218e-07 6.86564451579412e-08 9.98523663387884e-09 4.81907912627442e-08 3.19443744180124e-08
"413" 4365 5.05530008266443e-09 1.21330292495013e-09 6.84014812605314e-09 1.30773769546471e-07 6.84174493553469e-08 9.98490894867112e-09 4.82294638312503e-08 3.18166532700914e-08
"414" 4366 5.03741297941057e-09 1.21323833195998e-09 6.83216890429309e-09 1.30241454563723e-07 6.81784535527526e-08 9.9845812634634e-09 4.82681363997564e-08 3.16889321221705e-08
"415" 4367 5.0262250387562e-09 1.21193762167517e-09 6.81421441316008e-09 1.2916926463052e-07 6.79367075793854e-08 9.98541853974677e-09 4.8250841088369e-08 3.15559223610724e-08
"416" 4368 5.01503709810184e-09 1.21063691139036e-09 6.79625992202708e-09 1.28097074697316e-07 6.76949616060182e-08 9.98625581603014e-09 4.82335457769816e-08 3.14229125999744e-08
"417" 4369 5.02173626070134e-09 1.21059384939693e-09 6.79825503801031e-09 1.28090457435316e-07 6.57966563542458e-08 9.98161042067705e-09 4.82544703655972e-08 3.13888536271954e-08
"418" 4370 5.02843542330084e-09 1.2105507874035e-09 6.80025015399355e-09 1.28083840173316e-07 6.38983511024734e-08 9.97696502532396e-09 4.82753949542129e-08 3.13547946544165e-08
"419" 4371 5.03513458590034e-09 1.21050772541006e-09 6.80224526997678e-09 1.28077222911315e-07 6.2000045850701e-08 9.97231962997086e-09 4.82963195428285e-08 3.13207356816376e-08
"420" 4372 5.04183374849984e-09 1.21046466341663e-09 6.80424038596002e-09 1.28070605649315e-07 6.01017405989286e-08 9.96767423461777e-09 4.83172441314441e-08 3.12866767088587e-08
"421" 4373 5.04853291109934e-09 1.2104216014232e-09 6.80623550194325e-09 1.28063988387314e-07 5.82034353471562e-08 9.96302883926468e-09 4.83381687200598e-08 3.12526177360798e-08
"422" 4374 5.05523207369884e-09 1.21037853942977e-09 6.80823061792649e-09 1.28057371125314e-07 5.63051300953838e-08 9.95838344391158e-09 4.83590933086754e-08 3.12185587633008e-08
"423" 4375 5.06193123629834e-09 1.21033547743633e-09 6.81022573390972e-09 1.28050753863313e-07 5.44068248436114e-08 9.95373804855849e-09 4.8380017897291e-08 3.11844997905219e-08
"424" 4376 5.10875734482636e-09 1.20957658226216e-09 6.81022563039532e-09 1.28050753863313e-07 5.2506497800193e-08 9.95988692856883e-09 4.84062600417121e-08 3.15949827566569e-08
"425" 4377 5.15558345335439e-09 1.20881768708799e-09 6.81022552688091e-09 1.28050753863313e-07 5.06061707567746e-08 9.96603580857918e-09 4.84325021861331e-08 3.20054657227918e-08
"426" 4378 5.20240956188241e-09 1.20805879191383e-09 6.8102254233665e-09 1.28050753863313e-07 4.87058437133563e-08 9.97218468858952e-09 4.84587443305541e-08 3.24159486889268e-08
"427" 4379 5.24923567041043e-09 1.20729989673966e-09 6.81022531985209e-09 1.28050753863313e-07 4.68055166699379e-08 9.97833356859986e-09 4.84849864749751e-08 3.28264316550617e-08
"428" 4380 5.29606177893846e-09 1.20654100156549e-09 6.81022521633769e-09 1.28050753863313e-07 4.49051896265195e-08 9.9844824486102e-09 4.85112286193961e-08 3.32369146211967e-08
"429" 4381 5.34288788746648e-09 1.20578210639132e-09 6.81022511282328e-09 1.28050753863313e-07 4.30048625831011e-08 9.99063132862055e-09 4.85374707638172e-08 3.36473975873316e-08
"430" 4382 5.38971399599451e-09 1.20502321121715e-09 6.81022500930887e-09 1.28050753863313e-07 4.11045355396827e-08 9.99678020863089e-09 4.85637129082382e-08 3.40578805534666e-08
"431" 4383 5.43654010452253e-09 1.20426431604298e-09 6.81022490579446e-09 1.28050753863313e-07 3.92042084962643e-08 1.00029290886412e-08 4.85899550526592e-08 3.44683635196015e-08
"432" 4384 5.47666705045105e-09 1.20426431604298e-09 6.81022490579446e-09 1.27994261289592e-07 3.87793397913506e-08 1.00137233640047e-08 4.86111712620631e-08 3.48723447251117e-08
"433" 4385 5.52544283213751e-09 1.20426431604298e-09 6.79825514152472e-09 1.27945662362271e-07 3.8503341863295e-08 1.00180302361916e-08 4.86403828828803e-08 3.53041526942926e-08
"434" 4386 5.57421861382397e-09 1.20426431604298e-09 6.78628537725497e-09 1.27897063434949e-07 3.82273439352394e-08 1.00223371083785e-08 4.86695945036975e-08 3.57359606634734e-08
"435" 4387 5.62299439551043e-09 1.20426431604298e-09 6.77431561298523e-09 1.27848464507627e-07 3.79513460071838e-08 1.00266439805655e-08 4.86988061245147e-08 3.61677686326543e-08
"436" 4388 5.67177017719689e-09 1.20426431604298e-09 6.76234584871548e-09 1.27799865580306e-07 3.76753480791281e-08 1.00309508527524e-08 4.87280177453319e-08 3.65995766018351e-08
"437" 4389 5.67554483005874e-09 1.20424278504627e-09 6.75411699161081e-09 1.27799865580306e-07 3.74004420520949e-08 1.00249549773875e-08 4.87572293661491e-08 3.65891566966771e-08
"438" 4390 5.67931948292058e-09 1.20422125404955e-09 6.74588813450613e-09 1.27799865580306e-07 3.71255360250617e-08 1.00189591020225e-08 4.87864409869663e-08 3.65787367915191e-08
"439" 4391 5.68309413578243e-09 1.20419972305283e-09 6.73765927740146e-09 1.27799865580306e-07 3.68506299980285e-08 1.00129632266576e-08 4.88156526077835e-08 3.6568316886361e-08
"440" 4392 5.68686878864428e-09 1.20417819205612e-09 6.72943042029678e-09 1.27799865580306e-07 3.65757239709953e-08 1.00069673512927e-08 4.88448642286007e-08 3.6557896981203e-08
"441" 4393 5.69064344150613e-09 1.2041566610594e-09 6.7212015631921e-09 1.27799865580306e-07 3.63008179439621e-08 1.00009714759278e-08 4.88740758494179e-08 3.6547477076045e-08
"442" 4394 5.69441809436797e-09 1.20413513006268e-09 6.71297270608743e-09 1.27799865580306e-07 3.60259119169289e-08 9.99497560056283e-09 4.89032874702351e-08 3.6537057170887e-08
"443" 4395 5.69819274722982e-09 1.20411359906597e-09 6.70474384898276e-09 1.27799865580306e-07 3.57510058898957e-08 9.98897972519791e-09 4.89324990910523e-08 3.65266372657289e-08
"444" 4396 5.70196740009167e-09 1.20409206806925e-09 6.69651499187808e-09 1.27799865580306e-07 3.54760998628625e-08 9.98298384983298e-09 4.89617107118695e-08 3.65162173605709e-08
"445" 4397 5.70574205295352e-09 1.20407053707254e-09 6.6882861347734e-09 1.27799865580306e-07 3.52011938358293e-08 9.97698797446805e-09 4.89909223326867e-08 3.65057974554129e-08
"446" 4398 5.70769172611195e-09 1.20404900607582e-09 6.70748869911511e-09 1.27767234485261e-07 3.41705161611646e-08 9.97498934934641e-09 4.90109492650652e-08 3.64884309468162e-08
"447" 4399 5.70964139927038e-09 1.2040274750791e-09 6.72669126345682e-09 1.27734603390216e-07 3.31398384864998e-08 9.97299072422477e-09 4.90309761974437e-08 3.64710644382194e-08
"448" 4400 5.71159107242882e-09 1.20400594408239e-09 6.74589382779853e-09 1.27701972295171e-07 3.2109160811835e-08 9.97099209910313e-09 4.90510031298222e-08 3.64536979296227e-08
"449" 4401 5.71354074558725e-09 1.20398441308567e-09 6.76509639214024e-09 1.27669341200127e-07 3.10784831371702e-08 9.96899347398148e-09 4.90710300622007e-08 3.6436331421026e-08
"450" 4402 5.71549041874569e-09 1.20396288208895e-09 6.78429895648195e-09 1.27636710105082e-07 3.00478054625054e-08 9.96699484885984e-09 4.90910569945791e-08 3.64189649124293e-08
"451" 4403 5.71744009190412e-09 1.20394135109224e-09 6.80350152082366e-09 1.27604079010037e-07 2.90171277878407e-08 9.9649962237382e-09 4.91110839269576e-08 3.64015984038326e-08
"452" 4404 5.72947817568268e-09 1.20391982009552e-09 6.80275354641946e-09 1.27756320247051e-07 2.79884719048219e-08 9.97246668253786e-09 4.91513218817365e-08 3.64314337403595e-08
"453" 4405 5.74151625946124e-09 1.2038982890988e-09 6.80200557201526e-09 1.27908561484065e-07 2.69598160218031e-08 9.97993714133752e-09 4.91915598365154e-08 3.64612690768864e-08
"454" 4406 5.7535543432398e-09 1.20387675810209e-09 6.80125759761106e-09 1.28060802721078e-07 2.59311601387843e-08 9.98740760013718e-09 4.92317977912943e-08 3.64911044134132e-08
"455" 4407 5.76559242701835e-09 1.20385522710537e-09 6.80050962320686e-09 1.28213043958092e-07 2.49025042557655e-08 9.99487805893684e-09 4.92720357460733e-08 3.65209397499401e-08
"456" 4408 5.77763051079691e-09 1.20383369610865e-09 6.79976164880266e-09 1.28365285195106e-07 2.38738483727468e-08 1.00023485177365e-08 4.93122737008521e-08 3.6550775086467e-08
"457" 4409 5.78966859457547e-09 1.20381216511194e-09 6.79901367439846e-09 1.2851752643212e-07 2.2845192489728e-08 1.00098189765362e-08 4.93525116556311e-08 3.65806104229939e-08
"458" 4410 5.80170667835403e-09 1.20379063411522e-09 6.79826569999426e-09 1.28669767669133e-07 2.18165366067092e-08 1.00172894353358e-08 4.939274961041e-08 3.66104457595208e-08
"459" 4411 5.81374476213258e-09 1.20376910311851e-09 6.79751772559006e-09 1.28822008906147e-07 2.07878807236904e-08 1.00247598941355e-08 4.94329875651889e-08 3.66402810960477e-08
"460" 4412 5.82604355729734e-09 1.20006075123453e-09 6.78878928725292e-09 1.28990940806192e-07 1.90179705917934e-08 1.00299112679114e-08 4.94403308565392e-08 3.66647694993804e-08
"461" 4413 5.82706373318695e-09 1.19713282552143e-09 6.79203050967112e-09 1.29032231243707e-07 1.72454455203452e-08 1.00340795860642e-08 4.94037531504992e-08 3.66594225661862e-08
"462" 4414 5.82808390907656e-09 1.19420489980834e-09 6.79527173208932e-09 1.29073521681222e-07 1.54729204488969e-08 1.0038247904217e-08 4.93671754444592e-08 3.6654075632992e-08
"463" 4415 5.82910408496617e-09 1.19127697409525e-09 6.79851295450752e-09 1.29114812118737e-07 1.37003953774487e-08 1.00424162223697e-08 4.93305977384192e-08 3.66487286997979e-08
"464" 4416 5.83012426085579e-09 1.18834904838216e-09 6.80175417692571e-09 1.29156102556252e-07 1.19278703060005e-08 1.00465845405225e-08 4.92940200323792e-08 3.66433817666037e-08
"465" 4417 5.83114443674540e-09 1.18542112266906e-09 6.80499539934391e-09 1.29197392993767e-07 1.01553452345522e-08 1.00507528586753e-08 4.92574423263392e-08 3.66380348334095e-08
"466" 4418 5.83114443674540e-09 1.18644015990019e-09 6.80499539934391e-09 1.29149394688091e-07 8.95746409165795e-09 1.00299654577036e-08 4.9227593946997e-08 3.66552396110963e-08
"467" 4419 5.82812924838696e-09 1.18719905507436e-09 6.81721448841506e-09 1.29007874541755e-07 8.6287871227544e-09 1.00126946171221e-08 4.92239109043856e-08 3.66745831620607e-08
"468" 4420 5.82511406002852e-09 1.18795795024853e-09 6.8294335774862e-09 1.28866354395419e-07 8.30011015385085e-09 9.99542377654064e-09 4.92202278617742e-08 3.66939267130251e-08
"469" 4421 5.82209887167008e-09 1.1887168454227e-09 6.84165266655735e-09 1.28724834249083e-07 7.9714331849473e-09 9.97815293595914e-09 4.92165448191628e-08 3.67132702639896e-08
"470" 4422 5.81908368331164e-09 1.18947574059687e-09 6.85387175562849e-09 1.28583314102746e-07 7.64275621604376e-09 9.96088209537764e-09 4.92128617765514e-08 3.6732613814954e-08
"471" 4423 5.8160684949532e-09 1.19023463577104e-09 6.86609084469964e-09 1.2844179395641e-07 7.31407924714021e-09 9.94361125479614e-09 4.920917873394e-08 3.67519573659185e-08
"472" 4424 5.81305330659476e-09 1.19099353094521e-09 6.87830993377079e-09 1.28300273810074e-07 6.98540227823666e-09 9.92634041421465e-09 4.92054956913286e-08 3.67713009168829e-08
"473" 4425 5.81003811823633e-09 1.19175242611938e-09 6.89052902284193e-09 1.28158753663738e-07 6.65672530933311e-09 9.90906957363315e-09 4.92018126487172e-08 3.67906444678473e-08
"474" 4426 5.80697759056749e-09 1.19175242611938e-09 6.89152642556194e-09 1.28005275377799e-07 6.32926141541716e-09 9.9333374084668e-09 4.92160155914041e-08 3.6801814707538e-08
"475" 4427 5.80177468731962e-09 1.19101506194192e-09 6.89751208405487e-09 1.26517985176918e-07 6.30587357726277e-09 9.8804551274316e-09 4.87241144447646e-08 3.64026999834521e-08
"476" 4428 5.79657178407174e-09 1.19027769776447e-09 6.90349774254779e-09 1.25030694976037e-07 6.28248573910837e-09 9.8275728463964e-09 4.82322132981252e-08 3.60035852593661e-08
"477" 4429 5.79136888082386e-09 1.18954033358702e-09 6.90948340104072e-09 1.23543404775156e-07 6.25909790095397e-09 9.77469056536121e-09 4.77403121514858e-08 3.56044705352801e-08
"478" 4430 5.78616597757598e-09 1.18880296940957e-09 6.91546905953365e-09 1.22056114574275e-07 6.23571006279958e-09 9.72180828432601e-09 4.72484110048463e-08 3.52053558111942e-08
"479" 4431 5.7809630743281e-09 1.18806560523211e-09 6.92145471802658e-09 1.20568824373394e-07 6.21232222464518e-09 9.66892600329081e-09 4.67565098582069e-08 3.48062410871082e-08
"480" 4432 5.77576017108022e-09 1.18732824105466e-09 6.9274403765195e-09 1.19081534172513e-07 6.18893438649079e-09 9.61604372225561e-09 4.62646087115674e-08 3.44071263630222e-08
"481" 4433 5.77055726783235e-09 1.18659087687721e-09 6.93342603501243e-09 1.17594243971632e-07 6.16554654833639e-09 9.56316144122042e-09 4.5772707564928e-08 3.40080116389363e-08
"482" 4434 5.76535436458447e-09 1.18585351269976e-09 6.93941169350536e-09 1.16106953770751e-07 6.14215871018199e-09 9.51027916018522e-09 4.52808064182886e-08 3.36088969148503e-08
"483" 4435 5.76015146133659e-09 1.1851161485223e-09 6.94539735199829e-09 1.1461966356987e-07 6.1187708720276e-09 9.45739687915002e-09 4.47889052716491e-08 3.32097821907643e-08
"484" 4436 5.75494855808871e-09 1.18437878434485e-09 6.95138301049121e-09 1.13132373368989e-07 6.0953830338732e-09 9.40451459811482e-09 4.42970041250097e-08 3.28106674666783e-08
"485" 4437 5.74974565484083e-09 1.1836414201674e-09 6.95736866898414e-09 1.11645083168107e-07 6.0719951957188e-09 9.35163231707962e-09 4.38051029783702e-08 3.24115527425924e-08
"486" 4438 5.74454275159295e-09 1.18290405598995e-09 6.96335432747707e-09 1.10157792967226e-07 6.04860735756441e-09 9.29875003604443e-09 4.33132018317308e-08 3.20124380185064e-08
"487" 4439 5.73933984834507e-09 1.1821666918125e-09 6.96933998597000e-09 1.08670502766345e-07 6.02521951941001e-09 9.24586775500923e-09 4.28213006850914e-08 3.16133232944204e-08
"488" 4440 5.74546090368274e-09 1.1811907165748e-09 6.96410323351093e-09 1.07233739769516e-07 6.00361112497126e-09 9.20629157818757e-09 4.23355379428042e-08 3.12363289987889e-08
"489" 4441 5.74073408389687e-09 1.1811907165748e-09 6.96510084325975e-09 1.06805727394162e-07 5.85162532010896e-09 9.14447509287642e-09 4.23027047255278e-08 3.09085719106657e-08
"490" 4442 5.69717252993445e-09 1.1821666918125e-09 6.95387936393743e-09 1.06813381497871e-07 5.82513784654266e-09 9.15363094220127e-09 4.22937962963393e-08 3.08455133766844e-08
"491" 4443 5.65361097597203e-09 1.18314266705019e-09 6.94265788461511e-09 1.06821035601581e-07 5.79865037297636e-09 9.16278679152611e-09 4.22848878671507e-08 3.0782454842703e-08
"492" 4444 5.6100494220096e-09 1.18411864228789e-09 6.93143640529278e-09 1.06828689705291e-07 5.77216289941006e-09 9.17194264085095e-09 4.22759794379622e-08 3.07193963087217e-08
"493" 4445 5.56648786804718e-09 1.18509461752559e-09 6.92021492597046e-09 1.06836343809e-07 5.74567542584375e-09 9.18109849017579e-09 4.22670710087737e-08 3.06563377747403e-08
"494" 4446 5.52292631408476e-09 1.18607059276329e-09 6.90899344664813e-09 1.0684399791271e-07 5.71918795227745e-09 9.19025433950064e-09 4.22581625795851e-08 3.0593279240759e-08
"495" 4447 5.47936476012233e-09 1.18704656800098e-09 6.89777196732581e-09 1.0685165201642e-07 5.69270047871115e-09 9.19941018882548e-09 4.22492541503966e-08 3.05302207067776e-08
"496" 4448 5.44075672249775e-09 1.20309279173847e-09 7.00624999396027e-09 1.07641508349809e-07 5.66630739993286e-09 9.24694473960556e-09 4.24199736510928e-08 3.12017627847113e-08
"497" 4449 5.40214868487316e-09 1.21913901547596e-09 7.11472802059474e-09 1.08431364683198e-07 5.63991432115456e-09 9.29447929038564e-09 4.2590693151789e-08 3.18733048626451e-08
"498" 4450 5.36354064724857e-09 1.23518523921345e-09 7.2232060472292e-09 1.09221221016587e-07 5.61352124237627e-09 9.34201384116572e-09 4.27614126524851e-08 3.25448469405788e-08
"499" 4451 5.32493260962398e-09 1.25123146295094e-09 7.33168407386367e-09 1.10011077349977e-07 5.58712816359797e-09 9.3895483919458e-09 4.29321321531813e-08 3.32163890185125e-08
"500" 4452 5.28632457199939e-09 1.26727768668843e-09 7.44016210049813e-09 1.10800933683366e-07 5.56073508481968e-09 9.43708294272588e-09 4.31028516538775e-08 3.38879310964462e-08
"501" 4453 5.2477165343748e-09 1.28332391042592e-09 7.54864012713259e-09 1.11590790016755e-07 5.53434200604139e-09 9.48461749350596e-09 4.32735711545737e-08 3.455947317438e-08
"502" 4454 5.20910849675021e-09 1.29937013416341e-09 7.65711815376706e-09 1.12380646350144e-07 5.50794892726309e-09 9.53215204428604e-09 4.34442906552699e-08 3.52310152523137e-08
"503" 4455 5.17050045912562e-09 1.3154163579009e-09 7.76559618040152e-09 1.13170502683534e-07 5.4815558484848e-09 9.57968659506612e-09 4.36150101559661e-08 3.59025573302474e-08
"504" 4456 5.13189242150104e-09 1.33146258163839e-09 7.87407420703599e-09 1.13960359016923e-07 5.4551627697065e-09 9.62722114584619e-09 4.37857296566623e-08 3.65740994081811e-08
"505" 4457 5.07727894481543e-09 1.34050473073826e-09 7.8977647213173e-09 1.13995876559458e-07 5.43672296162636e-09 9.62672961803462e-09 4.40838841707548e-08 3.6581967227736e-08
"506" 4458 5.02266546812982e-09 1.34954687983814e-09 7.92145523559861e-09 1.14031394101993e-07 5.41828315354621e-09 9.62623809022304e-09 4.43820386848473e-08 3.6589835047291e-08
"507" 4459 4.96805199144422e-09 1.35858902893801e-09 7.94514574987993e-09 1.14066911644528e-07 5.39984334546606e-09 9.62574656241146e-09 4.46801931989398e-08 3.65977028668459e-08
"508" 4460 4.91343851475861e-09 1.36763117803789e-09 7.96883626416124e-09 1.14102429187062e-07 5.38140353738591e-09 9.62525503459988e-09 4.49783477130323e-08 3.66055706864008e-08
"509" 4461 4.85882503807301e-09 1.37667332713776e-09 7.99252677844255e-09 1.14137946729597e-07 5.36296372930576e-09 9.6247635067883e-09 4.52765022271248e-08 3.66134385059557e-08
"510" 4462 4.8042115613874e-09 1.38571547623764e-09 8.01621729272387e-09 1.14173464272132e-07 5.34452392122561e-09 9.62427197897673e-09 4.55746567412173e-08 3.66213063255107e-08
"511" 4463 4.74449720525374e-09 1.39189606271093e-09 8.02419817071444e-09 1.14258876794125e-07 5.3352364015747e-09 9.65867510610556e-09 4.55587120030047e-08 3.65531883799528e-08
"512" 4464 4.7323911125096e-09 1.3970576119531e-09 8.02843845208316e-09 1.14203581933853e-07 5.34438869000393e-09 9.68892436569289e-09 4.55554201827442e-08 3.6550267741654e-08
"513" 4465 4.7323911125096e-09 1.4022622231887e-09 8.03267790533662e-09 1.14175789433452e-07 5.36158864391932e-09 9.72498398212439e-09 4.55394754445316e-08 3.65364464151811e-08
"514" 4466 4.7323911125096e-09 1.40746683442429e-09 8.03691735859008e-09 1.1414799693305e-07 5.3787885978347e-09 9.7610435985559e-09 4.55235307063191e-08 3.65226250887081e-08
"515" 4467 4.7323911125096e-09 1.41267144565989e-09 8.04115681184355e-09 1.14120204432648e-07 5.39598855175009e-09 9.7971032149874e-09 4.55075859681065e-08 3.65088037622352e-08
"516" 4468 4.7323911125096e-09 1.41787605689549e-09 8.04539626509701e-09 1.14092411932246e-07 5.41318850566547e-09 9.8331628314189e-09 4.54916412298939e-08 3.64949824357622e-08
"517" 4469 4.7323911125096e-09 1.42308066813109e-09 8.04963571835047e-09 1.14064619431844e-07 5.43038845958086e-09 9.86922244785041e-09 4.54756964916813e-08 3.64811611092893e-08
"518" 4470 4.7323911125096e-09 1.42828527936669e-09 8.05387517160394e-09 1.14036826931442e-07 5.44758841349625e-09 9.90528206428191e-09 4.54597517534687e-08 3.64673397828163e-08
"519" 4471 4.7323911125096e-09 1.43348989060229e-09 8.0581146248574e-09 1.1400903443104e-07 5.46478836741163e-09 9.94134168071342e-09 4.54438070152561e-08 3.64535184563434e-08
"520" 4472 4.73749199195765e-09 1.43353295259572e-09 8.04614392895799e-09 1.1389470616346e-07 5.47024787252374e-09 9.97158371499511e-09 4.54228824266405e-08 3.64502787659384e-08
"521" 4473 4.7425928714057e-09 1.43357601458915e-09 8.03417323305858e-09 1.13780377895881e-07 5.47570737763585e-09 1.00018257492768e-08 4.54019578380249e-08 3.64470390755334e-08
"522" 4474 4.74769375085376e-09 1.43361907658259e-09 8.02220253715916e-09 1.13666049628301e-07 5.48116688274796e-09 1.00320677835585e-08 4.53810332494093e-08 3.64437993851284e-08
"523" 4475 4.75279463030181e-09 1.43366213857602e-09 8.01023184125975e-09 1.13551721360721e-07 5.48662638786007e-09 1.00623098178402e-08 4.53601086607936e-08 3.64405596947235e-08
"524" 4476 4.75789550974986e-09 1.43370520056945e-09 7.99826114536034e-09 1.13437393093141e-07 5.49208589297218e-09 1.00925518521219e-08 4.5339184072178e-08 3.64373200043185e-08
"525" 4477 4.7308948324551e-09 1.43370520056945e-09 7.97731382498087e-09 1.1337804920472e-07 5.48034544416891e-09 1.01108346495491e-08 4.53271679127509e-08 3.59325187887281e-08
"526" 4478 4.70389415516033e-09 1.43370520056945e-09 7.9563665046014e-09 1.13318705316298e-07 5.46860499536563e-09 1.01291174469762e-08 4.53151517533238e-08 3.54277175731377e-08
"527" 4479 4.67689347786556e-09 1.43370520056945e-09 7.93541918422193e-09 1.13259361427877e-07 5.45686454656236e-09 1.01474002444034e-08 4.53031355938967e-08 3.49229163575473e-08
"528" 4480 4.64989280057080e-09 1.43370520056945e-09 7.91447186384246e-09 1.13200017539456e-07 5.44512409775908e-09 1.01656830418306e-08 4.52911194344696e-08 3.4418115141957e-08
"529" 4481 4.62289212327603e-09 1.43370520056945e-09 7.89352454346298e-09 1.13140673651034e-07 5.43338364895581e-09 1.01839658392577e-08 4.52791032750425e-08 3.39133139263666e-08
"530" 4482 4.59589144598126e-09 1.43370520056945e-09 7.87257722308351e-09 1.13081329762613e-07 5.42164320015253e-09 1.02022486366849e-08 4.52670871156154e-08 3.34085127107762e-08
"531" 4483 4.56889076868649e-09 1.43370520056945e-09 7.85162990270404e-09 1.13021985874191e-07 5.40990275134926e-09 1.02205314341121e-08 4.52550709561883e-08 3.29037114951858e-08
"532" 4484 4.53310523770261e-09 1.43370520056945e-09 7.8329269195948e-09 1.13152761059428e-07 5.39310715576307e-09 1.02272007431565e-08 4.52453337492493e-08 3.23957021196789e-08
"533" 4485 4.49803383191175e-09 1.43292477439857e-09 7.81198001327296e-09 1.13105128035392e-07 5.38395486733384e-09 1.02692887488283e-08 4.52333483128983e-08 3.19484372135784e-08
"534" 4486 4.49874795710476e-09 1.43290324340185e-09 7.81372570094038e-09 1.13126122734316e-07 5.39131499012677e-09 1.03088649256499e-08 4.52013973903209e-08 3.20116574784697e-08
"535" 4487 4.49946208229778e-09 1.43288171240513e-09 7.81547138860781e-09 1.1314711743324e-07 5.3986751129197e-09 1.03484411024716e-08 4.51694464677436e-08 3.2074877743361e-08
"536" 4488 4.50017620749080e-09 1.43286018140842e-09 7.81721707627524e-09 1.13168112132163e-07 5.40603523571263e-09 1.03880172792932e-08 4.51374955451663e-08 3.21380980082523e-08
"537" 4489 4.50089033268381e-09 1.4328386504117e-09 7.81896276394267e-09 1.13189106831087e-07 5.41339535850556e-09 1.04275934561149e-08 4.51055446225889e-08 3.22013182731436e-08
"538" 4490 4.50160445787683e-09 1.43281711941499e-09 7.8207084516101e-09 1.13210101530011e-07 5.42075548129849e-09 1.04671696329366e-08 4.50735937000116e-08 3.22645385380349e-08
"539" 4491 4.50231858306984e-09 1.43279558841827e-09 7.82245413927752e-09 1.13231096228934e-07 5.42811560409142e-09 1.05067458097582e-08 4.50416427774343e-08 3.23277588029262e-08
"540" 4492 4.50303270826286e-09 1.43277405742155e-09 7.82419982694495e-09 1.13252090927858e-07 5.43547572688435e-09 1.05463219865799e-08 4.5009691854857e-08 3.23909790678175e-08
"541" 4493 4.50894973670375e-09 1.43348989060229e-09 7.83093252821241e-09 1.14834391496225e-07 5.45638252137337e-09 1.05426632595027e-08 4.49897263686306e-08 3.24251997715063e-08
"542" 4494 4.51486676514465e-09 1.43420572378302e-09 7.83766522947988e-09 1.16416692064591e-07 5.47728931586239e-09 1.05390045324256e-08 4.49697608824043e-08 3.24594204751952e-08
"543" 4495 4.52078379358554e-09 1.43492155696376e-09 7.84439793074734e-09 1.17998992632958e-07 5.49819611035141e-09 1.05353458053485e-08 4.4949795396178e-08 3.24936411788841e-08
"544" 4496 4.52670082202643e-09 1.4356373901445e-09 7.8511306320148e-09 1.19581293201324e-07 5.51910290484042e-09 1.05316870782714e-08 4.49298299099517e-08 3.25278618825729e-08
"545" 4497 4.53261785046733e-09 1.43635322332523e-09 7.85786333328226e-09 1.21163593769691e-07 5.54000969932944e-09 1.05280283511942e-08 4.49098644237253e-08 3.25620825862618e-08
"546" 4498 4.53853487890822e-09 1.43706905650597e-09 7.86459603454972e-09 1.22745894338057e-07 5.56091649381846e-09 1.05243696241171e-08 4.4889898937499e-08 3.25963032899507e-08
"547" 4499 4.54445190734911e-09 1.4377848896867e-09 7.87132873581718e-09 1.24328194906424e-07 5.58182328830747e-09 1.052071089704e-08 4.48699334512727e-08 3.26305239936395e-08
"548" 4500 4.54841926263157e-09 1.42288688916064e-09 7.82419547933985e-09 1.25849934205182e-07 5.60163818177407e-09 1.05066000304184e-08 4.47758685636806e-08 3.2655821051522e-08
"549" 4501 4.55238661791403e-09 1.40798888863458e-09 7.77706222286251e-09 1.2737167350394e-07 5.62145307524066e-09 1.04924891637968e-08 4.46818036760884e-08 3.26811181094045e-08
"550" 4502 4.55635397319649e-09 1.39309088810852e-09 7.72992896638517e-09 1.28893412802698e-07 5.64126796870726e-09 1.04783782971753e-08 4.45877387884963e-08 3.27064151672869e-08
"551" 4503 4.56032132847895e-09 1.37819288758246e-09 7.68279570990784e-09 1.30415152101457e-07 5.66108286217385e-09 1.04642674305537e-08 4.44936739009041e-08 3.27317122251694e-08
"552" 4504 4.56428868376141e-09 1.3632948870564e-09 7.6356624534305e-09 1.31936891400215e-07 5.68089775564045e-09 1.04501565639321e-08 4.43996090133119e-08 3.27570092830519e-08
"553" 4505 4.56825603904387e-09 1.34839688653034e-09 7.58852919695316e-09 1.33458630698973e-07 5.70071264910704e-09 1.04360456973105e-08 4.43055441257198e-08 3.27823063409343e-08
"554" 4506 4.57222339432633e-09 1.33349888600428e-09 7.54139594047583e-09 1.34980369997731e-07 5.72052754257364e-09 1.04219348306889e-08 4.42114792381276e-08 3.28076033988168e-08
"555" 4507 4.57027372116789e-09 1.31786352130077e-09 7.48528543843199e-09 1.34919549517696e-07 5.72211819671327e-09 1.0402821982284e-08 4.44808750483406e-08 3.27937820723438e-08
"556" 4508 4.56832404800946e-09 1.30222815659726e-09 7.42917493638815e-09 1.3485872903766e-07 5.7237088508529e-09 1.03837091338791e-08 4.47502708585536e-08 3.27799607458709e-08
"557" 4509 4.56637437485103e-09 1.28659279189374e-09 7.37306443434431e-09 1.34797908557624e-07 5.72529950499253e-09 1.03645962854742e-08 4.50196666687665e-08 3.27661394193979e-08
"558" 4510 4.56442470169259e-09 1.27095742719023e-09 7.31695393230047e-09 1.34737088077589e-07 5.72689015913216e-09 1.03454834370693e-08 4.52890624789795e-08 3.2752318092925e-08
"559" 4511 4.56247502853416e-09 1.25532206248672e-09 7.26084343025663e-09 1.34676267597553e-07 5.72848081327178e-09 1.03263705886644e-08 4.55584582891924e-08 3.2738496766452e-08
"560" 4512 4.56052535537572e-09 1.23968669778321e-09 7.20473292821279e-09 1.34615447117517e-07 5.73007146741141e-09 1.03072577402595e-08 4.58278540994054e-08 3.27246754399791e-08
"561" 4513 4.55857568221729e-09 1.22405133307969e-09 7.14862242616895e-09 1.34554626637482e-07 5.73166212155104e-09 1.02881448918545e-08 4.60972499096184e-08 3.27108541135061e-08
"562" 4514 4.55857568221729e-09 1.22327090690881e-09 7.14762502344894e-09 1.3444164149004e-07 5.73503221940632e-09 1.02927902872076e-08 4.64757116047848e-08 3.26427361679483e-08
"563" 4515 4.55857568221729e-09 1.22249048073792e-09 7.14662762072893e-09 1.34328656342597e-07 5.73840231726159e-09 1.02974356825607e-08 4.68541732999512e-08 3.25746182223904e-08
"564" 4516 4.5673605359064e-09 1.22173158556376e-09 7.2453818765944e-09 1.34243640705193e-07 5.74111165160081e-09 1.03323303375012e-08 4.69170853196405e-08 3.34181223051539e-08
"565" 4517 4.57614538959551e-09 1.22097269038959e-09 7.34413613245986e-09 1.34158625067789e-07 5.74382098594003e-09 1.03672249924416e-08 4.69799973393297e-08 3.42616263879174e-08
"566" 4518 4.58493024328463e-09 1.22021379521542e-09 7.44289038832532e-09 1.34073609430385e-07 5.74653032027924e-09 1.0402119647382e-08 4.7042909359019e-08 3.51051304706809e-08
"567" 4519 4.59371509697374e-09 1.21945490004125e-09 7.54164464419078e-09 1.33988593792981e-07 5.74923965461846e-09 1.04370143023224e-08 4.71058213787083e-08 3.59486345534444e-08
"568" 4520 4.60249995066286e-09 1.21869600486708e-09 7.64039890005625e-09 1.33903578155578e-07 5.75194898895768e-09 1.04719089572628e-08 4.71687333983975e-08 3.67921386362079e-08
"569" 4521 4.61128480435197e-09 1.21793710969291e-09 7.73915315592171e-09 1.33818562518174e-07 5.7546583232969e-09 1.05068036122032e-08 4.72316454180868e-08 3.76356427189714e-08
"570" 4522 4.62381031677158e-09 1.21416416481879e-09 7.71895412048966e-09 1.3339512532435e-07 5.75128822544162e-09 1.04783963604393e-08 4.64747916515443e-08 3.75349169691105e-08
"571" 4523 4.63633582919118e-09 1.21039121994466e-09 7.69875508505761e-09 1.32971688130526e-07 5.74791812758635e-09 1.04499891086754e-08 4.57179378850018e-08 3.74341912192495e-08
"572" 4524 4.64886134161079e-09 1.20661827507053e-09 7.67855604962556e-09 1.32548250936702e-07 5.74454802973107e-09 1.04215818569115e-08 4.49610841184593e-08 3.73334654693886e-08
"573" 4525 4.6613868540304e-09 1.2028453301964e-09 7.65835701419351e-09 1.32124813742878e-07 5.7411779318758e-09 1.03931746051476e-08 4.42042303519168e-08 3.72327397195276e-08
"574" 4526 4.67391236645e-09 1.19907238532228e-09 7.63815797876146e-09 1.31701376549055e-07 5.73780783402052e-09 1.03647673533837e-08 4.34473765853743e-08 3.71320139696666e-08
"575" 4527 4.68643787886961e-09 1.19529944044815e-09 7.61795894332941e-09 1.31277939355231e-07 5.73443773616525e-09 1.03363601016198e-08 4.26905228188318e-08 3.70312882198057e-08
"576" 4528 4.69896339128922e-09 1.19152649557402e-09 7.59775990789736e-09 1.30854502161407e-07 5.73106763830997e-09 1.03079528498559e-08 4.19336690522893e-08 3.69305624699447e-08
"577" 4529 4.71148890370882e-09 1.1877535506999e-09 7.57756087246531e-09 1.30431064967583e-07 5.7276975404547e-09 1.02795455980919e-08 4.11768152857468e-08 3.68298367200838e-08
"578" 4530 4.72401441612843e-09 1.18398060582577e-09 7.55736183703326e-09 1.30007627773759e-07 5.72432744259942e-09 1.0251138346328e-08 4.04199615192042e-08 3.67291109702228e-08
"579" 4531 4.71392600550831e-09 1.18018612995493e-09 7.53741222991702e-09 1.29720817331102e-07 5.72366667908337e-09 1.02162436913876e-08 3.96740880020093e-08 3.68622329616413e-08
"580" 4532 4.70383759488818e-09 1.17639165408408e-09 7.51746262280077e-09 1.29434006888444e-07 5.72300591556731e-09 1.01813490364472e-08 3.89282144848144e-08 3.69953549530597e-08
"581" 4533 4.69374918426806e-09 1.17259717821324e-09 7.49751301568453e-09 1.29147196445787e-07 5.72234515205125e-09 1.01464543815068e-08 3.81823409676194e-08 3.71284769444782e-08
"582" 4534 4.68366077364794e-09 1.1688027023424e-09 7.47756340856829e-09 1.28860386003129e-07 5.72168438853520e-09 1.01115597265664e-08 3.74364674504245e-08 3.72615989358966e-08
"583" 4535 4.67357236302782e-09 1.16500822647155e-09 7.45761380145205e-09 1.28573575560471e-07 5.72102362501914e-09 1.0076665071626e-08 3.66905939332296e-08 3.73947209273151e-08
"584" 4536 4.6717473833244e-09 1.16422780030067e-09 7.45387341185901e-09 1.28118217494303e-07 5.72332860102916e-09 1.00135125569142e-08 3.67143039082195e-08 3.75975245943337e-08
"585" 4537 4.66181766029066e-09 1.16349043612321e-09 7.43816232636657e-09 1.28246184902999e-07 5.72535039267515e-09 1.00002064527007e-08 3.67342693944458e-08 3.78178520911452e-08
"586" 4538 4.65188793725691e-09 1.16275307194576e-09 7.42245124087412e-09 1.28374152311694e-07 5.72737218432114e-09 9.98690034848714e-09 3.67542348806721e-08 3.80381795879567e-08
"587" 4539 4.64195821422316e-09 1.16201570776831e-09 7.40674015538167e-09 1.2850211972039e-07 5.72939397596714e-09 9.97359424427359e-09 3.67742003668984e-08 3.82585070847681e-08
"588" 4540 4.63202849118942e-09 1.16127834359086e-09 7.39102906988923e-09 1.28630087129086e-07 5.73141576761313e-09 9.96028814006005e-09 3.67941658531247e-08 3.84788345815796e-08
"589" 4541 4.62209876815567e-09 1.16054097941341e-09 7.37531798439678e-09 1.28758054537782e-07 5.73343755925913e-09 9.94698203584651e-09 3.68141313393511e-08 3.86991620783911e-08
"590" 4542 4.61216904512193e-09 1.15980361523595e-09 7.35960689890434e-09 1.28886021946478e-07 5.73545935090512e-09 9.93367593163296e-09 3.68340968255774e-08 3.89194895752026e-08
"591" 4543 4.60223932208818e-09 1.1590662510585e-09 7.34389581341189e-09 1.29013989355174e-07 5.73748114255111e-09 9.92036982741942e-09 3.68540623118037e-08 3.91398170720141e-08
"592" 4544 4.60815635052907e-09 1.16797921417808e-09 7.39975699065433e-09 1.29171556004737e-07 5.73870827479522e-09 9.92221183524283e-09 3.68278969750729e-08 3.91217181989858e-08
"593" 4545 4.61407337896997e-09 1.17689217729765e-09 7.45561816789677e-09 1.29329122654299e-07 5.73993540703933e-09 9.92405384306624e-09 3.68017316383421e-08 3.91036193259575e-08
"594" 4546 4.61999040741086e-09 1.18580514041723e-09 7.51147934513921e-09 1.29486689303862e-07 5.74116253928343e-09 9.92589585088965e-09 3.67755663016113e-08 3.90855204529292e-08
"595" 4547 4.62590743585176e-09 1.19471810353681e-09 7.56734052238165e-09 1.29644255953424e-07 5.74238967152754e-09 9.92773785871307e-09 3.67494009648805e-08 3.9067421579901e-08
"596" 4548 4.63182446429265e-09 1.20363106665638e-09 7.62320169962409e-09 1.29801822602987e-07 5.74361680377165e-09 9.92957986653648e-09 3.67232356281496e-08 3.90493227068727e-08
"597" 4549 4.63774149273354e-09 1.21254402977596e-09 7.67906287686653e-09 1.2995938925255e-07 5.74484393601575e-09 9.93142187435989e-09 3.66970702914188e-08 3.90312238338444e-08
"598" 4550 4.64365852117444e-09 1.22145699289554e-09 7.73492405410898e-09 1.30116955902112e-07 5.74607106825986e-09 9.9332638821833e-09 3.6670904954688e-08 3.90131249608161e-08
"599" 4551 4.64957554961533e-09 1.23036995601511e-09 7.79078523135142e-09 1.30274522551675e-07 5.74729820050397e-09 9.93510589000671e-09 3.66447396179572e-08 3.89950260877878e-08
"600" 4552 4.65549257805623e-09 1.23928291913469e-09 7.84664640859386e-09 1.30432089201238e-07 5.74852533274807e-09 9.93694789783013e-09 3.66185742812264e-08 3.89769272147595e-08
"601" 4553 4.65549257805623e-09 1.24025889437239e-09 7.85537432935896e-09 1.3033449866469e-07 5.74407739112689e-09 9.93113754098594e-09 3.66185742812264e-08 3.8960360541285e-08
"602" 4554 4.65549257805623e-09 1.24123486961008e-09 7.86410225012406e-09 1.30236908128143e-07 5.7396294495057e-09 9.92532718414176e-09 3.66185742812264e-08 3.89437938678105e-08
"603" 4555 4.65549257805623e-09 1.24221084484778e-09 7.87283017088917e-09 1.30139317591596e-07 5.73518150788451e-09 9.91951682729758e-09 3.66185742812264e-08 3.89272271943361e-08
"604" 4556 4.65549257805623e-09 1.24318682008548e-09 7.88155809165427e-09 1.30041727055049e-07 5.73073356626333e-09 9.9137064704534e-09 3.66185742812264e-08 3.89106605208616e-08
"605" 4557 4.65549257805623e-09 1.24416279532318e-09 7.89028601241938e-09 1.29944136518501e-07 5.72628562464214e-09 9.90789611360922e-09 3.66185742812264e-08 3.88940938473871e-08
"606" 4558 4.62570340895499e-09 1.24411973332974e-09 7.8690892637241e-09 1.2992624814202e-07 5.691615254368e-09 9.88461133439872e-09 3.66596791691663e-08 3.88733618576777e-08
"607" 4559 4.58367212917842e-09 1.23605355946757e-09 7.87781708097479e-09 1.29818270193487e-07 5.69370466162483e-09 9.8726520975442e-09 3.66296387705986e-08 3.88610727307586e-08
"608" 4560 4.54164084940185e-09 1.22798738560539e-09 7.88654489822549e-09 1.29710292244955e-07 5.69579406888167e-09 9.86069286068967e-09 3.65995983720309e-08 3.88487836038395e-08
"609" 4561 4.49960956962529e-09 1.21992121174321e-09 7.89527271547619e-09 1.29602314296422e-07 5.69788347613851e-09 9.84873362383515e-09 3.65695579734631e-08 3.88364944769204e-08
"610" 4562 4.45757828984872e-09 1.21185503788103e-09 7.90400053272688e-09 1.29494336347889e-07 5.69997288339534e-09 9.83677438698063e-09 3.65395175748954e-08 3.88242053500012e-08
"611" 4563 4.41554701007215e-09 1.20378886401886e-09 7.91272834997758e-09 1.29386358399356e-07 5.70206229065218e-09 9.8248151501261e-09 3.65094771763277e-08 3.88119162230821e-08
"612" 4564 4.37351573029559e-09 1.19572269015668e-09 7.92145616722828e-09 1.29278380450823e-07 5.70415169790901e-09 9.81285591327158e-09 3.64794367777599e-08 3.8799627096163e-08
"613" 4565 4.33148445051902e-09 1.1876565162945e-09 7.93018398447897e-09 1.2917040250229e-07 5.70624110516585e-09 9.80089667641705e-09 3.64493963791922e-08 3.87873379692439e-08
"614" 4566 4.29537019918335e-09 1.17959034243232e-09 7.93018398447897e-09 1.29163557632811e-07 5.73692145050234e-09 9.85063343410359e-09 3.65870983241555e-08 3.95705329434952e-08
"615" 4567 4.25925594784768e-09 1.17152416857015e-09 7.93018398447897e-09 1.29156712763332e-07 5.76760179583882e-09 9.90037019179013e-09 3.67248002691187e-08 4.03537279177465e-08
"616" 4568 4.223141696512e-09 1.16345799470797e-09 7.93018398447897e-09 1.29149867893853e-07 5.7982821411753e-09 9.95010694947667e-09 3.6862502214082e-08 4.11369228919978e-08
"617" 4569 4.18702744517633e-09 1.15539182084579e-09 7.93018398447897e-09 1.29143023024374e-07 5.82896248651179e-09 9.99984370716321e-09 3.70002041590452e-08 4.19201178662491e-08
"618" 4570 4.15091319384066e-09 1.14732564698362e-09 7.93018398447897e-09 1.29136178154894e-07 5.85964283184827e-09 1.00495804648498e-08 3.71379061040085e-08 4.27033128405004e-08
"619" 4571 4.11479894250499e-09 1.13925947312144e-09 7.93018398447897e-09 1.29129333285415e-07 5.89032317718476e-09 1.00993172225363e-08 3.72756080489717e-08 4.34865078147517e-08
"620" 4572 4.07868469116932e-09 1.13119329925926e-09 7.93018398447897e-09 1.29122488415936e-07 5.92100352252124e-09 1.01490539802228e-08 3.7413309993935e-08 4.42697027890031e-08
"621" 4573 4.01298529762917e-09 1.12822231155273e-09 7.92419925761571e-09 1.28893674538877e-07 5.94033372012714e-09 1.01874651955534e-08 3.75872829110465e-08 4.46365558816668e-08
"622" 4574 4.01287194935319e-09 1.1281792495593e-09 7.92345128321151e-09 1.28875943504295e-07 5.92767610262095e-09 1.02089151922461e-08 3.75725658537044e-08 4.50049004927223e-08
"623" 4575 4.01275860107721e-09 1.12813618756587e-09 7.92270330880731e-09 1.28858212469713e-07 5.91501848511476e-09 1.02303651889388e-08 3.75578487963623e-08 4.53732451037777e-08
"624" 4576 4.01264525280123e-09 1.12809312557244e-09 7.92195533440311e-09 1.28840481435131e-07 5.90236086760857e-09 1.02518151856315e-08 3.75431317390202e-08 4.57415897148332e-08
"625" 4577 4.01253190452524e-09 1.128050063579e-09 7.92120735999891e-09 1.28822750400549e-07 5.88970325010238e-09 1.02732651823243e-08 3.75284146816781e-08 4.61099343258887e-08
"626" 4578 4.01241855624926e-09 1.12800700158557e-09 7.92045938559471e-09 1.28805019365967e-07 5.87704563259619e-09 1.0294715179017e-08 3.7513697624336e-08 4.64782789369442e-08
"627" 4579 4.01230520797328e-09 1.12796393959214e-09 7.91971141119052e-09 1.28787288331385e-07 5.86438801508999e-09 1.03161651757097e-08 3.74989805669938e-08 4.68466235479997e-08
"628" 4580 3.9981814331051e-09 1.12870130376959e-09 7.91996083950632e-09 1.28627647998404e-07 5.83707776760878e-09 1.03766962087597e-08 3.75269184223264e-08 4.75840769962768e-08
"629" 4581 3.97787991840984e-09 1.13475093416622e-09 7.93592052519932e-09 1.28368504317198e-07 5.77749652065146e-09 1.04224284908973e-08 3.74011865521762e-08 4.75386050218192e-08
"630" 4582 3.95757840371457e-09 1.14080056456286e-09 7.95188021089231e-09 1.28109360635992e-07 5.71791527369414e-09 1.04681607730349e-08 3.72754546820259e-08 4.74931330473616e-08
"631" 4583 3.9372768890193e-09 1.14685019495949e-09 7.9678398965853e-09 1.27850216954786e-07 5.65833402673681e-09 1.05138930551725e-08 3.71497228118756e-08 4.74476610729039e-08
"632" 4584 3.91697537432403e-09 1.15289982535612e-09 7.9837995822783e-09 1.27591073273579e-07 5.59875277977949e-09 1.05596253373102e-08 3.70239909417253e-08 4.74021890984463e-08
"633" 4585 3.89667385962877e-09 1.15894945575276e-09 7.99975926797129e-09 1.27331929592373e-07 5.53917153282217e-09 1.06053576194478e-08 3.6898259071575e-08 4.73567171239887e-08
"634" 4586 3.8763723449335e-09 1.16499908614939e-09 8.01571895366429e-09 1.27072785911167e-07 5.47959028586484e-09 1.06510899015854e-08 3.67725272014247e-08 4.73112451495311e-08
"635" 4587 3.85607083023823e-09 1.17104871654602e-09 8.03167863935728e-09 1.26813642229961e-07 5.42000903890752e-09 1.0696822183723e-08 3.66467953312745e-08 4.72657731750735e-08
"636" 4588 3.85182009391437e-09 1.17484319241686e-09 8.06185263361906e-09 1.2672484450736e-07 5.38711811234903e-09 1.06951548564619e-08 3.65138277005402e-08 4.74689589551751e-08
"637" 4589 3.84756935759052e-09 1.17863766828771e-09 8.09202662788085e-09 1.2663604678476e-07 5.35422718579053e-09 1.06934875292008e-08 3.63808600698059e-08 4.76721447352768e-08
"638" 4590 3.84331862126666e-09 1.18243214415855e-09 8.12220062214263e-09 1.2654724906216e-07 5.32133625923204e-09 1.06918202019397e-08 3.62478924390716e-08 4.78753305153785e-08
"639" 4591 3.8390678849428e-09 1.18622662002940e-09 8.15237461640441e-09 1.2645845133956e-07 5.28844533267354e-09 1.06901528746786e-08 3.61149248083373e-08 4.80785162954801e-08
"640" 4592 3.83481714861894e-09 1.19002109590024e-09 8.18254861066619e-09 1.26369653616959e-07 5.25555440611505e-09 1.06884855474175e-08 3.5981957177603e-08 4.82817020755818e-08
"641" 4593 3.84989309041113e-09 1.19307820759363e-09 8.21272260492798e-09 1.26161391159078e-07 5.17730372506788e-09 1.06678800523138e-08 3.59588842095727e-08 4.8541404279124e-08
"642" 4594 3.85007444765271e-09 1.19685115246776e-09 8.23067751011861e-09 1.26315478472031e-07 5.02816248576648e-09 1.06657211972411e-08 3.58121970277307e-08 4.8736034966115e-08
"643" 4595 3.85025580489428e-09 1.20062409734188e-09 8.24863241530925e-09 1.26469565784985e-07 4.87902124646509e-09 1.06635623421684e-08 3.56655098458887e-08 4.89306656531059e-08
"644" 4596 3.85043716213585e-09 1.20439704221601e-09 8.26658732049989e-09 1.26623653097938e-07 4.72988000716369e-09 1.06614034870957e-08 3.55188226640467e-08 4.91252963400969e-08
"645" 4597 3.85061851937743e-09 1.20816998709014e-09 8.28454222569052e-09 1.26777740410891e-07 4.58073876786229e-09 1.0659244632023e-08 3.53721354822047e-08 4.93199270270878e-08
"646" 4598 3.850799876619e-09 1.21194293196426e-09 8.30249713088116e-09 1.26931827723845e-07 4.43159752856089e-09 1.06570857769503e-08 3.52254483003627e-08 4.95145577140788e-08
"647" 4599 3.85098123386057e-09 1.21571587683839e-09 8.3204520360718e-09 1.27085915036798e-07 4.2824562892595e-09 1.06549269218777e-08 3.50787611185207e-08 4.97091884010698e-08
"648" 4600 3.85116259110215e-09 1.21948882171252e-09 8.33840694126243e-09 1.27240002349752e-07 4.1333150499581e-09 1.0652768066805e-08 3.49320739366787e-08 4.99038190880607e-08
"649" 4601 3.85134394834372e-09 1.22326176658665e-09 8.35636184645307e-09 1.27394089662705e-07 3.9841738106567e-09 1.06506092117323e-08 3.47853867548367e-08 5.00984497750517e-08
"650" 4602 3.84538158059243e-09 1.20315915482499e-09 8.27855573908234e-09 1.26840159691651e-07 4.0075616488111e-09 1.03987027610146e-08 3.48210204715908e-08 5.00989305580678e-08
"651" 4603 3.83941921284114e-09 1.18305654306333e-09 8.2007496317116e-09 1.26286229720596e-07 4.03094948696549e-09 1.01467963102969e-08 3.4856654188345e-08 5.00994113410839e-08
"652" 4604 3.83345684508986e-09 1.16295393130167e-09 8.12294352434087e-09 1.25732299749542e-07 4.05433732511989e-09 9.89488985957927e-09 3.48922879050991e-08 5.00998921241e-08
"653" 4605 3.82749447733857e-09 1.14285131954001e-09 8.04513741697014e-09 1.25178369778488e-07 4.07772516327428e-09 9.6429834088616e-09 3.49279216218533e-08 5.01003729071161e-08
"654" 4606 3.82153210958728e-09 1.12274870777835e-09 7.9673313095994e-09 1.24624439807434e-07 4.10111300142868e-09 9.39107695814393e-09 3.49635553386074e-08 5.01008536901322e-08
"655" 4607 3.815569741836e-09 1.10264609601669e-09 7.88952520222867e-09 1.24070509836379e-07 4.12450083958308e-09 9.13917050742626e-09 3.49991890553616e-08 5.01013344731483e-08
"656" 4608 3.80960737408471e-09 1.08254348425503e-09 7.81171909485794e-09 1.23516579865325e-07 4.14788867773747e-09 8.88726405670859e-09 3.50348227721157e-08 5.01018152561644e-08
"657" 4609 3.80364500633342e-09 1.06244087249337e-09 7.73391298748721e-09 1.22962649894271e-07 4.17127651589187e-09 8.63535760599092e-09 3.50704564888699e-08 5.01022960391805e-08
"658" 4610 3.84022401665495e-09 1.04628522367594e-09 7.6461313002003e-09 1.22659616611594e-07 4.17137091067988e-09 8.39110351994085e-09 3.47650890080658e-08 5.03996830974574e-08
"659" 4611 3.87680302697647e-09 1.0301295748585e-09 7.55834961291339e-09 1.22356583328917e-07 4.17146530546789e-09 8.14684943389077e-09 3.44597215272618e-08 5.06970701557342e-08
"660" 4612 3.913382037298e-09 1.01397392604107e-09 7.47056792562648e-09 1.2205355004624e-07 4.17155970025589e-09 7.90259534784069e-09 3.41543540464578e-08 5.09944572140111e-08
"661" 4613 3.94996104761952e-09 9.97818277223631e-10 7.38278623833957e-09 1.21750516763563e-07 4.1716540950439e-09 7.65834126179061e-09 3.38489865656537e-08 5.12918442722879e-08
"662" 4614 3.98654005794105e-09 9.81662628406195e-10 7.29500455105266e-09 1.21447483480887e-07 4.17174848983191e-09 7.41408717574053e-09 3.35436190848497e-08 5.15892313305648e-08
"663" 4615 4.02311906826257e-09 9.65506979588759e-10 7.20722286376575e-09 1.2114445019821e-07 4.17184288461992e-09 7.16983308969046e-09 3.32382516040457e-08 5.18866183888416e-08
"664" 4616 4.0596980785841e-09 9.49351330771323e-10 7.11944117647884e-09 1.20841416915533e-07 4.17193727940793e-09 6.92557900364038e-09 3.29328841232416e-08 5.21840054471185e-08
"665" 4617 4.10744235990479e-09 9.53059682655301e-10 7.11270816466816e-09 1.2097577397875e-07 4.16398400870978e-09 6.93406503193853e-09 3.29268837242971e-08 5.24784538969954e-08
"666" 4618 4.15395109326006e-09 9.50718404142646e-10 7.0847784041622e-09 1.21308014493234e-07 4.11737034279984e-09 6.92975815975160e-09 3.29231315547645e-08 5.24430064854715e-08
"667" 4619 4.20045982661533e-09 9.4837712562999e-10 7.05684864365624e-09 1.21640255007717e-07 4.0707566768899e-09 6.92545128756466e-09 3.2919379385232e-08 5.24075590739476e-08
"668" 4620 4.2469685599706e-09 9.46035847117335e-10 7.02891888315027e-09 1.219724955222e-07 4.02414301097996e-09 6.92114441537773e-09 3.29156272156994e-08 5.23721116624237e-08
"669" 4621 4.29347729332587e-09 9.4369456860468e-10 7.00098912264431e-09 1.22304736036683e-07 3.97752934507001e-09 6.9168375431908e-09 3.29118750461668e-08 5.23366642508998e-08
"670" 4622 4.33998602668114e-09 9.41353290092024e-10 6.97305936213835e-09 1.22636976551166e-07 3.93091567916007e-09 6.91253067100387e-09 3.29081228766342e-08 5.23012168393759e-08
"671" 4623 4.38649476003642e-09 9.39012011579369e-10 6.94512960163239e-09 1.22969217065649e-07 3.88430201325013e-09 6.90822379881694e-09 3.29043707071016e-08 5.22657694278519e-08
"672" 4624 4.39332994056709e-09 9.36670733066714e-10 7.08353550667386e-09 1.23071834468844e-07 3.83759395255218e-09 6.92118776721151e-09 3.34989302589919e-08 5.22828935057068e-08
"673" 4625 4.40016512109777e-09 9.34329454554058e-10 7.22194141171533e-09 1.23174451872038e-07 3.79088589185423e-09 6.93415173560607e-09 3.40934898108822e-08 5.23000175835616e-08
