"time" "channel1" "channel2" "channel3" "channel4" "channel5" "channel6" "channel7" "channel8"
"1425" 42423 8.72001655936849e-09 5.01078625842595e-09 1.26710059508153e-08 2.60519999639497e-07 2.25575250021722e-07 6.32574124696642e-08 1.59472094376846e-08 3.96931638311855e-08
"1426" 42424 8.70577409430946e-09 4.99954620290696e-09 1.26601777978963e-08 2.6065205659221e-07 2.25134762653218e-07 6.33920979205171e-08 1.59488795633114e-08 3.96868928470907e-08
"1427" 42425 8.69153162925044e-09 4.98830614738797e-09 1.26493496449773e-08 2.60784113544923e-07 2.24694275284713e-07 6.35267833713701e-08 1.59505496889383e-08 3.96806218629958e-08
"1428" 42426 8.6754328406112e-09 4.97587011265701e-09 1.25858551797621e-08 2.63085816699807e-07 2.24248918617126e-07 6.41737280163459e-08 1.59334787608742e-08 3.96568798180967e-08
"1429" 42427 8.65933405197196e-09 4.96343407792606e-09 1.25223607145468e-08 2.65387519854692e-07 2.23803561949538e-07 6.48206726613218e-08 1.59164078328101e-08 3.96331377731976e-08
"1430" 42428 8.64323526333272e-09 4.95099804319511e-09 1.24588662493316e-08 2.67689223009576e-07 2.2335820528195e-07 6.54676173062976e-08 1.58993369047461e-08 3.96093957282985e-08
"1431" 42429 8.62713647469348e-09 4.93856200846415e-09 1.23953717841164e-08 2.6999092616446e-07 2.22912848614362e-07 6.61145619512734e-08 1.5882265976682e-08 3.95856536833994e-08
"1432" 42430 8.61103768605424e-09 4.9261259737332e-09 1.23318773189012e-08 2.72292629319344e-07 2.22467491946775e-07 6.67615065962493e-08 1.5865195048618e-08 3.95619116385003e-08
"1433" 42431 8.594938897415e-09 4.91368993900225e-09 1.2268382853686e-08 2.74594332474229e-07 2.22022135279187e-07 6.74084512412251e-08 1.58481241205539e-08 3.95381695936012e-08
"1434" 42432 8.57884010877577e-09 4.90125390427129e-09 1.22048883884708e-08 2.76896035629113e-07 2.21576778611599e-07 6.8055395886201e-08 1.58310531924898e-08 3.95144275487021e-08
"1435" 42433 8.56274132013653e-09 4.88881786954034e-09 1.21413939232556e-08 2.79197738783997e-07 2.21131421944011e-07 6.87023405311768e-08 1.58139822644258e-08 3.94906855038029e-08
"1436" 42434 8.54664253149729e-09 4.87638183480939e-09 1.20778994580404e-08 2.81499441938881e-07 2.20686065276423e-07 6.93492851761527e-08 1.57969113363617e-08 3.94669434589038e-08
"1437" 42435 8.53054374285805e-09 4.86394580007843e-09 1.20144049928252e-08 2.83801145093765e-07 2.20240708608836e-07 6.99962298211285e-08 1.57798404082976e-08 3.94432014140047e-08
"1438" 42436 8.51444495421881e-09 4.83109368074121e-09 1.18934531600673e-08 2.85116837786835e-07 2.20252323987383e-07 7.02576780492548e-08 1.56559154513747e-08 3.94440449206184e-08
"1439" 42437 8.45501064681982e-09 4.78118728960352e-09 1.1876097560029e-08 2.86269415685909e-07 2.1817504588807e-07 7.07146625026062e-08 1.55865131444917e-08 3.90301529735961e-08
"1440" 42438 8.39557633942083e-09 4.73128089846582e-09 1.18587419599906e-08 2.87421993584983e-07 2.16097767788757e-07 7.11716469559576e-08 1.55171108376086e-08 3.86162610265738e-08
"1441" 42439 8.33614203202183e-09 4.68137450732812e-09 1.18413863599523e-08 2.88574571484057e-07 2.14020489689445e-07 7.16286314093089e-08 1.54477085307255e-08 3.82023690795515e-08
"1442" 42440 8.27670772462284e-09 4.63146811619043e-09 1.18240307599139e-08 2.89727149383131e-07 2.11943211590132e-07 7.20856158626603e-08 1.53783062238425e-08 3.77884771325292e-08
"1443" 42441 8.21727341722385e-09 4.57969959916301e-09 1.18143075952295e-08 2.88586367140219e-07 2.09850132380959e-07 7.18346754046008e-08 1.53157957576139e-08 3.73920562463111e-08
"1444" 42442 8.15690161429521e-09 4.52886128818934e-09 1.18065273827479e-08 2.88492900153589e-07 2.07755989082988e-07 7.16051239542855e-08 1.53001379256126e-08 3.70054490719655e-08
"1445" 42443 8.09652981136657e-09 4.47802297721567e-09 1.17987471702663e-08 2.8839943316696e-07 2.05661845785016e-07 7.13755725039701e-08 1.52844800936114e-08 3.66188418976199e-08
"1446" 42444 8.03615800843792e-09 4.427184666242e-09 1.17909669577847e-08 2.88305966180331e-07 2.03567702487045e-07 7.11460210536548e-08 1.52688222616101e-08 3.62322347232743e-08
"1447" 42445 7.97578620550928e-09 4.37634635526833e-09 1.17831867453031e-08 2.88212499193701e-07 2.01473559189074e-07 7.09164696033394e-08 1.52531644296088e-08 3.58456275489287e-08
"1448" 42446 7.91541440258064e-09 4.32550804429467e-09 1.17754065328214e-08 2.88119032207072e-07 1.99379415891102e-07 7.0686918153024e-08 1.52375065976075e-08 3.54590203745831e-08
"1449" 42447 7.855042599652e-09 4.274669733321e-09 1.17676263203398e-08 2.88025565220443e-07 1.97285272593131e-07 7.04573667027087e-08 1.52218487656062e-08 3.50724132002374e-08
"1450" 42448 7.79467079672336e-09 4.22383142234733e-09 1.17598461078582e-08 2.87932098233813e-07 1.9519112929516e-07 7.02278152523933e-08 1.5206190933605e-08 3.46858060258918e-08
"1451" 42449 7.73429899379472e-09 4.17299311137366e-09 1.17520658953766e-08 2.87838631247184e-07 1.93096985997188e-07 6.9998263802078e-08 1.51905331016037e-08 3.42991988515462e-08
"1452" 42450 7.67392719086608e-09 4.12215480039999e-09 1.1744285682895e-08 2.87745164260555e-07 1.91002842699217e-07 6.97687123517626e-08 1.51748752696024e-08 3.39125916772006e-08
"1453" 42451 7.61355538793744e-09 4.07131648942632e-09 1.17365054704134e-08 2.87651697273925e-07 1.88908699401246e-07 6.95391609014473e-08 1.51592174376011e-08 3.3525984502855e-08
"1454" 42452 7.55318358500879e-09 4.02047817845265e-09 1.17287252579318e-08 2.87558230287296e-07 1.86814556103274e-07 6.93096094511319e-08 1.51435596055998e-08 3.31393773285094e-08
"1455" 42453 7.49281178208015e-09 3.96963986747899e-09 1.17209450454502e-08 2.87464763300667e-07 1.84720412805303e-07 6.90800580008166e-08 1.51279017735985e-08 3.27527701541638e-08
"1456" 42454 7.43243997915151e-09 3.91880155650532e-09 1.17131648329685e-08 2.87371296314037e-07 1.82626269507332e-07 6.88505065505012e-08 1.51122439415973e-08 3.23661629798181e-08
"1457" 42455 7.37206817622287e-09 3.86796324553165e-09 1.17053846204869e-08 2.87277829327408e-07 1.8053212620936e-07 6.86209551001859e-08 1.5096586109596e-08 3.19795558054725e-08
"1458" 42456 7.31169637329423e-09 3.81712493455798e-09 1.16976044080053e-08 2.87184362340779e-07 1.78437982911389e-07 6.83914036498705e-08 1.50809282775947e-08 3.15929486311269e-08
"1459" 42457 7.25132457036559e-09 3.76628662358431e-09 1.16898241955237e-08 2.87090895354149e-07 1.76343839613418e-07 6.81618521995552e-08 1.50652704455934e-08 3.12063414567813e-08
"1460" 42458 7.24458206954375e-09 3.76944482206588e-09 1.16722687580916e-08 2.85445485011658e-07 1.762902773235e-07 6.7867842368866e-08 1.51002738667843e-08 3.12045666015923e-08
"1461" 42459 7.23783956872191e-09 3.77260302054745e-09 1.16547133206596e-08 2.83800074669166e-07 1.76236715033583e-07 6.75738325381768e-08 1.51352772879752e-08 3.12027917464034e-08
"1462" 42460 7.21523431381239e-09 3.76784846933437e-09 1.16510725909774e-08 2.84349610505651e-07 1.76224220380891e-07 6.75383313175437e-08 1.51864222148894e-08 3.12226172748751e-08
"1463" 42461 7.19386660795634e-09 3.76522181716923e-09 1.16510725909774e-08 2.83892094298252e-07 1.76251060641894e-07 6.74502167749496e-08 1.51936087835957e-08 3.12226172748751e-08
"1464" 42462 7.17088262133914e-09 3.75707608751559e-09 1.16426458482509e-08 2.83466679771866e-07 1.77215564845877e-07 6.76793842247392e-08 1.51979010762827e-08 3.14351743130175e-08
"1465" 42463 7.14789863472193e-09 3.74893035786195e-09 1.16342191055244e-08 2.83041265245479e-07 1.7818006904986e-07 6.79085516745288e-08 1.52021933689697e-08 3.16477313511599e-08
"1466" 42464 7.12491464810473e-09 3.74078462820831e-09 1.16257923627979e-08 2.82615850719093e-07 1.79144573253844e-07 6.81377191243184e-08 1.52064856616567e-08 3.18602883893023e-08
"1467" 42465 7.10193066148753e-09 3.73263889855467e-09 1.16173656200714e-08 2.82190436192706e-07 1.80109077457827e-07 6.8366886574108e-08 1.52107779543437e-08 3.20728454274447e-08
"1468" 42466 7.07894667487033e-09 3.72449316890103e-09 1.16089388773449e-08 2.8176502166632e-07 1.8107358166181e-07 6.85960540238976e-08 1.52150702470307e-08 3.22854024655872e-08
"1469" 42467 7.05596268825312e-09 3.71634743924739e-09 1.16005121346184e-08 2.81339607139934e-07 1.82038085865794e-07 6.88252214736872e-08 1.52193625397177e-08 3.24979595037296e-08
"1470" 42468 7.03297870163592e-09 3.70820170959375e-09 1.15920853918919e-08 2.80914192613547e-07 1.83002590069777e-07 6.90543889234768e-08 1.52236548324047e-08 3.2710516541872e-08
"1471" 42469 7.02740973089528e-09 3.72117100442336e-09 1.15813143414412e-08 2.80696985309965e-07 1.8343098913138e-07 6.89778030788742e-08 1.53138535230279e-08 3.27022137910532e-08
"1472" 42470 7.02184076015465e-09 3.73414029925296e-09 1.15705432909904e-08 2.80479778006382e-07 1.83859388192982e-07 6.89012172342715e-08 1.54040522136511e-08 3.26939110402345e-08
"1473" 42471 7.02920203550322e-09 3.74235332908727e-09 1.15665549467868e-08 2.80482863192075e-07 1.84299217818479e-07 6.88205413516111e-08 1.54651116587133e-08 3.2682285718918e-08
"1474" 42472 7.04500077061863e-09 3.76007717512995e-09 1.15580257642623e-08 2.80502611236817e-07 1.84389509874825e-07 6.88157009460462e-08 1.55510180566495e-08 3.26127462291974e-08
"1475" 42473 7.06079950573404e-09 3.77780102117263e-09 1.15494965817379e-08 2.80522359281559e-07 1.84479801931171e-07 6.88108605404813e-08 1.56369244545856e-08 3.25432067394768e-08
"1476" 42474 7.07659824084946e-09 3.79552486721531e-09 1.15409673992134e-08 2.80542107326302e-07 1.84570093987516e-07 6.88060201349164e-08 1.57228308525218e-08 3.24736672497561e-08
"1477" 42475 7.07966943773655e-09 3.80167729818234e-09 1.15714920984269e-08 2.8055877018535e-07 1.85004366704844e-07 6.91176731930664e-08 1.57165360076684e-08 3.24195744049669e-08
"1478" 42476 7.08274063462364e-09 3.80782972914938e-09 1.16020167976405e-08 2.80575433044399e-07 1.85438639422173e-07 6.94293262512163e-08 1.57102411628151e-08 3.23654815601776e-08
"1479" 42477 7.08581183151073e-09 3.81398216011641e-09 1.1632541496854e-08 2.80592095903447e-07 1.85872912139501e-07 6.97409793093663e-08 1.57039463179617e-08 3.23113887153883e-08
"1480" 42478 7.08918308192165e-09 3.80676663651652e-09 1.16447114090606e-08 2.80375886748177e-07 1.82656761951558e-07 6.99767968904207e-08 1.57000469960104e-08 3.23276641652314e-08
"1481" 42479 7.08918308192165e-09 3.81607726596513e-09 1.16862103575868e-08 2.80517893670252e-07 1.83343777416814e-07 7.01959613805131e-08 1.56973567450565e-08 3.22429055387103e-08
"1482" 42480 7.08918308192165e-09 3.82538789541373e-09 1.17277093061129e-08 2.80659900592327e-07 1.8403079288207e-07 7.04151258706056e-08 1.56946664941026e-08 3.21581469121892e-08
"1483" 42481 7.08918308192165e-09 3.83469852486233e-09 1.17692082546391e-08 2.80801907514402e-07 1.84717808347326e-07 7.0634290360698e-08 1.56919762431487e-08 3.20733882856681e-08
"1484" 42482 7.08918308192165e-09 3.84400915431094e-09 1.18107072031652e-08 2.80943914436477e-07 1.85404823812582e-07 7.08534548507904e-08 1.56892859921948e-08 3.1988629659147e-08
"1485" 42483 7.08918308192165e-09 3.85331978375954e-09 1.18522061516914e-08 2.81085921358552e-07 1.86091839277837e-07 7.10726193408829e-08 1.56865957412409e-08 3.19038710326259e-08
"1486" 42484 7.08918308192165e-09 3.85295391722144e-09 1.18514588623826e-08 2.81379186265235e-07 1.86015714865557e-07 7.09577516285824e-08 1.56833084944859e-08 3.18525141632556e-08
"1487" 42485 7.08918308192165e-09 3.85258805068334e-09 1.18507115730738e-08 2.81672451171918e-07 1.85939590453277e-07 7.0842883916282e-08 1.56800212477308e-08 3.18011572938853e-08
"1488" 42486 7.08918308192165e-09 3.85222218414524e-09 1.18499642837651e-08 2.81965716078602e-07 1.85863466040997e-07 7.07280162039815e-08 1.56767340009758e-08 3.1749800424515e-08
"1489" 42487 7.08918308192165e-09 3.85185631760714e-09 1.18492169944563e-08 2.82258980985285e-07 1.85787341628717e-07 7.06131484916811e-08 1.56734467542208e-08 3.16984435551447e-08
"1490" 42488 7.08918308192165e-09 3.85149045106904e-09 1.18484697051475e-08 2.82552245891968e-07 1.85711217216437e-07 7.04982807793807e-08 1.56701595074657e-08 3.16470866857745e-08
"1491" 42489 7.08918308192165e-09 3.85112458453094e-09 1.18477224158388e-08 2.82845510798651e-07 1.85635092804157e-07 7.03834130670802e-08 1.56668722607107e-08 3.15957298164042e-08
"1492" 42490 7.08918308192165e-09 3.85075871799284e-09 1.184697512653e-08 2.83138775705334e-07 1.85558968391877e-07 7.02685453547798e-08 1.56635850139557e-08 3.15443729470339e-08
"1493" 42491 7.08918308192165e-09 3.85039285145474e-09 1.18462278372212e-08 2.83432040612017e-07 1.85482843979596e-07 7.01536776424793e-08 1.56602977672006e-08 3.14930160776636e-08
"1494" 42492 7.08918308192165e-09 3.85002698491664e-09 1.18454805479125e-08 2.837253055187e-07 1.85406719567316e-07 7.00388099301789e-08 1.56570105204456e-08 3.14416592082933e-08
"1495" 42493 7.08918308192165e-09 3.84966111837854e-09 1.18447332586037e-08 2.84018570425384e-07 1.85330595155036e-07 6.99239422178785e-08 1.56537232736905e-08 3.13903023389231e-08
"1496" 42494 7.08918308192165e-09 3.84929525184044e-09 1.18439859692949e-08 2.84311835332067e-07 1.85254470742756e-07 6.9809074505578e-08 1.56504360269355e-08 3.13389454695528e-08
"1497" 42495 7.06583903107585e-09 3.80204830606711e-09 1.16918209312171e-08 2.83076742416507e-07 1.85115551045917e-07 6.97836057235848e-08 1.56316949732446e-08 3.13881165725784e-08
"1498" 42496 7.04249498023006e-09 3.75480136029378e-09 1.15396558931392e-08 2.81841649500948e-07 1.84976631349078e-07 6.97581369415915e-08 1.56129539195537e-08 3.14372876756041e-08
"1499" 42497 7.03712871735031e-09 3.73790934070718e-09 1.14489298438714e-08 2.80218685617043e-07 1.84994689760347e-07 6.8973947021662e-08 1.55546754284318e-08 3.13334514661618e-08
"1500" 42498 7.03230255081346e-09 3.740168412552e-09 1.14044853947058e-08 2.78616873370242e-07 1.8596801253055e-07 6.82121362459753e-08 1.55061830539837e-08 3.14375512014886e-08
"1501" 42499 7.025421361103e-09 3.72892835703301e-09 1.13145066347466e-08 2.76605427783607e-07 1.8599143899402e-07 6.74251583092454e-08 1.54712326372914e-08 3.12990224311217e-08
"1502" 42500 7.01854017139255e-09 3.71768830151402e-09 1.12245278747875e-08 2.74593982196971e-07 1.8601486545749e-07 6.66381803725155e-08 1.54362822205992e-08 3.11604936607548e-08
"1503" 42501 7.0116589816821e-09 3.70644824599503e-09 1.11345491148284e-08 2.72582536610336e-07 1.86038291920959e-07 6.58512024357856e-08 1.5401331803907e-08 3.10219648903879e-08
"1504" 42502 7.00477779197165e-09 3.69520819047604e-09 1.10445703548693e-08 2.705710910237e-07 1.86061718384429e-07 6.50642244990557e-08 1.53663813872148e-08 3.0883436120021e-08
"1505" 42503 6.9978966022612e-09 3.68396813495705e-09 1.09545915949102e-08 2.68559645437065e-07 1.86085144847899e-07 6.42772465623259e-08 1.53314309705226e-08 3.0744907349654e-08
"1506" 42504 6.99101541255075e-09 3.67272807943806e-09 1.08646128349511e-08 2.66548199850429e-07 1.86108571311368e-07 6.3490268625596e-08 1.52964805538303e-08 3.06063785792871e-08
"1507" 42505 6.98413422284030e-09 3.66148802391907e-09 1.07746340749919e-08 2.64536754263794e-07 1.86131997774838e-07 6.27032906888661e-08 1.52615301371381e-08 3.04678498089202e-08
"1508" 42506 6.97725303312984e-09 3.65024796840008e-09 1.06846553150328e-08 2.62525308677159e-07 1.86155424238308e-07 6.19163127521362e-08 1.52265797204459e-08 3.03293210385533e-08
"1509" 42507 6.97037184341939e-09 3.63900791288109e-09 1.05946765550737e-08 2.60513863090523e-07 1.86178850701777e-07 6.11293348154063e-08 1.51916293037537e-08 3.01907922681864e-08
"1510" 42508 6.96349065370894e-09 3.6277678573621e-09 1.05046977951146e-08 2.58502417503888e-07 1.86202277165247e-07 6.03423568786764e-08 1.51566788870615e-08 3.00522634978194e-08
"1511" 42509 6.95660946399849e-09 3.61652780184311e-09 1.04147190351555e-08 2.56490971917252e-07 1.86225703628717e-07 5.95553789419465e-08 1.51217284703692e-08 2.99137347274525e-08
"1512" 42510 6.94972827428804e-09 3.60528774632412e-09 1.03247402751964e-08 2.54479526330617e-07 1.86249130092186e-07 5.87684010052166e-08 1.5086778053677e-08 2.97752059570856e-08
"1513" 42511 6.94284708457759e-09 3.59404769080513e-09 1.02347615152372e-08 2.52468080743981e-07 1.86272556555656e-07 5.79814230684867e-08 1.50518276369848e-08 2.96366771867187e-08
"1514" 42512 6.93596589486713e-09 3.58280763528614e-09 1.01447827552781e-08 2.50456635157346e-07 1.86295983019126e-07 5.71944451317568e-08 1.50168772202926e-08 2.94981484163518e-08
"1515" 42513 6.92908470515668e-09 3.57156757976715e-09 1.0054803995319e-08 2.4844518957071e-07 1.86319409482596e-07 5.64074671950269e-08 1.49819268036004e-08 2.93596196459848e-08
"1516" 42514 6.92220351544623e-09 3.56032752424816e-09 9.96482523535988e-09 2.46433743984075e-07 1.86342835946065e-07 5.5620489258297e-08 1.49469763869081e-08 2.92210908756179e-08
"1517" 42515 6.91532232573578e-09 3.54908746872917e-09 9.87484647540077e-09 2.4442229839744e-07 1.86366262409535e-07 5.48335113215671e-08 1.49120259702159e-08 2.9082562105251e-08
"1518" 42516 6.90107986067675e-09 3.52863687714146e-09 9.8766416504759e-09 2.44327081601392e-07 1.86257386131817e-07 5.48191622337595e-08 1.49221748988353e-08 2.90978768031147e-08
"1519" 42517 6.88683739561773e-09 3.50818628555375e-09 9.87843682555103e-09 2.44231864805344e-07 1.86148509854099e-07 5.4804813145952e-08 1.49323238274546e-08 2.91131915009785e-08
"1520" 42518 6.88963121472759e-09 3.50702138575879e-09 9.8791841148598e-09 2.44261586628274e-07 1.85755548088581e-07 5.45842347760837e-08 1.49544503705845e-08 2.89064875531749e-08
"1521" 42519 6.89056871025724e-09 3.50988101788292e-09 9.90392361406053e-09 2.44304909933385e-07 1.85331704387597e-07 5.43672624306273e-08 1.49601406799392e-08 2.86939305150325e-08
"1522" 42520 6.89150620578689e-09 3.51274065000706e-09 9.92866311326126e-09 2.44348233238495e-07 1.84907860686613e-07 5.41502900851709e-08 1.49658309892939e-08 2.848137347689e-08
"1523" 42521 6.89244370131654e-09 3.51560028213119e-09 9.95340261246199e-09 2.44391556543606e-07 1.84484016985629e-07 5.39333177397145e-08 1.49715212986486e-08 2.82688164387476e-08
"1524" 42522 6.89338119684618e-09 3.51845991425532e-09 9.97814211166272e-09 2.44434879848717e-07 1.84060173284645e-07 5.37163453942582e-08 1.49772116080033e-08 2.80562594006052e-08
"1525" 42523 6.89431869237583e-09 3.52131954637946e-09 1.00028816108634e-08 2.44478203153827e-07 1.83636329583661e-07 5.34993730488018e-08 1.4982901917358e-08 2.78437023624628e-08
"1526" 42524 6.89525618790548e-09 3.52417917850359e-09 1.00276211100642e-08 2.44521526458938e-07 1.83212485882677e-07 5.32824007033454e-08 1.49885922267127e-08 2.76311453243204e-08
"1527" 42525 6.89619368343513e-09 3.52703881062773e-09 1.00523606092649e-08 2.44564849764049e-07 1.82788642181693e-07 5.3065428357889e-08 1.49942825360673e-08 2.7418588286178e-08
"1528" 42526 6.89713117896478e-09 3.52989844275186e-09 1.00771001084656e-08 2.44608173069159e-07 1.82364798480709e-07 5.28484560124326e-08 1.4999972845422e-08 2.72060312480355e-08
"1529" 42527 6.89806867449443e-09 3.532758074876e-09 1.01018396076664e-08 2.4465149637427e-07 1.81940954779725e-07 5.26314836669762e-08 1.50056631547767e-08 2.69934742098931e-08
"1530" 42528 6.89900617002408e-09 3.53561770700013e-09 1.01265791068671e-08 2.44694819679381e-07 1.81517111078741e-07 5.24145113215199e-08 1.50113534641314e-08 2.67809171717507e-08
"1531" 42529 6.89994366555373e-09 3.53847733912427e-09 1.01513186060678e-08 2.44738142984491e-07 1.81093267377757e-07 5.21975389760635e-08 1.50170437734861e-08 2.65683601336083e-08
"1532" 42530 6.90131990349582e-09 3.54369785025533e-09 1.01728657491716e-08 2.44631499274008e-07 1.80834444376004e-07 5.21229805169454e-08 1.50233386183395e-08 2.6558348317009e-08
"1533" 42531 6.90269614143791e-09 3.54891836138639e-09 1.01944128922754e-08 2.44524855563525e-07 1.80575621374252e-07 5.20484220578273e-08 1.50296334631928e-08 2.65483365004098e-08
"1534" 42532 6.90407237938e-09 3.55413887251746e-09 1.02159600353792e-08 2.44418211853042e-07 1.80316798372499e-07 5.19738635987092e-08 1.50359283080462e-08 2.65383246838106e-08
"1535" 42533 6.95029906291255e-09 3.57857606147838e-09 1.02590492793845e-08 2.45235370896896e-07 1.81805825015487e-07 5.19652376701095e-08 1.51319610155091e-08 2.69553631491568e-08
"1536" 42534 6.9965257464451e-09 3.6030132504393e-09 1.03021385233899e-08 2.46052529940749e-07 1.83294851658474e-07 5.19566117415098e-08 1.5227993722972e-08 2.73724016145031e-08
"1537" 42535 7.04275242997765e-09 3.62745043940022e-09 1.03452277673952e-08 2.46869688984602e-07 1.84783878301461e-07 5.19479858129101e-08 1.53240264304349e-08 2.77894400798493e-08
"1538" 42536 7.0889791135102e-09 3.65188762836114e-09 1.03883170114006e-08 2.47686848028455e-07 1.86272904944448e-07 5.19393598843105e-08 1.54200591378978e-08 2.82064785451956e-08
"1539" 42537 7.13520579704275e-09 3.67632481732206e-09 1.04314062554059e-08 2.48504007072308e-07 1.87761931587435e-07 5.19307339557108e-08 1.55160918453607e-08 2.86235170105419e-08
"1540" 42538 7.1814324805753e-09 3.70076200628298e-09 1.04744954994112e-08 2.49321166116161e-07 1.89250958230423e-07 5.19221080271111e-08 1.56121245528236e-08 2.90405554758881e-08
"1541" 42539 7.22765916410785e-09 3.72519919524389e-09 1.05175847434166e-08 2.50138325160014e-07 1.9073998487341e-07 5.19134820985114e-08 1.57081572602865e-08 2.94575939412344e-08
"1542" 42540 7.2738858476404e-09 3.74963638420481e-09 1.05606739874219e-08 2.50955484203867e-07 1.92229011516397e-07 5.19048561699117e-08 1.58041899677494e-08 2.98746324065806e-08
"1543" 42541 7.27917343233629e-09 3.74554626588727e-09 1.05822211305257e-08 2.50788106520588e-07 1.91970188514645e-07 5.1828449823932e-08 1.58206639000123e-08 2.99100585796044e-08
"1544" 42542 7.28446101703219e-09 3.74145614756973e-09 1.06037682736295e-08 2.50620728837309e-07 1.91711365512892e-07 5.17520434779522e-08 1.58371378322752e-08 2.99454847526281e-08
"1545" 42543 7.28974860172808e-09 3.73736602925219e-09 1.06253154167333e-08 2.5045335115403e-07 1.9145254251114e-07 5.16756371319724e-08 1.58536117645382e-08 2.99809109256519e-08
"1546" 42544 7.29503618642398e-09 3.73327591093465e-09 1.06468625598371e-08 2.50285973470751e-07 1.91193719509388e-07 5.15992307859927e-08 1.58700856968011e-08 3.00163370986756e-08
"1547" 42545 7.26806618313664e-09 3.72918579261711e-09 1.06632223343751e-08 2.48919410528039e-07 1.90660741283062e-07 5.15670987148528e-08 1.58700856968011e-08 2.97802144360585e-08
"1548" 42546 7.24109617984929e-09 3.72509567429956e-09 1.06795821089131e-08 2.47552847585326e-07 1.90127763056736e-07 5.1534966643713e-08 1.58700856968011e-08 2.95440917734415e-08
"1549" 42547 7.21412617656194e-09 3.72100555598202e-09 1.06959418834511e-08 2.46186284642614e-07 1.8959478483041e-07 5.15028345725732e-08 1.58700856968011e-08 2.93079691108245e-08
"1550" 42548 7.1871561732746e-09 3.71691543766448e-09 1.07123016579892e-08 2.44819721699902e-07 1.89061806604083e-07 5.14707025014334e-08 1.58700856968011e-08 2.90718464482074e-08
"1551" 42549 7.16018616998725e-09 3.71282531934694e-09 1.07286614325272e-08 2.43453158757189e-07 1.88528828377757e-07 5.14385704302936e-08 1.58700856968011e-08 2.88357237855904e-08
"1552" 42550 7.13321616669991e-09 3.7087352010294e-09 1.07450212070652e-08 2.42086595814477e-07 1.87995850151431e-07 5.14064383591538e-08 1.58700856968011e-08 2.85996011229733e-08
"1553" 42551 7.10624616341256e-09 3.70464508271186e-09 1.07613809816032e-08 2.40720032871765e-07 1.87462871925105e-07 5.1374306288014e-08 1.58700856968011e-08 2.83634784603563e-08
"1554" 42552 7.07927616012521e-09 3.70055496439431e-09 1.07777407561412e-08 2.39353469929052e-07 1.86929893698779e-07 5.13421742168742e-08 1.58700856968011e-08 2.81273557977393e-08
"1555" 42553 7.06265995088968e-09 3.68402881134582e-09 1.07602340175071e-08 2.39132772637806e-07 1.86886779399561e-07 5.13421742168742e-08 1.58739774790548e-08 2.81756176047427e-08
"1556" 42554 7.06296000441351e-09 3.69260770771822e-09 1.07690134169572e-08 2.3920125884547e-07 1.86924355764965e-07 5.1519271316234e-08 1.58379388531418e-08 2.82528364959483e-08
"1557" 42555 7.05212612472357e-09 3.67358950286592e-09 1.07317580717625e-08 2.38840795489746e-07 1.86947246758832e-07 5.14479672540178e-08 1.57754283869132e-08 2.83387613300266e-08
"1558" 42556 7.04129224503363e-09 3.65457129801361e-09 1.06945027265678e-08 2.38480332134022e-07 1.86970137752699e-07 5.13766631918016e-08 1.57129179206847e-08 2.84246861641048e-08
"1559" 42557 7.03045836534369e-09 3.6355530931613e-09 1.06572473813731e-08 2.38119868778297e-07 1.86993028746565e-07 5.13053591295853e-08 1.56504074544561e-08 2.85106109981831e-08
"1560" 42558 7.01962448565376e-09 3.61653488830899e-09 1.06199920361784e-08 2.37759405422573e-07 1.87015919740432e-07 5.12340550673691e-08 1.55878969882276e-08 2.85965358322613e-08
"1561" 42559 7.00879060596382e-09 3.59751668345669e-09 1.05827366909837e-08 2.37398942066848e-07 1.87038810734299e-07 5.11627510051528e-08 1.5525386521999e-08 2.86824606663396e-08
"1562" 42560 6.99795672627388e-09 3.57849847860438e-09 1.0545481345789e-08 2.37038478711124e-07 1.87061701728165e-07 5.10914469429366e-08 1.54628760557705e-08 2.87683855004179e-08
"1563" 42561 6.98712284658394e-09 3.55948027375207e-09 1.05082260005943e-08 2.366780153554e-07 1.87084592722032e-07 5.10201428807203e-08 1.54003655895419e-08 2.88543103344961e-08
"1564" 42562 6.976288966894e-09 3.54046206889976e-09 1.04709706553996e-08 2.36317551999675e-07 1.87107483715899e-07 5.09488388185041e-08 1.53378551233134e-08 2.89402351685744e-08
"1565" 42563 6.96545508720406e-09 3.52144386404745e-09 1.0433715310205e-08 2.35957088643951e-07 1.87130374709765e-07 5.08775347562879e-08 1.52753446570848e-08 2.90261600026527e-08
"1566" 42564 6.95462120751413e-09 3.50242565919515e-09 1.03964599650103e-08 2.35596625288226e-07 1.87153265703632e-07 5.08062306940716e-08 1.52128341908563e-08 2.91120848367309e-08
"1567" 42565 6.94378732782419e-09 3.48340745434284e-09 1.03592046198156e-08 2.35236161932502e-07 1.87176156697499e-07 5.07349266318554e-08 1.51503237246277e-08 2.91980096708092e-08
"1568" 42566 6.93295344813425e-09 3.46438924949053e-09 1.03219492746209e-08 2.34875698576778e-07 1.87199047691365e-07 5.06636225696391e-08 1.50878132583992e-08 2.92839345048874e-08
"1569" 42567 6.92211956844431e-09 3.44537104463822e-09 1.02846939294262e-08 2.34515235221053e-07 1.87221938685232e-07 5.05923185074229e-08 1.50253027921706e-08 2.93698593389657e-08
"1570" 42568 6.91128568875437e-09 3.42635283978592e-09 1.02474385842315e-08 2.34154771865329e-07 1.87244829679099e-07 5.05210144452066e-08 1.49627923259421e-08 2.9455784173044e-08
"1571" 42569 6.90045180906443e-09 3.40733463493361e-09 1.02101832390368e-08 2.33794308509604e-07 1.87267720672966e-07 5.04497103829904e-08 1.49002818597135e-08 2.95417090071222e-08
"1572" 42570 6.88961792937449e-09 3.3883164300813e-09 1.01729278938421e-08 2.3343384515388e-07 1.87290611666832e-07 5.03784063207741e-08 1.4837771393485e-08 2.96276338412005e-08
"1573" 42571 6.87878404968456e-09 3.36929822522899e-09 1.01356725486474e-08 2.33073381798156e-07 1.87313502660699e-07 5.03071022585579e-08 1.47752609272564e-08 2.97135586752787e-08
"1574" 42572 6.86795016999462e-09 3.35028002037669e-09 1.00984172034528e-08 2.32712918442431e-07 1.87336393654566e-07 5.02357981963417e-08 1.47127504610278e-08 2.9799483509357e-08
"1575" 42573 6.85711629030468e-09 3.33126181552438e-09 1.00611618582581e-08 2.32352455086707e-07 1.87359284648432e-07 5.01644941341254e-08 1.46502399947993e-08 2.98854083434353e-08
"1576" 42574 6.84628241061474e-09 3.31224361067207e-09 1.00239065130634e-08 2.31991991730982e-07 1.87382175642299e-07 5.00931900719092e-08 1.45877295285707e-08 2.99713331775135e-08
"1577" 42575 6.83622867008675e-09 3.30792051239554e-09 1.00249527180957e-08 2.31669524352921e-07 1.86775803233456e-07 5.00840080138966e-08 1.45731599057903e-08 3.00702182417882e-08
"1578" 42576 6.82617492955876e-09 3.303597414119e-09 1.00259989231279e-08 2.31347056974861e-07 1.86169430824614e-07 5.00748259558839e-08 1.45585902830098e-08 3.01691033060628e-08
"1579" 42577 6.82062863456472e-09 3.27473703350166e-09 1.00387683475157e-08 2.29137198388332e-07 1.85264688628684e-07 4.99866893040828e-08 1.44492877267502e-08 3.0098404959636e-08
"1580" 42578 6.83507380748464e-09 3.2828827631553e-09 1.00862472912461e-08 2.29059211420537e-07 1.8520457596568e-07 4.99862479272613e-08 1.44635324626887e-08 3.01395008199738e-08
"1581" 42579 6.84951898040455e-09 3.29102849280894e-09 1.01337262349765e-08 2.28981224452741e-07 1.85144463302675e-07 4.99858065504398e-08 1.44777771986272e-08 3.01805966803116e-08
"1582" 42580 6.86396415332447e-09 3.29917422246258e-09 1.01812051787069e-08 2.28903237484945e-07 1.8508435063967e-07 4.99853651736184e-08 1.44920219345657e-08 3.02216925406494e-08
"1583" 42581 6.87840932624439e-09 3.30731995211622e-09 1.02286841224373e-08 2.2882525051715e-07 1.85024237976666e-07 4.99849237967969e-08 1.45062666705042e-08 3.02627884009872e-08
"1584" 42582 6.89285449916431e-09 3.31546568176986e-09 1.02761630661677e-08 2.28747263549354e-07 1.84964125313661e-07 4.99844824199754e-08 1.45205114064427e-08 3.0303884261325e-08
"1585" 42583 6.90729967208423e-09 3.3236114114235e-09 1.0323642009898e-08 2.28669276581558e-07 1.84904012650657e-07 4.99840410431539e-08 1.45347561423812e-08 3.03449801216628e-08
"1586" 42584 6.92174484500414e-09 3.33175714107714e-09 1.03711209536284e-08 2.28591289613763e-07 1.84843899987652e-07 4.99835996663325e-08 1.45490008783197e-08 3.03860759820006e-08
"1587" 42585 6.93619001792406e-09 3.33990287073078e-09 1.04185998973588e-08 2.28513302645967e-07 1.84783787324647e-07 4.9983158289511e-08 1.45632456142582e-08 3.04271718423384e-08
"1588" 42586 6.95063519084398e-09 3.34804860038442e-09 1.04660788410892e-08 2.28435315678171e-07 1.84723674661643e-07 4.99827169126895e-08 1.45774903501967e-08 3.04682677026762e-08
"1589" 42587 6.9650803637639e-09 3.35619433003806e-09 1.05135577848196e-08 2.28357328710376e-07 1.84663561998638e-07 4.9982275535868e-08 1.45917350861352e-08 3.0509363563014e-08
"1590" 42588 6.97952553668382e-09 3.3643400596917e-09 1.056103672855e-08 2.2827934174258e-07 1.84603449335633e-07 4.99818341590465e-08 1.46059798220737e-08 3.05504594233518e-08
"1591" 42589 6.98385695837098e-09 3.37225280938635e-09 1.06027808517996e-08 2.28159368772183e-07 1.85417524572372e-07 4.98592380112607e-08 1.45738254387168e-08 3.04577795537635e-08
"1592" 42590 6.98818838005814e-09 3.38016555908099e-09 1.06445249750491e-08 2.28039395801787e-07 1.86231599809112e-07 4.97366418634749e-08 1.454167105536e-08 3.03650996841753e-08
"1593" 42591 6.97851337123783e-09 3.37979969254289e-09 1.06413342996863e-08 2.28018153423927e-07 1.86262374404212e-07 4.96162452300608e-08 1.45078465463763e-08 3.02338103689842e-08
"1594" 42592 6.96883836241752e-09 3.37943382600479e-09 1.06381436243234e-08 2.27996911046068e-07 1.86293148999312e-07 4.94958485966467e-08 1.44740220373926e-08 3.01025210537932e-08
"1595" 42593 6.9591633535972e-09 3.37906795946669e-09 1.06349529489605e-08 2.27975668668209e-07 1.86323923594412e-07 4.93754519632326e-08 1.44401975284089e-08 2.99712317386022e-08
"1596" 42594 6.94948834477689e-09 3.37870209292859e-09 1.06317622735977e-08 2.2795442629035e-07 1.86354698189512e-07 4.92550553298185e-08 1.44063730194252e-08 2.98399424234111e-08
"1597" 42595 6.93981333595658e-09 3.37833622639049e-09 1.06285715982348e-08 2.27933183912491e-07 1.86385472784612e-07 4.91346586964044e-08 1.43725485104415e-08 2.97086531082201e-08
"1598" 42596 6.93013832713627e-09 3.37797035985239e-09 1.0625380922872e-08 2.27911941534632e-07 1.86416247379712e-07 4.90142620629903e-08 1.43387240014578e-08 2.9577363793029e-08
"1599" 42597 6.92720581913779e-09 3.37797035985239e-09 1.06389463353663e-08 2.27591445360214e-07 1.86442038484956e-07 4.908968853628e-08 1.42890300957099e-08 2.94804663903722e-08
"1600" 42598 6.92427331113931e-09 3.37797035985239e-09 1.06525117478607e-08 2.27270949185796e-07 1.86467829590199e-07 4.91651150095698e-08 1.4239336189962e-08 2.93835689877154e-08
"1601" 42599 6.92134080314084e-09 3.37797035985239e-09 1.06660771603551e-08 2.26950453011378e-07 1.86493620695443e-07 4.92405414828595e-08 1.41896422842141e-08 2.92866715850586e-08
"1602" 42600 6.91840829514236e-09 3.37797035985239e-09 1.06796425728495e-08 2.2662995683696e-07 1.86519411800687e-07 4.93159679561492e-08 1.41399483784661e-08 2.91897741824018e-08
"1603" 42601 6.91547578714388e-09 3.37797035985239e-09 1.06932079853439e-08 2.26309460662542e-07 1.8654520290593e-07 4.93913944294389e-08 1.40902544727182e-08 2.9092876779745e-08
"1604" 42602 6.91254327914541e-09 3.37797035985239e-09 1.07067733978383e-08 2.25988964488124e-07 1.86570994011174e-07 4.94668209027286e-08 1.40405605669703e-08 2.89959793770881e-08
"1605" 42603 6.90961077114693e-09 3.37797035985239e-09 1.07203388103327e-08 2.25668468313706e-07 1.86596785116418e-07 4.95422473760183e-08 1.39908666612224e-08 2.88990819744313e-08
"1606" 42604 6.68301148303224e-09 3.22538812675072e-09 1.03245337148663e-08 2.25393678512873e-07 1.84468499457154e-07 4.86610858981224e-08 1.35160233082353e-08 2.83411602710508e-08
"1607" 42605 6.45641219491754e-09 3.07280589364905e-09 9.92872861939993e-09 2.25118888712039e-07 1.8234021379789e-07 4.77799244202265e-08 1.30411799552482e-08 2.77832385676702e-08
"1608" 42606 6.22981290680285e-09 2.92022366054738e-09 9.53292352393352e-09 2.24844098911206e-07 1.80211928138626e-07 4.68987629423306e-08 1.25663366022612e-08 2.72253168642897e-08
"1609" 42607 6.00321361868816e-09 2.76764142744571e-09 9.13711842846712e-09 2.24569309110372e-07 1.78083642479362e-07 4.60176014644347e-08 1.20914932492741e-08 2.66673951609091e-08
"1610" 42608 5.77661433057346e-09 2.61505919434404e-09 8.74131333300071e-09 2.24294519309539e-07 1.75955356820098e-07 4.51364399865387e-08 1.1616649896287e-08 2.61094734575286e-08
"1611" 42609 5.55001504245877e-09 2.46247696124237e-09 8.34550823753431e-09 2.24019729508706e-07 1.73827071160834e-07 4.42552785086428e-08 1.11418065433e-08 2.5551551754148e-08
"1612" 42610 5.32341575434407e-09 2.3098947281407e-09 7.94970314206791e-09 2.23744939707872e-07 1.7169878550157e-07 4.33741170307469e-08 1.06669631903129e-08 2.49936300507674e-08
"1613" 42611 5.09681646622938e-09 2.15731249503903e-09 7.5538980466015e-09 2.23470149907039e-07 1.69570499842306e-07 4.2492955552851e-08 1.01921198373258e-08 2.44357083473869e-08
"1614" 42612 5.09288645199649e-09 2.13267340553612e-09 7.50935619984017e-09 2.2314949798617e-07 1.69560735419377e-07 4.24818534922096e-08 1.02178735934478e-08 2.44498347851404e-08
"1615" 42613 5.0758501678276e-09 2.10121745217063e-09 7.4602768762261e-09 2.22839841158549e-07 1.69601684824513e-07 4.24747238229616e-08 1.02217729153991e-08 2.44074775244329e-08
"1616" 42614 5.05881388365872e-09 2.06976149880515e-09 7.41119755261204e-09 2.22530184330927e-07 1.69642634229649e-07 4.24675941537135e-08 1.02256722373504e-08 2.43651202637254e-08
"1617" 42615 5.04177759948983e-09 2.03830554543966e-09 7.36211822899797e-09 2.22220527503306e-07 1.69683583634784e-07 4.24604644844655e-08 1.02295715593016e-08 2.43227630030179e-08
"1618" 42616 5.02474131532094e-09 2.00684959207418e-09 7.31303890538391e-09 2.21910870675685e-07 1.6972453303992e-07 4.24533348152174e-08 1.02334708812529e-08 2.42804057423104e-08
"1619" 42617 5.01506630650063e-09 2.00561910588077e-09 7.30750224156269e-09 2.2154170134404e-07 1.68597014040897e-07 4.20352870596135e-08 1.02373702032042e-08 2.41896841309359e-08
"1620" 42618 5.00539129768032e-09 2.00438861968737e-09 7.30196557774147e-09 2.21172532012395e-07 1.67469495041875e-07 4.16172393040096e-08 1.02412695251555e-08 2.40989625195614e-08
"1621" 42619 4.99571628886e-09 2.00315813349396e-09 7.29642891392025e-09 2.2080336268075e-07 1.66341976042852e-07 4.11991915484057e-08 1.02451688471067e-08 2.40082409081869e-08
"1622" 42620 4.98604128003969e-09 2.00192764730055e-09 7.29089225009902e-09 2.20434193349104e-07 1.65214457043829e-07 4.07811437928019e-08 1.0249068169058e-08 2.39175192968123e-08
"1623" 42621 4.97636627121938e-09 2.00069716110715e-09 7.2853555862778e-09 2.20065024017459e-07 1.64086938044806e-07 4.0363096037198e-08 1.02529674910093e-08 2.38267976854378e-08
"1624" 42622 4.96669126239906e-09 1.99946667491374e-09 7.27981892245658e-09 2.19695854685814e-07 1.62959419045784e-07 3.99450482815941e-08 1.02568668129605e-08 2.37360760740633e-08
"1625" 42623 4.95701625357875e-09 1.99823618872033e-09 7.27428225863536e-09 2.19326685354169e-07 1.61831900046761e-07 3.95270005259902e-08 1.02607661349118e-08 2.36453544626887e-08
"1626" 42624 4.94734124475844e-09 1.99700570252693e-09 7.26874559481414e-09 2.18957516022524e-07 1.60704381047738e-07 3.91089527703863e-08 1.02646654568631e-08 2.35546328513142e-08
"1627" 42625 4.93766623593812e-09 1.99577521633352e-09 7.26320893099292e-09 2.18588346690878e-07 1.59576862048715e-07 3.86909050147824e-08 1.02685647788143e-08 2.34639112399397e-08
"1628" 42626 4.92799122711781e-09 1.99454473014011e-09 7.25767226717169e-09 2.18219177359233e-07 1.58449343049693e-07 3.82728572591785e-08 1.02724641007656e-08 2.33731896285652e-08
"1629" 42627 4.9183162182975e-09 1.99331424394671e-09 7.25213560335047e-09 2.17850008027588e-07 1.5732182405067e-07 3.78548095035746e-08 1.02763634227169e-08 2.32824680171906e-08
"1630" 42628 4.90864120947719e-09 1.9920837577533e-09 7.24659893952925e-09 2.17480838695943e-07 1.56194305051647e-07 3.74367617479707e-08 1.02802627446682e-08 2.31917464058161e-08
"1631" 42629 4.89896620065687e-09 1.99085327155989e-09 7.24106227570803e-09 2.17111669364297e-07 1.55066786052624e-07 3.70187139923668e-08 1.02841620666194e-08 2.31010247944416e-08
"1632" 42630 4.88929119183656e-09 1.98962278536649e-09 7.23552561188681e-09 2.16742500032652e-07 1.53939267053601e-07 3.66006662367629e-08 1.02880613885707e-08 2.3010303183067e-08
"1633" 42631 4.8818885732623e-09 1.98134416913374e-09 7.23313260536466e-09 2.16560161040013e-07 1.53887607368827e-07 3.65691550410675e-08 1.02524760509738e-08 2.29028584564387e-08
"1634" 42632 4.87448595468805e-09 1.97306555290099e-09 7.23073959884252e-09 2.16377822047375e-07 1.53835947684052e-07 3.6537643845372e-08 1.02168907133769e-08 2.27954137298103e-08
"1635" 42633 4.85744967051916e-09 1.96338905691429e-09 7.2108381729521e-09 2.16050006101353e-07 1.5305536514823e-07 3.64832944950678e-08 1.01631085400073e-08 2.27593715583038e-08
"1636" 42634 4.84715588717211e-09 1.96052942479015e-09 7.2108381729521e-09 2.15714459803054e-07 1.52229647475958e-07 3.63982769599597e-08 1.01180091946958e-08 2.27419666551587e-08
"1637" 42635 4.89049140593187e-09 2.02955411416004e-09 7.52743892037833e-09 2.17823373316586e-07 1.54109246994796e-07 3.79649047195209e-08 1.05578189677018e-08 2.28133692102805e-08
"1638" 42636 4.93382692469162e-09 2.09857880352993e-09 7.84403966780455e-09 2.19932286830118e-07 1.55988846513634e-07 3.9531532479082e-08 1.09976287407078e-08 2.28847717654023e-08
"1639" 42637 4.97716244345137e-09 2.16760349289982e-09 8.16064041523077e-09 2.22041200343649e-07 1.57868446032471e-07 4.10981602386432e-08 1.14374385137138e-08 2.29561743205241e-08
"1640" 42638 5.02049796221113e-09 2.23662818226971e-09 8.47724116265699e-09 2.24150113857181e-07 1.59748045551309e-07 4.26647879982044e-08 1.18772482867198e-08 2.3027576875646e-08
"1641" 42639 5.06383348097088e-09 2.3056528716396e-09 8.79384191008322e-09 2.26259027370713e-07 1.61627645070147e-07 4.42314157577655e-08 1.23170580597258e-08 2.30989794307678e-08
"1642" 42640 5.10716899973064e-09 2.37467756100949e-09 9.11044265750944e-09 2.28367940884244e-07 1.63507244588985e-07 4.57980435173267e-08 1.27568678327318e-08 2.31703819858896e-08
"1643" 42641 5.15050451849039e-09 2.44370225037939e-09 9.42704340493566e-09 2.30476854397776e-07 1.65386844107823e-07 4.73646712768879e-08 1.31966776057378e-08 2.32417845410114e-08
"1644" 42642 5.19384003725015e-09 2.51272693974928e-09 9.74364415236188e-09 2.32585767911307e-07 1.67266443626661e-07 4.8931299036449e-08 1.36364873787438e-08 2.33131870961332e-08
"1645" 42643 5.2371755560099e-09 2.58175162911917e-09 1.00602448997881e-08 2.34694681424839e-07 1.69146043145499e-07 5.04979267960102e-08 1.40762971517498e-08 2.33845896512551e-08
"1646" 42644 5.28051107476965e-09 2.65077631848906e-09 1.03768456472143e-08 2.36803594938371e-07 1.71025642664337e-07 5.20645545555714e-08 1.45161069247558e-08 2.34559922063769e-08
"1647" 42645 5.32384659352941e-09 2.71980100785895e-09 1.06934463946406e-08 2.38912508451902e-07 1.72905242183175e-07 5.36311823151325e-08 1.49559166977618e-08 2.35273947614987e-08
"1648" 42646 5.38421839645805e-09 2.79836930663643e-09 1.10303482427446e-08 2.40100811241435e-07 1.74538509311637e-07 5.52900146553456e-08 1.54534079660886e-08 2.36046136527043e-08
"1649" 42647 5.39096089727989e-09 2.80083027902325e-09 1.10463100232293e-08 2.3887693738166e-07 1.73464346004432e-07 5.53459000077528e-08 1.54659901160978e-08 2.35735516615188e-08
"1650" 42648 5.39770339810172e-09 2.80329125141006e-09 1.1062271803714e-08 2.37653063521886e-07 1.72390182697227e-07 5.540178536016e-08 1.5478572266107e-08 2.35424896703333e-08
"1651" 42649 5.40444589892356e-09 2.80575222379688e-09 1.10782335841987e-08 2.36429189662112e-07 1.71316019390022e-07 5.54576707125672e-08 1.54911544161162e-08 2.35114276791478e-08
"1652" 42650 5.41118839974539e-09 2.80821319618369e-09 1.10941953646834e-08 2.35205315802338e-07 1.70241856082817e-07 5.55135560649744e-08 1.55037365661254e-08 2.34803656879623e-08
"1653" 42651 5.41793090056723e-09 2.8106741685705e-09 1.11101571451681e-08 2.33981441942564e-07 1.69167692775612e-07 5.55694414173817e-08 1.55163187161346e-08 2.34493036967768e-08
"1654" 42652 5.42467340138907e-09 2.81313514095732e-09 1.11261189256528e-08 2.3275756808279e-07 1.68093529468407e-07 5.56253267697889e-08 1.55289008661438e-08 2.34182417055913e-08
"1655" 42653 5.4314159022109e-09 2.81559611334413e-09 1.11420807061375e-08 2.31533694223015e-07 1.67019366161202e-07 5.56812121221961e-08 1.5541483016153e-08 2.33871797144058e-08
"1656" 42654 5.42770325505048e-09 2.81695948611665e-09 1.11459212732134e-08 2.31172961213337e-07 1.66686287444919e-07 5.57095513005654e-08 1.55106510258725e-08 2.31651610687385e-08
"1657" 42655 5.43035437700421e-09 2.82540549590994e-09 1.11906108971024e-08 2.31193115344206e-07 1.66387227239655e-07 5.56935338245191e-08 1.55411807484036e-08 2.30548116653684e-08
"1658" 42656 5.43300549895795e-09 2.83385150570324e-09 1.12353005209914e-08 2.31213269475075e-07 1.66088167034391e-07 5.56775163484727e-08 1.55717104709347e-08 2.29444622619983e-08
"1659" 42657 5.43565662091168e-09 2.84229751549654e-09 1.12799901448804e-08 2.31233423605944e-07 1.65789106829127e-07 5.56614988724264e-08 1.56022401934658e-08 2.28341128586282e-08
"1660" 42658 5.43830774286542e-09 2.85074352528984e-09 1.13246797687695e-08 2.31253577736813e-07 1.65490046623863e-07 5.564548139638e-08 1.56327699159969e-08 2.27237634552581e-08
"1661" 42659 5.44095886481915e-09 2.85918953508313e-09 1.13693693926585e-08 2.31273731867682e-07 1.65190986418599e-07 5.56294639203337e-08 1.56632996385281e-08 2.26134140518881e-08
"1662" 42660 5.44360998677289e-09 2.86763554487643e-09 1.14140590165475e-08 2.31293885998551e-07 1.64891926213335e-07 5.56134464442873e-08 1.56938293610592e-08 2.2503064648518e-08
"1663" 42661 5.44626110872662e-09 2.87608155466973e-09 1.14587486404365e-08 2.3131404012942e-07 1.64592866008072e-07 5.5597428968241e-08 1.57243590835903e-08 2.23927152451479e-08
"1664" 42662 5.44891223068035e-09 2.88452756446303e-09 1.15034382643255e-08 2.31334194260289e-07 1.64293805802808e-07 5.55814114921946e-08 1.57548888061214e-08 2.22823658417778e-08
"1665" 42663 5.45156335263409e-09 2.89297357425632e-09 1.15481278882145e-08 2.31354348391158e-07 1.63994745597544e-07 5.55653940161483e-08 1.57854185286525e-08 2.21720164384077e-08
"1666" 42664 5.45421447458782e-09 2.90141958404962e-09 1.15928175121035e-08 2.31374502522027e-07 1.6369568539228e-07 5.55493765401019e-08 1.58159482511836e-08 2.20616670350376e-08
"1667" 42665 5.45686559654156e-09 2.90986559384292e-09 1.16375071359925e-08 2.31394656652896e-07 1.63396625187016e-07 5.55333590640556e-08 1.58464779737147e-08 2.19513176316675e-08
"1668" 42666 5.45951671849529e-09 2.91831160363622e-09 1.16821967598815e-08 2.31414810783765e-07 1.63097564981752e-07 5.55173415880092e-08 1.58770076962458e-08 2.18409682282974e-08
"1669" 42667 5.46216784044903e-09 2.92675761342951e-09 1.17268863837705e-08 2.31434964914634e-07 1.62798504776488e-07 5.55013241119629e-08 1.59075374187769e-08 2.17306188249273e-08
"1670" 42668 5.46853160956319e-09 2.93197812456058e-09 1.17715760076596e-08 2.3182263123472e-07 1.61107148631344e-07 5.51584585849944e-08 1.5834908409335e-08 2.17600379079915e-08
"1671" 42669 5.46853160956319e-09 2.94042413435387e-09 1.1824794814073e-08 2.31969899194391e-07 1.60952793412634e-07 5.51795783448043e-08 1.58777104744284e-08 2.17982658458427e-08
"1672" 42670 5.45636283515684e-09 2.93932653473957e-09 1.18212027831887e-08 2.31856819953114e-07 1.61053692449569e-07 5.51803713491358e-08 1.5849258927655e-08 2.17273109561317e-08
"1673" 42671 5.44287783351316e-09 2.93846191508427e-09 1.18319738336395e-08 2.32187722368985e-07 1.61053692449569e-07 5.53146433205203e-08 1.59574355762061e-08 2.16581823775667e-08
"1674" 42672 5.42939283186949e-09 2.93759729542896e-09 1.18427448840902e-08 2.32518624784856e-07 1.61053692449569e-07 5.54489152919048e-08 1.60656122247571e-08 2.15890537990018e-08
"1675" 42673 5.41590783022582e-09 2.93673267577365e-09 1.1853515934541e-08 2.32849527200727e-07 1.61053692449569e-07 5.55831872632892e-08 1.61737888733082e-08 2.15199252204368e-08
"1676" 42674 5.40242282858215e-09 2.93586805611835e-09 1.18642869849918e-08 2.33180429616598e-07 1.61053692449569e-07 5.57174592346737e-08 1.62819655218593e-08 2.14507966418719e-08
"1677" 42675 5.38893782693847e-09 2.93500343646304e-09 1.18750580354426e-08 2.33511332032469e-07 1.61053692449569e-07 5.58517312060581e-08 1.63901421704104e-08 2.13816680633069e-08
"1678" 42676 5.3754528252948e-09 2.93413881680773e-09 1.18858290858933e-08 2.3384223444834e-07 1.61053692449569e-07 5.59860031774426e-08 1.64983188189615e-08 2.1312539484742e-08
"1679" 42677 5.36196782365113e-09 2.93327419715243e-09 1.18966001363441e-08 2.34173136864212e-07 1.61053692449569e-07 5.61202751488271e-08 1.66064954675126e-08 2.12434109061771e-08
"1680" 42678 5.34848282200745e-09 2.93240957749712e-09 1.19073711867949e-08 2.34504039280083e-07 1.61053692449569e-07 5.62545471202115e-08 1.67146721160637e-08 2.11742823276121e-08
"1681" 42679 5.33499782036378e-09 2.93154495784181e-09 1.19181422372457e-08 2.34834941695954e-07 1.61053692449569e-07 5.6388819091596e-08 1.68228487646148e-08 2.11051537490472e-08
"1682" 42680 5.32151281872011e-09 2.9306803381865e-09 1.19289132876964e-08 2.35165844111825e-07 1.61053692449569e-07 5.65230910629805e-08 1.69310254131659e-08 2.10360251704822e-08
"1683" 42681 5.30802781707644e-09 2.9298157185312e-09 1.19396843381472e-08 2.35496746527696e-07 1.61053692449569e-07 5.66573630343649e-08 1.7039202061717e-08 2.09668965919173e-08
"1684" 42682 5.29454281543276e-09 2.92895109887589e-09 1.1950455388598e-08 2.35827648943567e-07 1.61053692449569e-07 5.67916350057494e-08 1.71473787102681e-08 2.08977680133523e-08
"1685" 42683 5.28105781378909e-09 2.92808647922058e-09 1.19612264390488e-08 2.36158551359438e-07 1.61053692449569e-07 5.69259069771339e-08 1.72555553588192e-08 2.08286394347874e-08
"1686" 42684 5.26757281214542e-09 2.92722185956528e-09 1.19719974894995e-08 2.36489453775309e-07 1.61053692449569e-07 5.70601789485183e-08 1.73637320073702e-08 2.07595108562224e-08
"1687" 42685 5.25408781050174e-09 2.92635723990997e-09 1.19827685399503e-08 2.3682035619118e-07 1.61053692449569e-07 5.71944509199028e-08 1.74719086559213e-08 2.06903822776575e-08
"1688" 42686 5.24060280885807e-09 2.92549262025466e-09 1.19935395904011e-08 2.37151258607052e-07 1.61053692449569e-07 5.73287228912872e-08 1.75800853044724e-08 2.06212536990925e-08
"1689" 42687 5.2271178072144e-09 2.92462800059936e-09 1.20043106408519e-08 2.37482161022923e-07 1.61053692449569e-07 5.74629948626717e-08 1.76882619530235e-08 2.05521251205276e-08
"1690" 42688 5.21363280557072e-09 2.92376338094405e-09 1.20150816913026e-08 2.37813063438794e-07 1.61053692449569e-07 5.75972668340562e-08 1.77964386015746e-08 2.04829965419626e-08
"1691" 42689 5.21325407386305e-09 2.92289876128874e-09 1.20206653731876e-08 2.38383366066768e-07 1.60944635398514e-07 5.77303367973033e-08 1.79265679269804e-08 2.04707037662062e-08
"1692" 42690 5.15436387107446e-09 2.92289876128874e-09 1.20274480794348e-08 2.38936099712293e-07 1.61102138084502e-07 5.78588856094799e-08 1.80638838210924e-08 2.02481573322684e-08
"1693" 42691 5.109513425484e-09 2.91974056280717e-09 1.20264001936685e-08 2.41678806825353e-07 1.60588011986672e-07 5.78385514842659e-08 1.81015094093434e-08 2.02626138218163e-08
"1694" 42692 5.0734004931842e-09 2.92925137901555e-09 1.20511396928692e-08 2.41979691387202e-07 1.600601830905e-07 5.79805563667984e-08 1.81278601612666e-08 2.02828866474481e-08
"1695" 42693 5.0372875608844e-09 2.93876219522392e-09 1.20758791920699e-08 2.4228057594905e-07 1.59532354194329e-07 5.81225612493309e-08 1.81542109131897e-08 2.03031594730798e-08
"1696" 42694 5.00117462858461e-09 2.9482730114323e-09 1.21006186912707e-08 2.42581460510898e-07 1.59004525298157e-07 5.82645661318634e-08 1.81805616651128e-08 2.03234322987115e-08
"1697" 42695 4.96506169628481e-09 2.95778382764068e-09 1.21253581904714e-08 2.42882345072747e-07 1.58476696401985e-07 5.84065710143959e-08 1.8206912417036e-08 2.03437051243432e-08
"1698" 42696 4.92894876398502e-09 2.96729464384905e-09 1.21500976896721e-08 2.43183229634595e-07 1.57948867505813e-07 5.85485758969284e-08 1.82332631689591e-08 2.0363977949975e-08
"1699" 42697 4.89283583168522e-09 2.97680546005743e-09 1.21748371888729e-08 2.43484114196444e-07 1.57421038609642e-07 5.86905807794609e-08 1.82596139208822e-08 2.03842507756067e-08
"1700" 42698 4.85672289938543e-09 2.98631627626581e-09 1.21995766880736e-08 2.43784998758292e-07 1.5689320971347e-07 5.88325856619934e-08 1.82859646728053e-08 2.04045236012384e-08
"1701" 42699 4.82060996708563e-09 2.99582709247418e-09 1.22243161872743e-08 2.44085883320141e-07 1.56365380817298e-07 5.89745905445259e-08 1.83123154247285e-08 2.04247964268701e-08
"1702" 42700 4.78449703478584e-09 3.00533790868256e-09 1.2249055686475e-08 2.44386767881989e-07 1.55837551921126e-07 5.91165954270584e-08 1.83386661766516e-08 2.04450692525018e-08
"1703" 42701 4.74838410248604e-09 3.01484872489093e-09 1.22737951856758e-08 2.44687652443837e-07 1.55309723024955e-07 5.92586003095909e-08 1.83650169285747e-08 2.04653420781336e-08
"1704" 42702 4.71227117018625e-09 3.02435954109931e-09 1.22985346848765e-08 2.44988537005686e-07 1.54781894128783e-07 5.94006051921234e-08 1.83913676804979e-08 2.04856149037653e-08
"1705" 42703 4.67615823788645e-09 3.03387035730769e-09 1.23232741840772e-08 2.45289421567534e-07 1.54254065232611e-07 5.95426100746559e-08 1.8417718432421e-08 2.0505887729397e-08
"1706" 42704 4.68098440442331e-09 3.04614071226031e-09 1.23408329829775e-08 2.44074644307999e-07 1.52864072970125e-07 5.96610838113683e-08 1.83903247094623e-08 2.04802164614375e-08
"1707" 42705 4.68581057096017e-09 3.05841106721294e-09 1.23583917818777e-08 2.42859867048463e-07 1.5147408070764e-07 5.97795575480806e-08 1.83629309865037e-08 2.04545451934781e-08
"1708" 42706 4.69063673749703e-09 3.07068142216556e-09 1.23759505807779e-08 2.41645089788927e-07 1.50084088445154e-07 5.9898031284793e-08 1.8335537263545e-08 2.04288739255186e-08
"1709" 42707 4.69546290403389e-09 3.08295177711819e-09 1.23935093796781e-08 2.40430312529392e-07 1.48694096182668e-07 6.00165050215053e-08 1.83081435405864e-08 2.04032026575591e-08
"1710" 42708 4.70028907057075e-09 3.09522213207081e-09 1.24110681785783e-08 2.39215535269856e-07 1.47304103920182e-07 6.01349787582177e-08 1.82807498176277e-08 2.03775313895996e-08
"1711" 42709 4.7051152371076e-09 3.10749248702344e-09 1.24286269774785e-08 2.3800075801032e-07 1.45914111657697e-07 6.025345249493e-08 1.82533560946691e-08 2.03518601216401e-08
"1712" 42710 4.70994140364446e-09 3.11976284197606e-09 1.24461857763787e-08 2.36785980750785e-07 1.44524119395211e-07 6.03719262316424e-08 1.82259623717104e-08 2.03261888536806e-08
"1713" 42711 4.70155994631488e-09 3.12139370168901e-09 1.24625455509168e-08 2.35069707552936e-07 1.44180142775544e-07 6.0430018468157e-08 1.81456101153414e-08 2.03130599221615e-08
"1714" 42712 4.69317848898529e-09 3.12302456140197e-09 1.24789053254548e-08 2.33353434355088e-07 1.43836166155877e-07 6.04881107046716e-08 1.80652578589725e-08 2.02999309906424e-08
"1715" 42713 4.68479703165571e-09 3.12465542111492e-09 1.24952650999928e-08 2.3163716115724e-07 1.4349218953621e-07 6.05462029411862e-08 1.79849056026035e-08 2.02868020591233e-08
"1716" 42714 4.66953438461567e-09 3.11338428617893e-09 1.24914228521828e-08 2.29462576967783e-07 1.43204900890291e-07 6.05726471202068e-08 1.78794041256112e-08 2.02484495250555e-08
"1717" 42715 4.68467701024618e-09 3.10321075085724e-09 1.24986052332174e-08 2.27176023024551e-07 1.42823949957387e-07 6.04715649965653e-08 1.77739026486189e-08 2.21665738909738e-08
"1718" 42716 4.69981963587668e-09 3.09303721553555e-09 1.2505787614252e-08 2.2488946908132e-07 1.42442999024483e-07 6.03704828729238e-08 1.76684011716266e-08 2.40846982568921e-08
"1719" 42717 4.71496226150719e-09 3.08286368021386e-09 1.25129699952866e-08 2.22602915138089e-07 1.42062048091578e-07 6.02694007492823e-08 1.75628996946344e-08 2.60028226228104e-08
"1720" 42718 4.73010488713769e-09 3.07269014489217e-09 1.25201523763212e-08 2.20316361194858e-07 1.41681097158674e-07 6.01683186256408e-08 1.74573982176421e-08 2.79209469887287e-08
"1721" 42719 4.7452475127682e-09 3.06251660957048e-09 1.25273347573558e-08 2.18029807251627e-07 1.4130014622577e-07 6.00672365019993e-08 1.73518967406498e-08 2.9839071354647e-08
"1722" 42720 4.7603901383987e-09 3.05234307424879e-09 1.25345171383904e-08 2.15743253308396e-07 1.40919195292866e-07 5.99661543783578e-08 1.72463952636575e-08 3.17571957205652e-08
"1723" 42721 4.77553276402921e-09 3.0421695389271e-09 1.2541699519425e-08 2.13456699365165e-07 1.40538244359962e-07 5.98650722547163e-08 1.71408937866652e-08 3.36753200864835e-08
"1724" 42722 4.79067538965972e-09 3.03199600360542e-09 1.25488819004596e-08 2.11170145421934e-07 1.40157293427057e-07 5.97639901310748e-08 1.70353923096729e-08 3.55934444524018e-08
"1725" 42723 4.80581801529022e-09 3.02182246828373e-09 1.25560642814942e-08 2.08883591478702e-07 1.39776342494153e-07 5.96629080074333e-08 1.69298908326806e-08 3.75115688183201e-08
"1726" 42724 4.82096064092073e-09 3.01164893296204e-09 1.25632466625288e-08 2.06597037535471e-07 1.39395391561249e-07 5.95618258837918e-08 1.68243893556884e-08 3.94296931842384e-08
"1727" 42725 4.83610326655123e-09 3.00147539764035e-09 1.25704290435634e-08 2.0431048359224e-07 1.39014440628345e-07 5.94607437601503e-08 1.67188878786961e-08 4.13478175501566e-08
"1728" 42726 4.86930235833164e-09 3.00234001729566e-09 1.25660897233703e-08 2.02733428161866e-07 1.38797401506757e-07 5.94655517926995e-08 1.67168021632409e-08 4.3268200822679e-08
"1729" 42727 4.89819270417147e-09 3.00167558440012e-09 1.25124779651057e-08 2.0255061294078e-07 1.3717533005488e-07 5.93896589393083e-08 1.67048245487303e-08 4.52360023955912e-08
"1730" 42728 4.92708305001131e-09 3.00101115150458e-09 1.24588662068412e-08 2.02367797719693e-07 1.35553258603003e-07 5.9313766085917e-08 1.66928469342198e-08 4.72038039685034e-08
"1731" 42729 4.95597339585114e-09 3.00034671860905e-09 1.24052544485766e-08 2.02184982498606e-07 1.33931187151126e-07 5.92378732325258e-08 1.66808693197093e-08 4.91716055414155e-08
"1732" 42730 4.98486374169098e-09 2.99968228571351e-09 1.23516426903121e-08 2.0200216727752e-07 1.32309115699248e-07 5.91619803791346e-08 1.66688917051988e-08 5.11394071143277e-08
"1733" 42731 5.01375408753082e-09 2.99901785281798e-09 1.22980309320475e-08 2.01819352056433e-07 1.30687044247371e-07 5.90860875257434e-08 1.66569140906883e-08 5.31072086872398e-08
"1734" 42732 5.04264443337065e-09 2.99835341992244e-09 1.2244419173783e-08 2.01636536835346e-07 1.29064972795494e-07 5.90101946723522e-08 1.66449364761778e-08 5.5075010260152e-08
"1735" 42733 5.07153477921049e-09 2.99768898702691e-09 1.21908074155184e-08 2.0145372161426e-07 1.27442901343617e-07 5.8934301818961e-08 1.66329588616673e-08 5.70428118330641e-08
"1736" 42734 5.10042512505032e-09 2.99702455413137e-09 1.21371956572539e-08 2.01270906393173e-07 1.2582082989174e-07 5.88584089655697e-08 1.66209812471568e-08 5.90106134059763e-08
"1737" 42735 5.12931547089016e-09 2.99636012123584e-09 1.20835838989893e-08 2.01088091172086e-07 1.24198758439863e-07 5.87825161121785e-08 1.66090036326462e-08 6.09784149788884e-08
"1738" 42736 5.15820581673e-09 2.9956956883403e-09 1.20299721407248e-08 2.00905275951e-07 1.22576686987986e-07 5.87066232587873e-08 1.65970260181357e-08 6.29462165518006e-08
"1739" 42737 5.15351833908175e-09 2.99732483427103e-09 1.19603986019755e-08 2.00731597884943e-07 1.2096091451198e-07 5.86259223728469e-08 1.66053083357604e-08 6.29958937587945e-08
"1740" 42738 5.16624587731007e-09 3.00846479641014e-09 1.18944170941106e-08 2.00650348102412e-07 1.1941853621849e-07 5.86087602649589e-08 1.66297547782011e-08 6.31795374495902e-08
"1741" 42739 5.17897341553839e-09 3.01960475854924e-09 1.18284355862457e-08 2.0056909831988e-07 1.17876157925001e-07 5.8591598157071e-08 1.66542012206418e-08 6.33631811403859e-08
"1742" 42740 5.19170095376671e-09 3.03074472068834e-09 1.17624540783808e-08 2.00487848537349e-07 1.16333779631512e-07 5.85744360491831e-08 1.66786476630824e-08 6.35468248311817e-08
"1743" 42741 5.20442849199503e-09 3.04188468282745e-09 1.16964725705159e-08 2.00406598754817e-07 1.14791401338023e-07 5.85572739412952e-08 1.67030941055231e-08 6.37304685219774e-08
"1744" 42742 5.21715603022335e-09 3.05302464496655e-09 1.1630491062651e-08 2.00325348972286e-07 1.13249023044533e-07 5.85401118334072e-08 1.67275405479638e-08 6.39141122127731e-08
"1745" 42743 5.22988356845168e-09 3.06416460710566e-09 1.1564509554786e-08 2.00244099189755e-07 1.11706644751044e-07 5.85229497255193e-08 1.67519869904045e-08 6.40977559035688e-08
"1746" 42744 5.24261110667999e-09 3.07530456924476e-09 1.14985280469211e-08 2.00162849407223e-07 1.10164266457555e-07 5.85057876176314e-08 1.67764334328452e-08 6.42813995943646e-08
"1747" 42745 5.25533864490832e-09 3.08644453138387e-09 1.14325465390562e-08 2.00081599624692e-07 1.08621888164065e-07 5.84886255097435e-08 1.68008798752859e-08 6.44650432851603e-08
"1748" 42746 5.26806618313664e-09 3.09758449352297e-09 1.13665650311913e-08 2.0000034984216e-07 1.07079509870576e-07 5.84714634018555e-08 1.68253263177266e-08 6.4648686975956e-08
"1749" 42747 5.28079372136496e-09 3.10872445566207e-09 1.13005835233264e-08 1.99919100059629e-07 1.05537131577087e-07 5.84543012939676e-08 1.68497727601673e-08 6.48323306667518e-08
"1750" 42748 5.28382357502637e-09 3.12162645031101e-09 1.12982392156021e-08 1.99550500907578e-07 1.05541852778003e-07 5.84278100024599e-08 1.68873983484183e-08 6.49511732065657e-08
"1751" 42749 5.32350645733046e-09 3.15537426872054e-09 1.13527007029734e-08 2.00040728888297e-07 1.0634905404369e-07 5.84713736525441e-08 1.70992324820596e-08 6.508077587678e-08
"1752" 42750 5.34098148391179e-09 3.15906572730076e-09 1.13959948265747e-08 2.00213773053221e-07 1.06238962769915e-07 5.86491842707327e-08 1.71352711079726e-08 6.52145736592591e-08
"1753" 42751 5.35845651049312e-09 3.16275718588098e-09 1.14392889501759e-08 2.00386817218144e-07 1.0612887149614e-07 5.88269948889214e-08 1.71713097338856e-08 6.53483714417382e-08
"1754" 42752 5.37593153707445e-09 3.1664486444612e-09 1.14825830737772e-08 2.00559861383067e-07 1.06018780222365e-07 5.900480550711e-08 1.72073483597987e-08 6.54821692242174e-08
"1755" 42753 5.39340656365578e-09 3.17014010304142e-09 1.15258771973785e-08 2.0073290554799e-07 1.0590868894859e-07 5.91826161252986e-08 1.72433869857117e-08 6.56159670066965e-08
"1756" 42754 5.4108815902371e-09 3.17383156162164e-09 1.15691713209798e-08 2.00905949712914e-07 1.05798597674815e-07 5.93604267434873e-08 1.72794256116247e-08 6.57497647891756e-08
"1757" 42755 5.42835661681843e-09 3.17752302020186e-09 1.16124654445811e-08 2.01078993877837e-07 1.0568850640104e-07 5.95382373616759e-08 1.73154642375377e-08 6.58835625716547e-08
"1758" 42756 5.44583164339976e-09 3.18121447878208e-09 1.16557595681823e-08 2.0125203804276e-07 1.05578415127265e-07 5.97160479798645e-08 1.73515028634507e-08 6.60173603541338e-08
"1759" 42757 5.46330666998109e-09 3.1849059373623e-09 1.16990536917836e-08 2.01425082207684e-07 1.0546832385349e-07 5.98938585980532e-08 1.73875414893638e-08 6.61511581366129e-08
"1760" 42758 5.48078169656242e-09 3.18859739594252e-09 1.17423478153849e-08 2.01598126372607e-07 1.05358232579715e-07 6.00716692162418e-08 1.74235801152768e-08 6.6284955919092e-08
"1761" 42759 5.49825672314375e-09 3.19228885452274e-09 1.17856419389862e-08 2.0177117053753e-07 1.0524814130594e-07 6.02494798344304e-08 1.74596187411898e-08 6.64187537015711e-08
"1762" 42760 5.51573174972508e-09 3.19598031310296e-09 1.18289360625875e-08 2.01944214702453e-07 1.05138050032165e-07 6.0427290452619e-08 1.74956573671028e-08 6.65525514840503e-08
"1763" 42761 5.53276803389396e-09 3.19784243899269e-09 1.18628025757597e-08 2.0167182792645e-07 1.04864789014776e-07 6.05771635265084e-08 1.75020429149426e-08 6.67137659862737e-08
"1764" 42762 5.51206044579033e-09 3.19548155998576e-09 1.18995121497734e-08 2.01685997019913e-07 1.0440069036815e-07 6.07326700102942e-08 1.74494243477693e-08 6.67305986277914e-08
"1765" 42763 5.4913528576867e-09 3.19312068097883e-09 1.19362217237871e-08 2.01700166113375e-07 1.03936591721523e-07 6.088817649408e-08 1.73968057805961e-08 6.67474312693091e-08
"1766" 42764 5.47064526958307e-09 3.1907598019719e-09 1.19729312978008e-08 2.01714335206838e-07 1.03472493074896e-07 6.10436829778658e-08 1.73441872134228e-08 6.67642639108268e-08
"1767" 42765 5.44993768147944e-09 3.18839892296497e-09 1.20096408718145e-08 2.017285043003e-07 1.0300839442827e-07 6.11991894616516e-08 1.72915686462496e-08 6.67810965523445e-08
"1768" 42766 5.4292300933758e-09 3.18603804395805e-09 1.20463504458282e-08 2.01742673393763e-07 1.02544295781643e-07 6.13546959454374e-08 1.72389500790763e-08 6.67979291938622e-08
"1769" 42767 5.40852250527217e-09 3.18367716495112e-09 1.20830600198419e-08 2.01756842487225e-07 1.02080197135017e-07 6.15102024292232e-08 1.71863315119031e-08 6.68147618353799e-08
"1770" 42768 5.4151036414588e-09 3.18736862353134e-09 1.21072033683297e-08 1.98775836302549e-07 1.00395273130872e-07 6.16325543323548e-08 1.72300403802445e-08 6.69788001549838e-08
"1771" 42769 5.41813349512021e-09 3.19169172180787e-09 1.21506469497927e-08 1.97431471404982e-07 1.00310377760581e-07 6.17594671293083e-08 1.72629882447703e-08 6.70411953823411e-08
"1772" 42770 5.42116334878162e-09 3.19601482008441e-09 1.21940905312557e-08 1.96087106507416e-07 1.00225482390291e-07 6.18863799262618e-08 1.72959361092962e-08 6.71035906096984e-08
"1773" 42771 5.42419320244303e-09 3.20033791836094e-09 1.22375341127187e-08 1.94742741609849e-07 1.0014058702e-07 6.20132927232152e-08 1.7328883973822e-08 6.71659858370557e-08
"1774" 42772 5.42722305610444e-09 3.20466101663748e-09 1.22809776941818e-08 1.93398376712283e-07 1.00055691649709e-07 6.21402055201687e-08 1.73618318383479e-08 6.7228381064413e-08
"1775" 42773 5.41277788318452e-09 3.20452813005837e-09 1.23385862003203e-08 1.93643491023681e-07 1.0091863099112e-07 6.22168340015958e-08 1.73825073603114e-08 6.73040739246121e-08
"1776" 42774 5.3983327102646e-09 3.20439524347926e-09 1.23961947064588e-08 1.9388860533508e-07 1.0178157033253e-07 6.22934624830228e-08 1.7403182882275e-08 6.73797667848113e-08
"1777" 42775 5.38388753734469e-09 3.20426235690016e-09 1.24538032125974e-08 1.94133719646479e-07 1.0264450967394e-07 6.23700909644498e-08 1.74238584042385e-08 6.74554596450104e-08
"1778" 42776 5.36944236442477e-09 3.20412947032105e-09 1.25114117187359e-08 1.94378833957878e-07 1.0350744901535e-07 6.24467194458768e-08 1.7444533926202e-08 6.75311525052095e-08
"1779" 42777 5.35499719150485e-09 3.20399658374194e-09 1.25690202248744e-08 1.94623948269276e-07 1.0437038835676e-07 6.25233479273038e-08 1.74652094481656e-08 6.76068453654087e-08
"1780" 42778 5.34055201858493e-09 3.20386369716284e-09 1.26266287310129e-08 1.94869062580675e-07 1.0523332769817e-07 6.25999764087308e-08 1.74858849701291e-08 6.76825382256078e-08
"1781" 42779 5.32610684566501e-09 3.20373081058373e-09 1.26842372371515e-08 1.95114176892074e-07 1.0609626703958e-07 6.26766048901578e-08 1.75065604920926e-08 6.77582310858069e-08
"1782" 42780 5.3116616727451e-09 3.20359792400462e-09 1.274184574329e-08 1.95359291203473e-07 1.0695920638099e-07 6.27532333715849e-08 1.75272360140562e-08 6.78339239460061e-08
"1783" 42781 5.29721649982518e-09 3.20346503742551e-09 1.27994542494285e-08 1.95604405514872e-07 1.078221457224e-07 6.28298618530119e-08 1.75479115360197e-08 6.79096168062052e-08
"1784" 42782 5.28277132690526e-09 3.20333215084641e-09 1.28570627555671e-08 1.9584951982627e-07 1.0868508506381e-07 6.29064903344389e-08 1.75685870579832e-08 6.79853096664043e-08
"1785" 42783 5.26832615398534e-09 3.2031992642673e-09 1.29146712617056e-08 1.96094634137669e-07 1.0954802440522e-07 6.29831188158659e-08 1.75892625799468e-08 6.80610025266035e-08
"1786" 42784 5.22864327168125e-09 3.15595231849397e-09 1.27201155701333e-08 1.96129111182217e-07 1.09267371689307e-07 6.23686504998042e-08 1.75142983651831e-08 6.82355146616688e-08
"1787" 42785 5.16177301901734e-09 3.14627582250726e-09 1.27342804948088e-08 1.97228906212919e-07 1.09824087508475e-07 6.24594485704159e-08 1.75443444139921e-08 6.84100267967341e-08
"1788" 42786 5.09490276635344e-09 3.13659932652056e-09 1.27484454194843e-08 1.98328701243621e-07 1.10380803327643e-07 6.25502466410276e-08 1.75743904628011e-08 6.85845389317994e-08
"1789" 42787 5.03084500027848e-09 3.12815331672726e-09 1.27075459831392e-08 1.98068601814037e-07 1.10192969108832e-07 6.25135184089772e-08 1.76103233063327e-08 6.86250845830628e-08
"1790" 42788 4.96678723420352e-09 3.11970730693396e-09 1.26666465467942e-08 1.97808502384452e-07 1.10005134890021e-07 6.24767901769267e-08 1.76462561498642e-08 6.86656302343263e-08
"1791" 42789 4.90272946812856e-09 3.11126129714067e-09 1.26257471104491e-08 1.97548402954868e-07 1.0981730067121e-07 6.24400619448763e-08 1.76821889933957e-08 6.87061758855897e-08
"1792" 42790 4.8386717020536e-09 3.10281528734737e-09 1.25848476741041e-08 1.97288303525284e-07 1.09629466452399e-07 6.24033337128258e-08 1.77181218369273e-08 6.87467215368532e-08
"1793" 42791 4.77461393597865e-09 3.09436927755407e-09 1.2543948237759e-08 1.97028204095699e-07 1.09441632233588e-07 6.23666054807754e-08 1.77540546804588e-08 6.87872671881166e-08
"1794" 42792 4.71055616990369e-09 3.08592326776077e-09 1.2503048801414e-08 1.96768104666115e-07 1.09253798014777e-07 6.23298772487249e-08 1.77899875239904e-08 6.88278128393801e-08
"1795" 42793 4.64649840382873e-09 3.07747725796747e-09 1.24621493650689e-08 1.96508005236531e-07 1.09065963795966e-07 6.22931490166744e-08 1.78259203675219e-08 6.88683584906435e-08
"1796" 42794 4.58244063775377e-09 3.06903124817418e-09 1.24212499287239e-08 1.96247905806946e-07 1.08878129577155e-07 6.2256420784624e-08 1.78618532110535e-08 6.8908904141907e-08
"1797" 42795 4.51838287167881e-09 3.06058523838088e-09 1.23803504923788e-08 1.95987806377362e-07 1.08690295358344e-07 6.22196925525735e-08 1.7897786054585e-08 6.89494497931704e-08
"1798" 42796 4.45432510560385e-09 3.05213922858758e-09 1.23394510560338e-08 1.95727706947778e-07 1.08502461139533e-07 6.21829643205231e-08 1.79337188981165e-08 6.89899954444338e-08
"1799" 42797 4.39026733952890e-09 3.04369321879428e-09 1.22985516196887e-08 1.95467607518193e-07 1.08314626920721e-07 6.21462360884726e-08 1.79696517416481e-08 6.90305410956973e-08
"1800" 42798 4.32620957345394e-09 3.03524720900099e-09 1.22576521833437e-08 1.95207508088609e-07 1.0812679270191e-07 6.21095078564222e-08 1.80055845851796e-08 6.90710867469607e-08
"1801" 42799 4.26215180737898e-09 3.02680119920769e-09 1.22167527469986e-08 1.94947408659025e-07 1.07938958483099e-07 6.20727796243717e-08 1.80415174287112e-08 6.91116323982242e-08
"1802" 42800 4.19809404130402e-09 3.01835518941439e-09 1.21758533106536e-08 1.9468730922944e-07 1.07751124264288e-07 6.20360513923212e-08 1.80774502722427e-08 6.91521780494876e-08
"1803" 42801 4.13403627522906e-09 3.00990917962109e-09 1.21349538743085e-08 1.94427209799856e-07 1.07563290045477e-07 6.19993231602708e-08 1.81133831157742e-08 6.91927237007511e-08
"1804" 42802 4.0699785091541e-09 3.0014631698278e-09 1.20940544379635e-08 1.94167110370272e-07 1.07375455826666e-07 6.19625949282203e-08 1.81493159593058e-08 6.92332693520145e-08
"1805" 42803 4.00592074307914e-09 2.9930171600345e-09 1.20531550016184e-08 1.93907010940687e-07 1.07187621607855e-07 6.19258666961699e-08 1.81852488028373e-08 6.9273815003278e-08
"1806" 42804 4.00155198643381e-09 2.98979166137226e-09 1.20054224794942e-08 1.93967473333294e-07 1.07100805890291e-07 6.18823030460857e-08 1.81911355975599e-08 6.92689226649184e-08
"1807" 42805 3.99081946067432e-09 2.98134565157897e-09 1.20076173293567e-08 1.94393566168075e-07 1.0722829098192e-07 6.17661009395121e-08 1.81847500497201e-08 6.92757365072366e-08
"1808" 42806 3.98008693491483e-09 2.97289964178567e-09 1.20098121792193e-08 1.94819659002855e-07 1.07355776073549e-07 6.16498988329386e-08 1.81783645018804e-08 6.92825503495548e-08
"1809" 42807 3.96935440915533e-09 2.96445363199237e-09 1.20120070290818e-08 1.95245751837635e-07 1.07483261165178e-07 6.1533696726365e-08 1.81719789540406e-08 6.92893641918729e-08
"1810" 42808 3.99399201149186e-09 2.97166915559226e-09 1.20284171831518e-08 1.95234756744388e-07 1.07451865543556e-07 6.14845570426801e-08 1.81655934062008e-08 6.9311301978179e-08
"1811" 42809 3.98106577367016e-09 2.96764462367316e-09 1.20338027083771e-08 1.95224963163555e-07 1.08120579282958e-07 6.13767513595233e-08 1.81241818180776e-08 6.9359666328846e-08
"1812" 42810 3.96813953584846e-09 2.96362009175406e-09 1.20391882336025e-08 1.95215169582722e-07 1.08789293022359e-07 6.12689456763665e-08 1.80827702299543e-08 6.94080306795131e-08
"1813" 42811 3.95521329802675e-09 2.95959555983496e-09 1.20445737588279e-08 1.95205376001889e-07 1.09458006761761e-07 6.11611399932097e-08 1.8041358641831e-08 6.94563950301801e-08
"1814" 42812 3.94228706020505e-09 2.95557102791586e-09 1.20499592840533e-08 1.95195582421056e-07 1.10126720501162e-07 6.10533343100529e-08 1.79999470537078e-08 6.95047593808471e-08
"1815" 42813 3.92936082238335e-09 2.95154649599677e-09 1.20553448092787e-08 1.95185788840224e-07 1.10795434240564e-07 6.09455286268962e-08 1.79585354655845e-08 6.95531237315142e-08
"1816" 42814 3.91643458456165e-09 2.94752196407767e-09 1.20607303345041e-08 1.95175995259391e-07 1.11464147979965e-07 6.08377229437394e-08 1.79171238774612e-08 6.96014880821812e-08
"1817" 42815 3.90350834673995e-09 2.94349743215857e-09 1.20661158597295e-08 1.95166201678558e-07 1.12132861719367e-07 6.07299172605826e-08 1.78757122893379e-08 6.96498524328482e-08
"1818" 42816 3.89058210891825e-09 2.93947290023947e-09 1.20715013849548e-08 1.95156408097725e-07 1.12801575458768e-07 6.06221115774258e-08 1.78343007012147e-08 6.96982167835153e-08
"1819" 42817 3.87765587109655e-09 2.93544836832037e-09 1.20768869101802e-08 1.95146614516893e-07 1.1347028919817e-07 6.0514305894269e-08 1.77928891130914e-08 6.97465811341823e-08
"1820" 42818 3.87109340238901e-09 2.87539609371354e-09 1.17736382919821e-08 1.95084156469739e-07 1.13833023962139e-07 6.02376921523133e-08 1.7692813602808e-08 6.98369800446134e-08
"1821" 42819 3.86847961539345e-09 2.87539609371354e-09 1.17247621672299e-08 1.94953301029441e-07 1.1455392600551e-07 6.00163531511292e-08 1.76766720970846e-08 6.99090643876265e-08
"1822" 42820 3.86586582839788e-09 2.87539609371354e-09 1.16758860424777e-08 1.94822445589143e-07 1.15274828048881e-07 5.97950141499451e-08 1.76605305913612e-08 6.99811487306396e-08
"1823" 42821 3.86325204140231e-09 2.87539609371354e-09 1.16270099177255e-08 1.94691590148845e-07 1.15995730092253e-07 5.9573675148761e-08 1.76443890856378e-08 7.00532330736527e-08
"1824" 42822 3.86063825440675e-09 2.87539609371354e-09 1.15781337929733e-08 1.94560734708547e-07 1.16716632135624e-07 5.93523361475769e-08 1.76282475799144e-08 7.01253174166658e-08
"1825" 42823 3.85802446741118e-09 2.87539609371354e-09 1.15292576682211e-08 1.9442987926825e-07 1.17437534178995e-07 5.91309971463927e-08 1.7612106074191e-08 7.01974017596788e-08
"1826" 42824 3.85541068041562e-09 2.87539609371354e-09 1.14803815434688e-08 1.94299023827952e-07 1.18158436222367e-07 5.89096581452086e-08 1.75959645684676e-08 7.02694861026919e-08
"1827" 42825 3.85279689342005e-09 2.87539609371354e-09 1.14315054187166e-08 1.94168168387654e-07 1.18879338265738e-07 5.86883191440245e-08 1.75798230627442e-08 7.0341570445705e-08
"1828" 42826 3.85018310642449e-09 2.87539609371354e-09 1.13826292939644e-08 1.94037312947356e-07 1.19600240309109e-07 5.84669801428404e-08 1.75636815570209e-08 7.04136547887181e-08
"1829" 42827 3.84942564300913e-09 2.8765920729255e-09 1.13864194815084e-08 1.91736811304887e-07 1.20326011651564e-07 5.77333819475333e-08 1.75662811049884e-08 7.05032101925355e-08
"1830" 42828 3.84866817959378e-09 2.87778805213746e-09 1.13902096690524e-08 1.89436309662418e-07 1.21051782994019e-07 5.69997837522263e-08 1.75688806529559e-08 7.05927655963529e-08
"1831" 42829 3.84791071617843e-09 2.87898403134942e-09 1.13939998565963e-08 1.87135808019949e-07 1.21777554336473e-07 5.62661855569192e-08 1.75714802009234e-08 7.06823210001702e-08
"1832" 42830 3.84715325276307e-09 2.88018001056139e-09 1.13977900441403e-08 1.8483530637748e-07 1.22503325678928e-07 5.55325873616122e-08 1.75740797488909e-08 7.07718764039876e-08
"1833" 42831 3.85295825805526e-09 2.88018001056139e-09 1.14002351109284e-08 1.8256915112609e-07 1.22505572088613e-07 5.48664855962796e-08 1.7574676744692e-08 7.08109699010055e-08
"1834" 42832 3.85164203081794e-09 2.87924809072542e-09 1.13990881468323e-08 1.80287149040375e-07 1.2277693050086e-07 5.41388650686433e-08 1.75758782759919e-08 7.08174610423803e-08
"1835" 42833 3.85032580358061e-09 2.87831617088944e-09 1.13979411827361e-08 1.78005146954659e-07 1.23048288913106e-07 5.34112445410071e-08 1.75770798072917e-08 7.0823952183755e-08
"1836" 42834 3.84900957634329e-09 2.87738425105347e-09 1.13967942186399e-08 1.75723144868944e-07 1.23319647325353e-07 5.26836240133708e-08 1.75782813385915e-08 7.08304433251297e-08
"1837" 42835 3.84769334910596e-09 2.8764523312175e-09 1.13956472545438e-08 1.73441142783228e-07 1.23591005737599e-07 5.19560034857346e-08 1.75794828698913e-08 7.08369344665044e-08
"1838" 42836 3.84637712186864e-09 2.87552041138153e-09 1.13945002904476e-08 1.71159140697513e-07 1.23862364149845e-07 5.12283829580983e-08 1.75806844011912e-08 7.08434256078791e-08
"1839" 42837 3.84506089463131e-09 2.87458849154556e-09 1.13933533263514e-08 1.68877138611797e-07 1.24133722562092e-07 5.05007624304621e-08 1.7581885932491e-08 7.08499167492538e-08
"1840" 42838 3.84374466739399e-09 2.87365657170959e-09 1.13922063622553e-08 1.66595136526082e-07 1.24405080974338e-07 4.97731419028258e-08 1.75830874637908e-08 7.08564078906285e-08
"1841" 42839 3.84242844015666e-09 2.87272465187361e-09 1.13910593981591e-08 1.64313134440366e-07 1.24676439386585e-07 4.90455213751896e-08 1.75842889950906e-08 7.08628990320032e-08
"1842" 42840 3.84111221291934e-09 2.87179273203764e-09 1.13899124340629e-08 1.62031132354651e-07 1.24947797798831e-07 4.83179008475533e-08 1.75854905263905e-08 7.08693901733779e-08
"1843" 42841 3.83979598568201e-09 2.87086081220167e-09 1.13887654699668e-08 1.59749130268936e-07 1.25219156211077e-07 4.75902803199171e-08 1.75866920576903e-08 7.08758813147526e-08
"1844" 42842 3.83847975844469e-09 2.87179101825542e-09 1.13799860705166e-08 1.59760488325206e-07 1.25506315733184e-07 4.75705847036917e-08 1.75810017483356e-08 7.08649013953231e-08
"1845" 42843 3.83810102673701e-09 2.87179101825542e-09 1.13692637188637e-08 1.58724531125194e-07 1.25794539344089e-07 4.75295000797222e-08 1.75284588047536e-08 7.08441077640211e-08
"1846" 42844 3.83772229502934e-09 2.87179101825542e-09 1.13585413672108e-08 1.57688573925182e-07 1.26082762954994e-07 4.74884154557527e-08 1.74759158611717e-08 7.08233141327191e-08
"1847" 42845 3.84009603920584e-09 2.87794344922245e-09 1.1469917812412e-08 1.56704850012382e-07 1.26144187062698e-07 4.74265626994834e-08 1.7439242314354e-08 7.08372204131927e-08
"1848" 42846 3.84103353473549e-09 2.87887536905843e-09 1.14679748602092e-08 1.56049102286602e-07 1.26585080776994e-07 4.7364709943214e-08 1.73923896801267e-08 7.09919070197864e-08
"1849" 42847 3.84197103026514e-09 2.8798072888944e-09 1.14660319080064e-08 1.55393354560821e-07 1.27025974491289e-07 4.73028571869447e-08 1.73455370458994e-08 7.114659362638e-08
"1850" 42848 3.84290852579479e-09 2.88073920873037e-09 1.14640889558036e-08 1.54737606835041e-07 1.27466868205584e-07 4.72410044306754e-08 1.72986844116721e-08 7.13012802329737e-08
"1851" 42849 3.84384602132443e-09 2.88167112856634e-09 1.14621460036008e-08 1.54081859109261e-07 1.27907761919879e-07 4.7179151674406e-08 1.72518317774449e-08 7.14559668395673e-08
"1852" 42850 3.84478351685408e-09 2.88260304840231e-09 1.1460203051398e-08 1.5342611138348e-07 1.28348655634175e-07 4.71172989181367e-08 1.72049791432176e-08 7.16106534461609e-08
"1853" 42851 3.84572101238373e-09 2.88353496823829e-09 1.14582600991952e-08 1.527703636577e-07 1.2878954934847e-07 4.70554461618674e-08 1.71581265089903e-08 7.17653400527546e-08
"1854" 42852 3.84665850791338e-09 2.88446688807426e-09 1.14563171469924e-08 1.5211461593192e-07 1.29230443062765e-07 4.6993593405598e-08 1.71112738747631e-08 7.19200266593482e-08
"1855" 42853 3.84759600344303e-09 2.88539880791023e-09 1.14543741947896e-08 1.51458868206139e-07 1.29671336777061e-07 4.69317406493287e-08 1.70644212405358e-08 7.20747132659419e-08
"1856" 42854 3.84853349897268e-09 2.8863307277462e-09 1.14524312425868e-08 1.50803120480359e-07 1.30112230491356e-07 4.68698878930593e-08 1.70175686063085e-08 7.22293998725355e-08
"1857" 42855 3.84947099450233e-09 2.88726264758217e-09 1.1450488290384e-08 1.50147372754579e-07 1.30553124205651e-07 4.680803513679e-08 1.69707159720812e-08 7.23840864791292e-08
"1858" 42856 3.85040849003197e-09 2.88819456741814e-09 1.14485453381812e-08 1.49491625028799e-07 1.30994017919947e-07 4.67461823805207e-08 1.6923863337854e-08 7.25387730857228e-08
"1859" 42857 3.85134598556162e-09 2.88912648725412e-09 1.14466023859783e-08 1.48835877303018e-07 1.31434911634242e-07 4.66843296242513e-08 1.68770107036267e-08 7.26934596923164e-08
"1860" 42858 3.85228348109127e-09 2.89005840709009e-09 1.14446594337755e-08 1.48180129577238e-07 1.31875805348537e-07 4.6622476867982e-08 1.68301580693994e-08 7.28481462989101e-08
"1861" 42859 3.85322097662092e-09 2.89099032692606e-09 1.14427164815727e-08 1.47524381851458e-07 1.32316699062833e-07 4.65606241117126e-08 1.67833054351722e-08 7.30028329055037e-08
"1862" 42860 3.85415847215057e-09 2.89192224676203e-09 1.14407735293699e-08 1.46868634125677e-07 1.32757592777128e-07 4.64987713554433e-08 1.67364528009449e-08 7.31575195120974e-08
"1863" 42861 3.85509596768022e-09 2.892854166598e-09 1.14388305771671e-08 1.46212886399897e-07 1.33198486491423e-07 4.6436918599174e-08 1.66896001667176e-08 7.3312206118691e-08
"1864" 42862 3.85479591415639e-09 2.89165818738604e-09 1.14332468952821e-08 1.46564190718e-07 1.33600045292023e-07 4.64276791648656e-08 1.66867058906983e-08 7.34867182537563e-08
"1865" 42863 3.85611214139372e-09 2.89598128566257e-09 1.14360899561236e-08 1.46883393355091e-07 1.33063940149643e-07 4.61011577381735e-08 1.66867058906983e-08 7.34486733506792e-08
"1866" 42864 3.85742836863104e-09 2.90030438393911e-09 1.14389330169651e-08 1.47202595992182e-07 1.32527835007262e-07 4.57746363114815e-08 1.66867058906983e-08 7.34106284476021e-08
"1867" 42865 3.85874459586837e-09 2.90462748221564e-09 1.14417760778066e-08 1.47521798629272e-07 1.31991729864881e-07 4.54481148847894e-08 1.66867058906983e-08 7.3372583544525e-08
"1868" 42866 3.86006082310569e-09 2.90895058049218e-09 1.14446191386481e-08 1.47841001266363e-07 1.31455624722501e-07 4.51215934580973e-08 1.66867058906983e-08 7.33345386414478e-08
"1869" 42867 3.86784217338762e-09 2.91446965798068e-09 1.14853640749291e-08 1.4928013246659e-07 1.30620899628041e-07 4.48139996465791e-08 1.66908773216087e-08 7.33496699362868e-08
"1870" 42868 3.88525718926419e-09 2.93122879098816e-09 1.15045669103087e-08 1.50123680376316e-07 1.29804554965946e-07 4.44915256211204e-08 1.67010564090183e-08 7.31284874463822e-08
"1871" 42869 3.90267220514075e-09 2.94798792399565e-09 1.15237697456882e-08 1.50967228286042e-07 1.28988210303851e-07 4.41690515956617e-08 1.67112354964278e-08 7.29073049564776e-08
"1872" 42870 3.90267220514075e-09 2.9436320325199e-09 1.1545316888792e-08 1.51602568972965e-07 1.28707970784137e-07 4.41523308645953e-08 1.66355081859012e-08 7.29069822555341e-08
"1873" 42871 3.90267220514075e-09 2.93927614104414e-09 1.15668640318957e-08 1.52237909659888e-07 1.28427731264423e-07 4.41356101335288e-08 1.65597808753746e-08 7.29066595545907e-08
"1874" 42872 3.90267220514075e-09 2.93492024956838e-09 1.15884111749995e-08 1.5287325034681e-07 1.28147491744709e-07 4.41188894024624e-08 1.6484053564848e-08 7.29063368536472e-08
"1875" 42873 3.90267220514075e-09 2.93056435809263e-09 1.16099583181033e-08 1.53508591033733e-07 1.27867252224995e-07 4.4102168671396e-08 1.64083262543214e-08 7.29060141527038e-08
"1876" 42874 3.90267220514075e-09 2.92620846661687e-09 1.16315054612071e-08 1.54143931720655e-07 1.2758701270528e-07 4.40854479403295e-08 1.63325989437947e-08 7.29056914517603e-08
"1877" 42875 3.90267220514075e-09 2.92185257514112e-09 1.16530526043109e-08 1.54779272407578e-07 1.27306773185566e-07 4.40687272092631e-08 1.62568716332681e-08 7.29053687508169e-08
"1878" 42876 3.91539974336907e-09 2.92906809874101e-09 1.16355458656767e-08 1.55417698280194e-07 1.26682553004869e-07 4.37355130144817e-08 1.6273345565531e-08 7.28895994049421e-08
"1879" 42877 3.92812728159739e-09 2.9362836223409e-09 1.16180391270425e-08 1.5605612415281e-07 1.26058332824172e-07 4.34022988197004e-08 1.6289819497794e-08 7.28738300590672e-08
"1880" 42878 3.94085481982571e-09 2.94349914594079e-09 1.16005323884083e-08 1.56694550025426e-07 1.25434112643476e-07 4.30690846249191e-08 1.63062934300569e-08 7.28580607131924e-08
"1881" 42879 3.95358235805403e-09 2.95071466954068e-09 1.15830256497741e-08 1.57332975898043e-07 1.24809892462779e-07 4.27358704301378e-08 1.63227673623198e-08 7.28422913673176e-08
"1882" 42880 3.96630989628235e-09 2.95793019314057e-09 1.156551891114e-08 1.57971401770659e-07 1.24185672282082e-07 4.24026562353565e-08 1.63392412945827e-08 7.28265220214428e-08
"1883" 42881 3.97903743451067e-09 2.96514571674046e-09 1.15480121725058e-08 1.58609827643275e-07 1.23561452101385e-07 4.20694420405752e-08 1.63557152268456e-08 7.2810752675568e-08
"1884" 42882 3.99176497273899e-09 2.97236124034035e-09 1.15305054338716e-08 1.59248253515891e-07 1.22937231920688e-07 4.17362278457939e-08 1.63721891591086e-08 7.27949833296932e-08
"1885" 42883 4.00449251096731e-09 2.97957676394024e-09 1.15129986952374e-08 1.59886679388507e-07 1.22313011739991e-07 4.14030136510126e-08 1.63886630913715e-08 7.27792139838183e-08
"1886" 42884 4.01722004919563e-09 2.98679228754013e-09 1.14954919566032e-08 1.60525105261123e-07 1.21688791559294e-07 4.10697994562313e-08 1.64051370236344e-08 7.27634446379435e-08
"1887" 42885 4.02994758742395e-09 3.00368430712673e-09 1.15202314558039e-08 1.61012273149131e-07 1.21827711256134e-07 4.10706174638428e-08 1.64222079516985e-08 7.27142735349179e-08
"1888" 42886 4.04267512565227e-09 3.02057632671332e-09 1.15449709550047e-08 1.61499441037139e-07 1.21966630952973e-07 4.10714354714544e-08 1.64392788797625e-08 7.26651024318922e-08
"1889" 42887 4.05540266388059e-09 3.03746834629992e-09 1.15697104542054e-08 1.61986608925147e-07 1.22105550649812e-07 4.10722534790659e-08 1.64563498078266e-08 7.26159313288666e-08
"1890" 42888 4.06813020210891e-09 3.05436036588651e-09 1.15944499534061e-08 1.62473776813155e-07 1.22244470346651e-07 4.10730714866775e-08 1.64734207358907e-08 7.25667602258409e-08
"1891" 42889 4.08085774033723e-09 3.07125238547311e-09 1.16191894526069e-08 1.62960944701163e-07 1.2238339004349e-07 4.1073889494289e-08 1.64904916639547e-08 7.25175891228153e-08
"1892" 42890 4.09358527856555e-09 3.0881444050597e-09 1.16439289518076e-08 1.63448112589171e-07 1.22522309740329e-07 4.10747075019006e-08 1.65075625920188e-08 7.24684180197896e-08
"1893" 42891 4.10631281679387e-09 3.1050364246463e-09 1.16686684510083e-08 1.63935280477179e-07 1.22661229437168e-07 4.10755255095121e-08 1.65246335200828e-08 7.2419246916764e-08
"1894" 42892 4.11904035502219e-09 3.12192844423289e-09 1.1693407950209e-08 1.64422448365187e-07 1.22800149134007e-07 4.10763435171237e-08 1.65417044481469e-08 7.23700758137383e-08
"1895" 42893 4.13176789325051e-09 3.13882046381949e-09 1.17181474494098e-08 1.64909616253195e-07 1.22939068830846e-07 4.10771615247352e-08 1.6558775376211e-08 7.23209047107127e-08
"1896" 42894 4.14449543147883e-09 3.15571248340608e-09 1.17428869486105e-08 1.65396784141203e-07 1.23077988527685e-07 4.10779795323468e-08 1.6575846304275e-08 7.2271733607687e-08
"1897" 42895 4.15722296970715e-09 3.17260450299268e-09 1.17676264478112e-08 1.65883952029211e-07 1.23216908224524e-07 4.10787975399583e-08 1.65929172323391e-08 7.22225625046614e-08
"1898" 42896 4.15291422376659e-09 3.17273738957179e-09 1.1772163924664e-08 1.65546615366702e-07 1.23191394341259e-07 4.11123537546827e-08 1.65974135500915e-08 7.21820168533979e-08
"1899" 42897 4.14878550994032e-09 3.17273738957179e-09 1.17949050499277e-08 1.65979377325987e-07 1.23272366269175e-07 4.11791042928127e-08 1.66007007968465e-08 7.21688879218788e-08
"1900" 42898 4.14465679611405e-09 3.17273738957179e-09 1.18176461751914e-08 1.66412139285271e-07 1.23353338197092e-07 4.12458548309427e-08 1.66039880436016e-08 7.21557589903597e-08
"1901" 42899 4.13998798594489e-09 3.15358629814037e-09 1.17941057003529e-08 1.66823749607452e-07 1.22479045766075e-07 4.12902262248297e-08 1.65974891736828e-08 7.19346941140714e-08
"1902" 42900 4.13737419894932e-09 3.14793433407277e-09 1.18160995363079e-08 1.67644993269468e-07 1.22554649641791e-07 4.13597647797601e-08 1.65774483460081e-08 7.19562577434769e-08
"1903" 42901 4.13476041195376e-09 3.14228237000516e-09 1.18380933722629e-08 1.68466236931483e-07 1.22630253517507e-07 4.14293033346904e-08 1.65574075183335e-08 7.19778213728824e-08
"1904" 42902 4.13214662495819e-09 3.13663040593756e-09 1.18600872082178e-08 1.69287480593499e-07 1.22705857393224e-07 4.14988418896207e-08 1.65373666906588e-08 7.19993850022879e-08
"1905" 42903 4.1305903549018e-09 3.13174296814537e-09 1.18582920331427e-08 1.69310808724583e-07 1.22732317133198e-07 4.1524009050664e-08 1.65185349339815e-08 7.19865567191592e-08
"1906" 42904 4.12903408484542e-09 3.12798592316671e-09 1.18715081503816e-08 1.69325862058855e-07 1.22732317133198e-07 4.15244180544698e-08 1.65031793697296e-08 7.19755547471766e-08
"1907" 42905 4.12747781478903e-09 3.12422887818805e-09 1.18847242676206e-08 1.69340915393126e-07 1.22732317133198e-07 4.15248270582755e-08 1.64878238054776e-08 7.1964552775194e-08
"1908" 42906 4.12592154473265e-09 3.12047183320938e-09 1.18979403848595e-08 1.69355968727398e-07 1.22732317133198e-07 4.15252360620813e-08 1.64724682412257e-08 7.19535508032113e-08
"1909" 42907 4.12436527467626e-09 3.11671478823072e-09 1.19111565020985e-08 1.6937102206167e-07 1.22732317133198e-07 4.15256450658871e-08 1.64571126769738e-08 7.19425488312287e-08
"1910" 42908 4.12280900461987e-09 3.11295774325206e-09 1.19243726193374e-08 1.69386075395942e-07 1.22732317133198e-07 4.15260540696929e-08 1.64417571127218e-08 7.19315468592461e-08
"1911" 42909 4.12125273456349e-09 3.10920069827340e-09 1.19375887365764e-08 1.69401128730214e-07 1.22732317133198e-07 4.15264630734986e-08 1.64264015484699e-08 7.19205448872634e-08
"1912" 42910 4.1196964645071e-09 3.10544365329473e-09 1.19508048538153e-08 1.69416182064486e-07 1.22732317133198e-07 4.15268720773044e-08 1.64110459842179e-08 7.19095429152808e-08
"1913" 42911 4.11814019445071e-09 3.10168660831607e-09 1.19640209710543e-08 1.69431235398758e-07 1.22732317133198e-07 4.15272810811102e-08 1.6395690419966e-08 7.18985409432981e-08
"1914" 42912 4.11658392439433e-09 3.09792956333741e-09 1.19772370882932e-08 1.6944628873303e-07 1.22732317133198e-07 4.1527690084916e-08 1.63803348557141e-08 7.18875389713155e-08
"1915" 42913 4.11502765433794e-09 3.09417251835874e-09 1.19904532055321e-08 1.69461342067302e-07 1.22732317133198e-07 4.15280990887218e-08 1.63649792914621e-08 7.18765369993329e-08
"1916" 42914 4.11347138428156e-09 3.09041547338008e-09 1.20036693227711e-08 1.69476395401574e-07 1.22732317133198e-07 4.15285080925275e-08 1.63496237272102e-08 7.18655350273502e-08
"1917" 42915 4.11191511422517e-09 3.08665842840142e-09 1.201688544001e-08 1.69491448735845e-07 1.22732317133198e-07 4.15289170963333e-08 1.63342681629583e-08 7.18545330553676e-08
"1918" 42916 4.11035884416878e-09 3.08290138342275e-09 1.2030101557249e-08 1.69506502070117e-07 1.22732317133198e-07 4.15293261001391e-08 1.63189125987063e-08 7.1843531083385e-08
"1919" 42917 4.1088025741124e-09 3.07914433844409e-09 1.20433176744879e-08 1.69521555404389e-07 1.22732317133198e-07 4.15297351039449e-08 1.63035570344544e-08 7.18325291114023e-08
"1920" 42918 4.10724630405601e-09 3.07538729346543e-09 1.20565337917269e-08 1.69536608738661e-07 1.22732317133198e-07 4.15301441077506e-08 1.62882014702024e-08 7.18215271394197e-08
"1921" 42919 4.10569003399962e-09 3.07163024848677e-09 1.20697499089658e-08 1.69551662072933e-07 1.22732317133198e-07 4.15305531115564e-08 1.62728459059505e-08 7.18105251674371e-08
"1922" 42920 4.10599008752345e-09 3.063848671589e-09 1.20589738163128e-08 1.69553113925024e-07 1.22763199068663e-07 4.15273560909503e-08 1.62739265754738e-08 7.18053762857933e-08
"1923" 42921 4.10629014104728e-09 3.05606709469124e-09 1.20481977236598e-08 1.69554565777115e-07 1.22794081004129e-07 4.15241590703442e-08 1.6275007244997e-08 7.18002274041495e-08
"1924" 42922 4.1065901945711e-09 3.04828551779348e-09 1.20374216310068e-08 1.69556017629206e-07 1.22824962939594e-07 4.1520962049738e-08 1.62760879145203e-08 7.17950785225057e-08
"1925" 42923 4.10689024809493e-09 3.04050394089572e-09 1.20266455383537e-08 1.69557469481297e-07 1.22855844875059e-07 4.15177650291319e-08 1.62771685840435e-08 7.17899296408619e-08
"1926" 42924 4.10719030161876e-09 3.03272236399795e-09 1.20158694457007e-08 1.69558921333388e-07 1.22886726810525e-07 4.15145680085258e-08 1.62782492535668e-08 7.17847807592181e-08
"1927" 42925 4.10625280608911e-09 3.02317875459036e-09 1.20212062721283e-08 1.69507708719158e-07 1.22889457040288e-07 4.15127201216641e-08 1.62739569608798e-08 7.17847807592181e-08
"1928" 42926 4.10549534267376e-09 3.01350225860365e-09 1.19964667729275e-08 1.697313309551e-07 1.22991095335833e-07 4.16495079678416e-08 1.62670651202253e-08 7.1816415012031e-08
"1929" 42927 4.1047378792584e-09 3.00382576261695e-09 1.19717272737268e-08 1.69954953191042e-07 1.23092733631378e-07 4.17862958140191e-08 1.62601732795707e-08 7.18480492648439e-08
"1930" 42928 4.10398041584305e-09 2.99414926663024e-09 1.19469877745261e-08 1.70178575426984e-07 1.23194371926923e-07 4.19230836601966e-08 1.62532814389162e-08 7.18796835176568e-08
"1931" 42929 4.1032229524277e-09 2.98447277064354e-09 1.19222482753253e-08 1.70402197662926e-07 1.23296010222468e-07 4.20598715063742e-08 1.62463895982617e-08 7.19113177704697e-08
"1932" 42930 4.10246548901235e-09 2.97479627465683e-09 1.18975087761246e-08 1.70625819898868e-07 1.23397648518013e-07 4.21966593525517e-08 1.62394977576072e-08 7.19429520232826e-08
"1933" 42931 4.10170802559699e-09 2.96511977867013e-09 1.18727692769239e-08 1.7084944213481e-07 1.23499286813558e-07 4.23334471987292e-08 1.62326059169527e-08 7.19745862760955e-08
"1934" 42932 4.10095056218164e-09 2.95544328268342e-09 1.18480297777231e-08 1.71073064370751e-07 1.23600925109103e-07 4.24702350449067e-08 1.62257140762982e-08 7.20062205289084e-08
"1935" 42933 4.10019309876629e-09 2.94576678669672e-09 1.18232902785224e-08 1.71296686606693e-07 1.23702563404648e-07 4.26070228910842e-08 1.62188222356437e-08 7.20378547817213e-08
"1936" 42934 4.05458518976047e-09 2.91687361288016e-09 1.17770086784201e-08 1.70596506088299e-07 1.22056352055453e-07 4.26778782067433e-08 1.61221925323796e-08 7.16424387525887e-08
"1937" 42935 4.00897728075466e-09 2.8879804390636e-09 1.17307270783179e-08 1.69896325569905e-07 1.20410140706258e-07 4.27487335224024e-08 1.60255628291156e-08 7.12470227234562e-08
"1938" 42936 3.96336937174885e-09 2.85908726524704e-09 1.16844454782156e-08 1.69196145051511e-07 1.18763929357064e-07 4.28195888380615e-08 1.59289331258516e-08 7.08516066943236e-08
"1939" 42937 3.91776146274304e-09 2.83019409143047e-09 1.16381638781133e-08 1.68495964533117e-07 1.17117718007869e-07 4.28904441537206e-08 1.58323034225875e-08 7.0456190665191e-08
"1940" 42938 3.87215355373723e-09 2.80130091761391e-09 1.1591882278011e-08 1.67795784014723e-07 1.15471506658674e-07 4.29612994693797e-08 1.57356737193235e-08 7.00607746360584e-08
"1941" 42939 3.82654564473141e-09 2.77240774379735e-09 1.15456006779087e-08 1.67095603496329e-07 1.1382529530948e-07 4.30321547850388e-08 1.56390440160594e-08 6.96653586069258e-08
"1942" 42940 3.7809377357256e-09 2.74351456998079e-09 1.14993190778065e-08 1.66395422977935e-07 1.12179083960285e-07 4.31030101006979e-08 1.55424143127954e-08 6.92699425777932e-08
"1943" 42941 3.73532982671979e-09 2.71462139616423e-09 1.14530374777042e-08 1.65695242459541e-07 1.1053287261109e-07 4.3173865416357e-08 1.54457846095314e-08 6.88745265486606e-08
"1944" 42942 3.73066101655063e-09 2.71425552962613e-09 1.14282979785034e-08 1.65979598668278e-07 1.10634510906635e-07 4.33125011493962e-08 1.54287136814673e-08 6.88607228118505e-08
"1945" 42943 3.72599220638147e-09 2.71388966308803e-09 1.14035584793027e-08 1.66263954877016e-07 1.1073614920218e-07 4.34511368824353e-08 1.54116427534032e-08 6.88469190750404e-08
"1946" 42944 3.72132339621231e-09 2.71352379654993e-09 1.1378818980102e-08 1.66548311085754e-07 1.10837787497725e-07 4.35897726154745e-08 1.53945718253392e-08 6.88331153382303e-08
"1947" 42945 3.71665458604315e-09 2.71315793001183e-09 1.13540794809013e-08 1.66832667294492e-07 1.1093942579327e-07 4.37284083485137e-08 1.53775008972751e-08 6.88193116014203e-08
"1948" 42946 3.71611448970027e-09 2.71402254966714e-09 1.13325323377975e-08 1.67041328221074e-07 1.13970572826767e-07 4.3726208834142e-08 1.53673218098656e-08 6.8865776132431e-08
"1949" 42947 3.71405946652667e-09 2.71930864719664e-09 1.13109851946937e-08 1.6712811062139e-07 1.13970572826767e-07 4.37429369349441e-08 1.53649036678708e-08 6.89191574176742e-08
"1950" 42948 3.71200444335308e-09 2.72459474472615e-09 1.12894380515899e-08 1.67214893021706e-07 1.13970572826767e-07 4.37596650357462e-08 1.53624855258761e-08 6.89725387029174e-08
"1951" 42949 3.70994942017949e-09 2.72988084225565e-09 1.12678909084861e-08 1.67301675422022e-07 1.13970572826767e-07 4.37763931365484e-08 1.53600673838814e-08 6.90259199881606e-08
"1952" 42950 3.70789439700589e-09 2.73516693978516e-09 1.12463437653823e-08 1.67388457822338e-07 1.13970572826767e-07 4.37931212373505e-08 1.53576492418866e-08 6.90793012734038e-08
"1953" 42951 3.7058393738323e-09 2.74045303731466e-09 1.12247966222785e-08 1.67475240222653e-07 1.13970572826767e-07 4.38098493381526e-08 1.53552310998919e-08 6.91326825586469e-08
"1954" 42952 3.70378435065871e-09 2.74573913484417e-09 1.12032494791747e-08 1.67562022622969e-07 1.13970572826767e-07 4.38265774389547e-08 1.53528129578971e-08 6.91860638438901e-08
"1955" 42953 3.70172932748511e-09 2.75102523237367e-09 1.11817023360709e-08 1.67648805023285e-07 1.13970572826767e-07 4.38433055397568e-08 1.53503948159024e-08 6.92394451291333e-08
"1956" 42954 3.69967430431152e-09 2.75631132990318e-09 1.11601551929671e-08 1.67735587423601e-07 1.13970572826767e-07 4.3860033640559e-08 1.53479766739076e-08 6.92928264143765e-08
"1957" 42955 3.70123057436791e-09 2.74892841274274e-09 1.11549678244014e-08 1.67586505932973e-07 1.13920594215997e-07 4.37002781477099e-08 1.53546569497992e-08 6.92928264143765e-08
"1958" 42956 3.70440312518544e-09 2.75444749023123e-09 1.11557671739762e-08 1.67655060998802e-07 1.1389770322213e-07 4.37027792830316e-08 1.5362417895214e-08 6.92894380544704e-08
"1959" 42957 3.70757567600298e-09 2.75996656771973e-09 1.1156566523551e-08 1.67723616064632e-07 1.13874812228263e-07 4.37052804183533e-08 1.53701788406288e-08 6.92860496945642e-08
"1960" 42958 3.71074822682052e-09 2.76548564520823e-09 1.11573658731258e-08 1.67792171130461e-07 1.13851921234397e-07 4.3707781553675e-08 1.53779397860436e-08 6.9282661334658e-08
"1961" 42959 3.71392077763806e-09 2.77100472269673e-09 1.11581652227006e-08 1.6786072619629e-07 1.1382903024053e-07 4.37102826889967e-08 1.53857007314584e-08 6.92792729747519e-08
"1962" 42960 3.71709332845560e-09 2.77652380018523e-09 1.11589645722754e-08 1.6792928126212e-07 1.13806139246663e-07 4.37127838243184e-08 1.53934616768732e-08 6.92758846148457e-08
"1963" 42961 3.74929090573407e-09 2.79763882466847e-09 1.11988178035881e-08 1.68178747277322e-07 1.13811245009924e-07 4.38371925918772e-08 1.54374652732665e-08 6.95273807821346e-08
"1964" 42962 3.75204338161825e-09 2.79750593808936e-09 1.11988178035881e-08 1.69145056669968e-07 1.16419746828587e-07 4.38707238033215e-08 1.54359539345198e-08 6.95457762089138e-08
"1965" 42963 3.75479585750243e-09 2.79737305151026e-09 1.11988178035881e-08 1.70111366062613e-07 1.1902824864725e-07 4.39042550147659e-08 1.54344425957731e-08 6.95641716356931e-08
"1966" 42964 3.75754833338661e-09 2.79724016493115e-09 1.11988178035881e-08 1.71077675455259e-07 1.21636750465913e-07 4.39377862262102e-08 1.54329312570263e-08 6.95825670624723e-08
"1967" 42965 3.76030080927079e-09 2.79710727835204e-09 1.11988178035881e-08 1.72043984847904e-07 1.24245252284576e-07 4.39713174376545e-08 1.54314199182796e-08 6.96009624892515e-08
"1968" 42966 3.76305328515498e-09 2.79697439177293e-09 1.11988178035881e-08 1.7301029424055e-07 1.26853754103239e-07 4.40048486490988e-08 1.54299085795329e-08 6.96193579160307e-08
"1969" 42967 3.76580576103916e-09 2.79684150519383e-09 1.11988178035881e-08 1.73976603633195e-07 1.29462255921901e-07 4.40383798605432e-08 1.54283972407862e-08 6.963775334281e-08
"1970" 42968 3.76855823692334e-09 2.79670861861472e-09 1.11988178035881e-08 1.74942913025841e-07 1.32070757740564e-07 4.40719110719875e-08 1.54268859020395e-08 6.96561487695892e-08
"1971" 42969 3.77131071280752e-09 2.79657573203561e-09 1.11988178035881e-08 1.75909222418486e-07 1.34679259559227e-07 4.41054422834318e-08 1.54253745632928e-08 6.96745441963684e-08
"1972" 42970 3.7740631886917e-09 2.79644284545651e-09 1.11988178035881e-08 1.76875531811132e-07 1.3728776137789e-07 4.41389734948762e-08 1.54238632245461e-08 6.96929396231476e-08
"1973" 42971 3.77681566457588e-09 2.7963099588774e-09 1.11988178035881e-08 1.77841841203777e-07 1.39896263196553e-07 4.41725047063205e-08 1.54223518857993e-08 6.97113350499268e-08
"1974" 42972 3.77956814046006e-09 2.79617707229829e-09 1.11988178035881e-08 1.78808150596423e-07 1.42504765015216e-07 4.42060359177648e-08 1.54208405470526e-08 6.97297304767061e-08
"1975" 42973 3.78232061634424e-09 2.79604418571918e-09 1.11988178035881e-08 1.79774459989068e-07 1.45113266833879e-07 4.42395671292091e-08 1.54193292083059e-08 6.97481259034853e-08
"1976" 42974 3.78507309222842e-09 2.79591129914008e-09 1.11988178035881e-08 1.80740769381714e-07 1.47721768652541e-07 4.42730983406535e-08 1.54178178695592e-08 6.97665213302645e-08
"1977" 42975 3.7878255681126e-09 2.79577841256097e-09 1.11988178035881e-08 1.81707078774359e-07 1.50330270471204e-07 4.43066295520978e-08 1.54163065308125e-08 6.97849167570437e-08
"1978" 42976 3.79057804399678e-09 2.79564552598186e-09 1.11988178035881e-08 1.82673388167005e-07 1.52938772289867e-07 4.43401607635421e-08 1.54147951920658e-08 6.98033121838229e-08
"1979" 42977 3.79333051988096e-09 2.79551263940276e-09 1.11988178035881e-08 1.8363969755965e-07 1.5554727410853e-07 4.43736919749864e-08 1.54132838533191e-08 6.98217076106022e-08
"1980" 42978 3.7680514672711e-09 2.78986067533515e-09 1.11894892714889e-08 1.8459016011797e-07 1.57973479642196e-07 4.40971282395908e-08 1.54106918450491e-08 6.99517722796786e-08
"1981" 42979 3.75641878094013e-09 2.7815820591024e-09 1.11456006779087e-08 1.85234002132555e-07 1.59729790347797e-07 4.41470859308873e-08 1.5397331293266e-08 7.00407410884173e-08
"1982" 42980 3.74197360802022e-09 2.77895540693726e-09 1.11132824843542e-08 1.87005824186628e-07 1.60541534850156e-07 4.41706494497231e-08 1.5397331293266e-08 7.00062830182239e-08
"1983" 42981 3.7275284351003e-09 2.77080967728362e-09 1.10715383611046e-08 1.8679362565473e-07 1.59700054016733e-07 4.41962579875879e-08 1.53811897875426e-08 7.00020654851553e-08
"1984" 42982 3.71308326218038e-09 2.76266394762998e-09 1.10297942378551e-08 1.86581427122833e-07 1.58858573183309e-07 4.42218665254526e-08 1.53650482818192e-08 6.99978479520867e-08
"1985" 42983 3.69863808926046e-09 2.75451821797634e-09 1.09880501146055e-08 1.86369228590935e-07 1.58017092349886e-07 4.42474750633174e-08 1.53489067760958e-08 6.99936304190182e-08
"1986" 42984 3.68419291634054e-09 2.7463724883227e-09 1.0946305991356e-08 1.86157030059037e-07 1.57175611516463e-07 4.42730836011821e-08 1.53327652703724e-08 6.99894128859496e-08
"1987" 42985 3.66974774342063e-09 2.73822675866906e-09 1.09045618681064e-08 1.8594483152714e-07 1.5633413068304e-07 4.42986921390469e-08 1.5316623764649e-08 6.99851953528811e-08
"1988" 42986 3.65530257050071e-09 2.73008102901542e-09 1.08628177448569e-08 1.85732632995242e-07 1.55492649849617e-07 4.43243006769116e-08 1.53004822589256e-08 6.99809778198125e-08
"1989" 42987 3.64085739758079e-09 2.72193529936178e-09 1.08210736216073e-08 1.85520434463344e-07 1.54651169016194e-07 4.43499092147763e-08 1.52843407532022e-08 6.99767602867439e-08
"1990" 42988 3.62641222466087e-09 2.71378956970814e-09 1.07793294983578e-08 1.85308235931447e-07 1.53809688182771e-07 4.43755177526411e-08 1.52681992474788e-08 6.99725427536754e-08
"1991" 42989 3.61196705174095e-09 2.7056438400545e-09 1.07375853751082e-08 1.85096037399549e-07 1.52968207349347e-07 4.44011262905058e-08 1.52520577417554e-08 6.99683252206068e-08
"1992" 42990 3.59752187882103e-09 2.69749811040086e-09 1.06958412518587e-08 1.84883838867651e-07 1.52126726515924e-07 4.44267348283706e-08 1.5235916236032e-08 6.99641076875382e-08
"1993" 42991 3.58307670590112e-09 2.68935238074722e-09 1.06540971286091e-08 1.84671640335754e-07 1.51285245682501e-07 4.44523433662353e-08 1.52197747303086e-08 6.99598901544697e-08
"1994" 42992 3.58263796348868e-09 2.68948526732633e-09 1.0657287803972e-08 1.84360711211318e-07 1.51227065490717e-07 4.44757523897283e-08 1.52053033502121e-08 6.99942820670039e-08
"1995" 42993 3.58219922107623e-09 2.68961815390544e-09 1.06604784793348e-08 1.84049782086883e-07 1.51168885298933e-07 4.44991614132214e-08 1.51908319701155e-08 7.00286739795381e-08
"1996" 42994 3.58176047866379e-09 2.68975104048455e-09 1.06636691546977e-08 1.83738852962448e-07 1.51110705107149e-07 4.45225704367144e-08 1.5176360590019e-08 7.00630658920723e-08
"1997" 42995 3.58132173625135e-09 2.68988392706365e-09 1.06668598300605e-08 1.83427923838013e-07 1.51052524915365e-07 4.45459794602074e-08 1.51618892099224e-08 7.00974578046066e-08
"1998" 42996 3.58088299383891e-09 2.69001681364276e-09 1.06700505054234e-08 1.83116994713577e-07 1.50994344723581e-07 4.45693884837004e-08 1.51474178298259e-08 7.01318497171408e-08
"1999" 42997 3.58044425142647e-09 2.69014970022187e-09 1.06732411807863e-08 1.82806065589142e-07 1.50936164531797e-07 4.45927975071935e-08 1.51329464497294e-08 7.0166241629675e-08
"2000" 42998 3.57326300819219e-09 2.68991672026287e-09 1.06596757682919e-08 1.82794390261265e-07 1.50882967829869e-07 4.44203834239827e-08 1.5134344466397e-08 7.0166241629675e-08
"2001" 42999 3.56608176495791e-09 2.68968374030388e-09 1.06461103557975e-08 1.82782714933389e-07 1.50829771127942e-07 4.42479693407719e-08 1.51357424830647e-08 7.0166241629675e-08
"2002" 43000 3.55890052172363e-09 2.68945076034489e-09 1.06325449433031e-08 1.82771039605512e-07 1.50776574426014e-07 4.40755552575611e-08 1.51371404997324e-08 7.0166241629675e-08
"2003" 43001 3.55171927848935e-09 2.68921778038589e-09 1.06189795308087e-08 1.82759364277636e-07 1.50723377724086e-07 4.39031411743503e-08 1.51385385164001e-08 7.0166241629675e-08
"2004" 43002 3.54453803525508e-09 2.6889848004269e-09 1.06054141183143e-08 1.82747688949759e-07 1.50670181022159e-07 4.37307270911396e-08 1.51399365330678e-08 7.0166241629675e-08
"2005" 43003 3.5373567920208e-09 2.68875182046791e-09 1.05918487058199e-08 1.82736013621883e-07 1.50616984320231e-07 4.35583130079288e-08 1.51413345497355e-08 7.0166241629675e-08
"2006" 43004 3.53298803537547e-09 2.70963386499216e-09 1.05984853156735e-08 1.83035267418442e-07 1.50621967810088e-07 4.34254151735688e-08 1.51400347757517e-08 7.01313656657256e-08
"2007" 43005 3.55806438012443e-09 2.71608486231663e-09 1.05795343779537e-08 1.83049710018328e-07 1.50636808130199e-07 4.3469861577296e-08 1.51828443805427e-08 7.01110928400939e-08
"2008" 43006 3.58314072487339e-09 2.7225358596411e-09 1.05605834402339e-08 1.83064152618214e-07 1.50651648450311e-07 4.35143079810231e-08 1.52256539853336e-08 7.00908200144622e-08
"2009" 43007 3.60821706962236e-09 2.72898685696557e-09 1.05416325025141e-08 1.830785952181e-07 1.50666488770423e-07 4.35587543847503e-08 1.52684635901246e-08 7.00705471888304e-08
"2010" 43008 3.63329341437132e-09 2.73543785429004e-09 1.05226815647943e-08 1.83093037817986e-07 1.50681329090535e-07 4.36032007884774e-08 1.53112731949156e-08 7.00502743631987e-08
"2011" 43009 3.65836975912029e-09 2.74188885161451e-09 1.05037306270746e-08 1.83107480417872e-07 1.50696169410647e-07 4.36476471922046e-08 1.53540827997065e-08 7.0030001537567e-08
"2012" 43010 3.68344610386925e-09 2.74833984893898e-09 1.04847796893548e-08 1.83121923017758e-07 1.50711009730759e-07 4.36920935959317e-08 1.53968924044975e-08 7.00097287119353e-08
"2013" 43011 3.70852244861821e-09 2.75479084626345e-09 1.0465828751635e-08 1.83136365617644e-07 1.50725850050871e-07 4.37365399996589e-08 1.54397020092885e-08 6.99894558863036e-08
"2014" 43012 3.73359879336718e-09 2.76124184358792e-09 1.04468778139152e-08 1.8315080821753e-07 1.50740690370982e-07 4.3780986403386e-08 1.54825116140794e-08 6.99691830606718e-08
"2015" 43013 3.75231136900198e-09 2.76124184358792e-09 1.04414922886898e-08 1.83306896060624e-07 1.50843063883822e-07 4.3980333154926e-08 1.55001719982471e-08 6.99284687080856e-08
"2016" 43014 3.78413021457278e-09 2.76805870745049e-09 1.04406442403172e-08 1.83451988810471e-07 1.50894723568597e-07 4.41757075150726e-08 1.55396868165854e-08 6.99442380539605e-08
"2017" 43015 3.81594906014358e-09 2.77487557131306e-09 1.04397961919445e-08 1.83597081560318e-07 1.50946383253371e-07 4.43710818752193e-08 1.55792016349238e-08 6.99600073998353e-08
"2018" 43016 3.84776790571438e-09 2.78169243517563e-09 1.04389481435718e-08 1.83742174310164e-07 1.50998042938146e-07 4.45664562353659e-08 1.56187164532622e-08 6.99757767457101e-08
"2019" 43017 3.87958675128519e-09 2.78850929903820e-09 1.04381000951992e-08 1.83887267060011e-07 1.5104970262292e-07 4.47618305955126e-08 1.56582312716006e-08 6.99915460915849e-08
"2020" 43018 3.88443559356864e-09 2.78927382531362e-09 1.04659782094967e-08 1.83911819870257e-07 1.51033325285655e-07 4.48373320786424e-08 1.56543319496493e-08 6.99915460915849e-08
"2021" 43019 3.89411060238895e-09 2.81052173637597e-09 1.05473774073994e-08 1.84189739906123e-07 1.50987126060408e-07 4.47966314551986e-08 1.57081141230188e-08 7.00920740639809e-08
"2022" 43020 3.90378561120927e-09 2.83176964743832e-09 1.06287766053022e-08 1.84467659941989e-07 1.5094092683516e-07 4.47559308317549e-08 1.57618962963883e-08 7.01926020363768e-08
"2023" 43021 3.91346062002958e-09 2.85301755850067e-09 1.07101758032049e-08 1.84745579977855e-07 1.50894727609912e-07 4.47152302083111e-08 1.58156784697578e-08 7.02931300087727e-08
"2024" 43022 3.92313562884989e-09 2.87426546956302e-09 1.07915750011076e-08 1.8502350001372e-07 1.50848528384664e-07 4.46745295848674e-08 1.58694606431274e-08 7.03936579811686e-08
"2025" 43023 3.93281063767021e-09 2.89551338062537e-09 1.08729741990103e-08 1.85301420049586e-07 1.50802329159417e-07 4.46338289614236e-08 1.59232428164969e-08 7.04941859535646e-08
"2026" 43024 3.94248564649052e-09 2.91676129168772e-09 1.0954373396913e-08 1.85579340085452e-07 1.50756129934169e-07 4.45931283379799e-08 1.59770249898664e-08 7.05947139259605e-08
"2027" 43025 3.95216065531083e-09 2.93800920275007e-09 1.10357725948157e-08 1.85857260121317e-07 1.50709930708921e-07 4.45524277145361e-08 1.60308071632359e-08 7.06952418983564e-08
"2028" 43026 3.96183566413114e-09 2.95925711381242e-09 1.11171717927184e-08 1.86135180157183e-07 1.50663731483674e-07 4.45117270910923e-08 1.60845893366054e-08 7.07957698707523e-08
"2029" 43027 3.97151067295146e-09 2.98050502487477e-09 1.11985709906211e-08 1.86413100193049e-07 1.50617532258426e-07 4.44710264676486e-08 1.61383715099749e-08 7.08962978431482e-08
"2030" 43028 3.98118568177177e-09 3.00175293593713e-09 1.12799701885238e-08 1.86691020228915e-07 1.50571333033178e-07 4.44303258442048e-08 1.61921536833444e-08 7.09968258155442e-08
"2031" 43029 3.99086069059208e-09 3.02300084699948e-09 1.13613693864265e-08 1.8696894026478e-07 1.50525133807931e-07 4.43896252207611e-08 1.6245935856714e-08 7.10973537879401e-08
"2032" 43030 4.0005356994124e-09 3.04424875806183e-09 1.14427685843292e-08 1.87246860300646e-07 1.50478934582683e-07 4.43489245973173e-08 1.62997180300835e-08 7.1197881760336e-08
"2033" 43031 4.01021070823271e-09 3.06549666912418e-09 1.15241677822319e-08 1.87524780336512e-07 1.50432735357435e-07 4.43082239738736e-08 1.6353500203453e-08 7.1298409732732e-08
"2034" 43032 4.01988571705302e-09 3.08674458018653e-09 1.16055669801347e-08 1.87802700372378e-07 1.50386536132188e-07 4.42675233504298e-08 1.64072823768225e-08 7.13989377051279e-08
"2035" 43033 4.02956072587334e-09 3.10799249124888e-09 1.16869661780374e-08 1.88080620408243e-07 1.5034033690694e-07 4.4226822726986e-08 1.6461064550192e-08 7.14994656775238e-08
"2036" 43034 4.03923573469365e-09 3.12924040231123e-09 1.17683653759401e-08 1.88358540444109e-07 1.50294137681692e-07 4.41861221035423e-08 1.65148467235615e-08 7.15999936499197e-08
"2037" 43035 4.04216824269213e-09 3.14367144951101e-09 1.18298631479524e-08 1.88644190832252e-07 1.50293073592894e-07 4.41760896649024e-08 1.65599460688731e-08 7.16818843539542e-08
"2038" 43036 3.9914714485838e-09 3.08621817521677e-09 1.15747601725384e-08 1.86485381408565e-07 1.47586692312986e-07 4.25144119315933e-08 1.61201362958671e-08 7.16749675997218e-08
"2039" 43037 3.94077465447547e-09 3.02876490092252e-09 1.13196571971245e-08 1.84326571984878e-07 1.44880311033077e-07 4.08527341982841e-08 1.56803265228611e-08 7.16680508454893e-08
"2040" 43038 3.89007786036714e-09 2.97131162662828e-09 1.10645542217106e-08 1.82167762561191e-07 1.42173929753169e-07 3.9191056464975e-08 1.52405167498551e-08 7.16611340912569e-08
"2041" 43039 3.8428123273745e-09 2.89384092746509e-09 1.07479534742844e-08 1.81474921128679e-07 1.39465671692881e-07 3.76146007686768e-08 1.47594994137912e-08 7.1596046625336e-08
"2042" 43040 3.78918302526769e-09 2.8248162380952e-09 1.0427013406665e-08 1.79751021854883e-07 1.36857149322995e-07 3.59529230353677e-08 1.42711972663371e-08 7.1570015902178e-08
"2043" 43041 3.73555372316089e-09 2.75579154872531e-09 1.01060733390457e-08 1.78027122581088e-07 1.34248626953109e-07 3.42912453020586e-08 1.3782895118883e-08 7.154398517902e-08
"2044" 43042 3.68192442105408e-09 2.68676685935542e-09 9.78513327142636e-09 1.76303223307292e-07 1.31640104583223e-07 3.26295675687494e-08 1.32945929714289e-08 7.15179544558619e-08
"2045" 43043 3.62829511894728e-09 2.61774216998553e-09 9.46419320380703e-09 1.74579324033497e-07 1.29031582213337e-07 3.09678898354403e-08 1.28062908239748e-08 7.14919237327039e-08
"2046" 43044 3.57466581684047e-09 2.54871748061564e-09 9.1432531361877e-09 1.72855424759702e-07 1.26423059843451e-07 2.93062121021311e-08 1.23179886765207e-08 7.14658930095459e-08
"2047" 43045 3.52103651473367e-09 2.47969279124575e-09 8.82231306856837e-09 1.71131525485906e-07 1.23814537473564e-07 2.7644534368822e-08 1.18296865290666e-08 7.14398622863879e-08
"2048" 43046 3.46740721262686e-09 2.41066810187586e-09 8.50137300094904e-09 1.69407626212111e-07 1.21206015103678e-07 2.59828566355129e-08 1.13413843816125e-08 7.14138315632298e-08
"2049" 43047 3.41377791052006e-09 2.34164341250597e-09 8.1804329333297e-09 1.67683726938315e-07 1.18597492733792e-07 2.43211789022037e-08 1.08530822341584e-08 7.13878008400718e-08
"2050" 43048 3.41377791052006e-09 2.34872604952675e-09 8.1804329333297e-09 1.68372004313826e-07 1.18696400799574e-07 2.42624481567004e-08 1.08496892050219e-08 7.14700509993048e-08
"2051" 43049 3.41377791052006e-09 2.35580868654754e-09 8.1804329333297e-09 1.69060281689338e-07 1.18795308865355e-07 2.42037174111971e-08 1.08462961758854e-08 7.15523011585379e-08
"2052" 43050 3.41377791052006e-09 2.36289132356832e-09 8.1804329333297e-09 1.69748559064849e-07 1.18894216931137e-07 2.41449866656938e-08 1.08429031467488e-08 7.16345513177709e-08
"2053" 43051 3.41377791052006e-09 2.3699739605891e-09 8.1804329333297e-09 1.7043683644036e-07 1.18993124996918e-07 2.40862559201905e-08 1.08395101176123e-08 7.17168014770039e-08
"2054" 43052 3.41377791052006e-09 2.37705659760989e-09 8.1804329333297e-09 1.71125113815871e-07 1.190920330627e-07 2.40275251746872e-08 1.08361170884758e-08 7.1799051636237e-08
"2055" 43053 3.41377791052006e-09 2.38413923463067e-09 8.1804329333297e-09 1.71813391191382e-07 1.19190941128481e-07 2.3968794429184e-08 1.08327240593393e-08 7.188130179547e-08
"2056" 43054 3.41377791052006e-09 2.39122187165145e-09 8.1804329333297e-09 1.72501668566893e-07 1.19289849194263e-07 2.39100636836807e-08 1.08293310302028e-08 7.1963551954703e-08
"2057" 43055 3.41377791052006e-09 2.39830450867224e-09 8.1804329333297e-09 1.73189945942404e-07 1.19388757260044e-07 2.38513329381774e-08 1.08259380010663e-08 7.2045802113936e-08
"2058" 43056 3.4074141414059e-09 2.39830450867224e-09 8.13958387651660e-09 1.73497336177367e-07 1.19453646814806e-07 2.38369588470898e-08 1.07611832591182e-08 7.20163830308719e-08
"2059" 43057 3.40105037229174e-09 2.39830450867224e-09 8.09873481970349e-09 1.73804726412331e-07 1.19518536369568e-07 2.38225847560022e-08 1.06964285171701e-08 7.19869639478077e-08
"2060" 43058 3.39468660317758e-09 2.39830450867224e-09 8.05788576289038e-09 1.74112116647294e-07 1.19583425924329e-07 2.38082106649147e-08 1.06316737752221e-08 7.19575448647435e-08
"2061" 43059 3.38832283406342e-09 2.39830450867224e-09 8.01703670607727e-09 1.74419506882257e-07 1.19648315479091e-07 2.37938365738271e-08 1.0566919033274e-08 7.19281257816793e-08
"2062" 43060 3.38195906494926e-09 2.39830450867224e-09 7.97618764926416e-09 1.74726897117221e-07 1.19713205033853e-07 2.37794624827395e-08 1.05021642913259e-08 7.18987066986151e-08
"2063" 43061 3.3755952958351e-09 2.39830450867224e-09 7.93533859245106e-09 1.75034287352184e-07 1.19778094588615e-07 2.37650883916519e-08 1.04374095493779e-08 7.18692876155509e-08
"2064" 43062 3.36923152672094e-09 2.39830450867224e-09 7.89448953563795e-09 1.75341677587147e-07 1.19842984143376e-07 2.37507143005644e-08 1.03726548074298e-08 7.18398685324867e-08
"2065" 43063 3.3665804047672e-09 2.42314035737048e-09 7.97812387853064e-09 1.76184664306374e-07 1.20512949595321e-07 2.38480432741868e-08 1.03214420232376e-08 7.17523301936912e-08
"2066" 43064 3.36392928281347e-09 2.44797620606872e-09 8.06175822142334e-09 1.770276510256e-07 1.21182915047265e-07 2.39453722478092e-08 1.02702292390454e-08 7.16647918548957e-08
"2067" 43065 3.36127816085973e-09 2.47281205476696e-09 8.14539256431604e-09 1.77870637744827e-07 1.2185288049921e-07 2.40427012214317e-08 1.02190164548532e-08 7.15772535161003e-08
"2068" 43066 3.358627038906e-09 2.4976479034652e-09 8.22902690720874e-09 1.78713624464053e-07 1.22522845951154e-07 2.41400301950541e-08 1.0167803670661e-08 7.14897151773048e-08
"2069" 43067 3.35597591695226e-09 2.52248375216344e-09 8.31266125010143e-09 1.79556611183279e-07 1.23192811403099e-07 2.42373591686765e-08 1.01165908864689e-08 7.14021768385093e-08
"2070" 43068 3.35332479499853e-09 2.54731960086168e-09 8.39629559299413e-09 1.80399597902506e-07 1.23862776855043e-07 2.4334688142299e-08 1.00653781022767e-08 7.13146384997138e-08
"2071" 43069 3.3506736730448e-09 2.57215544955992e-09 8.47992993588683e-09 1.81242584621732e-07 1.24532742306987e-07 2.44320171159214e-08 1.00141653180845e-08 7.12271001609183e-08
"2072" 43070 3.34802255109106e-09 2.59699129825816e-09 8.56356427877952e-09 1.82085571340959e-07 1.25202707758932e-07 2.45293460895439e-08 9.9629525338923e-09 7.11395618221228e-08
"2073" 43071 3.35754020354367e-09 2.631370756364e-09 8.70400945897003e-09 1.83188905261133e-07 1.25617418955232e-07 2.46470018186446e-08 9.98299336156696e-09 7.11612063108896e-08
"2074" 43072 3.36837408323361e-09 2.66551723451085e-09 8.83009155782543e-09 1.83848257524158e-07 1.26133029188466e-07 2.46311785806925e-08 9.8664059939171e-09 7.11810244885102e-08
"2075" 43073 3.37920796292355e-09 2.69966371265769e-09 8.95617365668083e-09 1.84507609787184e-07 1.26648639421701e-07 2.46153553427404e-08 9.74981862626724e-09 7.12008426661308e-08
"2076" 43074 3.39004184261349e-09 2.73381019080454e-09 9.08225575553622e-09 1.8516696205021e-07 1.27164249654935e-07 2.45995321047882e-08 9.63323125861737e-09 7.12206608437515e-08
"2077" 43075 3.40087572230343e-09 2.76795666895138e-09 9.20833785439162e-09 1.85826314313236e-07 1.27679859888169e-07 2.45837088668361e-08 9.51664389096751e-09 7.12404790213721e-08
"2078" 43076 3.41170960199337e-09 2.80210314709823e-09 9.33441995324702e-09 1.86485666576262e-07 1.28195470121404e-07 2.45678856288839e-08 9.40005652331765e-09 7.12602971989928e-08
"2079" 43077 3.4148821528109e-09 2.80210314709823e-09 9.32599321052052e-09 1.86004390416592e-07 1.28014932384698e-07 2.45074217491104e-08 9.26004283855415e-09 7.15087644615741e-08
"2080" 43078 3.41805470362844e-09 2.80210314709823e-09 9.31756646779403e-09 1.85523114256922e-07 1.27834394647993e-07 2.44469578693369e-08 9.12002915379065e-09 7.17572317241554e-08
"2081" 43079 3.42122725444598e-09 2.80210314709823e-09 9.30913972506754e-09 1.85041838097252e-07 1.27653856911287e-07 2.43864939895634e-08 8.98001546902715e-09 7.20056989867367e-08
"2082" 43080 3.42439980526352e-09 2.80210314709823e-09 9.30071298234104e-09 1.84560561937582e-07 1.27473319174582e-07 2.43260301097899e-08 8.84000178426365e-09 7.2254166249318e-08
"2083" 43081 3.42757235608106e-09 2.80210314709823e-09 9.29228623961455e-09 1.84079285777912e-07 1.27292781437876e-07 2.42655662300164e-08 8.69998809950015e-09 7.25026335118994e-08
"2084" 43082 3.43074490689859e-09 2.80210314709823e-09 9.28385949688806e-09 1.83598009618242e-07 1.27112243701171e-07 2.42051023502429e-08 8.55997441473665e-09 7.27511007744807e-08
"2085" 43083 3.43391745771613e-09 2.80210314709823e-09 9.27543275416156e-09 1.83116733458572e-07 1.26931705964465e-07 2.41446384704694e-08 8.41996072997316e-09 7.2999568037062e-08
"2086" 43084 3.43709000853367e-09 2.80210314709823e-09 9.26700601143507e-09 1.82635457298902e-07 1.26751168227759e-07 2.40841745906959e-08 8.27994704520966e-09 7.32480352996433e-08
"2087" 43085 3.44026255935121e-09 2.80210314709823e-09 9.25857926870858e-09 1.82154181139232e-07 1.26570630491054e-07 2.40237107109224e-08 8.13993336044616e-09 7.34965025622246e-08
"2088" 43086 3.44343511016875e-09 2.80210314709823e-09 9.25015252598208e-09 1.81672904979562e-07 1.26390092754348e-07 2.39632468311489e-08 7.99991967568266e-09 7.3744969824806e-08
"2089" 43087 3.44660766098628e-09 2.80210314709823e-09 9.24172578325559e-09 1.81191628819893e-07 1.26209555017643e-07 2.39027829513754e-08 7.85990599091916e-09 7.39934370873873e-08
