"time" "channel1" "channel2" "channel3" "channel4" "channel5" "channel6" "channel7" "channel8"
"1624" 27871 2.13412691373488e-10 4.95892508929277e-10 1.43312202497013e-09 1.73943780006596e-09 2.18036646716485e-09 1.2270742888162e-09 2.17266956345771e-10 1.96678223733041e-10
"1625" 27872 2.13412691373488e-10 4.93492458418592e-10 1.43197155035771e-09 1.73089255716956e-09 2.18577446188716e-09 1.23518933807285e-09 2.16214012041132e-10 1.96678223733041e-10
"1626" 27873 2.13412691373488e-10 4.91092407907906e-10 1.43082107574529e-09 1.72234731427316e-09 2.19118245660947e-09 1.2433043873295e-09 2.15161067736494e-10 1.96678223733041e-10
"1627" 27874 2.13412691373488e-10 4.88692357397221e-10 1.42967060113287e-09 1.71380207137676e-09 2.19659045133178e-09 1.25141943658614e-09 2.14108123431855e-10 1.96678223733041e-10
"1628" 27875 2.13412691373488e-10 4.86292306886536e-10 1.42852012652045e-09 1.70525682848036e-09 2.20199844605409e-09 1.25953448584279e-09 2.13055179127217e-10 1.96678223733041e-10
"1629" 27876 2.13412691373488e-10 4.83892256375851e-10 1.42736965190803e-09 1.69671158558396e-09 2.2074064407764e-09 1.26764953509943e-09 2.12002234822578e-10 1.96678223733041e-10
"1630" 27877 2.13412691373488e-10 4.81492205865166e-10 1.42621917729561e-09 1.68816634268756e-09 2.21281443549872e-09 1.27576458435608e-09 2.1094929051794e-10 1.96678223733041e-10
"1631" 27878 2.13412691373488e-10 4.79092155354481e-10 1.42506870268319e-09 1.67962109979116e-09 2.21822243022103e-09 1.28387963361272e-09 2.09896346213301e-10 1.96678223733041e-10
"1632" 27879 2.13412691373488e-10 4.76692104843796e-10 1.42391822807077e-09 1.67107585689477e-09 2.22363042494334e-09 1.29199468286937e-09 2.08843401908663e-10 1.96678223733041e-10
"1633" 27880 2.13412691373488e-10 4.74292054333111e-10 1.42276775345834e-09 1.66253061399837e-09 2.22903841966565e-09 1.30010973212601e-09 2.07790457604024e-10 1.96678223733041e-10
"1634" 27881 2.13412691373488e-10 4.71892003822426e-10 1.42161727884592e-09 1.65398537110197e-09 2.23444641438796e-09 1.30822478138266e-09 2.06737513299386e-10 1.96678223733041e-10
"1635" 27882 2.13412691373488e-10 4.69491953311741e-10 1.4204668042335e-09 1.64544012820557e-09 2.23985440911027e-09 1.31633983063931e-09 2.05684568994747e-10 1.96678223733041e-10
"1636" 27883 2.13412691373488e-10 4.67091902801056e-10 1.41931632962108e-09 1.63689488530917e-09 2.24526240383259e-09 1.32445487989595e-09 2.04631624690109e-10 1.96678223733041e-10
"1637" 27884 2.13412691373488e-10 4.64691852290371e-10 1.41816585500866e-09 1.62834964241277e-09 2.2506703985549e-09 1.3325699291526e-09 2.03578680385471e-10 1.96678223733041e-10
"1638" 27885 2.13412691373488e-10 4.64691852290371e-10 1.41783999426105e-09 1.62902712296095e-09 2.26090934531535e-09 1.3389352180582e-09 2.03301584791755e-10 1.96678223733041e-10
"1639" 27886 2.13412691373488e-10 4.64899400934709e-10 1.41783999426105e-09 1.62731470700266e-09 2.27514844608152e-09 1.34503050820115e-09 2.03024489198039e-10 1.96678223733041e-10
"1640" 27887 2.13225066720742e-10 4.64306932742152e-10 1.41668951964863e-09 1.62560229104438e-09 2.27556890963176e-09 1.34503050820115e-09 2.02969051127815e-10 1.96886415730299e-10
"1641" 27888 2.13037442067997e-10 4.63714464549595e-10 1.41553904503621e-09 1.62388987508609e-09 2.27598937318201e-09 1.34503050820115e-09 2.0291361305759e-10 1.97094607727557e-10
"1642" 27889 2.12849817415252e-10 4.63121996357038e-10 1.41438857042379e-09 1.62217745912781e-09 2.27640983673225e-09 1.34503050820115e-09 2.02858174987365e-10 1.97302799724815e-10
"1643" 27890 2.12662192762507e-10 4.62529528164482e-10 1.41323809581137e-09 1.62046504316952e-09 2.27683030028249e-09 1.34503050820115e-09 2.02802736917141e-10 1.97510991722074e-10
"1644" 27891 2.12474568109761e-10 4.61937059971925e-10 1.41208762119895e-09 1.61875262721124e-09 2.27725076383273e-09 1.34503050820115e-09 2.02747298846916e-10 1.97719183719332e-10
"1645" 27892 2.12286943457016e-10 4.61344591779368e-10 1.41093714658653e-09 1.61704021125296e-09 2.27767122738297e-09 1.34503050820115e-09 2.02691860776692e-10 1.9792737571659e-10
"1646" 27893 2.12099318804271e-10 4.60752123586811e-10 1.40978667197411e-09 1.61532779529467e-09 2.27809169093321e-09 1.34503050820115e-09 2.02636422706467e-10 1.98135567713848e-10
"1647" 27894 2.11911694151525e-10 4.60159655394254e-10 1.40863619736169e-09 1.61361537933639e-09 2.27851215448346e-09 1.34503050820115e-09 2.02580984636243e-10 1.98343759711106e-10
"1648" 27895 2.1172406949878e-10 4.59567187201697e-10 1.40748572274926e-09 1.6119029633781e-09 2.2789326180337e-09 1.34503050820115e-09 2.02525546566018e-10 1.98551951708365e-10
"1649" 27896 2.11536444846035e-10 4.58974719009141e-10 1.40633524813684e-09 1.61019054741982e-09 2.27935308158394e-09 1.34503050820115e-09 2.02470108495794e-10 1.98760143705623e-10
"1650" 27897 2.1134882019329e-10 4.58382250816584e-10 1.40518477352442e-09 1.60847813146153e-09 2.27977354513418e-09 1.34503050820115e-09 2.02414670425569e-10 1.98968335702881e-10
"1651" 27898 2.11161195540544e-10 4.57789782624027e-10 1.404034298912e-09 1.60676571550325e-09 2.28019400868442e-09 1.34503050820115e-09 2.02359232355345e-10 1.99176527700139e-10
"1652" 27899 2.10973570887799e-10 4.5719731443147e-10 1.40288382429958e-09 1.60505329954497e-09 2.28061447223467e-09 1.34503050820115e-09 2.0230379428512e-10 1.99384719697398e-10
"1653" 27900 2.10785946235054e-10 4.56604846238913e-10 1.40173334968716e-09 1.60334088358668e-09 2.28103493578491e-09 1.34503050820115e-09 2.02248356214896e-10 1.99592911694656e-10
"1654" 27901 2.10598321582309e-10 4.56012378046357e-10 1.40058287507474e-09 1.6016284676284e-09 2.28145539933515e-09 1.34503050820115e-09 2.02192918144671e-10 1.99801103691914e-10
"1655" 27902 2.10410696929563e-10 4.554199098538e-10 1.39943240046232e-09 1.59991605167011e-09 2.28187586288539e-09 1.34503050820115e-09 2.02137480074447e-10 2.00009295689172e-10
"1656" 27903 2.10223072276818e-10 4.54827441661243e-10 1.3982819258499e-09 1.59820363571183e-09 2.28229632643563e-09 1.34503050820115e-09 2.02082042004222e-10 2.0021748768643e-10
"1657" 27904 2.10035447624073e-10 4.54234973468686e-10 1.39713145123748e-09 1.59649121975354e-09 2.28271678998588e-09 1.34503050820115e-09 2.02026603933998e-10 2.00425679683689e-10
"1658" 27905 2.09847822971327e-10 4.53642505276129e-10 1.39598097662505e-09 1.59477880379526e-09 2.28313725353612e-09 1.34503050820115e-09 2.01971165863773e-10 2.00633871680947e-10
"1659" 27906 2.09660198318582e-10 4.52946262761403e-10 1.39851459019427e-09 1.61697752673473e-09 2.31096012281733e-09 1.34875878325776e-09 2.01694070270058e-10 2.00924432800896e-10
"1660" 27907 2.08539188272452e-10 4.52644999041715e-10 1.3942186285006e-09 1.62310386239648e-09 2.31149802071802e-09 1.34851353113997e-09 2.00918221559135e-10 2.01713747038051e-10
"1661" 27908 2.08850316736914e-10 4.51948756526989e-10 1.38836663548054e-09 1.62598409357264e-09 2.30908254469895e-09 1.34962953899247e-09 2.00086934777988e-10 2.03544021261498e-10
"1662" 27909 2.09161445201375e-10 4.51252514012263e-10 1.38251464246047e-09 1.62886432474879e-09 2.30666706867988e-09 1.35074554684496e-09 1.9925564799684e-10 2.05374295484945e-10
"1663" 27910 2.09472573665837e-10 4.50556271497537e-10 1.3766626494404e-09 1.63174455592494e-09 2.30425159266081e-09 1.35186155469746e-09 1.98424361215693e-10 2.07204569708392e-10
"1664" 27911 2.09783702130299e-10 4.49860028982812e-10 1.37081065642033e-09 1.6346247871011e-09 2.30183611664174e-09 1.35297756254995e-09 1.97593074434546e-10 2.09034843931839e-10
"1665" 27912 2.1009483059476e-10 4.49163786468086e-10 1.36495866340026e-09 1.63750501827725e-09 2.29942064062267e-09 1.35409357040245e-09 1.96761787653399e-10 2.10865118155286e-10
"1666" 27913 2.10405959059222e-10 4.4846754395336e-10 1.35910667038019e-09 1.64038524945341e-09 2.2970051646036e-09 1.35520957825495e-09 1.95930500872251e-10 2.12695392378732e-10
"1667" 27914 2.10717087523684e-10 4.47771301438634e-10 1.35325467736012e-09 1.64326548062956e-09 2.29458968858453e-09 1.35632558610744e-09 1.95099214091104e-10 2.14525666602179e-10
"1668" 27915 2.11028215988145e-10 4.47075058923908e-10 1.34740268434005e-09 1.64614571180572e-09 2.29217421256546e-09 1.35744159395994e-09 1.94267927309957e-10 2.16355940825626e-10
"1669" 27916 2.11339344452607e-10 4.46378816409182e-10 1.34155069131998e-09 1.64902594298187e-09 2.28975873654639e-09 1.35855760181244e-09 1.9343664052881e-10 2.18186215049073e-10
"1670" 27917 2.11650472917069e-10 4.45682573894456e-10 1.33569869829991e-09 1.65190617415802e-09 2.28734326052732e-09 1.35967360966493e-09 1.92605353747662e-10 2.2001648927252e-10
"1671" 27918 2.11961601381531e-10 4.4498633137973e-10 1.32984670527984e-09 1.65478640533418e-09 2.28492778450825e-09 1.36078961751743e-09 1.91774066966515e-10 2.21846763495967e-10
"1672" 27919 2.12272729845992e-10 4.44290088865004e-10 1.32399471225977e-09 1.65766663651033e-09 2.28251230848918e-09 1.36190562536993e-09 1.90942780185368e-10 2.23677037719413e-10
"1673" 27920 2.1314673226869e-10 4.43396356952759e-10 1.3183156116093e-09 1.65766663651033e-09 2.28125091783845e-09 1.36439114207434e-09 1.89889835880729e-10 2.24466351956569e-10
"1674" 27921 2.12899724645257e-10 4.39198783370765e-10 1.30191653071625e-09 1.6519726140619e-09 2.28144664175587e-09 1.36687665877874e-09 1.89889835880729e-10 2.25338035316415e-10
"1675" 27922 2.12652717021824e-10 4.35001209788771e-10 1.2855174498232e-09 1.64627859161348e-09 2.28164236567328e-09 1.36936217548315e-09 1.89889835880729e-10 2.26209718676262e-10
"1676" 27923 2.12405709398391e-10 4.30803636206777e-10 1.26911836893014e-09 1.64058456916505e-09 2.28183808959069e-09 1.37184769218756e-09 1.89889835880729e-10 2.27081402036108e-10
"1677" 27924 2.12158701774958e-10 4.26606062624783e-10 1.25271928803709e-09 1.63489054671662e-09 2.2820338135081e-09 1.37433320889197e-09 1.89889835880729e-10 2.27953085395954e-10
"1678" 27925 2.11911694151525e-10 4.22408489042789e-10 1.23632020714404e-09 1.62919652426819e-09 2.28222953742552e-09 1.37681872559638e-09 1.89889835880729e-10 2.28824768755801e-10
"1679" 27926 2.11664686528093e-10 4.18210915460795e-10 1.21992112625099e-09 1.62350250181976e-09 2.28242526134293e-09 1.37930424230079e-09 1.89889835880729e-10 2.29696452115647e-10
"1680" 27927 2.12351064298045e-10 4.1731718354855e-10 1.21924948076418e-09 1.62517748860235e-09 2.28088985720783e-09 1.37930424230079e-09 1.89668178357238e-10 2.30776327472751e-10
"1681" 27928 2.13037442067997e-10 4.16423451636305e-10 1.21857783527738e-09 1.62685247538494e-09 2.27935445307272e-09 1.37930424230079e-09 1.89446520833747e-10 2.31856202829856e-10
"1682" 27929 2.13160945879714e-10 4.16631000280643e-10 1.22202925911464e-09 1.62482003374041e-09 2.27781904893762e-09 1.37669197509667e-09 1.89446520833747e-10 2.32146763949805e-10
"1683" 27930 2.1328444969143e-10 4.16838548924982e-10 1.2254806829519e-09 1.62278759209589e-09 2.27628364480252e-09 1.37407970789256e-09 1.89446520833747e-10 2.32437325069753e-10
"1684" 27931 2.13407953503146e-10 4.1704609756932e-10 1.22893210678916e-09 1.62075515045137e-09 2.27474824066741e-09 1.37146744068844e-09 1.89446520833747e-10 2.32727886189702e-10
"1685" 27932 2.13531457314863e-10 4.17253646213658e-10 1.23238353062643e-09 1.61872270880684e-09 2.27321283653231e-09 1.36885517348432e-09 1.89446520833747e-10 2.33018447309651e-10
"1686" 27933 2.13654961126579e-10 4.17461194857996e-10 1.23583495446369e-09 1.61669026716232e-09 2.27167743239721e-09 1.3662429062802e-09 1.89446520833747e-10 2.333090084296e-10
"1687" 27934 2.13778464938296e-10 4.17668743502334e-10 1.23928637830095e-09 1.6146578255178e-09 2.2701420282621e-09 1.36363063907609e-09 1.89446520833747e-10 2.33599569549549e-10
"1688" 27935 2.13901968750012e-10 4.17876292146673e-10 1.24273780213822e-09 1.61262538387327e-09 2.268606624127e-09 1.36101837187197e-09 1.89446520833747e-10 2.33890130669497e-10
"1689" 27936 2.14025472561729e-10 4.18083840791011e-10 1.24618922597548e-09 1.61059294222875e-09 2.26707121999190e-09 1.35840610466785e-09 1.89446520833747e-10 2.34180691789446e-10
"1690" 27937 2.14148976373445e-10 4.18291389435349e-10 1.24964064981274e-09 1.60856050058422e-09 2.26553581585679e-09 1.35579383746373e-09 1.89446520833747e-10 2.34471252909395e-10
"1691" 27938 2.14272480185161e-10 4.18498938079687e-10 1.25309207365001e-09 1.6065280589397e-09 2.26400041172169e-09 1.35318157025962e-09 1.89446520833747e-10 2.34761814029344e-10
"1692" 27939 2.14395983996878e-10 4.18706486724025e-10 1.25654349748727e-09 1.60449561729518e-09 2.26246500758658e-09 1.3505693030555e-09 1.89446520833747e-10 2.35052375149292e-10
"1693" 27940 2.14519487808594e-10 4.18914035368364e-10 1.25999492132453e-09 1.60246317565065e-09 2.26092960345148e-09 1.34795703585138e-09 1.89446520833747e-10 2.35342936269241e-10
"1694" 27941 2.14642991620311e-10 4.19121584012702e-10 1.26344634516179e-09 1.60043073400613e-09 2.25939419931638e-09 1.34534476864726e-09 1.89446520833747e-10 2.3563349738919e-10
"1695" 27942 2.14766495432027e-10 4.1932913265704e-10 1.26689776899906e-09 1.59839829236161e-09 2.25785879518127e-09 1.34273250144315e-09 1.89446520833747e-10 2.35924058509139e-10
"1696" 27943 2.15077623896489e-10 4.20232923816104e-10 1.27102083832313e-09 1.59594195595127e-09 2.25943334409986e-09 1.34273250144315e-09 1.89391082763522e-10 2.36006427631829e-10
"1697" 27944 2.15388752360951e-10 4.20035434418585e-10 1.27199842056595e-09 1.59462442403061e-09 2.25997124200055e-09 1.34534476864726e-09 1.89113987169807e-10 2.3608879675452e-10
"1698" 27945 2.15512256172667e-10 4.19837945021066e-10 1.2688529334847e-09 1.58917556891703e-09 2.25536502959524e-09 1.34671427749918e-09 1.88836891576091e-10 2.34011415163001e-10
"1699" 27946 2.15635759984384e-10 4.19640455623547e-10 1.26570744640345e-09 1.58372671380345e-09 2.25075881718993e-09 1.34808378635109e-09 1.88559795982375e-10 2.31934033571483e-10
"1700" 27947 2.157592637961e-10 4.19442966226028e-10 1.2625619593222e-09 1.57827785868987e-09 2.24615260478462e-09 1.349453295203e-09 1.88282700388659e-10 2.29856651979964e-10
"1701" 27948 2.15882767607816e-10 4.19245476828509e-10 1.25941647224095e-09 1.57282900357629e-09 2.24154639237931e-09 1.35082280405492e-09 1.88005604794944e-10 2.27779270388446e-10
"1702" 27949 2.16006271419533e-10 4.1904798743099e-10 1.2562709851597e-09 1.56738014846271e-09 2.236940179974e-09 1.35219231290683e-09 1.87728509201228e-10 2.25701888796927e-10
"1703" 27950 2.16129775231249e-10 4.18850498033472e-10 1.25312549807846e-09 1.56193129334913e-09 2.23233396756869e-09 1.35356182175874e-09 1.87451413607512e-10 2.23624507205409e-10
"1704" 27951 2.16253279042966e-10 4.18653008635953e-10 1.24998001099721e-09 1.55648243823555e-09 2.22772775516338e-09 1.35493133061065e-09 1.87174318013796e-10 2.2154712561389e-10
"1705" 27952 2.16376782854682e-10 4.18455519238434e-10 1.24683452391596e-09 1.55103358312197e-09 2.22312154275807e-09 1.35630083946257e-09 1.86897222420081e-10 2.19469744022372e-10
"1706" 27953 2.16500286666399e-10 4.18258029840915e-10 1.24368903683471e-09 1.54558472800838e-09 2.21851533035275e-09 1.35767034831448e-09 1.86620126826365e-10 2.17392362430853e-10
"1707" 27954 2.16623790478115e-10 4.18060540443396e-10 1.24054354975346e-09 1.5401358728948e-09 2.21390911794744e-09 1.35903985716639e-09 1.86343031232649e-10 2.15314980839335e-10
"1708" 27955 2.16747294289831e-10 4.17863051045877e-10 1.23739806267221e-09 1.53468701778122e-09 2.20930290554213e-09 1.3604093660183e-09 1.86065935638933e-10 2.13237599247816e-10
"1709" 27956 2.16870798101548e-10 4.17665561648358e-10 1.23425257559096e-09 1.52923816266764e-09 2.20469669313682e-09 1.36177887487022e-09 1.85788840045218e-10 2.11160217656298e-10
"1710" 27957 2.16994301913264e-10 4.17468072250839e-10 1.23110708850971e-09 1.52378930755406e-09 2.20009048073151e-09 1.36314838372213e-09 1.85511744451502e-10 2.0908283606478e-10
"1711" 27958 2.17117805724981e-10 4.1727058285332e-10 1.22796160142846e-09 1.51834045244048e-09 2.1954842683262e-09 1.36451789257404e-09 1.85234648857786e-10 2.07005454473261e-10
"1712" 27959 2.17241309536697e-10 4.17073093455801e-10 1.22481611434721e-09 1.5128915973269e-09 2.19087805592089e-09 1.36588740142596e-09 1.8495755326407e-10 2.04928072881743e-10
"1713" 27960 2.17364813348414e-10 4.16875604058282e-10 1.22167062726597e-09 1.50744274221332e-09 2.18627184351558e-09 1.36725691027787e-09 1.84680457670355e-10 2.02850691290224e-10
"1714" 27961 2.1748831716013e-10 4.16678114660763e-10 1.21852514018472e-09 1.50199388709974e-09 2.18166563111027e-09 1.36862641912978e-09 1.84403362076639e-10 2.00773309698706e-10
"1715" 27962 2.17611820971846e-10 4.16480625263244e-10 1.21537965310347e-09 1.49654503198616e-09 2.17705941870496e-09 1.36999592798169e-09 1.84126266482923e-10 1.98695928107187e-10
"1716" 27963 2.17735324783563e-10 4.16283135865725e-10 1.21223416602222e-09 1.49109617687257e-09 2.17245320629965e-09 1.37136543683361e-09 1.83849170889207e-10 1.96618546515669e-10
"1717" 27964 2.17735324783563e-10 4.16283135865725e-10 1.21223416602222e-09 1.48283353048672e-09 2.15764719191737e-09 1.37087493259803e-09 1.83849170889207e-10 1.95746863155822e-10
"1718" 27965 2.17735324783563e-10 4.16283135865725e-10 1.21223416602222e-09 1.47457088410086e-09 2.14284117753509e-09 1.37038442836244e-09 1.83849170889207e-10 1.94875179795976e-10
"1719" 27966 2.18046453248025e-10 4.16480625263244e-10 1.21413598208782e-09 1.47795828684174e-09 2.13575132861181e-09 1.37000417686332e-09 1.84902115193846e-10 1.94957548918667e-10
"1720" 27967 2.18357581712486e-10 4.16678114660763e-10 1.21603779815342e-09 1.48134568958261e-09 2.12866147968853e-09 1.3696239253642e-09 1.85955059498484e-10 1.95039918041357e-10
"1721" 27968 2.18668710176948e-10 4.16875604058282e-10 1.21793961421902e-09 1.48473309232348e-09 2.12157163076525e-09 1.36924367386507e-09 1.87008003803123e-10 1.95122287164048e-10
"1722" 27969 2.1897983864141e-10 4.17073093455801e-10 1.21984143028462e-09 1.48812049506436e-09 2.11448178184197e-09 1.36886342236595e-09 1.88060948107761e-10 1.95204656286738e-10
"1723" 27970 2.19290967105871e-10 4.1727058285332e-10 1.22174324635022e-09 1.49150789780523e-09 2.1073919329187e-09 1.36848317086682e-09 1.891138924124e-10 1.95287025409429e-10
"1724" 27971 2.19602095570333e-10 4.17468072250839e-10 1.22364506241582e-09 1.4948953005461e-09 2.10030208399542e-09 1.3681029193677e-09 1.90166836717038e-10 1.95369394532119e-10
"1725" 27972 2.19913224034795e-10 4.17665561648358e-10 1.22554687848142e-09 1.49828270328698e-09 2.09321223507214e-09 1.36772266786857e-09 1.91219781021677e-10 1.9545176365481e-10
"1726" 27973 2.20224352499257e-10 4.17863051045877e-10 1.22744869454702e-09 1.50167010602785e-09 2.08612238614886e-09 1.36734241636945e-09 1.92272725326315e-10 1.955341327775e-10
"1727" 27974 2.20535480963718e-10 4.18060540443396e-10 1.22935051061262e-09 1.50505750876872e-09 2.07903253722558e-09 1.36696216487032e-09 1.93325669630954e-10 1.95616501900191e-10
"1728" 27975 2.2084660942818e-10 4.18258029840915e-10 1.23125232667822e-09 1.50844491150959e-09 2.0719426883023e-09 1.3665819133712e-09 1.94378613935592e-10 1.95698871022882e-10
"1729" 27976 2.21157737892642e-10 4.18455519238434e-10 1.23315414274382e-09 1.51183231425047e-09 2.06485283937902e-09 1.36620166187207e-09 1.95431558240231e-10 1.95781240145572e-10
"1730" 27977 2.21468866357103e-10 4.18653008635953e-10 1.23505595880941e-09 1.51521971699134e-09 2.05776299045574e-09 1.36582141037295e-09 1.96484502544869e-10 1.95863609268263e-10
"1731" 27978 2.21656491009849e-10 4.18954272355641e-10 1.23091296549375e-09 1.51507841873607e-09 2.04894201347995e-09 1.37069043992694e-09 1.96484502544869e-10 1.95655417271004e-10
"1732" 27979 2.20970113239896e-10 4.18361804163084e-10 1.23223633247577e-09 1.51525714616704e-09 2.04721088542743e-09 1.37183119442431e-09 1.96207406951153e-10 1.95447225273746e-10
"1733" 27980 2.20283735469944e-10 4.17769335970527e-10 1.23355969945779e-09 1.515435873598e-09 2.04547975737491e-09 1.37297194892168e-09 1.95930311357438e-10 1.95239033276488e-10
"1734" 27981 2.19597357699992e-10 4.1717686777797e-10 1.23488306643981e-09 1.51561460102897e-09 2.0437486293224e-09 1.37411270341906e-09 1.95653215763722e-10 1.9503084127923e-10
"1735" 27982 2.1891097993004e-10 4.16584399585413e-10 1.23620643342184e-09 1.51579332845994e-09 2.04201750126988e-09 1.37525345791643e-09 1.95376120170006e-10 1.94822649281972e-10
"1736" 27983 2.18224602160087e-10 4.15991931392856e-10 1.23752980040386e-09 1.51597205589091e-09 2.04028637321736e-09 1.37639421241381e-09 1.9509902457629e-10 1.94614457284713e-10
"1737" 27984 2.17538224390135e-10 4.153994632003e-10 1.23885316738588e-09 1.51615078332187e-09 2.03855524516485e-09 1.37753496691118e-09 1.94821928982575e-10 1.94406265287455e-10
"1738" 27985 2.17538224390135e-10 4.153994632003e-10 1.24132700898032e-09 1.51519070626316e-09 2.03835952124744e-09 1.38315625058179e-09 1.94600271459083e-10 1.94406265287455e-10
"1739" 27986 2.19409733047247e-10 4.15991931392856e-10 1.23528219959906e-09 1.51433449828401e-09 2.07489606222206e-09 1.41877172961315e-09 1.9393529888861e-10 1.94406265287455e-10
"1740" 27987 2.21281241704358e-10 4.16584399585413e-10 1.22923739021779e-09 1.51347829030487e-09 2.11143260319668e-09 1.45438720864451e-09 1.93270326318136e-10 1.94406265287455e-10
"1741" 27988 2.2315275036147e-10 4.1717686777797e-10 1.22319258083653e-09 1.51262208232573e-09 2.14796914417131e-09 1.49000268767586e-09 1.92605353747662e-10 1.94406265287455e-10
"1742" 27989 2.25024259018581e-10 4.17769335970527e-10 1.21714777145527e-09 1.51176587434659e-09 2.18450568514593e-09 1.52561816670722e-09 1.91940381177189e-10 1.94406265287455e-10
"1743" 27990 2.26895767675693e-10 4.18361804163084e-10 1.21110296207401e-09 1.51090966636744e-09 2.22104222612056e-09 1.56123364573858e-09 1.91275408606715e-10 1.94406265287455e-10
"1744" 27991 2.28767276332804e-10 4.18954272355641e-10 1.20505815269274e-09 1.5100534583883e-09 2.25757876709518e-09 1.59684912476994e-09 1.90610436036241e-10 1.94406265287455e-10
"1745" 27992 2.30638784989916e-10 4.19546740548197e-10 1.19901334331148e-09 1.50919725040916e-09 2.2941153080698e-09 1.63246460380129e-09 1.89945463465767e-10 1.94406265287455e-10
"1746" 27993 2.32510293647027e-10 4.20139208740754e-10 1.19296853393022e-09 1.50834104243002e-09 2.33065184904443e-09 1.66808008283265e-09 1.89280490895294e-10 1.94406265287455e-10
"1747" 27994 2.34381802304139e-10 4.20731676933311e-10 1.18692372454896e-09 1.50748483445088e-09 2.36718839001905e-09 1.70369556186401e-09 1.8861551832482e-10 1.94406265287455e-10
"1748" 27995 2.3625331096125e-10 4.21324145125868e-10 1.18087891516769e-09 1.50662862647173e-09 2.40372493099367e-09 1.73931104089537e-09 1.87950545754346e-10 1.94406265287455e-10
"1749" 27996 2.38124819618362e-10 4.21916613318425e-10 1.17483410578643e-09 1.50577241849259e-09 2.4402614719683e-09 1.77492651992673e-09 1.87285573183873e-10 1.94406265287455e-10
"1750" 27997 2.39996328275473e-10 4.22509081510982e-10 1.16878929640517e-09 1.50491621051345e-09 2.47679801294292e-09 1.81054199895808e-09 1.86620600613399e-10 1.94406265287455e-10
"1751" 27998 2.41867836932585e-10 4.23101549703538e-10 1.16274448702391e-09 1.50406000253431e-09 2.51333455391755e-09 1.84615747798944e-09 1.85955628042925e-10 1.94406265287455e-10
"1752" 27999 2.43739345589696e-10 4.23694017896095e-10 1.15669967764264e-09 1.50320379455516e-09 2.54987109489217e-09 1.8817729570208e-09 1.85290655472452e-10 1.94406265287455e-10
"1753" 28000 2.43862849401413e-10 4.23694017896095e-10 1.14818102666694e-09 1.50234758657602e-09 2.54860970424144e-09 1.86754611985796e-09 1.84625682901978e-10 1.94323896164765e-10
"1754" 28001 2.43862849401413e-10 4.23392754176407e-10 1.14050691354764e-09 1.50394771500722e-09 2.54860970424144e-09 1.8525670285785e-09 1.83683614737788e-10 1.94033335044816e-10
"1755" 28002 2.43739345589696e-10 4.22291473619824e-10 1.14050691354764e-09 1.49785039007365e-09 2.54376862313524e-09 1.85181477446188e-09 1.83683614737788e-10 1.93742773924867e-10
"1756" 28003 2.43926970242441e-10 4.22291473619824e-10 1.14102559065644e-09 1.50030672648399e-09 2.54664370748803e-09 1.8483152537598e-09 1.83406519144073e-10 1.93742773924867e-10
"1757" 28004 2.43926970242441e-10 4.22291473619824e-10 1.14071965390043e-09 1.50258433546336e-09 2.54180262638183e-09 1.84383472458657e-09 1.83184861620581e-10 1.93742773924867e-10
"1758" 28005 2.43926970242441e-10 4.22291473619824e-10 1.14041371714441e-09 1.50486194444273e-09 2.53696154527562e-09 1.83935419541333e-09 1.8296320409709e-10 1.93742773924867e-10
"1759" 28006 2.43926970242441e-10 4.22291473619824e-10 1.1401077803884e-09 1.5071395534221e-09 2.53212046416941e-09 1.83487366624009e-09 1.82741546573599e-10 1.93742773924867e-10
"1760" 28007 2.43926970242441e-10 4.22291473619824e-10 1.13980184363239e-09 1.50941716240147e-09 2.52727938306321e-09 1.83039313706685e-09 1.82519889050108e-10 1.93742773924867e-10
"1761" 28008 2.43926970242441e-10 4.22291473619824e-10 1.13949590687637e-09 1.51169477138084e-09 2.522438301957e-09 1.82591260789362e-09 1.82298231526617e-10 1.93742773924867e-10
"1762" 28009 2.43926970242441e-10 4.22291473619824e-10 1.13918997012036e-09 1.51397238036022e-09 2.5175972208508e-09 1.82143207872038e-09 1.82076574003125e-10 1.93742773924867e-10
"1763" 28010 2.43926970242441e-10 4.22291473619824e-10 1.13888403336434e-09 1.51624998933959e-09 2.51275613974459e-09 1.81695154954714e-09 1.81854916479634e-10 1.93742773924867e-10
"1764" 28011 2.43926970242441e-10 4.22291473619824e-10 1.13857809660833e-09 1.51852759831896e-09 2.50791505863838e-09 1.81247102037391e-09 1.81633258956143e-10 1.93742773924867e-10
"1765" 28012 2.43926970242441e-10 4.22291473619824e-10 1.13827215985231e-09 1.52080520729833e-09 2.50307397753218e-09 1.80799049120067e-09 1.81411601432652e-10 1.93742773924867e-10
"1766" 28013 2.43926970242441e-10 4.22291473619824e-10 1.1379662230963e-09 1.5230828162777e-09 2.49823289642597e-09 1.80350996202743e-09 1.8118994390916e-10 1.93742773924867e-10
"1767" 28014 2.43926970242441e-10 4.22291473619824e-10 1.13766028634029e-09 1.52536042525707e-09 2.49339181531977e-09 1.79902943285419e-09 1.80968286385669e-10 1.93742773924867e-10
"1768" 28015 2.43926970242441e-10 4.22291473619824e-10 1.13735434958427e-09 1.52763803423644e-09 2.48855073421356e-09 1.79454890368096e-09 1.80746628862178e-10 1.93742773924867e-10
"1769" 28016 2.43926970242441e-10 4.22291473619824e-10 1.13704841282826e-09 1.52991564321582e-09 2.48370965310735e-09 1.79006837450772e-09 1.80524971338687e-10 1.93742773924867e-10
"1770" 28017 2.43926970242441e-10 4.22291473619824e-10 1.13674247607224e-09 1.53219325219519e-09 2.47886857200115e-09 1.78558784533448e-09 1.80303313815195e-10 1.93742773924867e-10
"1771" 28018 2.43926970242441e-10 4.22291473619824e-10 1.13643653931623e-09 1.53447086117456e-09 2.47402749089494e-09 1.78110731616125e-09 1.80081656291704e-10 1.93742773924867e-10
"1772" 28019 2.43926970242441e-10 4.22291473619824e-10 1.13613060256022e-09 1.53674847015393e-09 2.46918640978874e-09 1.77662678698801e-09 1.79859998768213e-10 1.93742773924867e-10
"1773" 28020 2.43926970242441e-10 4.22291473619824e-10 1.1358246658042e-09 1.5390260791333e-09 2.46434532868253e-09 1.77214625781477e-09 1.79638341244722e-10 1.93742773924867e-10
"1774" 28021 2.43926970242441e-10 4.22291473619824e-10 1.13551872904819e-09 1.54130368811267e-09 2.45950424757632e-09 1.76766572864153e-09 1.7941668372123e-10 1.93742773924867e-10
"1775" 28022 2.43739345589696e-10 4.22499022264162e-10 1.13636326690459e-09 1.55270856990455e-09 2.45969997149374e-09 1.76766572864153e-09 1.79139588127515e-10 1.93452212804918e-10
"1776" 28023 2.43739345589696e-10 4.23600302820745e-10 1.13352371657936e-09 1.56357726940353e-09 2.44703541964615e-09 1.75084312203783e-09 1.78086643822876e-10 1.92372337447814e-10
"1777" 28024 2.43739345589696e-10 4.23299039101057e-10 1.13122276735452e-09 1.56710597039968e-09 2.4471528539966e-09 1.75035261780225e-09 1.78142081893101e-10 1.9145720033609e-10
"1778" 28025 2.43739345589696e-10 4.22997775381369e-10 1.12892181812968e-09 1.57063467139582e-09 2.44727028834705e-09 1.74986211356667e-09 1.78197519963325e-10 1.90542063224367e-10
"1779" 28026 2.43739345589696e-10 4.22696511661681e-10 1.12662086890483e-09 1.57416337239197e-09 2.44738772269749e-09 1.74937160933109e-09 1.7825295803355e-10 1.89626926112644e-10
"1780" 28027 2.43739345589696e-10 4.22395247941993e-10 1.12431991967999e-09 1.57769207338811e-09 2.44750515704794e-09 1.74888110509551e-09 1.78308396103774e-10 1.8871178900092e-10
"1781" 28028 2.43739345589696e-10 4.22093984222305e-10 1.12201897045515e-09 1.58122077438426e-09 2.44762259139839e-09 1.74839060085992e-09 1.78363834173999e-10 1.87796651889197e-10
"1782" 28029 2.43739345589696e-10 4.21792720502617e-10 1.11971802123031e-09 1.5847494753804e-09 2.44774002574884e-09 1.74790009662434e-09 1.78419272244223e-10 1.86881514777473e-10
"1783" 28030 2.43739345589696e-10 4.21491456782929e-10 1.11741707200547e-09 1.58827817637654e-09 2.44785746009928e-09 1.74740959238876e-09 1.78474710314448e-10 1.8596637766575e-10
"1784" 28031 2.43739345589696e-10 4.21190193063241e-10 1.11511612278062e-09 1.59180687737269e-09 2.44797489444973e-09 1.74691908815318e-09 1.78530148384672e-10 1.85051240554026e-10
"1785" 28032 2.43739345589696e-10 4.20888929343553e-10 1.11281517355578e-09 1.59533557836883e-09 2.44809232880018e-09 1.7464285839176e-09 1.78585586454897e-10 1.84136103442303e-10
"1786" 28033 2.43739345589696e-10 4.20587665623865e-10 1.11051422433094e-09 1.59886427936498e-09 2.44820976315063e-09 1.74593807968202e-09 1.78641024525121e-10 1.8322096633058e-10
"1787" 28034 2.43739345589696e-10 4.20286401904177e-10 1.1082132751061e-09 1.60239298036112e-09 2.44832719750108e-09 1.74544757544644e-09 1.78696462595346e-10 1.82305829218856e-10
"1788" 28035 2.43739345589696e-10 4.20878870096734e-10 1.1174234955602e-09 1.60424669457468e-09 2.44790673395083e-09 1.74420481709423e-09 1.79416873236044e-10 1.81598884104391e-10
"1789" 28036 2.43739345589696e-10 4.21471338289291e-10 1.12663371601431e-09 1.60610040878824e-09 2.44748627040059e-09 1.74296205874203e-09 1.80137283876742e-10 1.80891938989926e-10
"1790" 28037 2.42618335543566e-10 4.22063806481847e-10 1.13831777806285e-09 1.60795412300179e-09 2.42921799991328e-09 1.74108554789128e-09 1.80857694517441e-10 1.80891938989926e-10
"1791" 28038 2.41497325497435e-10 4.22656274674404e-10 1.1500018401114e-09 1.60980783721535e-09 2.41094972942597e-09 1.73920903704054e-09 1.81578105158139e-10 1.80891938989926e-10
"1792" 28039 2.40376315451305e-10 4.23248742866961e-10 1.16168590215995e-09 1.6116615514289e-09 2.39268145893866e-09 1.73733252618979e-09 1.82298515798837e-10 1.80891938989926e-10
"1793" 28040 2.39255305405174e-10 4.23841211059518e-10 1.17336996420849e-09 1.61351526564246e-09 2.37441318845134e-09 1.73545601533905e-09 1.83018926439535e-10 1.80891938989926e-10
"1794" 28041 2.38134295359044e-10 4.24433679252075e-10 1.18505402625704e-09 1.61536897985602e-09 2.35614491796403e-09 1.7335795044883e-09 1.83739337080233e-10 1.80891938989926e-10
"1795" 28042 2.37013285312914e-10 4.25026147444632e-10 1.19673808830559e-09 1.61722269406957e-09 2.33787664747672e-09 1.73170299363756e-09 1.84459747720932e-10 1.80891938989926e-10
"1796" 28043 2.34954152003057e-10 4.25026147444632e-10 1.20473806217249e-09 1.61679879930376e-09 2.3379157922602e-09 1.70017954339868e-09 1.84348871580483e-10 1.80809569867235e-10
"1797" 28044 2.33833141956927e-10 4.25026147444632e-10 1.20473806217249e-09 1.61893511002786e-09 2.33772006834279e-09 1.7039408139818e-09 1.84348871580483e-10 1.78896926521098e-10
"1798" 28045 2.32712131910796e-10 4.25026147444632e-10 1.20473806217249e-09 1.62107142075196e-09 2.33752434442538e-09 1.70770208456492e-09 1.84348871580483e-10 1.7698428317496e-10
"1799" 28046 2.31591121864666e-10 4.25026147444632e-10 1.20473806217249e-09 1.62320773147606e-09 2.33732862050796e-09 1.71146335514803e-09 1.84348871580483e-10 1.75071639828823e-10
"1800" 28047 2.30470111818535e-10 4.25026147444632e-10 1.20473806217249e-09 1.62534404220016e-09 2.33713289659055e-09 1.71522462573115e-09 1.84348871580483e-10 1.73158996482686e-10
"1801" 28048 2.29349101772405e-10 4.25026147444632e-10 1.20473806217249e-09 1.62748035292426e-09 2.33693717267314e-09 1.71898589631427e-09 1.84348871580483e-10 1.71246353136548e-10
"1802" 28049 2.28228091726274e-10 4.25026147444632e-10 1.20473806217249e-09 1.62961666364836e-09 2.33674144875573e-09 1.72274716689738e-09 1.84348871580483e-10 1.69333709790411e-10
"1803" 28050 2.27107081680144e-10 4.25026147444632e-10 1.20473806217249e-09 1.63175297437246e-09 2.33654572483831e-09 1.7265084374805e-09 1.84348871580483e-10 1.67421066444273e-10
"1804" 28051 2.25986071634014e-10 4.25026147444632e-10 1.20473806217249e-09 1.63388928509656e-09 2.3363500009209e-09 1.73026970806362e-09 1.84348871580483e-10 1.65508423098136e-10
"1805" 28052 2.24865061587883e-10 4.25026147444632e-10 1.20473806217249e-09 1.63602559582066e-09 2.33615427700349e-09 1.73403097864673e-09 1.84348871580483e-10 1.63595779751999e-10
"1806" 28053 2.23744051541753e-10 4.25026147444632e-10 1.20473806217249e-09 1.63816190654475e-09 2.33595855308607e-09 1.73779224922985e-09 1.84348871580483e-10 1.61683136405861e-10
"1807" 28054 2.22623041495622e-10 4.25026147444632e-10 1.20473806217249e-09 1.64029821726885e-09 2.33576282916866e-09 1.74155351981297e-09 1.84348871580483e-10 1.59770493059724e-10
"1808" 28055 2.21502031449492e-10 4.25026147444632e-10 1.20473806217249e-09 1.64243452799295e-09 2.33556710525125e-09 1.74531479039608e-09 1.84348871580483e-10 1.57857849713587e-10
"1809" 28056 2.20381021403362e-10 4.25026147444632e-10 1.20473806217249e-09 1.64457083871705e-09 2.33537138133384e-09 1.7490760609792e-09 1.84348871580483e-10 1.55945206367449e-10
"1810" 28057 2.19260011357231e-10 4.25026147444632e-10 1.20473806217249e-09 1.64670714944115e-09 2.33517565741642e-09 1.75283733156232e-09 1.84348871580483e-10 1.54032563021312e-10
"1811" 28058 2.19013003733798e-10 4.2522363684215e-10 1.20629409349889e-09 1.64656585118588e-09 2.33360110849784e-09 1.7509690695932e-09 1.84127214056991e-10 1.52202288797865e-10
"1812" 28059 2.18825379081053e-10 4.285274785119e-10 1.20857511873214e-09 1.67047699008363e-09 2.34787935404749e-09 1.7595663742038e-09 1.83295927275844e-10 1.52119919675174e-10
"1813" 28060 2.18825379081053e-10 4.30325001583209e-10 1.20857511873214e-09 1.67387281127202e-09 2.35928251524435e-09 1.76914468728556e-09 1.83517584799335e-10 1.52037550552484e-10
"1814" 28061 2.18825379081053e-10 4.32122524654518e-10 1.20857511873214e-09 1.6772686324604e-09 2.37068567644122e-09 1.77872300036733e-09 1.83739242322827e-10 1.51955181429793e-10
"1815" 28062 2.18825379081053e-10 4.33920047725827e-10 1.20857511873214e-09 1.68066445364879e-09 2.38208883763808e-09 1.78830131344909e-09 1.83960899846318e-10 1.51872812307103e-10
"1816" 28063 2.18825379081053e-10 4.35717570797136e-10 1.20857511873214e-09 1.68406027483717e-09 2.39349199883494e-09 1.79787962653085e-09 1.84182557369809e-10 1.51790443184412e-10
"1817" 28064 2.18825379081053e-10 4.37515093868445e-10 1.20857511873214e-09 1.68745609602556e-09 2.4048951600318e-09 1.80745793961262e-09 1.844042148933e-10 1.51708074061722e-10
"1818" 28065 2.18825379081053e-10 4.39312616939754e-10 1.20857511873214e-09 1.69085191721394e-09 2.41629832122866e-09 1.81703625269438e-09 1.84625872416792e-10 1.51625704939031e-10
"1819" 28066 2.18825379081053e-10 4.41110140011063e-10 1.20857511873214e-09 1.69424773840232e-09 2.42770148242553e-09 1.82661456577614e-09 1.84847529940283e-10 1.51543335816341e-10
"1820" 28067 2.18825379081053e-10 4.42907663082372e-10 1.20857511873214e-09 1.69764355959071e-09 2.43910464362239e-09 1.83619287885791e-09 1.85069187463774e-10 1.5146096669365e-10
"1821" 28068 2.18825379081053e-10 4.44705186153681e-10 1.20857511873214e-09 1.70103938077909e-09 2.45050780481925e-09 1.84577119193967e-09 1.85290844987265e-10 1.51378597570959e-10
"1822" 28069 2.18825379081053e-10 4.4650270922499e-10 1.20857511873214e-09 1.70443520196748e-09 2.46191096601611e-09 1.85534950502144e-09 1.85512502510756e-10 1.51296228448269e-10
"1823" 28070 2.18825379081053e-10 4.48300232296298e-10 1.20857511873214e-09 1.70783102315586e-09 2.47331412721297e-09 1.8649278181032e-09 1.85734160034248e-10 1.51213859325578e-10
"1824" 28071 2.18825379081053e-10 4.50097755367607e-10 1.20857511873214e-09 1.71122684434425e-09 2.48471728840984e-09 1.87450613118496e-09 1.85955817557739e-10 1.51131490202888e-10
"1825" 28072 2.18825379081053e-10 4.51895278438916e-10 1.20857511873214e-09 1.71462266553263e-09 2.4961204496067e-09 1.88408444426673e-09 1.8617747508123e-10 1.51049121080197e-10
"1826" 28073 2.18825379081053e-10 4.53692801510225e-10 1.20857511873214e-09 1.71801848672102e-09 2.50752361080356e-09 1.89366275734849e-09 1.86399132604721e-10 1.50966751957507e-10
"1827" 28074 2.18825379081053e-10 4.55490324581534e-10 1.20857511873214e-09 1.7214143079094e-09 2.51892677200042e-09 1.90324107043025e-09 1.86620790128213e-10 1.50884382834816e-10
"1828" 28075 2.18825379081053e-10 4.57287847652843e-10 1.20857511873214e-09 1.72481012909779e-09 2.53032993319728e-09 1.91281938351202e-09 1.86842447651704e-10 1.50802013712126e-10
"1829" 28076 2.18825379081053e-10 4.59085370724152e-10 1.20857511873214e-09 1.72820595028617e-09 2.54173309439414e-09 1.92239769659378e-09 1.87064105175195e-10 1.50719644589435e-10
"1830" 28077 2.18825379081053e-10 4.60882893795461e-10 1.20857511873214e-09 1.73160177147455e-09 2.55313625559101e-09 1.93197600967555e-09 1.87285762698686e-10 1.50637275466745e-10
"1831" 28078 2.18825379081053e-10 4.6268041686677e-10 1.20857511873214e-09 1.73499759266294e-09 2.56453941678787e-09 1.94155432275731e-09 1.87507420222178e-10 1.50554906344054e-10
"1832" 28079 2.18637754428308e-10 4.66680501051246e-10 1.21269818805621e-09 1.75922875724693e-09 2.5783580540038e-09 1.95113263583907e-09 1.87507420222178e-10 1.50763098341312e-10
"1833" 28080 2.19571139821693e-10 4.72976861424237e-10 1.21914213059671e-09 1.76350137869513e-09 2.58104754350725e-09 1.947633115137e-09 1.87562858292402e-10 1.51678235453036e-10
"1834" 28081 2.19571139821693e-10 4.76863112039723e-10 1.22497419962519e-09 1.75875901485791e-09 2.58272939770821e-09 1.94153782499406e-09 1.87562858292402e-10 1.51678235453036e-10
"1835" 28082 2.19571139821693e-10 4.8074936265521e-10 1.23080626865367e-09 1.75401665102068e-09 2.58441125190918e-09 1.93544253485112e-09 1.87562858292402e-10 1.51678235453036e-10
"1836" 28083 2.19571139821693e-10 4.84635613270697e-10 1.23663833768214e-09 1.74927428718346e-09 2.58609310611015e-09 1.92934724470818e-09 1.87562858292402e-10 1.51678235453036e-10
"1837" 28084 2.19571139821693e-10 4.88521863886184e-10 1.24247040671062e-09 1.74453192334624e-09 2.58777496031112e-09 1.92325195456524e-09 1.87562858292402e-10 1.51678235453036e-10
"1838" 28085 2.19571139821693e-10 4.9240811450167e-10 1.2483024757391e-09 1.73978955950902e-09 2.58945681451208e-09 1.9171566644223e-09 1.87562858292402e-10 1.51678235453036e-10
"1839" 28086 2.19571139821693e-10 4.96294365117157e-10 1.25413454476757e-09 1.7350471956718e-09 2.59113866871305e-09 1.91106137427936e-09 1.87562858292402e-10 1.51678235453036e-10
"1840" 28087 2.19571139821693e-10 5.00180615732644e-10 1.25996661379605e-09 1.73030483183457e-09 2.59282052291402e-09 1.90496608413641e-09 1.87562858292402e-10 1.51678235453036e-10
"1841" 28088 2.19571139821693e-10 5.04066866348131e-10 1.26579868282453e-09 1.72556246799735e-09 2.59450237711499e-09 1.89887079399347e-09 1.87562858292402e-10 1.51678235453036e-10
"1842" 28089 2.19571139821693e-10 5.07953116963617e-10 1.271630751853e-09 1.72082010416013e-09 2.59618423131595e-09 1.89277550385053e-09 1.87562858292402e-10 1.51678235453036e-10
"1843" 28090 2.19571139821693e-10 5.11839367579104e-10 1.27746282088148e-09 1.71607774032291e-09 2.59786608551692e-09 1.88668021370759e-09 1.87562858292402e-10 1.51678235453036e-10
"1844" 28091 2.19571139821693e-10 5.15725618194591e-10 1.28329488990996e-09 1.71133537648569e-09 2.59954793971789e-09 1.88058492356465e-09 1.87562858292402e-10 1.51678235453036e-10
"1845" 28092 2.19571139821693e-10 5.19611868810078e-10 1.28912695893843e-09 1.70659301264846e-09 2.60122979391886e-09 1.87448963342171e-09 1.87562858292402e-10 1.51678235453036e-10
"1846" 28093 2.20381021403362e-10 5.20411885646973e-10 1.28943289569445e-09 1.70374179220049e-09 2.60176769181955e-09 1.87636614427246e-09 1.86509913987764e-10 1.51678235453036e-10
"1847" 28094 2.2119090298503e-10 5.21211902483868e-10 1.28973883245046e-09 1.70089057175252e-09 2.60230558972024e-09 1.8782426551232e-09 1.85456969683125e-10 1.51678235453036e-10
"1848" 28095 2.22000784566699e-10 5.22011919320763e-10 1.29004476920648e-09 1.69803935130455e-09 2.60284348762092e-09 1.88011916597395e-09 1.84404025378487e-10 1.51678235453036e-10
"1849" 28096 2.22810666148368e-10 5.22811936157658e-10 1.29035070596249e-09 1.69518813085658e-09 2.60338138552161e-09 1.88199567682469e-09 1.83351081073848e-10 1.51678235453036e-10
"1850" 28097 2.23620547730036e-10 5.23611952994553e-10 1.2906566427185e-09 1.69233691040861e-09 2.6039192834223e-09 1.88387218767544e-09 1.8229813676921e-10 1.51678235453036e-10
"1851" 28098 2.24430429311705e-10 5.24411969831448e-10 1.29096257947452e-09 1.68948568996064e-09 2.60445718132299e-09 1.88574869852618e-09 1.81245192464571e-10 1.51678235453036e-10
"1852" 28099 2.25240310893374e-10 5.25211986668343e-10 1.29126851623053e-09 1.68663446951267e-09 2.60499507922368e-09 1.88762520937693e-09 1.80192248159933e-10 1.51678235453036e-10
"1853" 28100 2.26050192475043e-10 5.26012003505238e-10 1.29157445298655e-09 1.6837832490647e-09 2.60553297712437e-09 1.88950172022768e-09 1.79139303855294e-10 1.51678235453036e-10
"1854" 28101 2.26237817127788e-10 5.27903241651897e-10 1.28589535233608e-09 1.69564103635058e-09 2.62313578629248e-09 1.8902539743443e-09 1.79139303855294e-10 1.52385180567501e-10
"1855" 28102 2.26425441780533e-10 5.29794479798556e-10 1.28021625168561e-09 1.70749882363646e-09 2.64073859546059e-09 1.89100622846092e-09 1.79139303855294e-10 1.53092125681966e-10
"1856" 28103 2.26613066433278e-10 5.31685717945215e-10 1.27453715103514e-09 1.71935661092234e-09 2.6583414046287e-09 1.89175848257755e-09 1.79139303855294e-10 1.53799070796431e-10
"1857" 28104 2.26800691086024e-10 5.33576956091873e-10 1.26885805038467e-09 1.73121439820822e-09 2.67594421379681e-09 1.89251073669417e-09 1.79139303855294e-10 1.54506015910897e-10
"1858" 28105 2.26988315738769e-10 5.35468194238532e-10 1.2631789497342e-09 1.7430721854941e-09 2.69354702296491e-09 1.89326299081079e-09 1.79139303855294e-10 1.55212961025362e-10
"1859" 28106 2.27175940391514e-10 5.37359432385191e-10 1.25749984908373e-09 1.75492997277998e-09 2.71114983213302e-09 1.89401524492742e-09 1.79139303855294e-10 1.55919906139827e-10
"1860" 28107 2.27363565044259e-10 5.3925067053185e-10 1.25182074843326e-09 1.76678776006586e-09 2.72875264130113e-09 1.89476749904404e-09 1.79139303855294e-10 1.56626851254292e-10
"1861" 28108 2.27551189697005e-10 5.41141908678509e-10 1.24614164778279e-09 1.77864554735174e-09 2.74635545046924e-09 1.89551975316066e-09 1.79139303855294e-10 1.57333796368757e-10
"1862" 28109 2.2773881434975e-10 5.43033146825167e-10 1.24046254713232e-09 1.79050333463762e-09 2.76395825963735e-09 1.89627200727729e-09 1.79139303855294e-10 1.58040741483223e-10
"1863" 28110 2.27926439002495e-10 5.44924384971826e-10 1.23478344648185e-09 1.8023611219235e-09 2.78156106880546e-09 1.89702426139391e-09 1.79139303855294e-10 1.58747686597688e-10
"1864" 28111 2.28114063655241e-10 5.46815623118485e-10 1.22910434583138e-09 1.81421890920938e-09 2.79916387797356e-09 1.89777651551053e-09 1.79139303855294e-10 1.59454631712153e-10
"1865" 28112 2.28301688307986e-10 5.48706861265144e-10 1.22342524518091e-09 1.82607669649526e-09 2.81676668714167e-09 1.89852876962716e-09 1.79139303855294e-10 1.60161576826618e-10
"1866" 28113 2.28489312960731e-10 5.50598099411803e-10 1.21774614453044e-09 1.83793448378114e-09 2.83436949630978e-09 1.89928102374378e-09 1.79139303855294e-10 1.60868521941083e-10
"1867" 28114 2.28676937613476e-10 5.52489337558462e-10 1.21206704387997e-09 1.84979227106702e-09 2.85197230547789e-09 1.9000332778604e-09 1.79139303855294e-10 1.61575467055549e-10
"1868" 28115 2.28676937613476e-10 5.52489337558462e-10 1.21022499978915e-09 1.86047382468752e-09 2.86903721674531e-09 1.9000332778604e-09 1.7908386578507e-10 1.62200043047323e-10
"1869" 28116 2.28676937613476e-10 5.50089287047777e-10 1.19794898822017e-09 1.86015379900128e-09 2.87218631458248e-09 1.90115753459452e-09 1.79305523308561e-10 1.61909481927374e-10
"1870" 28117 2.2624729286847e-10 5.41694139883788e-10 1.18868541934602e-09 1.85983377331504e-09 2.87376086350107e-09 1.90164803883011e-09 1.79305523308561e-10 1.60994344815651e-10
"1871" 28118 2.23817648123464e-10 5.332989927198e-10 1.17942185047188e-09 1.8595137476288e-09 2.87533541241965e-09 1.90213854306569e-09 1.79305523308561e-10 1.60079207703928e-10
"1872" 28119 2.21388003378458e-10 5.24903845555812e-10 1.17015828159773e-09 1.85919372194256e-09 2.87690996133824e-09 1.90262904730127e-09 1.79305523308561e-10 1.59164070592204e-10
"1873" 28120 2.18958358633452e-10 5.16508698391824e-10 1.16089471272358e-09 1.85887369625632e-09 2.87848451025682e-09 1.90311955153685e-09 1.79305523308561e-10 1.58248933480481e-10
"1874" 28121 2.16528713888446e-10 5.08113551227836e-10 1.15163114384943e-09 1.85855367057009e-09 2.88005905917541e-09 1.90361005577243e-09 1.79305523308561e-10 1.57333796368757e-10
"1875" 28122 2.1409906914344e-10 4.99718404063848e-10 1.14236757497529e-09 1.85823364488385e-09 2.881633608094e-09 1.90410056000801e-09 1.79305523308561e-10 1.56418659257034e-10
"1876" 28123 2.11669424398434e-10 4.9132325689986e-10 1.13310400610114e-09 1.85791361919761e-09 2.88320815701258e-09 1.90459106424359e-09 1.79305523308561e-10 1.5550352214531e-10
"1877" 28124 2.09239779653428e-10 4.82928109735872e-10 1.12384043722699e-09 1.85759359351137e-09 2.88478270593117e-09 1.90508156847917e-09 1.79305523308561e-10 1.54588385033587e-10
"1878" 28125 2.06810134908422e-10 4.74532962571883e-10 1.11457686835285e-09 1.85727356782513e-09 2.88635725484975e-09 1.90557207271476e-09 1.79305523308561e-10 1.53673247921864e-10
"1879" 28126 2.04380490163416e-10 4.66137815407895e-10 1.1053132994787e-09 1.85695354213889e-09 2.88793180376834e-09 1.90606257695034e-09 1.79305523308561e-10 1.5275811081014e-10
"1880" 28127 2.0195084541841e-10 4.57742668243907e-10 1.09604973060455e-09 1.85663351645265e-09 2.88950635268693e-09 1.90655308118592e-09 1.79305523308561e-10 1.51842973698417e-10
"1881" 28128 1.99521200673403e-10 4.49347521079919e-10 1.08678616173041e-09 1.85631349076641e-09 2.89108090160551e-09 1.9070435854215e-09 1.79305523308561e-10 1.50927836586693e-10
"1882" 28129 1.97091555928397e-10 4.40952373915931e-10 1.07752259285626e-09 1.85599346508017e-09 2.8926554505241e-09 1.90753408965708e-09 1.79305523308561e-10 1.5001269947497e-10
"1883" 28130 1.94661911183391e-10 4.32557226751943e-10 1.06825902398211e-09 1.85567343939393e-09 2.89422999944268e-09 1.90802459389266e-09 1.79305523308561e-10 1.49097562363247e-10
"1884" 28131 1.92232266438385e-10 4.24162079587955e-10 1.05899545510797e-09 1.85535341370769e-09 2.89580454836127e-09 1.90851509812824e-09 1.79305523308561e-10 1.48182425251523e-10
"1885" 28132 1.89802621693379e-10 4.15766932423967e-10 1.04973188623382e-09 1.85503338802145e-09 2.89737909727986e-09 1.90900560236382e-09 1.79305523308561e-10 1.472672881398e-10
"1886" 28133 1.87372976948373e-10 4.07371785259979e-10 1.04046831735967e-09 1.85471336233521e-09 2.89895364619844e-09 1.90949610659941e-09 1.79305523308561e-10 1.46352151028076e-10
"1887" 28134 1.84943332203367e-10 3.9897663809599e-10 1.03120474848553e-09 1.85439333664897e-09 2.90052819511703e-09 1.90998661083499e-09 1.79305523308561e-10 1.45437013916353e-10
"1888" 28135 1.82513687458361e-10 3.90581490932002e-10 1.02194117961138e-09 1.85407331096273e-09 2.90210274403561e-09 1.91047711507057e-09 1.79305523308561e-10 1.44521876804629e-10
"1889" 28136 1.80084042713355e-10 3.82186343768014e-10 1.01267761073723e-09 1.85375328527649e-09 2.9036772929542e-09 1.91096761930615e-09 1.79305523308561e-10 1.43606739692906e-10
"1890" 28137 1.78528400391046e-10 3.76679940985099e-10 1.01858937573208e-09 1.85375328527649e-09 2.91092372101141e-09 1.91058736780703e-09 1.79582618902277e-10 1.43771477938287e-10
"1891" 28138 1.78528400391046e-10 3.77376183499825e-10 1.01858937573208e-09 1.83754801819102e-09 2.91230254601258e-09 1.91319138612952e-09 1.79582618902277e-10 1.4468661505001e-10
"1892" 28139 1.74785383076823e-10 3.7638873651223e-10 1.01605576216286e-09 1.83637178452564e-09 2.9158721074e-09 1.91742666318496e-09 1.73486705355344e-10 1.43897300812855e-10
"1893" 28140 1.710423657626e-10 3.75401289524635e-10 1.01352214859364e-09 1.83519555086026e-09 2.91944166878741e-09 1.92166194024041e-09 1.67390791808411e-10 1.43107986575699e-10
"1894" 28141 1.67299348448377e-10 3.74413842537041e-10 1.01098853502442e-09 1.83401931719488e-09 2.92301123017483e-09 1.92589721729586e-09 1.61294878261478e-10 1.42318672338543e-10
"1895" 28142 1.63556331134154e-10 3.73426395549446e-10 1.0084549214552e-09 1.8328430835295e-09 2.92658079156224e-09 1.9301324943513e-09 1.55198964714545e-10 1.41529358101388e-10
"1896" 28143 1.59813313819931e-10 3.72438948561851e-10 1.00592130788598e-09 1.83166684986412e-09 2.93015035294965e-09 1.93436777140675e-09 1.49103051167613e-10 1.40740043864232e-10
"1897" 28144 1.56070296505708e-10 3.71451501574257e-10 1.00338769431676e-09 1.83049061619873e-09 2.93371991433707e-09 1.9386030484622e-09 1.4300713762068e-10 1.39950729627076e-10
"1898" 28145 1.52327279191485e-10 3.70464054586662e-10 1.00085408074754e-09 1.82931438253335e-09 2.93728947572448e-09 1.94283832551764e-09 1.36911224073747e-10 1.3916141538992e-10
"1899" 28146 1.48584261877262e-10 3.69476607599067e-10 9.98320467178314e-10 1.82813814886797e-09 2.9408590371119e-09 1.94707360257309e-09 1.30815310526814e-10 1.38372101152765e-10
"1900" 28147 1.44841244563039e-10 3.68489160611472e-10 9.95786853609093e-10 1.82696191520259e-09 2.94442859849931e-09 1.95130887962854e-09 1.24719396979881e-10 1.37582786915609e-10
"1901" 28148 1.41098227248816e-10 3.67501713623878e-10 9.93253240039873e-10 1.82578568153721e-09 2.94799815988672e-09 1.95554415668398e-09 1.18623483432949e-10 1.36793472678453e-10
"1902" 28149 1.40787098784355e-10 3.68405504782942e-10 9.94403714652294e-10 1.82664188951635e-09 2.93949034117879e-09 1.95889218024147e-09 1.17958510862475e-10 1.36793472678453e-10
"1903" 28150 1.40475970319893e-10 3.69309295942006e-10 9.95554189264715e-10 1.82749809749549e-09 2.93098252247085e-09 1.96224020379896e-09 1.17293538292001e-10 1.36793472678453e-10
"1904" 28151 1.40164841855431e-10 3.7021308710107e-10 9.96704663877136e-10 1.82835430547463e-09 2.92247470376292e-09 1.96558822735645e-09 1.16628565721527e-10 1.36793472678453e-10
"1905" 28152 1.3985371339097e-10 3.71116878260134e-10 9.97855138489557e-10 1.82921051345378e-09 2.91396688505498e-09 1.96893625091394e-09 1.15963593151054e-10 1.36793472678453e-10
"1906" 28153 1.39542584926508e-10 3.72020669419198e-10 9.99005613101978e-10 1.83006672143292e-09 2.90545906634705e-09 1.97228427447143e-09 1.1529862058058e-10 1.36793472678453e-10
"1907" 28154 1.39231456462046e-10 3.72924460578262e-10 1.0001560877144e-09 1.83092292941206e-09 2.89695124763911e-09 1.97563229802892e-09 1.14633648010106e-10 1.36793472678453e-10
"1908" 28155 1.38920327997584e-10 3.73828251737327e-10 1.00130656232682e-09 1.8317791373912e-09 2.88844342893118e-09 1.97898032158641e-09 1.13968675439633e-10 1.36793472678453e-10
"1909" 28156 1.38609199533123e-10 3.74732042896391e-10 1.00245703693924e-09 1.83263534537035e-09 2.87993561022324e-09 1.9823283451439e-09 1.13303702869159e-10 1.36793472678453e-10
"1910" 28157 1.38298071068661e-10 3.75635834055455e-10 1.00360751155166e-09 1.83349155334949e-09 2.87142779151531e-09 1.98567636870139e-09 1.12638730298685e-10 1.36793472678453e-10
"1911" 28158 1.36238937758804e-10 3.76539625214519e-10 1.00107389798244e-09 1.82579409998472e-09 2.86889488114579e-09 1.97754482168149e-09 1.1269416836891e-10 1.36793472678453e-10
"1912" 28159 1.35300814495078e-10 3.88924797316163e-10 1.02840569947086e-09 1.82664188951635e-09 2.87545696123645e-09 1.98386886617897e-09 1.12749606439134e-10 1.36502911558504e-10
"1913" 28160 1.33429305837966e-10 3.88924797316163e-10 1.03057360430929e-09 1.85315066307971e-09 2.89057613388659e-09 1.96926177751701e-09 1.13580893220281e-10 1.3729222579566e-10
"1914" 28161 1.31557797180855e-10 3.88924797316163e-10 1.03274150914772e-09 1.87965943664307e-09 2.90569530653673e-09 1.95465468885504e-09 1.14412180001429e-10 1.38081540032816e-10
"1915" 28162 1.29686288523743e-10 3.88924797316163e-10 1.03490941398614e-09 1.90616821020644e-09 2.92081447918687e-09 1.94004760019308e-09 1.15243466782576e-10 1.38870854269972e-10
"1916" 28163 1.27814779866632e-10 3.88924797316163e-10 1.03707731882457e-09 1.9326769837698e-09 2.93593365183701e-09 1.92544051153112e-09 1.16074753563723e-10 1.39660168507127e-10
"1917" 28164 1.2594327120952e-10 3.88924797316163e-10 1.039245223663e-09 1.95918575733316e-09 2.95105282448715e-09 1.91083342286916e-09 1.1690604034487e-10 1.40449482744283e-10
"1918" 28165 1.24071762552409e-10 3.88924797316163e-10 1.04141312850143e-09 1.98569453089652e-09 2.96617199713729e-09 1.8962263342072e-09 1.17737327126018e-10 1.41238796981439e-10
"1919" 28166 1.22200253895297e-10 3.88924797316163e-10 1.04358103333986e-09 2.01220330445988e-09 2.98129116978743e-09 1.88161924554523e-09 1.18568613907165e-10 1.42028111218594e-10
"1920" 28167 1.20328745238186e-10 3.88924797316163e-10 1.04574893817828e-09 2.03871207802324e-09 2.99641034243757e-09 1.86701215688327e-09 1.19399900688312e-10 1.4281742545575e-10
"1921" 28168 1.18457236581074e-10 3.88924797316163e-10 1.04791684301671e-09 2.06522085158661e-09 3.01152951508771e-09 1.85240506822131e-09 1.20231187469459e-10 1.43606739692906e-10
"1922" 28169 1.16585727923963e-10 3.88924797316163e-10 1.05008474785514e-09 2.09172962514997e-09 3.02664868773785e-09 1.83779797955935e-09 1.21062474250607e-10 1.44396053930062e-10
"1923" 28170 1.14714219266851e-10 3.88924797316163e-10 1.05225265269357e-09 2.11823839871333e-09 3.04176786038799e-09 1.82319089089739e-09 1.21893761031754e-10 1.45185368167217e-10
"1924" 28171 1.1284271060974e-10 3.88924797316163e-10 1.054420557532e-09 2.14474717227669e-09 3.05688703303813e-09 1.80858380223542e-09 1.22725047812901e-10 1.45974682404373e-10
"1925" 28172 1.12719206798024e-10 3.86722236202997e-10 1.05597658885839e-09 2.179630879753e-09 3.07657327331009e-09 1.80447527567969e-09 1.23500896523824e-10 1.45974682404373e-10
"1926" 28173 1.12595702986307e-10 3.86722236202997e-10 1.05935474028402e-09 2.21042069321207e-09 3.08916966465878e-09 1.80223501109307e-09 1.23500896523824e-10 1.47054557761478e-10
"1927" 28174 1.12408078333562e-10 3.87418478717723e-10 1.05868309479722e-09 2.20401176103977e-09 3.05955763589422e-09 1.79674047792216e-09 1.23445458453599e-10 1.47054557761478e-10
"1928" 28175 1.12531582145278e-10 3.88322269876787e-10 1.05783855694081e-09 2.19856290592619e-09 3.02764756546104e-09 1.79149119686905e-09 1.23390020383375e-10 1.47969694873201e-10
"1929" 28176 1.12655085956995e-10 3.89226061035851e-10 1.0569940190844e-09 2.19311405081261e-09 2.99573749502786e-09 1.78624191581594e-09 1.2333458231315e-10 1.48884831984925e-10
"1930" 28177 1.12778589768711e-10 3.90129852194915e-10 1.05614948122799e-09 2.18766519569903e-09 2.96382742459468e-09 1.78099263476283e-09 1.23279144242926e-10 1.49799969096648e-10
"1931" 28178 1.12902093580428e-10 3.91033643353979e-10 1.05530494337159e-09 2.18221634058545e-09 2.9319173541615e-09 1.77574335370972e-09 1.23223706172701e-10 1.50715106208371e-10
"1932" 28179 1.13025597392144e-10 3.91937434513043e-10 1.05446040551518e-09 2.17676748547186e-09 2.90000728372832e-09 1.7704940726566e-09 1.23168268102477e-10 1.51630243320095e-10
"1933" 28180 1.1314910120386e-10 3.92841225672107e-10 1.05361586765877e-09 2.17131863035828e-09 2.86809721329514e-09 1.76524479160349e-09 1.23112830032252e-10 1.52545380431818e-10
"1934" 28181 1.13272605015577e-10 3.93745016831172e-10 1.05277132980237e-09 2.1658697752447e-09 2.83618714286196e-09 1.75999551055038e-09 1.23057391962028e-10 1.53460517543542e-10
"1935" 28182 1.13396108827293e-10 3.94648807990236e-10 1.05192679194596e-09 2.16042092013112e-09 2.80427707242878e-09 1.75474622949727e-09 1.23001953891803e-10 1.54375654655265e-10
"1936" 28183 1.1351961263901e-10 3.955525991493e-10 1.05108225408955e-09 2.15497206501754e-09 2.7723670019956e-09 1.74949694844416e-09 1.22946515821579e-10 1.55290791766989e-10
"1937" 28184 1.13643116450726e-10 3.96456390308364e-10 1.05023771623315e-09 2.14952320990396e-09 2.74045693156242e-09 1.74424766739105e-09 1.22891077751354e-10 1.56205928878712e-10
"1938" 28185 1.13766620262443e-10 3.97360181467428e-10 1.04939317837674e-09 2.14407435479038e-09 2.70854686112924e-09 1.73899838633793e-09 1.2283563968113e-10 1.57121065990435e-10
"1939" 28186 1.13890124074159e-10 3.98263972626492e-10 1.04854864052033e-09 2.1386254996768e-09 2.67663679069606e-09 1.73374910528482e-09 1.22780201610905e-10 1.58036203102159e-10
"1940" 28187 1.14013627885875e-10 3.99167763785556e-10 1.04770410266393e-09 2.13317664456322e-09 2.64472672026288e-09 1.72849982423171e-09 1.22724763540681e-10 1.58951340213882e-10
"1941" 28188 1.14137131697592e-10 4.0007155494462e-10 1.04685956480752e-09 2.12772778944964e-09 2.6128166498297e-09 1.7232505431786e-09 1.22669325470456e-10 1.59866477325606e-10
"1942" 28189 1.14260635509308e-10 4.00975346103685e-10 1.04601502695111e-09 2.12227893433605e-09 2.58090657939652e-09 1.71800126212549e-09 1.22613887400232e-10 1.60781614437329e-10
"1943" 28190 1.14384139321025e-10 4.01879137262749e-10 1.0451704890947e-09 2.11683007922247e-09 2.54899650896334e-09 1.71275198107237e-09 1.22558449330007e-10 1.61696751549052e-10
"1944" 28191 1.14507643132741e-10 4.02782928421813e-10 1.0443259512383e-09 2.11138122410889e-09 2.51708643853015e-09 1.70750270001926e-09 1.22503011259783e-10 1.62611888660776e-10
"1945" 28192 1.14631146944458e-10 4.03686719580877e-10 1.04348141338189e-09 2.10593236899531e-09 2.48517636809697e-09 1.70225341896615e-09 1.22447573189558e-10 1.63527025772499e-10
"1946" 28193 1.14754650756174e-10 4.04590510739941e-10 1.04263687552548e-09 2.10048351388173e-09 2.45326629766379e-09 1.69700413791304e-09 1.22392135119334e-10 1.64442162884223e-10
"1947" 28194 1.15688036149559e-10 4.16975682841585e-10 1.04840917257918e-09 2.0942158799647e-09 2.4221971543311e-09 1.69325936509317e-09 1.22115039525618e-10 1.64650354881481e-10
"1948" 28195 1.15688036149559e-10 4.2925708062106e-10 1.04840917257918e-09 2.07370056225534e-09 2.4221971543311e-09 1.6943836218273e-09 1.21062095220979e-10 1.64650354881481e-10
"1949" 28196 1.14567026103429e-10 4.28955816901372e-10 1.04547642585072e-09 2.05657264728684e-09 2.42081832932992e-09 1.69713088841275e-09 1.20009150916341e-10 1.64732724004172e-10
"1950" 28197 1.13446016057298e-10 4.28654553181684e-10 1.04254367912226e-09 2.03944473231835e-09 2.41943950432875e-09 1.6998781549982e-09 1.18956206611702e-10 1.64815093126862e-10
"1951" 28198 1.12325006011168e-10 4.28353289461996e-10 1.03961093239379e-09 2.02231681734986e-09 2.41806067932758e-09 1.70262542158365e-09 1.17903262307064e-10 1.64897462249553e-10
"1952" 28199 1.11203995965038e-10 4.28052025742308e-10 1.03667818566533e-09 2.00518890238136e-09 2.4166818543264e-09 1.7053726881691e-09 1.16850318002425e-10 1.64979831372243e-10
"1953" 28200 1.10082985918907e-10 4.2775076202262e-10 1.03374543893687e-09 1.98806098741287e-09 2.41530302932523e-09 1.70811995475455e-09 1.15797373697787e-10 1.65062200494934e-10
"1954" 28201 1.08961975872777e-10 4.27449498302932e-10 1.0308126922084e-09 1.97093307244438e-09 2.41392420432406e-09 1.71086722134e-09 1.14744429393149e-10 1.65144569617624e-10
"1955" 28202 1.07840965826646e-10 4.27148234583244e-10 1.02787994547994e-09 1.95380515747588e-09 2.41254537932288e-09 1.71361448792545e-09 1.1369148508851e-10 1.65226938740315e-10
"1956" 28203 1.06719955780516e-10 4.26846970863556e-10 1.02494719875148e-09 1.93667724250739e-09 2.41116655432171e-09 1.71636175451091e-09 1.12638540783872e-10 1.65309307863005e-10
"1957" 28204 1.05598945734386e-10 4.26545707143868e-10 1.02201445202301e-09 1.9195493275389e-09 2.40978772932054e-09 1.71910902109636e-09 1.11585596479233e-10 1.65391676985696e-10
"1958" 28205 1.04477935688255e-10 4.26244443424179e-10 1.01908170529455e-09 1.9024214125704e-09 2.40840890431936e-09 1.72185628768181e-09 1.10532652174595e-10 1.65474046108386e-10
"1959" 28206 1.03356925642125e-10 4.25943179704491e-10 1.02161531886377e-09 1.90499003650783e-09 2.40840890431936e-09 1.72498380576638e-09 1.10532652174595e-10 1.65556415231077e-10
"1960" 28207 1.02235915595994e-10 4.25641915984803e-10 1.02414893243299e-09 1.90755866044526e-09 2.40840890431936e-09 1.72811132385096e-09 1.10532652174595e-10 1.65638784353767e-10
"1961" 28208 1.01114905549864e-10 4.25340652265115e-10 1.02668254600221e-09 1.91012728438268e-09 2.40840890431936e-09 1.73123884193554e-09 1.10532652174595e-10 1.65721153476458e-10
"1962" 28209 9.99938955037336e-11 4.25039388545427e-10 1.02921615957143e-09 1.91269590832011e-09 2.40840890431936e-09 1.73436636002011e-09 1.10532652174595e-10 1.65803522599149e-10
"1963" 28210 9.88728854576032e-11 4.24738124825739e-10 1.03174977314065e-09 1.91526453225754e-09 2.40840890431936e-09 1.73749387810469e-09 1.10532652174595e-10 1.65885891721839e-10
"1964" 28211 9.77518754114728e-11 4.24436861106051e-10 1.03428338670988e-09 1.91783315619496e-09 2.40840890431936e-09 1.74062139618926e-09 1.10532652174595e-10 1.6596826084453e-10
"1965" 28212 9.66308653653424e-11 4.24135597386363e-10 1.0368170002791e-09 1.92040178013239e-09 2.40840890431936e-09 1.74374891427384e-09 1.10532652174595e-10 1.6605062996722e-10
"1966" 28213 9.5509855319212e-11 4.23834333666675e-10 1.03935061384832e-09 1.92297040406982e-09 2.40840890431936e-09 1.74687643235841e-09 1.10532652174595e-10 1.66132999089911e-10
"1967" 28214 9.5509855319212e-11 4.23533069946987e-10 1.04101976556954e-09 1.9246453908524e-09 2.40844804910285e-09 1.75037595306049e-09 1.09590584010405e-10 1.6642356020986e-10
"1968" 28215 9.5509855319212e-11 4.23231806227299e-10 1.04268891729076e-09 1.92632037763499e-09 2.40848719388633e-09 1.75387547376256e-09 1.08648515846216e-10 1.66714121329808e-10
"1969" 28216 9.5509855319212e-11 4.22930542507611e-10 1.04435806901198e-09 1.92799536441758e-09 2.40852633866981e-09 1.75737499446464e-09 1.07706447682026e-10 1.67004682449757e-10
"1970" 28217 9.75689886290688e-11 4.31295511931141e-10 1.05086178352726e-09 1.92710172726274e-09 2.40898594700354e-09 1.76299627813525e-09 1.06764379517837e-10 1.68084557806862e-10
"1971" 28218 9.75689886290688e-11 4.33394298722138e-10 1.04884684706684e-09 1.92524801304919e-09 2.41416920209302e-09 1.77607411191909e-09 1.07983543275742e-10 1.6837511892681e-10
"1972" 28219 1.01806021190158e-10 4.37290608584444e-10 1.08365994531337e-09 1.92524801304919e-09 2.42440814885347e-09 1.77957363262116e-09 1.07041475111553e-10 1.69454994283915e-10
"1973" 28220 1.06043053751246e-10 4.4118691844675e-10 1.11847304355989e-09 1.92524801304919e-09 2.43464709561392e-09 1.78307315332324e-09 1.06099406947363e-10 1.70534869641019e-10
"1974" 28221 1.10280086312335e-10 4.45083228309056e-10 1.15328614180642e-09 1.92524801304919e-09 2.44488604237437e-09 1.78657267402531e-09 1.05157338783174e-10 1.71614744998124e-10
"1975" 28222 1.14517118873424e-10 4.48979538171362e-10 1.18809924005294e-09 1.92524801304919e-09 2.45512498913482e-09 1.79007219472739e-09 1.04215270618984e-10 1.72694620355228e-10
"1976" 28223 1.18754151434512e-10 4.52875848033668e-10 1.22291233829946e-09 1.92524801304919e-09 2.46536393589528e-09 1.79357171542946e-09 1.03273202454795e-10 1.73774495712333e-10
"1977" 28224 1.22991183995601e-10 4.56772157895975e-10 1.25772543654599e-09 1.92524801304919e-09 2.47560288265573e-09 1.79707123613153e-09 1.02331134290605e-10 1.74854371069437e-10
"1978" 28225 1.2722821655669e-10 4.6066846775828e-10 1.29253853479251e-09 1.92524801304919e-09 2.48584182941618e-09 1.80057075683361e-09 1.01389066126416e-10 1.75934246426542e-10
"1979" 28226 1.31465249117779e-10 4.64564777620587e-10 1.32735163303904e-09 1.92524801304919e-09 2.49608077617663e-09 1.80407027753568e-09 1.00446997962226e-10 1.77014121783646e-10
"1980" 28227 1.35702281678867e-10 4.68461087482893e-10 1.36216473128556e-09 1.92524801304919e-09 2.50631972293708e-09 1.80756979823776e-09 9.95049297980369e-11 1.78093997140751e-10
"1981" 28228 1.39939314239956e-10 4.72357397345199e-10 1.39697782953208e-09 1.92524801304919e-09 2.51655866969753e-09 1.81106931893983e-09 9.85628616338475e-11 1.79173872497855e-10
"1982" 28229 1.43055336754914e-10 4.76357481529674e-10 1.43133202264459e-09 1.92696042900747e-09 2.52633800812426e-09 1.8144420891422e-09 9.83412041103562e-11 1.79338610743236e-10
"1983" 28230 1.46981240851541e-10 4.80555055111668e-10 1.46798716498193e-09 1.92813666267285e-09 2.53657695488471e-09 1.81606509899353e-09 9.83412041103562e-11 1.80418486100341e-10
"1984" 28231 1.46981240851541e-10 4.82342518936158e-10 1.46681676637792e-09 1.92460796167671e-09 2.52640616862316e-09 1.81606509899353e-09 9.91724908915035e-11 1.79629171863185e-10
"1985" 28232 1.47168865504287e-10 4.82934987128714e-10 1.48015005615609e-09 1.92460796167671e-09 2.5172720333795e-09 1.82254064063559e-09 1.00003777672651e-10 1.7883985762603e-10
"1986" 28233 1.48042867926984e-10 4.83527455321271e-10 1.47928559430809e-09 1.9251731546978e-09 2.5069838127675e-09 1.82216863801809e-09 9.97821201491595e-11 1.77968174266183e-10
"1987" 28234 1.48916870349682e-10 4.84119923513828e-10 1.47842113246009e-09 1.92573834771888e-09 2.4966955921555e-09 1.8217966354006e-09 9.95604626256683e-11 1.77096490906337e-10
"1988" 28235 1.49790872772379e-10 4.84712391706385e-10 1.47755667061209e-09 1.92630354073997e-09 2.4864073715435e-09 1.8214246327831e-09 9.93388051021771e-11 1.76224807546491e-10
"1989" 28236 1.50664875195077e-10 4.85304859898942e-10 1.47669220876409e-09 1.92686873376106e-09 2.4761191509315e-09 1.8210526301656e-09 9.91171475786858e-11 1.75353124186644e-10
"1990" 28237 1.51538877617774e-10 4.85897328091498e-10 1.47582774691609e-09 1.92743392678214e-09 2.4658309303195e-09 1.8206806275481e-09 9.88954900551946e-11 1.74481440826798e-10
"1991" 28238 1.52412880040472e-10 4.86489796284055e-10 1.47496328506809e-09 1.92799911980323e-09 2.4555427097075e-09 1.8203086249306e-09 9.86738325317033e-11 1.73609757466952e-10
"1992" 28239 1.53286882463169e-10 4.87082264476612e-10 1.47409882322009e-09 1.92856431282432e-09 2.4452544890955e-09 1.8199366223131e-09 9.84521750082121e-11 1.72738074107105e-10
"1993" 28240 1.54160884885867e-10 4.87674732669169e-10 1.47323436137209e-09 1.92912950584541e-09 2.4349662684835e-09 1.8195646196956e-09 9.82305174847209e-11 1.71866390747259e-10
"1994" 28241 1.55034887308564e-10 4.88267200861726e-10 1.47236989952409e-09 1.92969469886649e-09 2.4246780478715e-09 1.8191926170781e-09 9.80088599612296e-11 1.70994707387413e-10
"1995" 28242 1.55908889731262e-10 4.88859669054283e-10 1.47150543767609e-09 1.93025989188758e-09 2.4143898272595e-09 1.8188206144606e-09 9.77872024377384e-11 1.70123024027567e-10
"1996" 28243 1.5678289215396e-10 4.89452137246839e-10 1.47064097582809e-09 1.93082508490867e-09 2.4041016066475e-09 1.81844861184311e-09 9.75655449142472e-11 1.6925134066772e-10
"1997" 28244 1.57656894576657e-10 4.90044605439396e-10 1.46977651398009e-09 1.93139027792975e-09 2.3938133860355e-09 1.81807660922561e-09 9.73438873907559e-11 1.68379657307874e-10
"1998" 28245 1.58530896999355e-10 4.90637073631953e-10 1.46891205213209e-09 1.93195547095084e-09 2.3835251654235e-09 1.81770460660811e-09 9.71222298672647e-11 1.67507973948028e-10
"1999" 28246 1.59404899422052e-10 4.9122954182451e-10 1.46804759028409e-09 1.93252066397193e-09 2.3732369448115e-09 1.81733260399061e-09 9.69005723437735e-11 1.66636290588181e-10
"2000" 28247 1.6027890184475e-10 4.91822010017067e-10 1.46718312843610e-09 1.93308585699301e-09 2.3629487241995e-09 1.81696060137311e-09 9.66789148202822e-11 1.65764607228335e-10
"2001" 28248 1.61152904267447e-10 4.92414478209623e-10 1.4663186665881e-09 1.9336510500141e-09 2.3526605035875e-09 1.81658859875561e-09 9.6457257296791e-11 1.64892923868489e-10
"2002" 28249 1.62026906690145e-10 4.9300694640218e-10 1.4654542047401e-09 1.93421624303519e-09 2.3423722829755e-09 1.81621659613811e-09 9.62355997732998e-11 1.64021240508643e-10
"2003" 28250 1.62713284460097e-10 4.9300694640218e-10 1.46660467935252e-09 1.9373500599937e-09 2.3423722829755e-09 1.81621659613811e-09 9.62355997732998e-11 1.64021240508643e-10
"2004" 28251 1.63399662230049e-10 4.93900678314425e-10 1.46691061610853e-09 1.93574151311499e-09 2.34121819760715e-09 1.813604328934e-09 9.51826554686613e-11 1.63938871385952e-10
"2005" 28252 1.64273664652747e-10 4.93693129670087e-10 1.46806109072095e-09 1.93413296623629e-09 2.3416386611574e-09 1.81236157058179e-09 9.51826554686613e-11 1.6414706338321e-10
"2006" 28253 1.65147667075444e-10 4.93485581025749e-10 1.46921156533337e-09 1.93252441935758e-09 2.34205912470764e-09 1.81111881222959e-09 9.51826554686613e-11 1.64355255380468e-10
"2007" 28254 1.66021669498142e-10 4.93278032381411e-10 1.47036203994579e-09 1.93091587247887e-09 2.34247958825788e-09 1.80987605387738e-09 9.51826554686613e-11 1.64563447377727e-10
"2008" 28255 1.66895671920839e-10 4.93070483737072e-10 1.47151251455821e-09 1.92930732560016e-09 2.34290005180812e-09 1.80863329552518e-09 9.51826554686613e-11 1.64771639374985e-10
"2009" 28256 1.67769674343537e-10 4.92862935092734e-10 1.47266298917064e-09 1.92769877872145e-09 2.34332051535836e-09 1.80739053717297e-09 9.51826554686613e-11 1.64979831372243e-10
"2010" 28257 1.68643676766234e-10 4.92655386448396e-10 1.47381346378306e-09 1.92609023184274e-09 2.3437409789086e-09 1.80614777882077e-09 9.51826554686613e-11 1.65188023369501e-10
"2011" 28258 1.69517679188932e-10 4.92447837804058e-10 1.47496393839548e-09 1.92448168496403e-09 2.34416144245885e-09 1.80490502046856e-09 9.51826554686613e-11 1.6539621536676e-10
"2012" 28259 1.70391681611629e-10 4.9224028915972e-10 1.4761144130079e-09 1.92287313808533e-09 2.34458190600909e-09 1.80366226211636e-09 9.51826554686613e-11 1.65604407364018e-10
"2013" 28260 1.70391681611629e-10 4.9224028915972e-10 1.4761144130079e-09 1.9181307742481e-09 2.34458190600909e-09 1.80241950376415e-09 9.61247236328507e-11 1.65604407364018e-10
"2014" 28261 1.70702810076091e-10 4.91139008603137e-10 1.4761144130079e-09 1.9378937530579e-09 2.35478170798606e-09 1.80679802908256e-09 9.61247236328507e-11 1.65812599361276e-10
"2015" 28262 1.71013938540553e-10 4.90037728046553e-10 1.4761144130079e-09 1.9576567318677e-09 2.36498150996303e-09 1.81117655440097e-09 9.61247236328507e-11 1.66020791358534e-10
"2016" 28263 1.71325067005015e-10 4.8893644748997e-10 1.4761144130079e-09 1.9774197106775e-09 2.37518131193999e-09 1.81555507971937e-09 9.61247236328507e-11 1.66228983355792e-10
"2017" 28264 1.71448570816731e-10 4.85153971196653e-10 1.47243032482626e-09 2.00288513038324e-09 2.37467242975472e-09 1.82117636338998e-09 9.59030661093595e-11 1.66437175353051e-10
"2018" 28265 1.71572074628448e-10 4.81371494903335e-10 1.46874623664461e-09 2.02835055008898e-09 2.37416354756945e-09 1.82679764706059e-09 9.56814085858683e-11 1.66645367350309e-10
"2019" 28266 1.71695578440164e-10 4.77589018610017e-10 1.46506214846297e-09 2.05381596979473e-09 2.37365466538417e-09 1.8324189307312e-09 9.5459751062377e-11 1.66853559347567e-10
"2020" 28267 1.7181908225188e-10 4.738065423167e-10 1.46137806028133e-09 2.07928138950047e-09 2.3731457831989e-09 1.83804021440182e-09 9.52380935388858e-11 1.67061751344825e-10
"2021" 28268 1.71942586063597e-10 4.70024066023382e-10 1.45769397209969e-09 2.10474680920621e-09 2.37263690101363e-09 1.84366149807243e-09 9.50164360153946e-11 1.67269943342084e-10
"2022" 28269 1.72066089875313e-10 4.66241589730064e-10 1.45400988391805e-09 2.13021222891195e-09 2.37212801882835e-09 1.84928278174304e-09 9.47947784919033e-11 1.67478135339342e-10
"2023" 28270 1.7218959368703e-10 4.62459113436747e-10 1.45032579573641e-09 2.15567764861769e-09 2.37161913664308e-09 1.85490406541365e-09 9.45731209684121e-11 1.676863273366e-10
"2024" 28271 1.72313097498746e-10 4.58676637143429e-10 1.44664170755476e-09 2.18114306832343e-09 2.37111025445781e-09 1.86052534908426e-09 9.43514634449209e-11 1.67894519333858e-10
"2025" 28272 1.72624225963208e-10 4.58676637143429e-10 1.44664170755476e-09 2.20593100748099e-09 2.37111025445781e-09 1.85790483299852e-09 9.43514634449209e-11 1.68102711331116e-10
"2026" 28273 1.7293535442767e-10 4.58676637143429e-10 1.44664170755476e-09 2.23071894663856e-09 2.37111025445781e-09 1.85528431691277e-09 9.43514634449209e-11 1.68310903328375e-10
"2027" 28274 1.73809356850367e-10 4.60765364687607e-10 1.45249370057483e-09 2.24158764613754e-09 2.42134799829792e-09 1.84704251715642e-09 9.54044077495593e-11 1.69390778685479e-10
"2028" 28275 1.74120485314829e-10 4.64962938269601e-10 1.4567896622685e-09 2.24073143815839e-09 2.41629230662695e-09 1.84141298460418e-09 9.56815033432751e-11 1.69390778685479e-10
"2029" 28276 1.76179618624686e-10 4.6516042766712e-10 1.45794013688093e-09 2.24233156658959e-09 2.41088431190463e-09 1.84453225380713e-09 9.56815033432751e-11 1.69598970682737e-10
"2030" 28277 1.78238751934542e-10 4.65357917064639e-10 1.45909061149335e-09 2.24393169502079e-09 2.40547631718232e-09 1.84765152301008e-09 9.56815033432751e-11 1.69807162679996e-10
"2031" 28278 1.80297885244399e-10 4.65555406462158e-10 1.46024108610577e-09 2.24553182345198e-09 2.40006832246001e-09 1.85077079221303e-09 9.56815033432751e-11 1.70015354677254e-10
"2032" 28279 1.82357018554256e-10 4.65752895859677e-10 1.46139156071819e-09 2.24713195188318e-09 2.3946603277377e-09 1.85389006141598e-09 9.56815033432751e-11 1.70223546674512e-10
"2033" 28280 1.84416151864113e-10 4.65950385257196e-10 1.46254203533061e-09 2.24873208031438e-09 2.38925233301539e-09 1.85700933061893e-09 9.56815033432751e-11 1.7043173867177e-10
"2034" 28281 1.86475285173969e-10 4.66147874654715e-10 1.46369250994303e-09 2.25033220874558e-09 2.38384433829308e-09 1.86012859982188e-09 9.56815033432751e-11 1.70639930669028e-10
"2035" 28282 1.88534418483826e-10 4.66345364052234e-10 1.46484298455545e-09 2.25193233717677e-09 2.37843634357077e-09 1.86324786902483e-09 9.56815033432751e-11 1.70848122666287e-10
"2036" 28283 1.90593551793683e-10 4.66542853449753e-10 1.46599345916787e-09 2.25353246560797e-09 2.37302834884845e-09 1.86636713822778e-09 9.56815033432751e-11 1.71056314663545e-10
"2037" 28284 1.9265268510354e-10 4.66740342847271e-10 1.46714393378029e-09 2.25513259403917e-09 2.36762035412614e-09 1.86948640743073e-09 9.56815033432751e-11 1.71264506660803e-10
"2038" 28285 1.94711818413396e-10 4.6693783224479e-10 1.46829440839271e-09 2.25673272247036e-09 2.36221235940383e-09 1.87260567663368e-09 9.56815033432751e-11 1.71472698658061e-10
"2039" 28286 1.96770951723253e-10 4.67135321642309e-10 1.46944488300514e-09 2.25833285090156e-09 2.35680436468152e-09 1.87572494583663e-09 9.56815033432751e-11 1.7168089065532e-10
"2040" 28287 1.98642460380365e-10 4.66231530483245e-10 1.46944488300514e-09 2.26046916162566e-09 2.34735707117e-09 1.88023847053637e-09 9.56815033432751e-11 1.71889082652578e-10
"2041" 28288 1.98642460380365e-10 4.68018994307735e-10 1.47312897118678e-09 2.26128794042911e-09 2.35713640959673e-09 1.87948621641975e-09 9.64019139839733e-11 1.71889082652578e-10
"2042" 28289 1.98642460380365e-10 4.69806458132225e-10 1.47681305936842e-09 2.26210671923255e-09 2.36691574802346e-09 1.87873396230313e-09 9.71223246246715e-11 1.71889082652578e-10
"2043" 28290 1.98642460380365e-10 4.71593921956714e-10 1.48049714755006e-09 2.262925498036e-09 2.37669508645018e-09 1.8779817081865e-09 9.78427352653697e-11 1.71889082652578e-10
"2044" 28291 1.98642460380365e-10 4.73381385781204e-10 1.4841812357317e-09 2.26374427683944e-09 2.38647442487691e-09 1.87722945406988e-09 9.8563145906068e-11 1.71889082652578e-10
"2045" 28292 1.98642460380365e-10 4.75168849605694e-10 1.48786532391334e-09 2.26456305564289e-09 2.39625376330364e-09 1.87647719995326e-09 9.92835565467662e-11 1.71889082652578e-10
"2046" 28293 1.98642460380365e-10 4.76956313430184e-10 1.49154941209499e-09 2.26538183444634e-09 2.40603310173036e-09 1.87572494583663e-09 1.00003967187464e-10 1.71889082652578e-10
"2047" 28294 1.98953588844826e-10 4.77756330267079e-10 1.49816624700509e-09 2.26620061324978e-09 2.42388090866743e-09 1.88468600418311e-09 9.97823096639732e-11 1.7168089065532e-10
"2048" 28295 1.99264717309288e-10 4.78556347103974e-10 1.5047830819152e-09 2.26701939205323e-09 2.4417287156045e-09 1.89364706252958e-09 9.95606521404819e-11 1.71472698658061e-10
"2049" 28296 1.9957584577375e-10 4.79356363940869e-10 1.5113999168253e-09 2.26783817085668e-09 2.45957652254157e-09 1.90260812087606e-09 9.93389946169907e-11 1.71264506660803e-10
"2050" 28297 1.99886974238212e-10 4.80156380777764e-10 1.51801675173541e-09 2.26865694966012e-09 2.47742432947864e-09 1.91156917922253e-09 9.91173370934995e-11 1.71056314663545e-10
"2051" 28298 2.00198102702673e-10 4.80956397614659e-10 1.52463358664551e-09 2.26947572846357e-09 2.49527213641571e-09 1.920530237569e-09 9.88956795700082e-11 1.70848122666287e-10
"2052" 28299 2.00509231167135e-10 4.81756414451554e-10 1.53125042155562e-09 2.27029450726702e-09 2.51311994335278e-09 1.92949129591548e-09 9.8674022046517e-11 1.70639930669028e-10
"2053" 28300 2.00820359631597e-10 4.82556431288449e-10 1.53786725646572e-09 2.27111328607046e-09 2.53096775028985e-09 1.93845235426195e-09 9.84523645230258e-11 1.7043173867177e-10
"2054" 28301 2.01131488096058e-10 4.83356448125344e-10 1.54448409137582e-09 2.27193206487391e-09 2.54881555722692e-09 1.94741341260843e-09 9.82307069995345e-11 1.70223546674512e-10
"2055" 28302 2.0144261656052e-10 4.84156464962239e-10 1.55110092628593e-09 2.27275084367735e-09 2.56666336416399e-09 1.9563744709549e-09 9.80090494760433e-11 1.70015354677254e-10
"2056" 28303 2.01753745024982e-10 4.84956481799134e-10 1.55771776119603e-09 2.2735696224808e-09 2.58451117110106e-09 1.96533552930138e-09 9.77873919525521e-11 1.69807162679996e-10
"2057" 28304 2.02064873489444e-10 4.85756498636029e-10 1.56433459610614e-09 2.27438840128425e-09 2.60235897803813e-09 1.97429658764785e-09 9.75657344290608e-11 1.69598970682737e-10
"2058" 28305 2.02376001953905e-10 4.86556515472924e-10 1.57095143101624e-09 2.27520718008769e-09 2.6202067849752e-09 1.98325764599432e-09 9.73440769055696e-11 1.69390778685479e-10
"2059" 28306 2.02687130418367e-10 4.87356532309819e-10 1.57756826592635e-09 2.27602595889114e-09 2.63805459191227e-09 1.9922187043408e-09 9.71224193820783e-11 1.69182586688221e-10
"2060" 28307 2.02998258882829e-10 4.88260323468883e-10 1.58050101265481e-09 2.25293359879684e-09 2.62849999311838e-09 1.99745148763066e-09 9.71224193820783e-11 1.68892025568272e-10
"2061" 28308 2.0330938734729e-10 4.89361604025466e-10 1.58711784756492e-09 2.2413584080215e-09 2.646230365705e-09 2.00703804959405e-09 9.68453237883626e-11 1.67812150211168e-10
"2062" 28309 2.0330938734729e-10 4.9026539518453e-10 1.59373468247502e-09 2.23590955290792e-09 2.66407817264207e-09 2.01550860370494e-09 9.66236662648714e-11 1.65691314867772e-10
"2063" 28310 2.03185883535574e-10 4.90369169506699e-10 1.59390757484462e-09 2.23135433494918e-09 2.67090413714904e-09 2.0292449366322e-09 9.64020087413801e-11 1.63861040644325e-10
"2064" 28311 2.03062379723857e-10 4.90472943828868e-10 1.59408046721422e-09 2.22679911699043e-09 2.677730101656e-09 2.04298126955945e-09 9.61803512178889e-11 1.62030766420878e-10
"2065" 28312 2.02751251259396e-10 4.90472943828868e-10 1.59993246023429e-09 2.22135026187685e-09 2.67868846310693e-09 2.04211051382475e-09 9.59586936943977e-11 1.59909931077483e-10
"2066" 28313 2.02440122794934e-10 4.90472943828868e-10 1.60578445325436e-09 2.21590140676327e-09 2.67964682455787e-09 2.04123975809004e-09 9.57370361709064e-11 1.57789095734087e-10
"2067" 28314 2.02128994330472e-10 4.90472943828868e-10 1.61163644627443e-09 2.21045255164969e-09 2.6806051860088e-09 2.04036900235534e-09 9.55153786474152e-11 1.55668260390692e-10
"2068" 28315 2.01817865866011e-10 4.90472943828868e-10 1.6174884392945e-09 2.20500369653611e-09 2.68156354745973e-09 2.03949824662063e-09 9.5293721123924e-11 1.53547425047296e-10
"2069" 28316 2.01506737401549e-10 4.90472943828868e-10 1.62334043231457e-09 2.19955484142253e-09 2.68252190891066e-09 2.03862749088593e-09 9.50720636004327e-11 1.514265897039e-10
"2070" 28317 2.01195608937087e-10 4.90472943828868e-10 1.62919242533464e-09 2.19410598630895e-09 2.68348027036159e-09 2.03775673515122e-09 9.48504060769415e-11 1.49305754360505e-10
"2071" 28318 2.00884480472626e-10 4.90472943828868e-10 1.63504441835471e-09 2.18865713119537e-09 2.68443863181252e-09 2.03688597941651e-09 9.46287485534503e-11 1.47184919017109e-10
"2072" 28319 2.00573352008164e-10 4.90472943828868e-10 1.64089641137478e-09 2.18320827608178e-09 2.68539699326345e-09 2.03601522368181e-09 9.4407091029959e-11 1.45064083673714e-10
"2073" 28320 2.00262223543702e-10 4.90472943828868e-10 1.64674840439485e-09 2.1777594209682e-09 2.68635535471439e-09 2.0351444679471e-09 9.41854335064678e-11 1.42943248330318e-10
"2074" 28321 1.99388221121005e-10 4.90670433226387e-10 1.65242750504532e-09 2.17519079703078e-09 2.68615963079697e-09 2.03290420336048e-09 9.41854335064678e-11 1.41863372973213e-10
"2075" 28322 1.98514218698307e-10 4.90867922623906e-10 1.65810660569579e-09 2.17262217309335e-09 2.68596390687956e-09 2.03066393877386e-09 9.41854335064678e-11 1.40783497616109e-10
"2076" 28323 1.9764021627561e-10 4.91065412021425e-10 1.66378570634626e-09 2.17005354915592e-09 2.68576818296215e-09 2.02842367418725e-09 9.41854335064678e-11 1.39703622259004e-10
"2077" 28324 1.96766213852912e-10 4.91262901418944e-10 1.66946480699673e-09 2.1674849252185e-09 2.68557245904473e-09 2.02618340960063e-09 9.41854335064678e-11 1.386237469019e-10
"2078" 28325 1.95892211430214e-10 4.91460390816463e-10 1.6751439076472e-09 2.16491630128107e-09 2.68537673512732e-09 2.02394314501401e-09 9.41854335064678e-11 1.37543871544795e-10
"2079" 28326 1.95018209007517e-10 4.91657880213982e-10 1.68082300829767e-09 2.16234767734364e-09 2.68518101120991e-09 2.02170288042739e-09 9.41854335064678e-11 1.36463996187691e-10
"2080" 28327 1.94144206584819e-10 4.91855369611501e-10 1.68650210894814e-09 2.15977905340622e-09 2.6849852872925e-09 2.01946261584077e-09 9.41854335064678e-11 1.35384120830586e-10
"2081" 28328 1.93270204162122e-10 4.9205285900902e-10 1.69218120959861e-09 2.15721042946879e-09 2.68478956337508e-09 2.01722235125415e-09 9.41854335064678e-11 1.34304245473482e-10
"2082" 28329 1.92396201739424e-10 4.92250348406539e-10 1.69786031024908e-09 2.15464180553136e-09 2.68459383945767e-09 2.01498208666753e-09 9.41854335064678e-11 1.33224370116377e-10
"2083" 28330 1.92085073274963e-10 4.91346557247475e-10 1.69941634157548e-09 2.15578061002105e-09 2.68439811554026e-09 2.01535408928503e-09 9.39637759829766e-11 1.32933808996429e-10
"2084" 28331 1.92085073274963e-10 4.94442850272886e-10 1.70455684112555e-09 2.16005323146925e-09 2.68278442183819e-09 2.01610634340166e-09 9.37421184594853e-11 1.32933808996429e-10
"2085" 28332 1.92085073274963e-10 4.93539059113822e-10 1.70110541728829e-09 2.16119203595893e-09 2.69140967489657e-09 2.01685859751828e-09 9.37421184594853e-11 1.3264324787648e-10
"2086" 28333 1.92085073274963e-10 4.92437778557239e-10 1.70532810657032e-09 2.16489946438605e-09 2.70054381014023e-09 2.02133912669152e-09 9.35204609359941e-11 1.3264324787648e-10
"2087" 28334 1.92085073274963e-10 4.91336498000655e-10 1.70955079585236e-09 2.16860689281316e-09 2.70967794538388e-09 2.02581965586475e-09 9.32988034125029e-11 1.3264324787648e-10
"2088" 28335 1.92085073274963e-10 4.90235217444072e-10 1.71377348513439e-09 2.17231432124027e-09 2.71881208062754e-09 2.03030018503799e-09 9.30771458890116e-11 1.3264324787648e-10
"2089" 28336 1.92085073274963e-10 4.89133936887489e-10 1.71799617441643e-09 2.17602174966738e-09 2.72794621587119e-09 2.03478071421123e-09 9.28554883655204e-11 1.3264324787648e-10
"2090" 28337 1.92085073274963e-10 4.88032656330906e-10 1.72221886369846e-09 2.1797291780945e-09 2.73708035111485e-09 2.03926124338447e-09 9.26338308420292e-11 1.3264324787648e-10
"2091" 28338 1.92085073274963e-10 4.86931375774323e-10 1.7264415529805e-09 2.18343660652161e-09 2.74621448635851e-09 2.0437417725577e-09 9.24121733185379e-11 1.3264324787648e-10
"2092" 28339 1.92085073274963e-10 4.8583009521774e-10 1.73066424226253e-09 2.18714403494872e-09 2.75534862160216e-09 2.04822230173094e-09 9.21905157950467e-11 1.3264324787648e-10
"2093" 28340 1.92085073274963e-10 4.84728814661157e-10 1.73488693154457e-09 2.19085146337583e-09 2.76448275684582e-09 2.05270283090418e-09 9.19688582715555e-11 1.3264324787648e-10
"2094" 28341 1.92085073274963e-10 4.83627534104574e-10 1.7391096208266e-09 2.19455889180295e-09 2.77361689208947e-09 2.05718336007741e-09 9.17472007480642e-11 1.3264324787648e-10
"2095" 28342 1.92085073274963e-10 4.82526253547991e-10 1.74333231010864e-09 2.19826632023006e-09 2.78275102733313e-09 2.06166388925065e-09 9.1525543224573e-11 1.3264324787648e-10
"2096" 28343 1.92085073274963e-10 4.81424972991408e-10 1.74755499939067e-09 2.20197374865717e-09 2.79188516257679e-09 2.06614441842389e-09 9.13038857010818e-11 1.3264324787648e-10
"2097" 28344 1.92894954856631e-10 4.89612571511058e-10 1.76896153544739e-09 2.20311255314686e-09 2.79027146887472e-09 2.07922225220773e-09 9.2135172482229e-11 1.32352686756531e-10
"2098" 28345 1.937048364383e-10 4.98901450587291e-10 1.79351355858535e-09 2.20311255314686e-09 2.78969442619055e-09 2.08968781878745e-09 9.31881167868675e-11 1.32062125636582e-10
"2099" 28346 1.94514718019969e-10 5.08190329663524e-10 1.81806558172331e-09 2.20311255314686e-09 2.78911738350637e-09 2.10015338536717e-09 9.4241061091506e-11 1.31771564516634e-10
"2100" 28347 1.95324599601637e-10 5.17479208739757e-10 1.84261760486128e-09 2.20311255314686e-09 2.7885403408222e-09 2.11061895194689e-09 9.52940053961444e-11 1.31481003396685e-10
"2101" 28348 1.96134481183306e-10 5.2676808781599e-10 1.86716962799924e-09 2.20311255314686e-09 2.78796329813803e-09 2.12108451852661e-09 9.63469497007829e-11 1.31190442276736e-10
"2102" 28349 1.96944362764975e-10 5.36056966892223e-10 1.8917216511372e-09 2.20311255314686e-09 2.78738625545386e-09 2.13155008510633e-09 9.73998940054214e-11 1.30899881156787e-10
"2103" 28350 1.97754244346643e-10 5.45345845968456e-10 1.91627367427517e-09 2.20311255314686e-09 2.78680921276969e-09 2.14201565168605e-09 9.84528383100599e-11 1.30609320036838e-10
"2104" 28351 1.97630740534927e-10 5.45647109688144e-10 1.91512319966274e-09 2.20215247608814e-09 2.78623217008551e-09 2.14201565168605e-09 9.87299339037756e-11 1.30609320036838e-10
"2105" 28352 1.97507236723211e-10 5.45948373407832e-10 1.91397272505032e-09 2.20119239902942e-09 2.78565512740134e-09 2.14201565168605e-09 9.90070294974914e-11 1.30609320036838e-10
"2106" 28353 1.97383732911494e-10 5.4624963712752e-10 1.9128222504379e-09 2.2002323219707e-09 2.78507808471717e-09 2.14201565168605e-09 9.92841250912071e-11 1.30609320036838e-10
"2107" 28354 1.97260229099778e-10 5.46550900847208e-10 1.91167177582548e-09 2.19927224491198e-09 2.784501042033e-09 2.14201565168605e-09 9.95612206849229e-11 1.30609320036838e-10
"2108" 28355 1.97136725288061e-10 5.46852164566896e-10 1.91052130121306e-09 2.19831216785327e-09 2.78392399934882e-09 2.14201565168605e-09 9.98383162786386e-11 1.30609320036838e-10
"2109" 28356 1.97013221476345e-10 5.47153428286584e-10 1.90937082660064e-09 2.19735209079455e-09 2.78334695666465e-09 2.14201565168605e-09 1.00115411872354e-10 1.30609320036838e-10
"2110" 28357 1.96889717664628e-10 5.47454692006272e-10 1.90822035198822e-09 2.19639201373583e-09 2.78276991398048e-09 2.14201565168605e-09 1.0039250746607e-10 1.30609320036838e-10
"2111" 28358 1.96766213852912e-10 5.4775595572596e-10 1.9070698773758e-09 2.19543193667711e-09 2.78219287129631e-09 2.14201565168605e-09 1.00669603059786e-10 1.30609320036838e-10
"2112" 28359 1.96642710041196e-10 5.48057219445648e-10 1.90591940276338e-09 2.19447185961839e-09 2.78161582861214e-09 2.14201565168605e-09 1.00946698653502e-10 1.30609320036838e-10
"2113" 28360 1.96519206229479e-10 5.48358483165336e-10 1.90476892815096e-09 2.19351178255968e-09 2.78103878592796e-09 2.14201565168605e-09 1.01223794247217e-10 1.30609320036838e-10
"2114" 28361 1.96395702417763e-10 5.48659746885024e-10 1.90361845353853e-09 2.19255170550096e-09 2.78046174324379e-09 2.14201565168605e-09 1.01500889840933e-10 1.30609320036838e-10
"2115" 28362 1.96272198606046e-10 5.48961010604712e-10 1.90246797892611e-09 2.19159162844224e-09 2.77988470055962e-09 2.14201565168605e-09 1.01777985434649e-10 1.30609320036838e-10
"2116" 28363 1.9614869479433e-10 5.492622743244e-10 1.90131750431369e-09 2.19063155138352e-09 2.77930765787545e-09 2.14201565168605e-09 1.02055081028365e-10 1.30609320036838e-10
"2117" 28364 1.96025190982613e-10 5.49563538044088e-10 1.90016702970127e-09 2.1896714743248e-09 2.77873061519128e-09 2.14201565168605e-09 1.0233217662208e-10 1.30609320036838e-10
"2118" 28365 1.96212815635359e-10 5.49563538044088e-10 1.89769318810683e-09 2.18871139726608e-09 2.77144504235058e-09 2.14387566477355e-09 1.0233217662208e-10 1.30691689159529e-10
"2119" 28366 1.96400440288104e-10 5.49563538044088e-10 1.89521934651239e-09 2.18775132020737e-09 2.76415946950989e-09 2.14573567786104e-09 1.0233217662208e-10 1.3077405828222e-10
"2120" 28367 1.97210321869773e-10 5.49366048646569e-10 1.89038478371832e-09 2.1849000997594e-09 2.79439781481017e-09 2.14611592936016e-09 1.02221300481631e-10 1.30691689159529e-10
"2121" 28368 1.97086818058056e-10 5.4916855924905e-10 1.88388106920304e-09 2.18364900774262e-09 2.79286241067507e-09 2.15545723920576e-09 1.01168356176993e-10 1.3040112803958e-10
"2122" 28369 1.9696331424634e-10 5.48971069851531e-10 1.87737735468776e-09 2.18239791572585e-09 2.79132700653996e-09 2.16479854905136e-09 1.00115411872354e-10 1.30110566919631e-10
"2123" 28370 1.96839810434623e-10 5.48773580454013e-10 1.87087364017247e-09 2.18114682370908e-09 2.78979160240486e-09 2.17413985889696e-09 9.90624675677159e-11 1.29820005799683e-10
"2124" 28371 1.96716306622907e-10 5.48576091056494e-10 1.86436992565719e-09 2.1798957316923e-09 2.78825619826976e-09 2.18348116874256e-09 9.80095232630774e-11 1.29529444679734e-10
"2125" 28372 1.9659280281119e-10 5.48378601658975e-10 1.85786621114191e-09 2.17864463967553e-09 2.78672079413465e-09 2.19282247858816e-09 9.69565789584389e-11 1.29238883559785e-10
"2126" 28373 1.96469298999474e-10 5.48181112261456e-10 1.85136249662662e-09 2.17739354765876e-09 2.78518538999955e-09 2.20216378843376e-09 9.59036346538005e-11 1.28948322439836e-10
"2127" 28374 1.96345795187758e-10 5.47983622863937e-10 1.84485878211134e-09 2.17614245564198e-09 2.78364998586445e-09 2.21150509827936e-09 9.4850690349162e-11 1.28657761319888e-10
"2128" 28375 1.96222291376041e-10 5.47786133466418e-10 1.83835506759605e-09 2.17489136362521e-09 2.78211458172934e-09 2.22084640812496e-09 9.37977460445235e-11 1.28367200199939e-10
"2129" 28376 1.96098787564325e-10 5.47588644068899e-10 1.83185135308077e-09 2.17364027160844e-09 2.78057917759424e-09 2.23018771797055e-09 9.2744801739885e-11 1.2807663907999e-10
"2130" 28377 1.95975283752608e-10 5.4739115467138e-10 1.82534763856549e-09 2.17238917959166e-09 2.77904377345914e-09 2.23952902781615e-09 9.16918574352465e-11 1.27786077960041e-10
"2131" 28378 1.95851779940892e-10 5.47193665273861e-10 1.8188439240502e-09 2.17113808757489e-09 2.77750836932403e-09 2.24887033766175e-09 9.06389131306081e-11 1.27495516840093e-10
"2132" 28379 1.95851779940892e-10 5.46892401554173e-10 1.81838501891618e-09 2.17341569655426e-09 2.77770409324145e-09 2.25296236645424e-09 9.06389131306081e-11 1.27495516840093e-10
"2133" 28380 1.95851779940892e-10 5.46591137834485e-10 1.81792611378216e-09 2.17569330553363e-09 2.77789981715886e-09 2.25705439524673e-09 9.06389131306081e-11 1.27495516840093e-10
"2134" 28381 1.95851779940892e-10 5.46289874114797e-10 1.81746720864814e-09 2.177970914513e-09 2.77809554107627e-09 2.26114642403921e-09 9.06389131306081e-11 1.27495516840093e-10
"2135" 28382 1.95851779940892e-10 5.45988610395109e-10 1.81700830351412e-09 2.18024852349238e-09 2.77829126499368e-09 2.2652384528317e-09 9.06389131306081e-11 1.27495516840093e-10
"2136" 28383 1.95851779940892e-10 5.45687346675421e-10 1.8165493983801e-09 2.18252613247175e-09 2.7784869889111e-09 2.26933048162419e-09 9.06389131306081e-11 1.27495516840093e-10
"2137" 28384 1.95851779940892e-10 5.45386082955733e-10 1.81609049324608e-09 2.18480374145112e-09 2.77868271282851e-09 2.27342251041667e-09 9.06389131306081e-11 1.27495516840093e-10
"2138" 28385 1.95851779940892e-10 5.45084819236045e-10 1.81563158811206e-09 2.18708135043049e-09 2.77887843674592e-09 2.27751453920916e-09 9.06389131306081e-11 1.27495516840093e-10
"2139" 28386 1.95851779940892e-10 5.44783555516357e-10 1.81517268297803e-09 2.18935895940986e-09 2.77907416066334e-09 2.28160656800165e-09 9.06389131306081e-11 1.27495516840093e-10
"2140" 28387 1.9398027128378e-10 5.43889823604112e-10 1.81471377784401e-09 2.1918152958202e-09 2.74127622903799e-09 2.24072531015393e-09 9.03618175368923e-11 1.27204955720144e-10
"2141" 28388 1.92108762626669e-10 5.42996091691867e-10 1.81885677115968e-09 2.21265063921581e-09 2.70232421204429e-09 2.19025749034282e-09 9.03063794666678e-11 1.27204955720144e-10
"2142" 28389 1.90049629316812e-10 5.42299849177141e-10 1.82299976447534e-09 2.23348598261141e-09 2.66433055650153e-09 2.139662920032e-09 9.0029283872952e-11 1.26914394600195e-10
"2143" 28390 1.88864498429653e-10 5.42299849177141e-10 1.82167639749332e-09 2.23348598261141e-09 2.62779401552691e-09 2.08906834972118e-09 9.08051325838748e-11 1.28991776191714e-10
"2144" 28391 1.87679367542494e-10 5.42299849177141e-10 1.8203530305113e-09 2.23348598261141e-09 2.59125747455228e-09 2.03847377941036e-09 9.15809812947975e-11 1.31069157783232e-10
"2145" 28392 1.86494236655334e-10 5.42299849177141e-10 1.81902966352928e-09 2.23348598261141e-09 2.55472093357766e-09 1.98787920909954e-09 9.23568300057202e-11 1.33146539374751e-10
"2146" 28393 1.85309105768175e-10 5.42299849177141e-10 1.81770629654726e-09 2.23348598261141e-09 2.51818439260303e-09 1.93728463878872e-09 9.3132678716643e-11 1.35223920966269e-10
"2147" 28394 1.84123974881016e-10 5.42299849177141e-10 1.81638292956523e-09 2.23348598261141e-09 2.48164785162841e-09 1.8866900684779e-09 9.39085274275657e-11 1.37301302557787e-10
"2148" 28395 1.82938843993857e-10 5.42299849177141e-10 1.81505956258321e-09 2.23348598261141e-09 2.44511131065379e-09 1.83609549816708e-09 9.46843761384884e-11 1.39378684149306e-10
"2149" 28396 1.81753713106697e-10 5.42299849177141e-10 1.81373619560119e-09 2.23348598261141e-09 2.40857476967916e-09 1.78550092785627e-09 9.54602248494112e-11 1.41456065740824e-10
"2150" 28397 1.80568582219538e-10 5.42299849177141e-10 1.81241282861917e-09 2.23348598261141e-09 2.37203822870454e-09 1.73490635754545e-09 9.62360735603339e-11 1.43533447332343e-10
"2151" 28398 1.79383451332379e-10 5.42299849177141e-10 1.81108946163715e-09 2.23348598261141e-09 2.33550168772992e-09 1.68431178723463e-09 9.70119222712566e-11 1.45610828923861e-10
"2152" 28399 1.7819832044522e-10 5.42299849177141e-10 1.80976609465513e-09 2.23348598261141e-09 2.29896514675529e-09 1.63371721692381e-09 9.77877709821794e-11 1.4768821051538e-10
"2153" 28400 1.7701318955806e-10 5.42299849177141e-10 1.80844272767311e-09 2.23348598261141e-09 2.26242860578067e-09 1.58312264661299e-09 9.85636196931021e-11 1.49765592106898e-10
"2154" 28401 1.77576063516296e-10 5.42892317369698e-10 1.80959320228553e-09 2.23348598261141e-09 2.26368999643139e-09 1.58237039249637e-09 9.93394684040248e-11 1.51925342821107e-10
"2155" 28402 1.77388438863551e-10 5.42892317369698e-10 1.81243275261076e-09 2.23188585418022e-09 2.26242860578067e-09 1.58498265970048e-09 9.96165639977406e-11 1.52133534818366e-10
"2156" 28403 1.77200814210806e-10 5.42892317369698e-10 1.815272302936e-09 2.23028572574902e-09 2.26116721512994e-09 1.5875949269046e-09 9.98936595914563e-11 1.52341726815624e-10
"2157" 28404 1.7701318955806e-10 5.42892317369698e-10 1.81811185326123e-09 2.22868559731782e-09 2.25990582447922e-09 1.59020719410872e-09 1.00170755185172e-10 1.52549918812882e-10
"2158" 28405 1.76825564905315e-10 5.42892317369698e-10 1.82095140358647e-09 2.22708546888663e-09 2.25864443382849e-09 1.59281946131284e-09 1.00447850778888e-10 1.5275811081014e-10
"2159" 28406 1.7663794025257e-10 5.42892317369698e-10 1.8237909539117e-09 2.22548534045543e-09 2.25738304317777e-09 1.59543172851695e-09 1.00724946372604e-10 1.52966302807398e-10
"2160" 28407 1.76450315599825e-10 5.42892317369698e-10 1.82663050423694e-09 2.22388521202423e-09 2.25612165252704e-09 1.59804399572107e-09 1.01002041966319e-10 1.53174494804657e-10
"2161" 28408 1.76262690947079e-10 5.42892317369698e-10 1.82947005456217e-09 2.22228508359303e-09 2.25486026187632e-09 1.60065626292519e-09 1.01279137560035e-10 1.53382686801915e-10
"2162" 28409 1.76075066294334e-10 5.43089806767217e-10 1.83064045316619e-09 2.22186118882722e-09 2.25256222020769e-09 1.60889806268154e-09 1.01279137560035e-10 1.53673247921864e-10
"2163" 28410 1.75887441641589e-10 5.43287296164736e-10 1.8318108517702e-09 2.2214372940614e-09 2.25026417853907e-09 1.6171398624379e-09 1.01279137560035e-10 1.53963809041812e-10
"2164" 28411 1.75699816988844e-10 5.43484785562255e-10 1.83298125037422e-09 2.22101339929559e-09 2.24796613687045e-09 1.62538166219425e-09 1.01279137560035e-10 1.54254370161761e-10
"2165" 28412 1.75512192336098e-10 5.43682274959774e-10 1.83415164897823e-09 2.22058950452977e-09 2.24566809520183e-09 1.6336234619506e-09 1.01279137560035e-10 1.5454493128171e-10
"2166" 28413 1.75324567683353e-10 5.43879764357293e-10 1.83532204758224e-09 2.22016560976396e-09 2.2433700535332e-09 1.64186526170696e-09 1.01279137560035e-10 1.54835492401659e-10
"2167" 28414 1.75136943030608e-10 5.44077253754812e-10 1.83649244618626e-09 2.21974171499814e-09 2.24107201186458e-09 1.65010706146331e-09 1.01279137560035e-10 1.55126053521607e-10
"2168" 28415 1.74949318377862e-10 5.4427474315233e-10 1.83766284479027e-09 2.21931782023233e-09 2.23877397019596e-09 1.65834886121967e-09 1.01279137560035e-10 1.55416614641556e-10
"2169" 28416 1.74761693725117e-10 5.44472232549849e-10 1.83883324339428e-09 2.21889392546651e-09 2.23647592852734e-09 1.66659066097602e-09 1.01279137560035e-10 1.55707175761505e-10
"2170" 28417 1.74574069072372e-10 5.44669721947368e-10 1.8400036419983e-09 2.2184700307007e-09 2.23417788685872e-09 1.67483246073237e-09 1.01279137560035e-10 1.55997736881454e-10
"2171" 28418 1.74386444419627e-10 5.44867211344887e-10 1.84117404060231e-09 2.21804613593488e-09 2.23187984519009e-09 1.68307426048873e-09 1.01279137560035e-10 1.56288298001402e-10
"2172" 28419 1.74198819766881e-10 5.45064700742406e-10 1.84234443920633e-09 2.21762224116907e-09 2.22958180352147e-09 1.69131606024508e-09 1.01279137560035e-10 1.56578859121351e-10
"2173" 28420 1.74011195114136e-10 5.45262190139925e-10 1.84351483781034e-09 2.21719834640325e-09 2.22728376185285e-09 1.69955786000143e-09 1.01279137560035e-10 1.568694202413e-10
"2174" 28421 1.73823570461391e-10 5.45459679537444e-10 1.84468523641435e-09 2.21677445163744e-09 2.22498572018423e-09 1.70779965975779e-09 1.01279137560035e-10 1.57159981361249e-10
"2175" 28422 1.73635945808645e-10 5.45657168934963e-10 1.84585563501837e-09 2.21635055687162e-09 2.22268767851561e-09 1.71604145951414e-09 1.01279137560035e-10 1.57450542481198e-10
"2176" 28423 1.73635945808645e-10 5.44753377775899e-10 1.84702603362238e-09 2.20665809103802e-09 2.22165102749771e-09 1.71980273009726e-09 1.01279137560035e-10 1.57741103601146e-10
"2177" 28424 1.73823570461391e-10 5.43849586616835e-10 1.85203348878605e-09 2.20081435188681e-09 2.22007647857912e-09 1.72094348459463e-09 1.01500795083526e-10 1.57741103601146e-10
"2178" 28425 1.74011195114136e-10 5.44047076014354e-10 1.85771258943651e-09 2.20298809178661e-09 2.21953858067843e-09 1.72581251414862e-09 1.01445357013302e-10 1.57741103601146e-10
"2179" 28426 1.74011195114136e-10 5.46447126525039e-10 1.85786555781452e-09 2.19960068904573e-09 2.21953858067843e-09 1.72767252723611e-09 1.01389918943077e-10 1.5865624071287e-10
"2180" 28427 1.74011195114136e-10 5.48847177035724e-10 1.85801852619253e-09 2.19621328630486e-09 2.21953858067843e-09 1.72953254032361e-09 1.01334480872853e-10 1.59571377824593e-10
"2181" 28428 1.74011195114136e-10 5.51247227546409e-10 1.85817149457054e-09 2.19282588356399e-09 2.21953858067843e-09 1.7313925534111e-09 1.01279042802628e-10 1.60486514936317e-10
"2182" 28429 1.74011195114136e-10 5.53647278057094e-10 1.85832446294854e-09 2.18943848082312e-09 2.21953858067843e-09 1.7332525664986e-09 1.01223604732404e-10 1.6140165204804e-10
"2183" 28430 1.74011195114136e-10 5.56047328567779e-10 1.85847743132655e-09 2.18605107808224e-09 2.21953858067843e-09 1.73511257958609e-09 1.01168166662179e-10 1.62316789159763e-10
"2184" 28431 1.74011195114136e-10 5.58447379078464e-10 1.85863039970456e-09 2.18266367534137e-09 2.21953858067843e-09 1.73697259267358e-09 1.01112728591955e-10 1.63231926271487e-10
"2185" 28432 1.74011195114136e-10 5.60847429589149e-10 1.85878336808256e-09 2.1792762726005e-09 2.21953858067843e-09 1.73883260576108e-09 1.0105729052173e-10 1.6414706338321e-10
"2186" 28433 1.74011195114136e-10 5.63247480099834e-10 1.85893633646057e-09 2.17588886985962e-09 2.21953858067843e-09 1.74069261884857e-09 1.01001852451506e-10 1.65062200494934e-10
"2187" 28434 1.74011195114136e-10 5.65647530610519e-10 1.85908930483858e-09 2.17250146711875e-09 2.21953858067843e-09 1.74255263193607e-09 1.00946414381281e-10 1.65977337606657e-10
"2188" 28435 1.74011195114136e-10 5.68047581121204e-10 1.85924227321659e-09 2.16911406437788e-09 2.21953858067843e-09 1.74441264502356e-09 1.00890976311057e-10 1.66892474718381e-10
"2189" 28436 1.74011195114136e-10 5.69553899719645e-10 1.84788407191565e-09 2.16740164841959e-09 2.22007647857912e-09 1.74702491222768e-09 1.00170565670358e-10 1.67599419832846e-10
"2190" 28437 1.74011195114136e-10 5.71060218318085e-10 1.83652587061471e-09 2.16568923246131e-09 2.22061437647981e-09 1.74963717943179e-09 9.94501550296602e-11 1.68306364947311e-10
"2191" 28438 1.74011195114136e-10 5.72566536916525e-10 1.82516766931377e-09 2.16397681650303e-09 2.2211522743805e-09 1.75224944663591e-09 9.8729744388962e-11 1.69013310061776e-10
"2192" 28439 1.74011195114136e-10 5.74072855514965e-10 1.81380946801283e-09 2.16226440054474e-09 2.22169017228119e-09 1.75486171384003e-09 9.80093337482638e-11 1.69720255176241e-10
"2193" 28440 1.74011195114136e-10 5.75579174113405e-10 1.80245126671189e-09 2.16055198458646e-09 2.22222807018188e-09 1.75747398104415e-09 9.72889231075655e-11 1.70427200290707e-10
"2194" 28441 1.74011195114136e-10 5.77085492711846e-10 1.79109306541095e-09 2.15883956862817e-09 2.22276596808257e-09 1.76008624824826e-09 9.65685124668673e-11 1.71134145405172e-10
"2195" 28442 1.74011195114136e-10 5.78591811310286e-10 1.77973486411001e-09 2.15712715266989e-09 2.22330386598326e-09 1.76269851545238e-09 9.58481018261691e-11 1.71841090519637e-10
"2196" 28443 1.74011195114136e-10 5.80098129908726e-10 1.76837666280907e-09 2.1554147367116e-09 2.22384176388395e-09 1.7653107826565e-09 9.51276911854709e-11 1.72548035634102e-10
"2197" 28444 1.74011195114136e-10 5.81604448507166e-10 1.75701846150813e-09 2.15370232075332e-09 2.22437966178464e-09 1.76792304986062e-09 9.44072805447727e-11 1.73254980748567e-10
"2198" 28445 1.74011195114136e-10 5.84004499017851e-10 1.75304836056207e-09 2.15156601002922e-09 2.22353873468416e-09 1.76229351730838e-09 9.44072805447727e-11 1.73961925863033e-10
"2199" 28446 1.74322323578598e-10 5.8420198841537e-10 1.7487523988684e-09 2.14910967361888e-09 2.22730401998898e-09 1.75666398475614e-09 9.44072805447727e-11 1.73961925863033e-10
"2200" 28447 1.74322323578598e-10 5.8420198841537e-10 1.74647137363515e-09 2.14868577885306e-09 2.2290351480415e-09 1.74966494335199e-09 9.41856230212814e-11 1.73753733865774e-10
"2201" 28448 1.74509948231343e-10 5.84399477812889e-10 1.74802740496155e-09 2.15211061076963e-09 2.22765632304033e-09 1.74704442726625e-09 9.41856230212814e-11 1.73753733865774e-10
"2202" 28449 1.74697572884088e-10 5.84596967210408e-10 1.74958343628795e-09 2.1555354426862e-09 2.22627749803915e-09 1.74442391118051e-09 9.41856230212814e-11 1.73753733865774e-10
"2203" 28450 1.74885197536834e-10 5.84794456607927e-10 1.75113946761435e-09 2.15896027460277e-09 2.22489867303798e-09 1.74180339509476e-09 9.41856230212814e-11 1.73753733865774e-10
"2204" 28451 1.75072822189579e-10 5.84991946005446e-10 1.75269549894075e-09 2.16238510651934e-09 2.22351984803681e-09 1.73918287900902e-09 9.41856230212814e-11 1.73753733865774e-10
"2205" 28452 1.75260446842324e-10 5.85189435402965e-10 1.75425153026715e-09 2.16580993843591e-09 2.22214102303563e-09 1.73656236292328e-09 9.41856230212814e-11 1.73753733865774e-10
"2206" 28453 1.75448071495069e-10 5.85386924800484e-10 1.75580756159355e-09 2.16923477035248e-09 2.22076219803446e-09 1.73394184683754e-09 9.41856230212814e-11 1.73753733865774e-10
"2207" 28454 1.75635696147815e-10 5.85584414198003e-10 1.75736359291995e-09 2.17265960226905e-09 2.21938337303329e-09 1.73132133075179e-09 9.41856230212814e-11 1.73753733865774e-10
"2208" 28455 1.7582332080056e-10 5.85781903595522e-10 1.75891962424635e-09 2.17608443418561e-09 2.21800454803211e-09 1.72870081466605e-09 9.41856230212814e-11 1.73753733865774e-10
"2209" 28456 1.76010945453305e-10 5.85979392993041e-10 1.76047565557275e-09 2.17950926610218e-09 2.21662572303094e-09 1.72608029858031e-09 9.41856230212814e-11 1.73753733865774e-10
"2210" 28457 1.76198570106051e-10 5.8617688239056e-10 1.76203168689915e-09 2.18293409801875e-09 2.21524689802977e-09 1.72345978249456e-09 9.41856230212814e-11 1.73753733865774e-10
"2211" 28458 1.76386194758796e-10 5.86374371788079e-10 1.76358771822555e-09 2.18635892993532e-09 2.21386807302859e-09 1.72083926640882e-09 9.41856230212814e-11 1.73753733865774e-10
"2212" 28459 1.75699816988844e-10 5.86374371788079e-10 1.76358771822555e-09 2.19206137083126e-09 2.21386807302859e-09 1.72384828287531e-09 9.44072805447727e-11 1.73671364743084e-10
"2213" 28460 1.75699816988844e-10 5.82478061925773e-10 1.76358771822555e-09 2.18054420151229e-09 2.21328090127635e-09 1.71901224884783e-09 9.44072805447727e-11 1.73463172745826e-10
"2214" 28461 1.75699816988844e-10 5.78581752063467e-10 1.76358771822555e-09 2.16902703219333e-09 2.21269372952412e-09 1.71417621482034e-09 9.44072805447727e-11 1.73254980748567e-10
"2215" 28462 1.75699816988844e-10 5.74685442201161e-10 1.76358771822555e-09 2.15750986287436e-09 2.21210655777188e-09 1.70934018079286e-09 9.44072805447727e-11 1.73046788751309e-10
"2216" 28463 1.75699816988844e-10 5.70789132338855e-10 1.76358771822555e-09 2.14599269355539e-09 2.21151938601964e-09 1.70450414676538e-09 9.44072805447727e-11 1.72838596754051e-10
"2217" 28464 1.75699816988844e-10 5.66892822476549e-10 1.76358771822555e-09 2.13447552423642e-09 2.2109322142674e-09 1.69966811273789e-09 9.44072805447727e-11 1.72630404756793e-10
"2218" 28465 1.75699816988844e-10 5.62996512614243e-10 1.76358771822555e-09 2.12295835491745e-09 2.21034504251516e-09 1.69483207871041e-09 9.44072805447727e-11 1.72422212759534e-10
"2219" 28466 1.75699816988844e-10 5.60887666576426e-10 1.7613066929923e-09 2.10075963197799e-09 2.20378296242451e-09 1.68175424492657e-09 9.41856230212814e-11 1.72504581882225e-10
"2220" 28467 1.75699816988844e-10 5.5877882053861e-10 1.75902566775905e-09 2.07856090903852e-09 2.19722088233385e-09 1.66867641114273e-09 9.39639654977902e-11 1.72586951004916e-10
"2221" 28468 1.75699816988844e-10 5.56669974500794e-10 1.7567446425258e-09 2.05636218609905e-09 2.19065880224319e-09 1.65559857735889e-09 9.3742307974299e-11 1.72669320127606e-10
"2222" 28469 1.75699816988844e-10 5.54561128462977e-10 1.75446361729255e-09 2.03416346315959e-09 2.18409672215254e-09 1.64252074357505e-09 9.35206504508078e-11 1.72751689250297e-10
"2223" 28470 1.75699816988844e-10 5.52452282425161e-10 1.7521825920593e-09 2.01196474022012e-09 2.17753464206188e-09 1.62944290979121e-09 9.32989929273165e-11 1.72834058372987e-10
"2224" 28471 1.75699816988844e-10 5.50343436387345e-10 1.74990156682605e-09 1.98976601728065e-09 2.17097256197123e-09 1.61636507600738e-09 9.30773354038253e-11 1.72916427495678e-10
"2225" 28472 1.75699816988844e-10 5.48234590349529e-10 1.7476205415928e-09 1.96756729434119e-09 2.16441048188057e-09 1.60328724222354e-09 9.28556778803340e-11 1.72998796618368e-10
"2226" 28473 1.75699816988844e-10 5.46125744311712e-10 1.74533951635955e-09 1.94536857140172e-09 2.15784840178992e-09 1.5902094084397e-09 9.26340203568428e-11 1.73081165741059e-10
"2227" 28474 1.75699816988844e-10 5.44016898273896e-10 1.7430584911263e-09 1.92316984846225e-09 2.15128632169926e-09 1.57713157465586e-09 9.24123628333516e-11 1.73163534863749e-10
"2228" 28475 1.75699816988844e-10 5.4190805223608e-10 1.74077746589305e-09 1.90097112552279e-09 2.1447242416086e-09 1.56405374087202e-09 9.21907053098603e-11 1.7324590398644e-10
"2229" 28476 1.75699816988844e-10 5.39799206198263e-10 1.73849644065981e-09 1.87877240258332e-09 2.13816216151795e-09 1.55097590708819e-09 9.19690477863691e-11 1.7332827310913e-10
"2230" 28477 1.75699816988844e-10 5.37690360160447e-10 1.73621541542656e-09 1.85657367964386e-09 2.13160008142729e-09 1.53789807330435e-09 9.17473902628779e-11 1.73410642231821e-10
"2231" 28478 1.75699816988844e-10 5.35581514122631e-10 1.73393439019331e-09 1.83437495670439e-09 2.12503800133664e-09 1.52482023952051e-09 9.15257327393866e-11 1.73493011354512e-10
"2232" 28479 1.75699816988844e-10 5.33472668084815e-10 1.73165336496006e-09 1.81217623376492e-09 2.11847592124598e-09 1.51174240573667e-09 9.13040752158954e-11 1.73575380477202e-10
"2233" 28480 1.75699816988844e-10 5.31363822046998e-10 1.72937233972681e-09 1.78997751082546e-09 2.11191384115532e-09 1.49866457195283e-09 9.10824176924042e-11 1.73657749599893e-10
"2234" 28481 1.74766431595458e-10 5.25171235996176e-10 1.72522934641115e-09 1.7860249150635e-09 2.10922435165188e-09 1.49879132245254e-09 9.08053220986884e-11 1.72742612488169e-10
"2235" 28482 1.74766431595458e-10 5.194975215562e-10 1.71601912595704e-09 1.78520613626005e-09 2.10485300794746e-09 1.49816581883562e-09 8.975237779405e-11 1.71662737131065e-10
"2236" 28483 1.74766431595458e-10 5.13522543396535e-10 1.70863102560217e-09 1.78520613626005e-09 2.10002205590932e-09 1.497413564719e-09 8.86994334894115e-11 1.70873422893909e-10
"2237" 28484 1.74766431595458e-10 5.07547565236871e-10 1.70124292524729e-09 1.78520613626005e-09 2.09519110387118e-09 1.49666131060238e-09 8.7646489184773e-11 1.70084108656753e-10
"2238" 28485 1.74766431595458e-10 5.01572587077206e-10 1.69385482489241e-09 1.78520613626005e-09 2.09036015183304e-09 1.49590905648575e-09 8.65935448801345e-11 1.69294794419597e-10
"2239" 28486 1.74766431595458e-10 4.95597608917542e-10 1.68646672453754e-09 1.78520613626005e-09 2.0855291997949e-09 1.49515680236913e-09 8.5540600575496e-11 1.68505480182442e-10
"2240" 28487 1.74766431595458e-10 4.89622630757877e-10 1.67907862418266e-09 1.78520613626005e-09 2.08069824775676e-09 1.49440454825251e-09 8.44876562708575e-11 1.67716165945286e-10
"2241" 28488 1.74766431595458e-10 4.83647652598213e-10 1.67169052382778e-09 1.78520613626005e-09 2.07586729571862e-09 1.49365229413588e-09 8.34347119662191e-11 1.6692685170813e-10
"2242" 28489 1.74766431595458e-10 4.77672674438548e-10 1.66430242347291e-09 1.78520613626005e-09 2.07103634368048e-09 1.49290004001926e-09 8.23817676615806e-11 1.66137537470974e-10
"2243" 28490 1.74766431595458e-10 4.71697696278883e-10 1.65691432311803e-09 1.78520613626005e-09 2.06620539164234e-09 1.49214778590264e-09 8.13288233569421e-11 1.65348223233819e-10
"2244" 28491 1.74766431595458e-10 4.65722718119219e-10 1.64952622276315e-09 1.78520613626005e-09 2.0613744396042e-09 1.49139553178601e-09 8.02758790523036e-11 1.64558908996663e-10
"2245" 28492 1.74766431595458e-10 4.59747739959554e-10 1.64213812240828e-09 1.78520613626005e-09 2.05654348756607e-09 1.49064327766939e-09 7.92229347476651e-11 1.63769594759507e-10
"2246" 28493 1.74766431595458e-10 4.5377276179989e-10 1.6347500220534e-09 1.78520613626005e-09 2.05171253552793e-09 1.48989102355277e-09 7.81699904430267e-11 1.62980280522351e-10
"2247" 28494 1.73833046202073e-10 4.52671481243307e-10 1.63789550913465e-09 1.78548873277059e-09 2.05113549284375e-09 1.48801451270202e-09 7.81699904430267e-11 1.63062649645042e-10
"2248" 28495 1.72899660808688e-10 4.51570200686724e-10 1.6410409962159e-09 1.78577132928114e-09 2.05055845015958e-09 1.48613800185128e-09 7.81699904430267e-11 1.63145018767733e-10
"2249" 28496 1.71966275415303e-10 4.50468920130141e-10 1.64418648329715e-09 1.78605392579168e-09 2.04998140747541e-09 1.48426149100053e-09 7.81699904430267e-11 1.63227387890423e-10
"2250" 28497 1.71032890021918e-10 4.49367639573558e-10 1.6473319703784e-09 1.78633652230222e-09 2.04940436479124e-09 1.48238498014979e-09 7.81699904430267e-11 1.63309757013114e-10
"2251" 28498 1.70099504628533e-10 4.48266359016975e-10 1.65047745745965e-09 1.78661911881277e-09 2.04882732210707e-09 1.48050846929904e-09 7.81699904430267e-11 1.63392126135804e-10
"2252" 28499 1.69166119235148e-10 4.47165078460391e-10 1.65362294454089e-09 1.78690171532331e-09 2.04825027942289e-09 1.4786319584483e-09 7.81699904430267e-11 1.63474495258495e-10
"2253" 28500 1.68232733841763e-10 4.46063797903808e-10 1.65676843162214e-09 1.78718431183385e-09 2.04767323673872e-09 1.47675544759755e-09 7.81699904430267e-11 1.63556864381185e-10
"2254" 28501 1.67299348448377e-10 4.44962517347225e-10 1.65991391870339e-09 1.7874669083444e-09 2.04709619405455e-09 1.4748789367468e-09 7.81699904430267e-11 1.63639233503876e-10
"2255" 28502 1.67299348448377e-10 4.42873789803048e-10 1.66403698802746e-09 1.77589171756906e-09 2.02945424010296e-09 1.47412668263018e-09 7.79483329195354e-11 1.63014657512101e-10
"2256" 28503 1.67299348448377e-10 4.4078506225887e-10 1.66816005735153e-09 1.76431652679372e-09 2.01181228615137e-09 1.47337442851356e-09 7.77266753960442e-11 1.62390081520327e-10
"2257" 28504 1.67111723795632e-10 4.38893824112211e-10 1.66798716498193e-09 1.75245873950784e-09 1.99417033219978e-09 1.47337442851356e-09 7.7505017872553e-11 1.61765505528552e-10
"2258" 28505 1.67798101565584e-10 4.40587572861351e-10 1.67149836079397e-09 1.74177718588735e-09 1.98727620719391e-09 1.47710270357017e-09 7.83363046537002e-11 1.60850368416828e-10
"2259" 28506 1.68484479335537e-10 4.42281321610491e-10 1.67500955660602e-09 1.73109563226685e-09 1.98038208218804e-09 1.48083097862679e-09 7.91675914348474e-11 1.59935231305105e-10
"2260" 28507 1.69170857105489e-10 4.43975070359631e-10 1.67852075241806e-09 1.72041407864635e-09 1.97348795718218e-09 1.4845592536834e-09 7.99988782159947e-11 1.59020094193382e-10
"2261" 28508 1.69857234875441e-10 4.45668819108771e-10 1.6820319482301e-09 1.70973252502585e-09 1.96659383217631e-09 1.48828752874001e-09 8.08301649971419e-11 1.58104957081658e-10
"2262" 28509 1.70543612645393e-10 4.4736256785791e-10 1.68554314404214e-09 1.69905097140535e-09 1.95969970717044e-09 1.49201580379663e-09 8.16614517782892e-11 1.57189819969935e-10
"2263" 28510 1.71229990415346e-10 4.4905631660705e-10 1.68905433985418e-09 1.68836941778485e-09 1.95280558216458e-09 1.49574407885324e-09 8.24927385594364e-11 1.56274682858211e-10
"2264" 28511 1.71916368185298e-10 4.5075006535619e-10 1.69256553566622e-09 1.67768786416435e-09 1.94591145715871e-09 1.49947235390985e-09 8.33240253405837e-11 1.55359545746488e-10
"2265" 28512 1.72039871997014e-10 4.49762618368596e-10 1.69668860499029e-09 1.66611267338902e-09 1.92872911154085e-09 1.49947235390985e-09 8.31023678170925e-11 1.54444408634764e-10
"2266" 28513 1.72163375808731e-10 4.48775171381001e-10 1.70081167431436e-09 1.65453748261368e-09 1.91154676592298e-09 1.49947235390985e-09 8.28807102936012e-11 1.53529271523041e-10
"2267" 28514 1.72286879620447e-10 4.47787724393406e-10 1.70493474363843e-09 1.64296229183835e-09 1.89436442030511e-09 1.49947235390985e-09 8.265905277011e-11 1.52614134411318e-10
"2268" 28515 1.72410383432164e-10 4.46800277405811e-10 1.7090578129625e-09 1.63138710106301e-09 1.87718207468725e-09 1.49947235390985e-09 8.24373952466187e-11 1.51698997299594e-10
"2269" 28516 1.7253388724388e-10 4.45812830418217e-10 1.71318088228657e-09 1.61981191028767e-09 1.85999972906938e-09 1.49947235390985e-09 8.22157377231275e-11 1.50783860187871e-10
"2270" 28517 1.72845015708342e-10 4.469141109748e-10 1.71318088228657e-09 1.62095071477736e-09 1.85731023956593e-09 1.49834809717573e-09 8.19940801996363e-11 1.50783860187871e-10
"2271" 28518 1.73156144172804e-10 4.47121659619138e-10 1.71730395161064e-09 1.62208951926704e-09 1.85615615419759e-09 1.49785759294015e-09 8.19940801996363e-11 1.50783860187871e-10
"2272" 28519 1.73467272637265e-10 4.47329208263476e-10 1.72142702093471e-09 1.62322832375673e-09 1.85500206882924e-09 1.49736708870457e-09 8.19940801996363e-11 1.50783860187871e-10
"2273" 28520 1.73778401101727e-10 4.46736740070919e-10 1.72157998931272e-09 1.6234070511877e-09 1.85500206882924e-09 1.49649633296986e-09 8.22157377231275e-11 1.5107442130782e-10
"2274" 28521 1.74089529566189e-10 4.46144271878362e-10 1.72173295769073e-09 1.62358577861866e-09 1.85500206882924e-09 1.49562557723516e-09 8.24373952466187e-11 1.51364982427768e-10
"2275" 28522 1.7440065803065e-10 4.45551803685806e-10 1.72188592606874e-09 1.62376450604963e-09 1.85500206882924e-09 1.49475482150045e-09 8.265905277011e-11 1.51655543547717e-10
"2276" 28523 1.74711786495112e-10 4.44959335493249e-10 1.72203889444674e-09 1.6239432334806e-09 1.85500206882924e-09 1.49388406576575e-09 8.28807102936012e-11 1.51946104667666e-10
"2277" 28524 1.75022914959574e-10 4.44366867300692e-10 1.72219186282475e-09 1.62412196091157e-09 1.85500206882924e-09 1.49301331003104e-09 8.31023678170925e-11 1.52236665787615e-10
"2278" 28525 1.75334043424035e-10 4.43774399108135e-10 1.72234483120276e-09 1.62430068834254e-09 1.85500206882924e-09 1.49214255429633e-09 8.33240253405837e-11 1.52527226907563e-10
"2279" 28526 1.75645171888497e-10 4.43181930915578e-10 1.72249779958076e-09 1.6244794157735e-09 1.85500206882924e-09 1.49127179856163e-09 8.35456828640749e-11 1.52817788027512e-10
"2280" 28527 1.75956300352959e-10 4.42589462723022e-10 1.72265076795877e-09 1.62465814320447e-09 1.85500206882924e-09 1.49040104282692e-09 8.37673403875662e-11 1.53108349147461e-10
"2281" 28528 1.76267428817421e-10 4.41996994530465e-10 1.72280373633678e-09 1.62483687063544e-09 1.85500206882924e-09 1.48953028709222e-09 8.39889979110574e-11 1.5339891026741e-10
"2282" 28529 1.76578557281882e-10 4.41404526337908e-10 1.72295670471479e-09 1.62501559806641e-09 1.85500206882924e-09 1.48865953135751e-09 8.42106554345486e-11 1.53689471387358e-10
"2283" 28530 1.76889685746344e-10 4.40812058145351e-10 1.72310967309279e-09 1.62519432549737e-09 1.85500206882924e-09 1.48778877562281e-09 8.44323129580399e-11 1.53980032507307e-10
"2284" 28531 1.77200814210806e-10 4.40219589952794e-10 1.7232626414708e-09 1.62537305292834e-09 1.85500206882924e-09 1.4869180198881e-09 8.46539704815311e-11 1.54270593627256e-10
"2285" 28532 1.77511942675267e-10 4.39627121760237e-10 1.72341560984881e-09 1.62555178035931e-09 1.85500206882924e-09 1.48604726415339e-09 8.48756280050223e-11 1.54561154747205e-10
"2286" 28533 1.77823071139729e-10 4.39034653567681e-10 1.72356857822681e-09 1.62573050779028e-09 1.85500206882924e-09 1.48517650841869e-09 8.50972855285136e-11 1.54851715867153e-10
"2287" 28534 1.77823071139729e-10 4.40229649199614e-10 1.72924767887728e-09 1.63428416913419e-09 1.86110454058618e-09 1.49078129432605e-09 8.50972855285136e-11 1.55059907864412e-10
"2288" 28535 1.77823071139729e-10 4.41424644831546e-10 1.73492677952775e-09 1.6428378304781e-09 1.86720701234311e-09 1.49638608023341e-09 8.50972855285136e-11 1.5526809986167e-10
