"time" "channel1" "channel2" "channel3" "channel4" "channel5" "channel6" "channel7" "channel8"
"1316" 39375 3.123368323462e-09 4.31631654533248e-09 2.22946364338562e-08 6.92981311712318e-08 1.49985674856891e-07 1.53018347605435e-07 1.46231412123692e-08 4.34456147043899e-09
"1317" 39376 3.123368323462e-09 4.30982269556197e-09 2.21842056781554e-08 6.91615439200828e-08 1.49832704099974e-07 1.510808649716e-07 1.4614939410213e-08 4.34456147043899e-09
"1318" 39377 3.12417820504367e-09 4.3239953314881e-09 2.21036403375123e-08 6.89529322372825e-08 1.4947924334752e-07 1.49141514075796e-07 1.46060171974161e-08 4.34456147043899e-09
"1319" 39378 3.12498808662533e-09 4.33816796741424e-09 2.20230749968691e-08 6.87443205544822e-08 1.49125782595065e-07 1.47202163179991e-07 1.45970949846192e-08 4.34456147043899e-09
"1320" 39379 3.125797968207e-09 4.35234060334037e-09 2.1942509656226e-08 6.8535708871682e-08 1.4877232184261e-07 1.45262812284187e-07 1.45881727718223e-08 4.34456147043899e-09
"1321" 39380 3.12660784978867e-09 4.3665132392665e-09 2.18619443155828e-08 6.83270971888817e-08 1.48418861090156e-07 1.43323461388383e-07 1.45792505590254e-08 4.34456147043899e-09
"1322" 39381 3.12741773137034e-09 4.38068587519264e-09 2.17813789749397e-08 6.81184855060814e-08 1.48065400337701e-07 1.41384110492579e-07 1.45703283462285e-08 4.34456147043899e-09
"1323" 39382 3.12822761295201e-09 4.39485851111877e-09 2.17008136342965e-08 6.79098738232811e-08 1.47711939585247e-07 1.39444759596775e-07 1.45614061334316e-08 4.34456147043899e-09
"1324" 39383 3.12903749453368e-09 4.40903114704491e-09 2.16202482936534e-08 6.77012621404808e-08 1.47358478832792e-07 1.37505408700971e-07 1.45524839206346e-08 4.34456147043899e-09
"1325" 39384 3.12984737611535e-09 4.42320378297104e-09 2.15396829530102e-08 6.74926504576806e-08 1.47005018080337e-07 1.35566057805167e-07 1.45435617078377e-08 4.34456147043899e-09
"1326" 39385 3.13065725769701e-09 4.43737641889717e-09 2.14591176123671e-08 6.72840387748803e-08 1.46651557327883e-07 1.33626706909363e-07 1.45346394950408e-08 4.34456147043899e-09
"1327" 39386 3.12971913443329e-09 4.4578454151963e-09 2.14193639078138e-08 6.72774258599345e-08 1.46388067860443e-07 1.32327722020526e-07 1.4522447667947e-08 4.34219352772752e-09
"1328" 39387 3.12996614205672e-09 4.47831441149542e-09 2.14294919385359e-08 6.73467815539544e-08 1.46330066048781e-07 1.32164944011645e-07 1.4522447667947e-08 4.34190296660757e-09
"1329" 39388 3.11843543739027e-09 4.49519842089875e-09 2.13897382339826e-08 6.74171263357613e-08 1.45214171102228e-07 1.31900031866474e-07 1.44808850345229e-08 4.32997180716542e-09
"1330" 39389 3.10690473272382e-09 4.51208243030207e-09 2.13499845294293e-08 6.74874711175681e-08 1.44098276155676e-07 1.31635119721302e-07 1.44393224010989e-08 4.31804064772326e-09
"1331" 39390 3.09537402805738e-09 4.5289664397054e-09 2.13102308248761e-08 6.7557815899375e-08 1.42982381209123e-07 1.31370207576131e-07 1.43977597676748e-08 4.30610948828111e-09
"1332" 39391 3.08384332339093e-09 4.54585044910873e-09 2.12704771203228e-08 6.76281606811819e-08 1.41866486262571e-07 1.31105295430959e-07 1.43561971342508e-08 4.29417832883895e-09
"1333" 39392 3.07231261872448e-09 4.56273445851205e-09 2.12307234157695e-08 6.76985054629887e-08 1.40750591316018e-07 1.30840383285788e-07 1.43146345008268e-08 4.2822471693968e-09
"1334" 39393 3.05984852866465e-09 4.56104070976291e-09 2.11658058145662e-08 6.77781478265915e-08 1.4000455520038e-07 1.30575471140616e-07 1.42819940801996e-08 4.27031600995465e-09
"1335" 39394 3.06365092894956e-09 4.57363343050889e-09 2.11067202823914e-08 6.77958203423005e-08 1.3950497128514e-07 1.30342385439973e-07 1.42757873852697e-08 4.26711529925415e-09
"1336" 39395 3.06745332923447e-09 4.58622615125488e-09 2.10476347502166e-08 6.78134928580094e-08 1.39005387369901e-07 1.30109299739329e-07 1.42695806903397e-08 4.26391458855365e-09
"1337" 39396 3.07125572951938e-09 4.59881887200086e-09 2.09885492180418e-08 6.78311653737183e-08 1.38505803454661e-07 1.29876214038686e-07 1.42633739954097e-08 4.26071387785314e-09
"1338" 39397 3.07505812980429e-09 4.61141159274684e-09 2.0929463685867e-08 6.78488378894272e-08 1.38006219539422e-07 1.29643128338042e-07 1.42571673004797e-08 4.25751316715264e-09
"1339" 39398 3.0788605300892e-09 4.62400431349282e-09 2.08703781536922e-08 6.78665104051361e-08 1.37506635624183e-07 1.29410042637399e-07 1.42509606055498e-08 4.25431245645215e-09
"1340" 39399 3.08266293037411e-09 4.63659703423881e-09 2.08112926215174e-08 6.7884182920845e-08 1.37007051708943e-07 1.29176956936755e-07 1.42447539106198e-08 4.25111174575164e-09
"1341" 39400 3.09257387187722e-09 4.64368335220187e-09 2.07730280994336e-08 6.79134016166011e-08 1.37556422517268e-07 1.2921102364587e-07 1.42318417676426e-08 4.24791103505114e-09
"1342" 39401 3.10248481338033e-09 4.65076967016494e-09 2.07347635773498e-08 6.79426203123571e-08 1.38105793325593e-07 1.29245090354984e-07 1.42189296246655e-08 4.24471032435064e-09
"1343" 39402 3.11239575488344e-09 4.65785598812801e-09 2.0696499055266e-08 6.79718390081132e-08 1.38655164133918e-07 1.29279157064099e-07 1.42060174816883e-08 4.24150961365014e-09
"1344" 39403 3.12230669638655e-09 4.66494230609107e-09 2.06582345331822e-08 6.80010577038692e-08 1.39204534942243e-07 1.29313223773214e-07 1.41931053387112e-08 4.23830890294964e-09
"1345" 39404 3.13221763788966e-09 4.67202862405414e-09 2.06199700110984e-08 6.80302763996253e-08 1.39753905750568e-07 1.29347290482328e-07 1.4180193195734e-08 4.23510819224914e-09
"1346" 39405 3.14212857939278e-09 4.67911494201721e-09 2.05817054890147e-08 6.80594950953814e-08 1.40303276558893e-07 1.29381357191443e-07 1.41672810527568e-08 4.23190748154864e-09
"1347" 39406 3.15203952089589e-09 4.68620125998027e-09 2.05434409669309e-08 6.80887137911374e-08 1.40852647367219e-07 1.29415423900558e-07 1.41543689097797e-08 4.22870677084814e-09
"1348" 39407 3.161950462399e-09 4.69328757794334e-09 2.05051764448471e-08 6.81179324868935e-08 1.41402018175544e-07 1.29449490609672e-07 1.41414567668025e-08 4.22550606014764e-09
"1349" 39408 3.17186140390211e-09 4.70316892521213e-09 2.01345758778886e-08 6.72150901387311e-08 1.41848499391658e-07 1.29343231449062e-07 1.4172933461742e-08 4.23332137177757e-09
"1350" 39409 3.18177234540522e-09 4.71305027248092e-09 1.97639753109301e-08 6.63122477905688e-08 1.42294980607773e-07 1.29236972288452e-07 1.42044101566814e-08 4.2411366834075e-09
"1351" 39410 3.19168328690833e-09 4.72293161974971e-09 1.93933747439716e-08 6.54094054424064e-08 1.42741461823887e-07 1.29130713127842e-07 1.42358868516209e-08 4.24895199503744e-09
"1352" 39411 3.20159422841144e-09 4.7328129670185e-09 1.90227741770131e-08 6.45065630942441e-08 1.43187943040002e-07 1.29024453967233e-07 1.42673635465603e-08 4.25676730666737e-09
"1353" 39412 3.21150516991455e-09 4.74269431428729e-09 1.86521736100546e-08 6.36037207460817e-08 1.43634424256116e-07 1.28918194806623e-07 1.42988402414998e-08 4.2645826182973e-09
"1354" 39413 3.22141611141766e-09 4.75257566155608e-09 1.82815730430961e-08 6.27008783979194e-08 1.44080905472231e-07 1.28811935646013e-07 1.43303169364392e-08 4.27239792992723e-09
"1355" 39414 3.21518406638775e-09 4.74986428807889e-09 1.78996142748366e-08 6.20593199986552e-08 1.44174565124472e-07 1.2867808531793e-07 1.43283772672832e-08 4.27239792992723e-09
"1356" 39415 3.21724793756794e-09 4.75203667145160e-09 1.77106993104826e-08 6.48301817319886e-08 1.45729034883718e-07 1.30847413911332e-07 1.43968174152384e-08 4.28777236905689e-09
"1357" 39416 3.21101589253803e-09 4.75203667145160e-09 1.73378511427193e-08 6.41555643287336e-08 1.46482317427414e-07 1.30741154750722e-07 1.44345008051079e-08 4.29558768068682e-09
"1358" 39417 3.20478384750811e-09 4.75203667145160e-09 1.6965002974956e-08 6.34809469254785e-08 1.4723559997111e-07 1.30634895590112e-07 1.44721841949773e-08 4.30340299231675e-09
"1359" 39418 3.19855180247819e-09 4.75203667145160e-09 1.65921548071927e-08 6.28063295222235e-08 1.47988882514805e-07 1.30528636429502e-07 1.45098675848467e-08 4.31121830394668e-09
"1360" 39419 3.19231975744828e-09 4.75203667145160e-09 1.62193066394294e-08 6.21317121189684e-08 1.48742165058501e-07 1.30422377268892e-07 1.45475509747161e-08 4.31903361557661e-09
"1361" 39420 3.18608771241836e-09 4.75203667145160e-09 1.58464584716661e-08 6.14570947157134e-08 1.49495447602197e-07 1.30316118108282e-07 1.45852343645856e-08 4.32684892720654e-09
"1362" 39421 3.17985566738844e-09 4.75203667145160e-09 1.54736103039028e-08 6.07824773124583e-08 1.50248730145893e-07 1.30209858947672e-07 1.4622917754455e-08 4.33466423883647e-09
"1363" 39422 3.17362362235853e-09 4.75203667145160e-09 1.51007621361395e-08 6.01078599092032e-08 1.51002012689589e-07 1.30103599787062e-07 1.46606011443244e-08 4.3424795504664e-09
"1364" 39423 3.16458668327811e-09 4.75433294764011e-09 1.51007621361395e-08 6.02432297421255e-08 1.50634862234825e-07 1.28854099495234e-07 1.46031891925328e-08 4.3392788397659e-09
"1365" 39424 3.1555497441977e-09 4.75662922382863e-09 1.51007621361395e-08 6.03785995750477e-08 1.50267711780062e-07 1.27604599203406e-07 1.45457772407412e-08 4.3360781290654e-09
"1366" 39425 3.13940675766467e-09 4.74674787655984e-09 1.51059026356896e-08 6.0478595365824e-08 1.49864191492526e-07 1.26527802489513e-07 1.43330869448023e-08 4.29650735617961e-09
"1367" 39426 3.12326377113164e-09 4.73686652929105e-09 1.51110431352397e-08 6.05785911566002e-08 1.4946067120499e-07 1.2545100577562e-07 1.41203966488635e-08 4.25693658329381e-09
"1368" 39427 3.10712078459862e-09 4.72698518202226e-09 1.51161836347898e-08 6.06785869473765e-08 1.49057150917454e-07 1.24374209061727e-07 1.39077063529246e-08 4.21736581040801e-09
"1369" 39428 3.09097779806559e-09 4.71710383475347e-09 1.51213241343398e-08 6.07785827381527e-08 1.48653630629919e-07 1.23297412347834e-07 1.36950160569858e-08 4.17779503752222e-09
"1370" 39429 3.07695332781311e-09 4.70072863771417e-09 1.51255468236219e-08 6.1100640616675e-08 1.47314539284626e-07 1.22186176922209e-07 1.34493527119984e-08 4.12970200789203e-09
"1371" 39430 3.06292885756062e-09 4.68435344067487e-09 1.51297695129039e-08 6.14226984951973e-08 1.45975447939334e-07 1.21074941496584e-07 1.32036893670111e-08 4.08160897826183e-09
"1372" 39431 3.04890438730814e-09 4.66797824363557e-09 1.51339922021859e-08 6.17447563737196e-08 1.44636356594042e-07 1.19963706070959e-07 1.29580260220238e-08 4.03351594863164e-09
"1373" 39432 3.03487991705566e-09 4.65160304659627e-09 1.5138214891468e-08 6.20668142522419e-08 1.43297265248749e-07 1.18852470645334e-07 1.27123626770364e-08 3.98542291900145e-09
"1374" 39433 3.02085544680317e-09 4.63522784955697e-09 1.514243758075e-08 6.23888721307642e-08 1.41958173903457e-07 1.17741235219709e-07 1.24666993320491e-08 3.93732988937126e-09
"1375" 39434 3.00683097655069e-09 4.61885265251767e-09 1.5146660270032e-08 6.27109300092865e-08 1.40619082558164e-07 1.16629999794084e-07 1.22210359870618e-08 3.88923685974106e-09
"1376" 39435 2.99692003504758e-09 4.61506011697753e-09 1.51632521672863e-08 6.2590061445939e-08 1.39334071160095e-07 1.15912861819869e-07 1.20222553403345e-08 3.85656626137348e-09
"1377" 39436 2.98252505335995e-09 4.61054116118221e-09 1.51648081986127e-08 6.24566660332049e-08 1.38004074805263e-07 1.14875780862681e-07 1.17801942380655e-08 3.81063298245749e-09
"1378" 39437 2.96813007167232e-09 4.60602220538689e-09 1.51663642299391e-08 6.23232706204708e-08 1.36674078450431e-07 1.13838699905494e-07 1.15381331357965e-08 3.76469970354151e-09
"1379" 39438 2.95373508998468e-09 4.60150324959157e-09 1.51679202612655e-08 6.21898752077367e-08 1.35344082095599e-07 1.12801618948306e-07 1.12960720335274e-08 3.71876642462553e-09
"1380" 39439 2.93934010829705e-09 4.59698429379625e-09 1.51694762925919e-08 6.20564797950026e-08 1.34014085740767e-07 1.11764537991119e-07 1.10540109312584e-08 3.67283314570954e-09
"1381" 39440 2.92494512660942e-09 4.59246533800093e-09 1.51710323239183e-08 6.19230843822685e-08 1.32684089385934e-07 1.10727457033931e-07 1.08119498289894e-08 3.62689986679356e-09
"1382" 39441 2.91055014492179e-09 4.58794638220561e-09 1.51725883552447e-08 6.17896889695344e-08 1.31354093031102e-07 1.09690376076744e-07 1.05698887267203e-08 3.58096658787758e-09
"1383" 39442 2.89615516323415e-09 4.58342742641029e-09 1.51741443865711e-08 6.16562935568003e-08 1.3002409667627e-07 1.08653295119556e-07 1.03278276244513e-08 3.53503330896159e-09
"1384" 39443 2.88176018154652e-09 4.57890847061497e-09 1.51757004178975e-08 6.15228981440663e-08 1.28694100321438e-07 1.07616214162369e-07 1.00857665221823e-08 3.48910003004561e-09
"1385" 39444 2.86736519985889e-09 4.57438951481965e-09 1.51772564492239e-08 6.13895027313322e-08 1.27364103966606e-07 1.06579133205181e-07 9.84370541991327e-09 3.44316675112963e-09
"1386" 39445 2.86855033074605e-09 4.58204818248163e-09 1.51819579676315e-08 6.11561115278218e-08 1.26863934251103e-07 1.06624461996676e-07 9.85517683636644e-09 3.44553469384109e-09
"1387" 39446 2.8681798193109e-09 4.58970685014362e-09 1.51446710277906e-08 6.11561115278218e-08 1.26408075273464e-07 1.06105872024792e-07 9.77809204499506e-09 3.43917218781091e-09
"1388" 39447 2.854772868117e-09 4.58601808892565e-09 1.51211897832986e-08 6.11686177849277e-08 1.26011771026782e-07 1.0571365631584e-07 9.76529068340095e-09 3.42096996822338e-09
"1389" 39448 2.8413659169231e-09 4.58232932770768e-09 1.50977085388067e-08 6.11811240420336e-08 1.25615466780099e-07 1.05321440606887e-07 9.75248932180684e-09 3.40276774863586e-09
"1390" 39449 2.8279589657292e-09 4.57864056648971e-09 1.50742272943148e-08 6.11936302991395e-08 1.25219162533416e-07 1.04929224897934e-07 9.73968796021272e-09 3.38456552904834e-09
"1391" 39450 2.8145520145353e-09 4.57495180527175e-09 1.50507460498229e-08 6.12061365562453e-08 1.24822858286733e-07 1.04537009188982e-07 9.7268865986186e-09 3.36636330946081e-09
"1392" 39451 2.80114506334139e-09 4.57126304405378e-09 1.5027264805331e-08 6.12186428133512e-08 1.2442655404005e-07 1.04144793480029e-07 9.71408523702449e-09 3.34816108987329e-09
"1393" 39452 2.7859901073021e-09 4.55811809210252e-09 1.50289474574891e-08 6.12072379315593e-08 1.24679353709975e-07 1.03732693637441e-07 9.69103162273511e-09 3.32850606468602e-09
"1394" 39453 2.77476105535943e-09 4.54906693941108e-09 1.50817889403667e-08 6.13531396013993e-08 1.24599531581597e-07 1.0327317100431e-07 9.67191259531317e-09 3.31986706182919e-09
"1395" 39454 2.7604159809018e-09 4.54001578671964e-09 1.50527815636023e-08 6.13609783530193e-08 1.24662491908716e-07 1.02904098929183e-07 9.6558416194221e-09 3.30166484224167e-09
"1396" 39455 2.74607090644417e-09 4.5309646340282e-09 1.50237741868379e-08 6.13688171046393e-08 1.24725452235834e-07 1.02535026854056e-07 9.63977064353102e-09 3.28346262265414e-09
"1397" 39456 2.73172583198655e-09 4.52191348133677e-09 1.49947668100736e-08 6.13766558562594e-08 1.24788412562953e-07 1.02165954778929e-07 9.62369966763995e-09 3.26526040306662e-09
"1398" 39457 2.71738075752892e-09 4.51286232864533e-09 1.49657594333092e-08 6.13844946078794e-08 1.24851372890071e-07 1.01796882703803e-07 9.60762869174888e-09 3.2470581834791e-09
"1399" 39458 2.71850176757505e-09 4.49962366161872e-09 1.46804064547373e-08 6.1273762997412e-08 1.25229369721483e-07 1.01888559522395e-07 9.58119496605172e-09 3.2433976350322e-09
"1400" 39459 2.71962277762118e-09 4.50611751138923e-09 1.46764363537912e-08 6.12676825093734e-08 1.25404784368674e-07 1.01938696583997e-07 9.57460048890240e-09 3.24485044063195e-09
"1401" 39460 2.72074378766731e-09 4.51261136115974e-09 1.46724662528451e-08 6.12616020213349e-08 1.25580199015865e-07 1.01988833645599e-07 9.56800601175307e-09 3.24630324623169e-09
"1402" 39461 2.72186479771344e-09 4.51910521093025e-09 1.46684961518991e-08 6.12555215332963e-08 1.25755613663056e-07 1.02038970707201e-07 9.56141153460374e-09 3.24775605183143e-09
"1403" 39462 2.72298580775957e-09 4.52559906070076e-09 1.4664526050953e-08 6.12494410452578e-08 1.25931028310247e-07 1.02089107768802e-07 9.55481705745442e-09 3.24920885743118e-09
"1404" 39463 2.7241068178057e-09 4.53209291047127e-09 1.46605559500069e-08 6.12433605572192e-08 1.26106442957438e-07 1.02139244830404e-07 9.54822258030509e-09 3.25066166303092e-09
"1405" 39464 2.72522782785183e-09 4.53858676024178e-09 1.46565858490609e-08 6.12372800691807e-08 1.26281857604629e-07 1.02189381892006e-07 9.54162810315577e-09 3.25211446863067e-09
"1406" 39465 2.72634883789796e-09 4.54508061001229e-09 1.46526157481148e-08 6.12311995811421e-08 1.2645727225182e-07 1.02239518953608e-07 9.53503362600644e-09 3.25356727423041e-09
"1407" 39466 2.71568265991353e-09 4.5515744597828e-09 1.45074650905707e-08 6.10803478093058e-08 1.26780210516422e-07 1.0228622248556e-07 9.46288054870729e-09 3.2132551792404e-09
"1408" 39467 2.7050164819291e-09 4.55806830955331e-09 1.43623144330266e-08 6.09294960374695e-08 1.27103148781024e-07 1.02332926017513e-07 9.39072747140813e-09 3.17294308425039e-09
"1409" 39468 2.69435030394466e-09 4.56456215932382e-09 1.42171637754826e-08 6.07786442656331e-08 1.27426087045626e-07 1.02379629549466e-07 9.31857439410898e-09 3.13263098926038e-09
"1410" 39469 2.68368412596023e-09 4.57105600909433e-09 1.40720131179385e-08 6.06277924937968e-08 1.27749025310228e-07 1.02426333081418e-07 9.24642131680983e-09 3.09231889427036e-09
"1411" 39470 2.6730179479758e-09 4.57754985886484e-09 1.39268624603944e-08 6.04769407219605e-08 1.2807196357483e-07 1.02473036613371e-07 9.17426823951068e-09 3.05200679928035e-09
"1412" 39471 2.66235176999136e-09 4.58404370863535e-09 1.37817118028503e-08 6.03260889501241e-08 1.28394901839432e-07 1.02519740145324e-07 9.10211516221152e-09 3.01169470429034e-09
"1413" 39472 2.65168559200693e-09 4.59053755840586e-09 1.36365611453062e-08 6.01752371782878e-08 1.28717840104033e-07 1.02566443677276e-07 9.02996208491237e-09 2.97138260930033e-09
"1414" 39473 2.64020953244083e-09 4.61027007520298e-09 1.36844542916675e-08 6.00051417730395e-08 1.28581513794834e-07 1.02570119441768e-07 8.95082636921491e-09 2.93252785829113e-09
"1415" 39474 2.62873347287473e-09 4.6300025920001e-09 1.37323474380289e-08 5.98350463677913e-08 1.28445187485634e-07 1.02573795206259e-07 8.87169065351746e-09 2.89367310728192e-09
"1416" 39475 2.61713390949691e-09 4.63089632391235e-09 1.35953895707129e-08 5.9719680925628e-08 1.28484207663127e-07 1.02663898508291e-07 8.79427285469511e-09 2.85190820669217e-09
"1417" 39476 2.60553434611909e-09 4.63179005582459e-09 1.34584317033969e-08 5.96043154834648e-08 1.2852322784062e-07 1.02754001810322e-07 8.71685505587277e-09 2.81014330610241e-09
"1418" 39477 2.59393478274127e-09 4.63268378773684e-09 1.33214738360809e-08 5.94889500413016e-08 1.28562248018112e-07 1.02844105112353e-07 8.63943725705042e-09 2.76837840551266e-09
"1419" 39478 2.58233521936345e-09 4.63357751964908e-09 1.31845159687649e-08 5.93735845991383e-08 1.28601268195605e-07 1.02934208414385e-07 8.56201945822808e-09 2.7266135049229e-09
"1420" 39479 2.57073565598564e-09 4.63447125156133e-09 1.30475581014489e-08 5.92582191569751e-08 1.28640288373097e-07 1.03024311716416e-07 8.48460165940573e-09 2.68484860433315e-09
"1421" 39480 2.5623162359638e-09 4.63158250718026e-09 1.30443926903761e-08 5.91333811609705e-08 1.28626284141032e-07 1.0267682102471e-07 8.40718386058339e-09 2.66947416520348e-09
"1422" 39481 2.55389681594197e-09 4.62869376279918e-09 1.30412272793033e-08 5.9008543164966e-08 1.28612279908967e-07 1.02329330333005e-07 8.32976606176104e-09 2.65409972607382e-09
"1423" 39482 2.55202530728486e-09 4.62361251655176e-09 1.30255731163086e-08 5.9057005494134e-08 1.2870635865327e-07 1.02085944043414e-07 8.33342355303476e-09 2.65393498782844e-09
"1424" 39483 2.55015379862775e-09 4.61853127030434e-09 1.3009918953314e-08 5.9105467823302e-08 1.28800437397572e-07 1.01842557753823e-07 8.33708104430847e-09 2.65377024958306e-09
"1425" 39484 2.54828228997064e-09 4.61345002405692e-09 1.29942647903194e-08 5.915393015247e-08 1.28894516141875e-07 1.01599171464233e-07 8.34073853558219e-09 2.65360551133768e-09
"1426" 39485 2.54641078131353e-09 4.6083687778095e-09 1.29786106273248e-08 5.92023924816379e-08 1.28988594886178e-07 1.01355785174642e-07 8.3443960268559e-09 2.6534407730923e-09
"1427" 39486 2.54453927265642e-09 4.60328753156208e-09 1.29629564643302e-08 5.92508548108059e-08 1.29082673630481e-07 1.01112398885051e-07 8.34805351812962e-09 2.65327603484692e-09
"1428" 39487 2.5426677639993e-09 4.59820628531466e-09 1.29473023013356e-08 5.92993171399739e-08 1.29176752374783e-07 1.0086901259546e-07 8.35171100940334e-09 2.65311129660154e-09
"1429" 39488 2.54079625534219e-09 4.60152018623123e-09 1.30146076246122e-08 5.97148280896162e-08 1.29665861103073e-07 1.00677006125824e-07 8.35536850067705e-09 2.65415225658783e-09
"1430" 39489 2.53892474668508e-09 4.6048340871478e-09 1.30819129478888e-08 6.01303390392584e-08 1.30154969831362e-07 1.00484999656187e-07 8.35902599195077e-09 2.65519321657412e-09
"1431" 39490 2.53705323802797e-09 4.60814798806437e-09 1.31492182711654e-08 6.05458499889007e-08 1.30644078559651e-07 1.0029299318655e-07 8.36268348322448e-09 2.65623417656041e-09
"1432" 39491 2.53518172937086e-09 4.61146188898094e-09 1.3216523594442e-08 6.0961360938543e-08 1.31133187287941e-07 1.00100986716913e-07 8.3663409744982e-09 2.6572751365467e-09
"1433" 39492 2.53331022071375e-09 4.61477578989751e-09 1.32838289177187e-08 6.13768718881853e-08 1.3162229601623e-07 9.99089802472766e-08 8.36999846577191e-09 2.65831609653299e-09
"1434" 39493 2.53143871205664e-09 4.61808969081407e-09 1.33511342409953e-08 6.17923828378275e-08 1.32111404744519e-07 9.97169737776399e-08 8.37365595704563e-09 2.65935705651928e-09
"1435" 39494 2.52956720339952e-09 4.62140359173064e-09 1.34184395642719e-08 6.22078937874698e-08 1.32600513472808e-07 9.95249673080031e-08 8.37731344831935e-09 2.66039801650557e-09
"1436" 39495 2.52769569474241e-09 4.62471749264721e-09 1.34857448875485e-08 6.26234047371121e-08 1.33089622201098e-07 9.93329608383664e-08 8.38097093959306e-09 2.66143897649186e-09
"1437" 39496 2.5258241860853e-09 4.62803139356378e-09 1.35530502108251e-08 6.30389156867544e-08 1.33578730929387e-07 9.91409543687296e-08 8.38462843086677e-09 2.66247993647816e-09
"1438" 39497 2.52395267742819e-09 4.63134529448035e-09 1.36203555341017e-08 6.34544266363966e-08 1.34067839657676e-07 9.89489478990929e-08 8.38828592214049e-09 2.66352089646445e-09
"1439" 39498 2.52208116877108e-09 4.63465919539692e-09 1.36876608573783e-08 6.38699375860389e-08 1.34556948385965e-07 9.87569414294561e-08 8.39194341341421e-09 2.66456185645074e-09
"1440" 39499 2.52020966011397e-09 4.63797309631349e-09 1.3754966180655e-08 6.42854485356812e-08 1.35046057114255e-07 9.85649349598193e-08 8.39560090468792e-09 2.66560281643703e-09
"1441" 39500 2.51833815145686e-09 4.64128699723005e-09 1.38222715039316e-08 6.47009594853235e-08 1.35535165842544e-07 9.83729284901826e-08 8.39925839596164e-09 2.66664377642332e-09
"1442" 39501 2.51646664279974e-09 4.64460089814662e-09 1.38895768272082e-08 6.51164704349657e-08 1.36024274570833e-07 9.81809220205458e-08 8.40291588723535e-09 2.66768473640961e-09
"1443" 39502 2.52737982840761e-09 4.66035344925291e-09 1.39043864523464e-08 6.53757266052813e-08 1.35250192217769e-07 9.80472757001729e-08 8.39349520559346e-09 2.68376612065374e-09
"1444" 39503 2.53829301401548e-09 4.67610600035919e-09 1.39191960774846e-08 6.56349827755969e-08 1.34476109864706e-07 9.79136293798e-08 8.38407452395157e-09 2.69984750489787e-09
"1445" 39504 2.53829301401548e-09 4.68079226781157e-09 1.39468203152922e-08 6.59110552536422e-08 1.34142541205508e-07 9.79136293798e-08 8.37930865030299e-09 2.70362933783826e-09
"1446" 39505 2.53829301401548e-09 4.68547853526396e-09 1.39744445530997e-08 6.61871277316875e-08 1.33808972546311e-07 9.79136293798e-08 8.37454277665441e-09 2.70741117077866e-09
"1447" 39506 2.53829301401548e-09 4.69016480271634e-09 1.40020687909073e-08 6.64632002097329e-08 1.33475403887114e-07 9.79136293798e-08 8.36977690300583e-09 2.71119300371906e-09
"1448" 39507 2.53829301401548e-09 4.69485107016872e-09 1.40296930287149e-08 6.67392726877782e-08 1.33141835227917e-07 9.79136293798e-08 8.36501102935725e-09 2.71497483665946e-09
"1449" 39508 2.53829301401548e-09 4.6995373376211e-09 1.40573172665225e-08 6.70153451658235e-08 1.3280826656872e-07 9.79136293798e-08 8.36024515570867e-09 2.71875666959985e-09
"1450" 39509 2.53829301401548e-09 4.70422360507348e-09 1.40849415043301e-08 6.72914176438688e-08 1.32474697909523e-07 9.79136293798e-08 8.35547928206009e-09 2.72253850254025e-09
"1451" 39510 2.53829301401548e-09 4.70890987252586e-09 1.41125657421376e-08 6.75674901219142e-08 1.32141129250326e-07 9.79136293798e-08 8.35071340841151e-09 2.72632033548065e-09
"1452" 39511 2.52893547072992e-09 4.69157740623943e-09 1.40870097892105e-08 6.75961473800348e-08 1.31735730013183e-07 9.79294267162491e-08 8.34544859213092e-09 2.71763787887194e-09
"1453" 39512 2.52138531526044e-09 4.68442755094147e-09 1.4101965959172e-08 6.75393185354014e-08 1.31938077328703e-07 9.78485267074068e-08 8.32045540344293e-09 2.70604527268267e-09
"1454" 39513 2.51383515979097e-09 4.67727769564351e-09 1.41169221291335e-08 6.7482489690768e-08 1.32140424644223e-07 9.77676266985644e-08 8.29546221475495e-09 2.69445266649341e-09
"1455" 39514 2.50628500432149e-09 4.67012784034555e-09 1.41318782990949e-08 6.74256608461346e-08 1.32342771959743e-07 9.7686726689722e-08 8.27046902606697e-09 2.68286006030414e-09
"1456" 39515 2.49873484885202e-09 4.66297798504759e-09 1.41468344690564e-08 6.73688320015012e-08 1.32545119275263e-07 9.76058266808797e-08 8.24547583737899e-09 2.67126745411488e-09
"1457" 39516 2.49118469338254e-09 4.65582812974963e-09 1.41617906390179e-08 6.73120031568677e-08 1.32747466590783e-07 9.75249266720373e-08 8.22048264869101e-09 2.65967484792561e-09
"1458" 39517 2.48363453791307e-09 4.64867827445167e-09 1.41767468089794e-08 6.72551743122343e-08 1.32949813906304e-07 9.74440266631949e-08 8.19548946000303e-09 2.64808224173635e-09
"1459" 39518 2.47608438244359e-09 4.64152841915372e-09 1.41917029789408e-08 6.71983454676009e-08 1.33152161221824e-07 9.73631266543526e-08 8.17049627131505e-09 2.63648963554708e-09
"1460" 39519 2.46853422697412e-09 4.63437856385576e-09 1.42066591489023e-08 6.71415166229675e-08 1.33354508537344e-07 9.72822266455102e-08 8.14550308262707e-09 2.62489702935782e-09
"1461" 39520 2.46098407150465e-09 4.6272287085578e-09 1.42216153188638e-08 6.70846877783341e-08 1.33556855852864e-07 9.72013266366679e-08 8.12050989393909e-09 2.61330442316856e-09
"1462" 39521 2.45343391603517e-09 4.62007885325984e-09 1.42365714888252e-08 6.70278589337007e-08 1.33759203168384e-07 9.71204266278255e-08 8.09551670525111e-09 2.60171181697929e-09
"1463" 39522 2.4458837605657e-09 4.61292899796188e-09 1.42515276587867e-08 6.69710300890673e-08 1.33961550483904e-07 9.70395266189831e-08 8.07052351656313e-09 2.59011921079003e-09
"1464" 39523 2.43833360509622e-09 4.60577914266392e-09 1.42664838287482e-08 6.69142012444339e-08 1.34163897799425e-07 9.69586266101408e-08 8.04553032787515e-09 2.57852660460076e-09
"1465" 39524 2.44144962761118e-09 4.59769531846644e-09 1.43036775721859e-08 6.69197623870745e-08 1.3442765252277e-07 9.61481393141915e-08 8.00396769445111e-09 2.57341325055412e-09
"1466" 39525 2.4338994721417e-09 4.5858591957161e-09 1.42650544182535e-08 6.65868610643958e-08 1.35026304084973e-07 9.61675659391177e-08 7.98845100450488e-09 2.57432838766585e-09
"1467" 39526 2.42634931667223e-09 4.57402307296576e-09 1.4226431264321e-08 6.6253959741717e-08 1.35624955647176e-07 9.61869925640439e-08 7.97293431455864e-09 2.57524352477757e-09
"1468" 39527 2.41879916120275e-09 4.56218695021542e-09 1.41878081103885e-08 6.59210584190383e-08 1.36223607209379e-07 9.62064191889701e-08 7.95741762461241e-09 2.57615866188929e-09
"1469" 39528 2.41124900573328e-09 4.55035082746508e-09 1.41491849564561e-08 6.55881570963596e-08 1.36822258771582e-07 9.62258458138963e-08 7.94190093466617e-09 2.57707379900102e-09
"1470" 39529 2.4036988502638e-09 4.53851470471474e-09 1.41105618025236e-08 6.52552557736808e-08 1.37420910333785e-07 9.62452724388225e-08 7.92638424471994e-09 2.57798893611274e-09
"1471" 39530 2.39614869479433e-09 4.5266785819644e-09 1.40719386485912e-08 6.49223544510021e-08 1.38019561895988e-07 9.62646990637487e-08 7.91086755477371e-09 2.57890407322446e-09
"1472" 39531 2.38810452407799e-09 4.50604227400821e-09 1.39853818469868e-08 6.47171170894333e-08 1.38179328230207e-07 9.68194587956211e-08 7.92034405351545e-09 2.58534440999628e-09
"1473" 39532 2.38006035336165e-09 4.48540596605202e-09 1.38988250453824e-08 6.45118797278645e-08 1.38339094564427e-07 9.73742185274936e-08 7.9298205522572e-09 2.59178474676809e-09
"1474" 39533 2.38092488004366e-09 4.46518475538451e-09 1.38753174533442e-08 6.47272905638129e-08 1.38655576682731e-07 9.86207427983814e-08 7.96977614494658e-09 2.60051519550975e-09
"1475" 39534 2.38178940672568e-09 4.444963544717e-09 1.38518098613059e-08 6.49427013997612e-08 1.38972058801036e-07 9.98672670692693e-08 8.00973173763595e-09 2.6092456442514e-09
"1476" 39535 2.38265393340769e-09 4.42474233404949e-09 1.38283022692677e-08 6.51581122357095e-08 1.39288540919341e-07 1.01113791340157e-07 8.04968733032533e-09 2.61797609299305e-09
"1477" 39536 2.38351846008971e-09 4.40452112338199e-09 1.38047946772295e-08 6.53735230716579e-08 1.39605023037646e-07 1.02360315611045e-07 8.0896429230147e-09 2.62670654173471e-09
"1478" 39537 2.38438298677172e-09 4.38429991271448e-09 1.37812870851912e-08 6.55889339076062e-08 1.39921505155951e-07 1.03606839881933e-07 8.12959851570408e-09 2.63543699047636e-09
"1479" 39538 2.39684707683156e-09 4.38471501000315e-09 1.38378325802421e-08 6.61314023270821e-08 1.40219778406688e-07 1.0418730300427e-07 8.18313122394109e-09 2.64416743921802e-09
"1480" 39539 2.40931116689139e-09 4.38513010729183e-09 1.38943780752929e-08 6.6673870746558e-08 1.40518051657425e-07 1.04767766126608e-07 8.23666393217809e-09 2.65289788795967e-09
"1481" 39540 2.41541970810959e-09 4.36387115340263e-09 1.39528253864093e-08 6.72256077371016e-08 1.40754792679896e-07 1.06009319364087e-07 8.29130492803256e-09 2.66162833670132e-09
"1482" 39541 2.42152824932779e-09 4.34261219951343e-09 1.40112726975258e-08 6.77773447276453e-08 1.40991533702368e-07 1.07250872601566e-07 8.34594592388702e-09 2.67035878544298e-09
"1483" 39542 2.42763679054599e-09 4.32135324562423e-09 1.40697200086422e-08 6.8329081718189e-08 1.41228274724839e-07 1.08492425839045e-07 8.40058691974148e-09 2.67908923418463e-09
"1484" 39543 2.43374533176419e-09 4.30009429173503e-09 1.41281673197587e-08 6.88808187087326e-08 1.4146501574731e-07 1.09733979076524e-07 8.45522791559595e-09 2.68781968292629e-09
"1485" 39544 2.43985387298239e-09 4.27883533784583e-09 1.41866146308751e-08 6.94325556992763e-08 1.41701756769782e-07 1.10975532314003e-07 8.50986891145041e-09 2.69655013166794e-09
"1486" 39545 2.44596241420059e-09 4.25757638395663e-09 1.42450619419916e-08 6.998429268982e-08 1.41938497792253e-07 1.12217085551482e-07 8.56450990730487e-09 2.70528058040960e-09
"1487" 39546 2.47027307526168e-09 4.2817240822269e-09 1.43608260136036e-08 6.99877175217365e-08 1.41929060627809e-07 1.12565677967608e-07 8.57919531046996e-09 2.71401102915125e-09
"1488" 39547 2.49458373632276e-09 4.30587178049717e-09 1.44765900852157e-08 6.99911423536531e-08 1.41919623463366e-07 1.12914270383734e-07 8.59388071363505e-09 2.7227414778929e-09
"1489" 39548 2.51889439738385e-09 4.33001947876745e-09 1.45923541568278e-08 6.99945671855697e-08 1.41910186298923e-07 1.1326286279986e-07 8.60856611680013e-09 2.73147192663456e-09
"1490" 39549 2.54320505844493e-09 4.35416717703772e-09 1.47081182284398e-08 6.99979920174862e-08 1.41900749134479e-07 1.13611455215986e-07 8.62325151996522e-09 2.74020237537621e-09
"1491" 39550 2.56751571950601e-09 4.37831487530799e-09 1.48238823000519e-08 7.00014168494028e-08 1.41891311970036e-07 1.13960047632111e-07 8.63793692313031e-09 2.74893282411787e-09
"1492" 39551 2.5918263805671e-09 4.40246257357827e-09 1.49396463716639e-08 7.00048416813194e-08 1.41881874805592e-07 1.14308640048237e-07 8.65262232629539e-09 2.75766327285952e-09
"1493" 39552 2.58615720949542e-09 4.40142483035657e-09 1.49879919996046e-08 7.01860883825771e-08 1.41815717478274e-07 1.1430529202468e-07 8.71585328555505e-09 2.76003121557099e-09
"1494" 39553 2.59606815099853e-09 4.42557252862685e-09 1.49813751646945e-08 7.0457534539698e-08 1.42756599354538e-07 1.1429844448042e-07 8.74466999545519e-09 2.77986005576576e-09
"1495" 39554 2.60597909250164e-09 4.44972022689712e-09 1.49747583297844e-08 7.07289806968188e-08 1.43697481230803e-07 1.14291596936161e-07 8.77348670535534e-09 2.79968889596054e-09
"1496" 39555 2.61589003400475e-09 4.47386792516739e-09 1.49681414948743e-08 7.10004268539397e-08 1.44638363107067e-07 1.14284749391901e-07 8.80230341525549e-09 2.81951773615531e-09
"1497" 39556 2.62580097550786e-09 4.49801562343767e-09 1.49615246599642e-08 7.12718730110605e-08 1.45579244983332e-07 1.14277901847641e-07 8.83112012515564e-09 2.83934657635009e-09
"1498" 39557 2.63571191701097e-09 4.52216332170794e-09 1.4954907825054e-08 7.15433191681814e-08 1.46520126859596e-07 1.14271054303382e-07 8.85993683505579e-09 2.85917541654486e-09
"1499" 39558 2.64562285851408e-09 4.54631101997821e-09 1.49482909901439e-08 7.18147653253022e-08 1.47461008735861e-07 1.14264206759122e-07 8.88875354495594e-09 2.87900425673964e-09
"1500" 39559 2.65553380001719e-09 4.57045871824849e-09 1.49416741552338e-08 7.20862114824231e-08 1.48401890612125e-07 1.14257359214863e-07 8.91757025485609e-09 2.89883309693441e-09
"1501" 39560 2.66020072698412e-09 4.60451794152801e-09 1.49416741552338e-08 7.22265688465174e-08 1.48159160437781e-07 1.12529226139755e-07 8.80313375446257e-09 2.8980917748302e-09
"1502" 39561 2.66020072698412e-09 4.59723413416742e-09 1.48501960179869e-08 7.24574082629853e-08 1.49109479478489e-07 1.12500400462812e-07 8.7974258126498e-09 2.90598945558282e-09
"1503" 39562 2.67665484198161e-09 4.64664087051137e-09 1.48501960179869e-08 7.27304545485374e-08 1.50142767002434e-07 1.12487322629028e-07 8.82092245771394e-09 2.92473842042049e-09
"1504" 39563 2.6931089569791e-09 4.69604760685532e-09 1.48501960179869e-08 7.30035008340894e-08 1.5117605452638e-07 1.12474244795244e-07 8.84441910277808e-09 2.94348738525816e-09
"1505" 39564 2.70956307197659e-09 4.74545434319927e-09 1.48501960179869e-08 7.32765471196414e-08 1.52209342050326e-07 1.1246116696146e-07 8.86791574784222e-09 2.96223635009583e-09
"1506" 39565 2.72601718697408e-09 4.79486107954322e-09 1.48501960179869e-08 7.35495934051935e-08 1.53242629574271e-07 1.12448089127676e-07 8.89141239290636e-09 2.9809853149335e-09
"1507" 39566 2.74247130197157e-09 4.84426781588717e-09 1.48501960179869e-08 7.38226396907455e-08 1.54275917098217e-07 1.12435011293893e-07 8.9149090379705e-09 2.99973427977117e-09
"1508" 39567 2.75892541696905e-09 4.89367455223112e-09 1.48501960179869e-08 7.40956859762976e-08 1.55309204622162e-07 1.12421933460109e-07 8.93840568303464e-09 3.01848324460885e-09
"1509" 39568 2.75979941939175e-09 4.89587711334428e-09 1.48870240526939e-08 7.44336122593241e-08 1.58301921792299e-07 1.12410098384677e-07 8.94821452592551e-09 3.02155813243478e-09
"1510" 39569 2.76840646406633e-09 4.90753586519074e-09 1.48907081408755e-08 7.44338948558346e-08 1.58884962814825e-07 1.12434402288039e-07 8.94594241786297e-09 3.03298600037866e-09
"1511" 39570 2.78019365209689e-09 4.93175716004273e-09 1.48965601338956e-08 7.45342022538496e-08 1.58884767090908e-07 1.12767258127162e-07 8.93979106624581e-09 3.03219668614151e-09
"1512" 39571 2.79198084012746e-09 4.95597845489471e-09 1.49024121269156e-08 7.46345096518646e-08 1.58884571366991e-07 1.13100113966286e-07 8.93363971462865e-09 3.03140737190435e-09
"1513" 39572 2.80376802815802e-09 4.9801997497467e-09 1.49082641199357e-08 7.47348170498795e-08 1.58884375643073e-07 1.13432969805409e-07 8.92748836301150e-09 3.03061805766719e-09
"1514" 39573 2.81555521618858e-09 5.00442104459868e-09 1.49141161129558e-08 7.48351244478945e-08 1.58884179919156e-07 1.13765825644533e-07 8.92133701139434e-09 3.02982874343004e-09
"1515" 39574 2.82734240421915e-09 5.02864233945067e-09 1.49199681059758e-08 7.49354318459095e-08 1.58883984195238e-07 1.14098681483656e-07 8.91518565977718e-09 3.02903942919288e-09
"1516" 39575 2.83912959224971e-09 5.05286363430265e-09 1.49258200989959e-08 7.50357392439245e-08 1.58883788471321e-07 1.1443153732278e-07 8.90903430816002e-09 3.02825011495573e-09
"1517" 39576 2.85091678028027e-09 5.07708492915464e-09 1.4931672092016e-08 7.51360466419394e-08 1.58883592747403e-07 1.14764393161903e-07 8.90288295654287e-09 3.02746080071857e-09
"1518" 39577 2.86270396831084e-09 5.10130622400662e-09 1.49375240850361e-08 7.52363540399544e-08 1.58883397023486e-07 1.15097249001027e-07 8.89673160492571e-09 3.02667148648142e-09
"1519" 39578 2.8744911563414e-09 5.12552751885861e-09 1.49433760780561e-08 7.53366614379694e-08 1.58883201299569e-07 1.1543010484015e-07 8.89058025330855e-09 3.02588217224426e-09
"1520" 39579 2.88627834437196e-09 5.14974881371059e-09 1.49492280710762e-08 7.54369688359843e-08 1.58883005575651e-07 1.15762960679274e-07 8.88442890169139e-09 3.0250928580071e-09
"1521" 39580 2.89719152997983e-09 5.17176754744941e-09 1.49484632291862e-08 7.54467651708975e-08 1.5829597178521e-07 1.16034739883743e-07 8.87827755007424e-09 3.02122865594402e-09
"1522" 39581 2.9081047155877e-09 5.19378628118823e-09 1.49476983872961e-08 7.54565615058107e-08 1.57708937994768e-07 1.16306519088213e-07 8.87212619845708e-09 3.01736445388093e-09
"1523" 39582 2.91746225887325e-09 5.21400749185574e-09 1.49527058424598e-08 7.55078582185316e-08 1.5763471219894e-07 1.1665057625027e-07 8.84247820177578e-09 3.00892456625922e-09
"1524" 39583 2.92681980215881e-09 5.23422870252325e-09 1.49577132976235e-08 7.55591549312525e-08 1.57560486403111e-07 1.16994633412326e-07 8.81283020509449e-09 3.00048467863752e-09
"1525" 39584 2.93617734544437e-09 5.25444991319076e-09 1.49627207527871e-08 7.56104516439735e-08 1.57486260607282e-07 1.17338690574383e-07 8.78318220841319e-09 2.99204479101581e-09
"1526" 39585 2.94553488872993e-09 5.27467112385827e-09 1.49677282079508e-08 7.56617483566944e-08 1.57412034811453e-07 1.17682747736439e-07 8.75353421173189e-09 2.98360490339411e-09
"1527" 39586 2.95489243201548e-09 5.29489233452578e-09 1.49727356631144e-08 7.57130450694153e-08 1.57337809015624e-07 1.18026804898496e-07 8.7238862150506e-09 2.9751650157724e-09
"1528" 39587 2.96424997530104e-09 5.31511354519329e-09 1.49777431182781e-08 7.57643417821363e-08 1.57263583219796e-07 1.18370862060552e-07 8.6942382183693e-09 2.9667251281507e-09
"1529" 39588 2.9736075185866e-09 5.33533475586079e-09 1.49827505734418e-08 7.58156384948572e-08 1.57189357423967e-07 1.18714919222609e-07 8.664590221688e-09 2.95828524052899e-09
"1530" 39589 2.98296506187216e-09 5.3555559665283e-09 1.49877580286054e-08 7.58669352075781e-08 1.57115131628138e-07 1.19058976384666e-07 8.63494222500671e-09 2.94984535290728e-09
"1531" 39590 2.99232260515771e-09 5.37577717719581e-09 1.49927654837691e-08 7.5918231920299e-08 1.57040905832309e-07 1.19403033546722e-07 8.60529422832541e-09 2.94140546528558e-09
"1532" 39591 2.99195209372256e-09 5.37755458177348e-09 1.49956050340943e-08 7.61590463991111e-08 1.56965721675029e-07 1.19524553063531e-07 8.57636664228481e-09 2.93267501654393e-09
"1533" 39592 2.99326546629178e-09 5.38202324133471e-09 1.49947604962379e-08 7.61157671654412e-08 1.57079702641658e-07 1.19657417151536e-07 8.55286999722068e-09 2.92631251051374e-09
"1534" 39593 2.994578838861e-09 5.38649190089593e-09 1.49939159583815e-08 7.60724879317713e-08 1.57193683608286e-07 1.19790281239541e-07 8.52937335215654e-09 2.91995000448355e-09
"1535" 39594 2.99589221143021e-09 5.39096056045716e-09 1.49930714205251e-08 7.60292086981014e-08 1.57307664574914e-07 1.19923145327546e-07 8.5058767070924e-09 2.91358749845337e-09
"1536" 39595 2.99851421869831e-09 5.39962679360038e-09 1.49930714205251e-08 7.60048446537096e-08 1.57452411655675e-07 1.20044808092618e-07 8.48758925072382e-09 2.91383460582144e-09
"1537" 39596 3.0011362259664e-09 5.40829302674359e-09 1.49930714205251e-08 7.59804806093179e-08 1.57597158736437e-07 1.2016647085769e-07 8.46930179435524e-09 2.91408171318951e-09
"1538" 39597 3.00375823323449e-09 5.41695925988681e-09 1.49930714205251e-08 7.59561165649261e-08 1.57741905817198e-07 1.20288133622762e-07 8.45101433798666e-09 2.91432882055758e-09
"1539" 39598 3.00638024050259e-09 5.42562549303003e-09 1.49930714205251e-08 7.59317525205344e-08 1.57886652897959e-07 1.20409796387834e-07 8.43272688161809e-09 2.91457592792565e-09
"1540" 39599 3.00900224777068e-09 5.43429172617325e-09 1.49930714205251e-08 7.59073884761426e-08 1.5803139997872e-07 1.20531459152906e-07 8.41443942524951e-09 2.91482303529372e-09
"1541" 39600 3.01162425503877e-09 5.44295795931647e-09 1.49930714205251e-08 7.58830244317509e-08 1.58176147059481e-07 1.20653121917978e-07 8.39615196888093e-09 2.91507014266179e-09
"1542" 39601 3.01505614388853e-09 5.45073046054744e-09 1.49721835615772e-08 7.58871557549438e-08 1.57828420332063e-07 1.20478084320484e-07 8.38207600545868e-09 2.91531725002987e-09
"1543" 39602 3.01848803273829e-09 5.45850296177841e-09 1.49512957026293e-08 7.58912870781367e-08 1.57480693604644e-07 1.20303046722989e-07 8.36800004203644e-09 2.91556435739794e-09
"1544" 39603 3.02191992158805e-09 5.46627546300939e-09 1.49304078436814e-08 7.58954184013296e-08 1.57132966877225e-07 1.20128009125494e-07 8.35392407861420e-09 2.91581146476601e-09
"1545" 39604 3.06295065675143e-09 5.49498553591624e-09 1.51170276290379e-08 7.68471853102777e-08 1.56681645951493e-07 1.19820107439994e-07 8.39000061726377e-09 2.96314501876773e-09
"1546" 39605 3.1039813919148e-09 5.52369560882308e-09 1.53036474143944e-08 7.77989522192258e-08 1.56230325025761e-07 1.19512205754494e-07 8.42607715591335e-09 3.01047857276946e-09
"1547" 39606 3.14501212707817e-09 5.55240568172993e-09 1.54902671997509e-08 7.87507191281738e-08 1.55779004100029e-07 1.19204304068994e-07 8.46215369456292e-09 3.05781212677118e-09
"1548" 39607 3.18604286224154e-09 5.58111575463678e-09 1.56768869851074e-08 7.97024860371219e-08 1.55327683174297e-07 1.18896402383495e-07 8.4982302332125e-09 3.1051456807729e-09
"1549" 39608 3.22707359740491e-09 5.60982582754363e-09 1.5863506770464e-08 8.06542529460699e-08 1.54876362248565e-07 1.18588500697995e-07 8.53430677186208e-09 3.15247923477462e-09
"1550" 39609 3.26810433256828e-09 5.63853590045047e-09 1.60501265558205e-08 8.1606019855018e-08 1.54425041322833e-07 1.18280599012495e-07 8.57038331051165e-09 3.19981278877634e-09
"1551" 39610 3.30913506773165e-09 5.66724597335732e-09 1.6236746341177e-08 8.2557786763966e-08 1.53973720397101e-07 1.17972697326995e-07 8.60645984916123e-09 3.24714634277807e-09
"1552" 39611 3.30901156391994e-09 5.66635224144508e-09 1.62217104752492e-08 8.26440130317865e-08 1.53625993669682e-07 1.17706657907814e-07 8.59515474691873e-09 3.24502550743467e-09
"1553" 39612 3.30888806010822e-09 5.66545850953283e-09 1.62066746093213e-08 8.27302392996069e-08 1.53278266942264e-07 1.17440618488633e-07 8.58384964467624e-09 3.24290467209128e-09
"1554" 39613 3.30876455629651e-09 5.66456477762059e-09 1.61916387433935e-08 8.28164655674273e-08 1.52930540214845e-07 1.17174579069452e-07 8.57254454243375e-09 3.24078383674788e-09
"1555" 39614 3.30864105248479e-09 5.66367104570834e-09 1.61766028774656e-08 8.29026918352478e-08 1.52582813487426e-07 1.16908539650271e-07 8.56123944019125e-09 3.23866300140449e-09
"1556" 39615 3.30851754867307e-09 5.6627773137961e-09 1.61615670115378e-08 8.29889181030682e-08 1.52235086760007e-07 1.1664250023109e-07 8.54993433794876e-09 3.23654216606109e-09
"1557" 39616 3.30839404486136e-09 5.66188358188385e-09 1.61465311456099e-08 8.30751443708887e-08 1.51887360032588e-07 1.16376460811909e-07 8.53862923570627e-09 3.23442133071769e-09
"1558" 39617 3.30827054104964e-09 5.66098984997161e-09 1.61314952796821e-08 8.31613706387091e-08 1.5153963330517e-07 1.16110421392728e-07 8.52732413346377e-09 3.2323004953743e-09
"1559" 39618 3.30602852095738e-09 5.65170097089537e-09 1.60551725523126e-08 8.3116508113503e-08 1.51527860325763e-07 1.16061805337123e-07 8.5112531575727e-09 3.2301796600309e-09
"1560" 39619 3.29760910093555e-09 5.62209716607628e-09 1.58944345806308e-08 8.29021771529118e-08 1.51611924862938e-07 1.16008246012029e-07 8.50044699796223e-09 3.22373932325909e-09
"1561" 39620 3.28918968091372e-09 5.59249336125719e-09 1.5733696608949e-08 8.26878461923205e-08 1.51695989400113e-07 1.15954686686935e-07 8.48964083835175e-09 3.21729898648728e-09
"1562" 39621 3.28077026089189e-09 5.5628895564381e-09 1.55729586372672e-08 8.24735152317293e-08 1.51780053937288e-07 1.15901127361841e-07 8.47883467874128e-09 3.21085864971546e-09
"1563" 39622 3.27235084087005e-09 5.533285751619e-09 1.54122206655854e-08 8.2259184271138e-08 1.51864118474463e-07 1.15847568036747e-07 8.46802851913081e-09 3.20441831294365e-09
"1564" 39623 3.26393142084822e-09 5.50368194679991e-09 1.52514826939036e-08 8.20448533105468e-08 1.51948183011639e-07 1.15794008711654e-07 8.45722235952033e-09 3.19797797617183e-09
"1565" 39624 3.25551200082639e-09 5.47407814198082e-09 1.50907447222218e-08 8.18305223499556e-08 1.52032247548814e-07 1.1574044938656e-07 8.44641619990986e-09 3.19153763940002e-09
"1566" 39625 3.24709258080456e-09 5.44447433716173e-09 1.493000675054e-08 8.16161913893643e-08 1.52116312085989e-07 1.15686890061466e-07 8.43561004029939e-09 3.18509730262821e-09
"1567" 39626 3.24054466943984e-09 5.4208455105023e-09 1.48616377254994e-08 8.16519603155479e-08 1.5205016351625e-07 1.15600953028162e-07 8.41593710596223e-09 3.17865696585639e-09
"1568" 39627 3.26143291739185e-09 5.50012713764457e-09 1.51528561975283e-08 8.23031699960843e-08 1.56067358733913e-07 1.17069701486795e-07 8.57853100120133e-09 3.24498659206386e-09
"1569" 39628 3.26217394026215e-09 5.48689852986478e-09 1.50230942675333e-08 8.2001295235752e-08 1.56192544394843e-07 1.17006842096264e-07 8.56739221316951e-09 3.24066709063544e-09
"1570" 39629 3.26291496313244e-09 5.47366992208499e-09 1.48933323375384e-08 8.16994204754196e-08 1.56317730055773e-07 1.16943982705733e-07 8.55625342513769e-09 3.23634758920702e-09
"1571" 39630 3.26365598600274e-09 5.46044131430519e-09 1.47635704075435e-08 8.13975457150873e-08 1.56442915716704e-07 1.16881123315201e-07 8.54511463710587e-09 3.2320280877786e-09
"1572" 39631 3.26439700887304e-09 5.4472127065254e-09 1.46338084775486e-08 8.1095670954755e-08 1.56568101377634e-07 1.1681826392467e-07 8.53397584907405e-09 3.22770858635019e-09
"1573" 39632 3.26513803174334e-09 5.43398409874561e-09 1.45040465475536e-08 8.07937961944226e-08 1.56693287038564e-07 1.16755404534139e-07 8.52283706104223e-09 3.22338908492177e-09
"1574" 39633 3.26587905461364e-09 5.42075549096582e-09 1.43742846175587e-08 8.04919214340903e-08 1.56818472699494e-07 1.16692545143607e-07 8.51169827301041e-09 3.21906958349335e-09
"1575" 39634 3.26662007748394e-09 5.40752688318602e-09 1.42445226875638e-08 8.0190046673758e-08 1.56943658360424e-07 1.16629685753076e-07 8.50055948497859e-09 3.21475008206493e-09
"1576" 39635 3.26736110035424e-09 5.39429827540623e-09 1.41147607575689e-08 7.98881719134256e-08 1.57068844021354e-07 1.16566826362545e-07 8.48942069694677e-09 3.21043058063651e-09
"1577" 39636 3.26810212322453e-09 5.38106966762644e-09 1.39849988275739e-08 7.95862971530933e-08 1.57194029682285e-07 1.16503966972013e-07 8.47828190891495e-09 3.2061110792081e-09
"1578" 39637 3.26884314609483e-09 5.36784105984665e-09 1.3855236897579e-08 7.9284422392761e-08 1.57319215343215e-07 1.16441107581482e-07 8.46714312088313e-09 3.20179157777968e-09
"1579" 39638 3.26958416896513e-09 5.35461245206685e-09 1.37254749675841e-08 7.89825476324286e-08 1.57444401004145e-07 1.16378248190951e-07 8.45600433285131e-09 3.19747207635126e-09
"1580" 39639 3.27687310320015e-09 5.36232141596293e-09 1.37329697647791e-08 7.89406233598551e-08 1.57514030716637e-07 1.16397707811403e-07 8.46265434282827e-09 3.19930235057471e-09
"1581" 39640 3.28198413818394e-09 5.37629656249155e-09 1.3599230656956e-08 7.88845927017444e-08 1.5766913280702e-07 1.1591010652384e-07 8.39986698288782e-09 3.19759789922583e-09
"1582" 39641 3.29045820330611e-09 5.38008909803169e-09 1.34521981073379e-08 7.85950501341488e-08 1.57666744975227e-07 1.15738375705494e-07 8.37819875180961e-09 3.18342915832784e-09
"1583" 39642 3.29893226842829e-09 5.38388163357182e-09 1.33051655577198e-08 7.83055075665533e-08 1.57664357143435e-07 1.15566644887149e-07 8.35653052073141e-09 3.16926041742985e-09
"1584" 39643 3.30740633355047e-09 5.38767416911196e-09 1.31581330081017e-08 7.80159649989577e-08 1.57661969311643e-07 1.15394914068803e-07 8.3348622896532e-09 3.15509167653186e-09
"1585" 39644 3.31588039867265e-09 5.3914667046521e-09 1.30111004584836e-08 7.77264224313621e-08 1.5765958147985e-07 1.15223183250458e-07 8.313194058575e-09 3.14092293563387e-09
"1586" 39645 3.32435446379482e-09 5.39525924019223e-09 1.28640679088655e-08 7.74368798637666e-08 1.57657193648058e-07 1.15051452432113e-07 8.29152582749679e-09 3.12675419473588e-09
"1587" 39646 3.332828528917e-09 5.39905177573237e-09 1.27170353592474e-08 7.7147337296171e-08 1.57654805816265e-07 1.14879721613767e-07 8.26985759641859e-09 3.11258545383789e-09
"1588" 39647 3.34130259403918e-09 5.40284431127251e-09 1.25700028096293e-08 7.68577947285754e-08 1.57652417984473e-07 1.14707990795422e-07 8.24818936534038e-09 3.0984167129399e-09
"1589" 39648 3.34042859161648e-09 5.39445922335534e-09 1.2395578686548e-08 7.65788382639683e-08 1.57486488404088e-07 1.14501821265344e-07 8.22408290150377e-09 3.08212713669851e-09
"1590" 39649 3.34067559923991e-09 5.39742156431812e-09 1.22202367531987e-08 7.62890130998622e-08 1.57320558823703e-07 1.14295778485766e-07 8.20241467042557e-09 3.06795839580052e-09
"1591" 39650 3.35526768132097e-09 5.44017032108848e-09 1.21553917710796e-08 7.60178953868751e-08 1.57114465109526e-07 1.14213004983349e-07 8.35447912261829e-09 3.08229641332496e-09
"1592" 39651 3.36985976340203e-09 5.48291907785883e-09 1.20905467889606e-08 7.5746777673888e-08 1.56908371395348e-07 1.14130231480931e-07 8.50654357481101e-09 3.09663443084939e-09
"1593" 39652 3.38445184548309e-09 5.52566783462919e-09 1.20257018068416e-08 7.54756599609009e-08 1.5670227768117e-07 1.14047457978513e-07 8.65860802700373e-09 3.11097244837383e-09
"1594" 39653 3.39904392756415e-09 5.56841659139954e-09 1.19608568247225e-08 7.52045422479138e-08 1.56496183966993e-07 1.13964684476095e-07 8.81067247919644e-09 3.12531046589826e-09
"1595" 39654 3.38895483714898e-09 5.5930026873061e-09 1.2067117586234e-08 7.52045422479138e-08 1.56053086717416e-07 1.1351940296356e-07 8.83804903111704e-09 3.11432882055758e-09
"1596" 39655 3.37886574673381e-09 5.61758878321267e-09 1.21733783477454e-08 7.52045422479138e-08 1.5560998946784e-07 1.13074121451024e-07 8.86542558303764e-09 3.1033471752169e-09
"1597" 39656 3.36877665631863e-09 5.64217487911923e-09 1.22796391092568e-08 7.52045422479138e-08 1.55166892218263e-07 1.12628839938488e-07 8.89280213495824e-09 3.09236552987622e-09
"1598" 39657 3.35868756590346e-09 5.6667609750258e-09 1.23858998707682e-08 7.52045422479138e-08 1.54723794968687e-07 1.12183558425953e-07 8.92017868687885e-09 3.08138388453554e-09
"1599" 39658 3.34859847548829e-09 5.69134707093236e-09 1.24921606322796e-08 7.52045422479138e-08 1.5428069771911e-07 1.11738276913417e-07 8.94755523879945e-09 3.07040223919486e-09
"1600" 39659 3.33850938507311e-09 5.71593316683893e-09 1.2598421393791e-08 7.52045422479138e-08 1.53837600469534e-07 1.11292995400881e-07 8.97493179072005e-09 3.05942059385417e-09
"1601" 39660 3.33289485910178e-09 5.70647697610564e-09 1.25715022258987e-08 7.54610258115184e-08 1.5360106255707e-07 1.11505905239757e-07 8.981581800697e-09 3.05510109242576e-09
"1602" 39661 3.33289485910178e-09 5.70857576289663e-09 1.25838714338709e-08 7.57183281539265e-08 1.52772086973909e-07 1.09842324376305e-07 8.9779795579787e-09 3.05722192776915e-09
"1603" 39662 3.33289485910178e-09 5.71067454968763e-09 1.25962406418431e-08 7.59756304963346e-08 1.51943111390749e-07 1.08178743512852e-07 8.97437731526039e-09 3.05934276311255e-09
"1604" 39663 3.33289485910178e-09 5.71277333647863e-09 1.26086098498154e-08 7.62329328387427e-08 1.51114135807588e-07 1.065151626494e-07 8.97077507254209e-09 3.06146359845594e-09
"1605" 39664 3.33289485910178e-09 5.71487212326962e-09 1.26209790577876e-08 7.64902351811508e-08 1.50285160224427e-07 1.04851581785947e-07 8.96717282982378e-09 3.06358443379934e-09
"1606" 39665 3.33289485910178e-09 5.71697091006062e-09 1.26333482657598e-08 7.67475375235589e-08 1.49456184641266e-07 1.03188000922495e-07 8.96357058710548e-09 3.06570526914273e-09
"1607" 39666 3.33289485910178e-09 5.71906969685162e-09 1.2645717473732e-08 7.70048398659669e-08 1.48627209058106e-07 1.01524420059043e-07 8.95996834438718e-09 3.06782610448613e-09
"1608" 39667 3.33289485910178e-09 5.72116848364261e-09 1.26580866817042e-08 7.7262142208375e-08 1.47798233474945e-07 9.98608391955901e-08 8.95636610166887e-09 3.06994693982953e-09
"1609" 39668 3.33289485910178e-09 5.72326727043361e-09 1.26704558896764e-08 7.75194445507831e-08 1.46969257891784e-07 9.81972583321377e-08 8.95276385895057e-09 3.07206777517292e-09
"1610" 39669 3.39543609914608e-09 5.78597621113906e-09 1.28553069033537e-08 7.76276159557607e-08 1.45971068680892e-07 9.67044797891246e-08 9.0509075364147e-09 3.1448377381522e-09
"1611" 39670 3.45797733919038e-09 5.84868515184452e-09 1.30401579170311e-08 7.77357873607382e-08 1.44972879470001e-07 9.52117012461115e-08 9.14905121387885e-09 3.21760770113148e-09
"1612" 39671 3.52051857923468e-09 5.91139409254997e-09 1.32250089307084e-08 7.78439587657157e-08 1.43974690259109e-07 9.37189227030984e-08 9.24719489134299e-09 3.29037766411076e-09
"1613" 39672 3.58305981927898e-09 5.97410303325542e-09 1.34098599443857e-08 7.79521301706933e-08 1.42976501048217e-07 9.22261441600853e-08 9.34533856880713e-09 3.36314762709004e-09
"1614" 39673 3.64560105932328e-09 6.03681197396088e-09 1.35947109580631e-08 7.80603015756708e-08 1.41978311837325e-07 9.07333656170722e-08 9.44348224627127e-09 3.43591759006931e-09
"1615" 39674 3.70814229936758e-09 6.09952091466633e-09 1.37795619717404e-08 7.81684729806484e-08 1.40980122626434e-07 8.92405870740591e-08 9.54162592373541e-09 3.50868755304859e-09
"1616" 39675 3.77068353941188e-09 6.16222985537178e-09 1.39644129854177e-08 7.82766443856259e-08 1.39981933415542e-07 8.7747808531046e-08 9.63976960119955e-09 3.58145751602787e-09
"1617" 39676 3.80268207336518e-09 6.19449473743397e-09 1.41267667604007e-08 7.83724218210247e-08 1.39986725222797e-07 8.81317659424791e-08 9.74423094449152e-09 3.63439863881237e-09
"1618" 39677 3.86466043945125e-09 6.25372246556579e-09 1.43084523630052e-08 7.84681992564235e-08 1.39742921995629e-07 8.83692661812428e-08 9.81228312071257e-09 3.68659843949266e-09
"1619" 39678 3.92720167949555e-09 6.31253509640894e-09 1.45009774898018e-08 7.85681370257433e-08 1.39483119523927e-07 8.81237776437221e-08 9.92051273666130e-09 3.75845326536022e-09
"1620" 39679 3.98974291953985e-09 6.37134772725209e-09 1.46935026165985e-08 7.86680747950632e-08 1.39223317052224e-07 8.78782891062015e-08 1.002874235261e-08 3.83030809122777e-09
"1621" 39680 4.05228415958415e-09 6.43016035809523e-09 1.48860277433951e-08 7.87680125643831e-08 1.38963514580522e-07 8.76328005686808e-08 1.01369719685588e-08 3.90216291709533e-09
"1622" 39681 4.11482539962845e-09 6.48897298893838e-09 1.50785528701917e-08 7.8867950333703e-08 1.3870371210882e-07 8.73873120311602e-08 1.02452015845075e-08 3.97401774296288e-09
"1623" 39682 4.17736663967275e-09 6.54778561978153e-09 1.52710779969884e-08 7.89678881030228e-08 1.38443909637118e-07 8.71418234936395e-08 1.03534312004562e-08 4.04587256883044e-09
"1624" 39683 4.23990787971705e-09 6.60659825062467e-09 1.5463603123785e-08 7.90678258723427e-08 1.38184107165416e-07 8.68963349561188e-08 1.04616608164049e-08 4.11772739469799e-09
"1625" 39684 4.24613992474697e-09 6.61168955611891e-09 1.54721950471723e-08 7.93672312147553e-08 1.39958344726125e-07 8.64195569543201e-08 1.04839937357814e-08 4.12874341702843e-09
"1626" 39685 4.25443584095708e-09 6.66282340080644e-09 1.56131557865355e-08 7.97352239830695e-08 1.41520020397156e-07 8.58188099318098e-08 1.04839937357814e-08 4.12803647191396e-09
"1627" 39686 4.25836174505371e-09 6.70823005296591e-09 1.57577877669708e-08 7.98489228568977e-08 1.41392142503745e-07 8.53358211555254e-08 1.04936916077744e-08 4.1331498259606e-09
"1628" 39687 4.26228764915034e-09 6.75363670512539e-09 1.5902419747406e-08 7.99626217307259e-08 1.41264264610334e-07 8.4852832379241e-08 1.05033894797674e-08 4.13826318000723e-09
"1629" 39688 4.26621355324696e-09 6.79904335728486e-09 1.60470517278413e-08 8.0076320604554e-08 1.41136386716922e-07 8.43698436029566e-08 1.05130873517604e-08 4.14337653405387e-09
"1630" 39689 4.27013945734359e-09 6.84445000944433e-09 1.61916837082766e-08 8.01900194783822e-08 1.41008508823511e-07 8.38868548266722e-08 1.05227852237535e-08 4.14848988810051e-09
"1631" 39690 4.27406536144022e-09 6.88985666160381e-09 1.63363156887119e-08 8.03037183522104e-08 1.408806309301e-07 8.34038660503878e-08 1.05324830957465e-08 4.15360324214715e-09
"1632" 39691 4.27799126553684e-09 6.93526331376328e-09 1.64809476691472e-08 8.04174172260386e-08 1.40752753036689e-07 8.29208772741034e-08 1.05421809677395e-08 4.15871659619379e-09
"1633" 39692 4.28191716963347e-09 6.98066996592275e-09 1.66255796495825e-08 8.05311160998667e-08 1.40624875143278e-07 8.2437888497819e-08 1.05518788397325e-08 4.16382995024042e-09
"1634" 39693 4.2858430737301e-09 7.02607661808223e-09 1.67702116300178e-08 8.06448149736949e-08 1.40496997249867e-07 8.19548997215346e-08 1.05615767117255e-08 4.16894330428706e-09
"1635" 39694 4.28976897782672e-09 7.0714832702417e-09 1.69148436104531e-08 8.07585138475231e-08 1.40369119356455e-07 8.14719109452502e-08 1.05712745837186e-08 4.1740566583337e-09
"1636" 39695 4.29369488192335e-09 7.11688992240118e-09 1.70594755908883e-08 8.08722127213512e-08 1.40241241463044e-07 8.09889221689658e-08 1.05809724557116e-08 4.17917001238034e-09
"1637" 39696 4.29762078601998e-09 7.16229657456065e-09 1.72041075713236e-08 8.09859115951794e-08 1.40113363569633e-07 8.05059333926814e-08 1.05906703277046e-08 4.18428336642697e-09
"1638" 39697 4.30154669011661e-09 7.20770322672012e-09 1.73487395517589e-08 8.10996104690076e-08 1.39985485676222e-07 8.00229446163971e-08 1.06003681996976e-08 4.18939672047361e-09
"1639" 39698 4.30154669011661e-09 7.24093225542229e-09 1.74510771371896e-08 8.11851049902091e-08 1.39328423339363e-07 7.91874784201793e-08 1.05924435878925e-08 4.18939672047361e-09
"1640" 39699 4.30466271263156e-09 7.29023521744407e-09 1.75079819174165e-08 8.13062187208915e-08 1.38753537832494e-07 7.90152848615185e-08 1.06005898572211e-08 4.18939672047361e-09
"1641" 39700 4.27940445256607e-09 7.31542065893604e-09 1.75552374960469e-08 8.12061518271495e-08 1.38092052135102e-07 7.78239894015902e-08 1.05560897641344e-08 4.17913563539059e-09
"1642" 39701 4.25414619250058e-09 7.340606100428e-09 1.76024930746772e-08 8.11060849334075e-08 1.3743056643771e-07 7.6632693941662e-08 1.05115896710477e-08 4.16887455030756e-09
"1643" 39702 4.22888793243508e-09 7.36579154191997e-09 1.76497486533076e-08 8.10060180396656e-08 1.36769080740318e-07 7.54413984817337e-08 1.0467089577961e-08 4.15861346522454e-09
"1644" 39703 4.20362967236959e-09 7.39097698341193e-09 1.7697004231938e-08 8.09059511459236e-08 1.36107595042927e-07 7.42501030218054e-08 1.04225894848744e-08 4.14835238014151e-09
"1645" 39704 4.1783714123041e-09 7.41616242490389e-09 1.77442598105683e-08 8.08058842521816e-08 1.35446109345535e-07 7.30588075618772e-08 1.03780893917877e-08 4.13809129505849e-09
"1646" 39705 4.15748316435209e-09 7.39383236819857e-09 1.76518908639271e-08 8.0585597264912e-08 1.34716364003073e-07 7.18926950099271e-08 1.03420128531381e-08 4.13809129505849e-09
"1647" 39706 4.13453104521989e-09 7.37361115753106e-09 1.75745577832137e-08 8.04183278247692e-08 1.33919540745137e-07 7.05566921376804e-08 1.02864294100898e-08 4.12783020997546e-09
"1648" 39707 4.11157892608768e-09 7.35338994686355e-09 1.74972247025003e-08 8.02510583846264e-08 1.33122717487201e-07 6.92206892654338e-08 1.02308459670415e-08 4.11756912489244e-09
"1649" 39708 4.08862680695548e-09 7.33316873619604e-09 1.74198916217868e-08 8.00837889444836e-08 1.32325894229265e-07 6.78846863931872e-08 1.01752625239933e-08 4.10730803980941e-09
"1650" 39709 4.06567468782328e-09 7.31294752552853e-09 1.73425585410734e-08 7.99165195043408e-08 1.31529070971328e-07 6.65486835209406e-08 1.0119679080945e-08 4.09704695472639e-09
"1651" 39710 4.04272256869107e-09 7.29272631486102e-09 1.726522546036e-08 7.97492500641979e-08 1.30732247713392e-07 6.5212680648694e-08 1.00640956378967e-08 4.08678586964336e-09
"1652" 39711 4.01977044955887e-09 7.27250510419351e-09 1.71878923796466e-08 7.95819806240551e-08 1.29935424455456e-07 6.38766777764474e-08 1.00085121948484e-08 4.07652478456034e-09
"1653" 39712 3.99681833042667e-09 7.252283893526e-09 1.71105592989332e-08 7.94147111839123e-08 1.2913860119752e-07 6.25406749042007e-08 9.95292875180014e-09 4.06626369947731e-09
"1654" 39713 3.96819230235244e-09 7.24093646464605e-09 1.71271511961874e-08 7.83788140409828e-08 1.29134835912215e-07 6.20092298183373e-08 9.88958691640004e-09 4.03588775146063e-09
"1655" 39714 3.93956627427821e-09 7.22958903576609e-09 1.71437430934417e-08 7.73429168980532e-08 1.2913107062691e-07 6.14777847324739e-08 9.82624508099994e-09 4.00551180344394e-09
"1656" 39715 3.91094024620399e-09 7.21824160688614e-09 1.71603349906959e-08 7.63070197551237e-08 1.29127305341605e-07 6.09463396466105e-08 9.76290324559984e-09 3.97513585542726e-09
"1657" 39716 3.88231421812976e-09 7.20689417800619e-09 1.71769268879502e-08 7.52711226121942e-08 1.29123540056301e-07 6.0414894560747e-08 9.69956141019974e-09 3.94475990741057e-09
"1658" 39717 3.85368819005554e-09 7.19554674912624e-09 1.71935187852044e-08 7.42352254692647e-08 1.29119774770996e-07 5.98834494748836e-08 9.63621957479963e-09 3.91438395939389e-09
"1659" 39718 3.82786705603181e-09 7.21074706902724e-09 1.72807009607577e-08 7.32557370315884e-08 1.29606634731468e-07 6.0395773144441e-08 9.57803149002487e-09 3.88010035556224e-09
"1660" 39719 3.83128946914089e-09 7.22963615014621e-09 1.73721790980046e-08 7.33663395176337e-08 1.30045721697971e-07 6.14244773024907e-08 9.56794545678288e-09 3.87299652742784e-09
"1661" 39720 3.83471188224997e-09 7.24852523126519e-09 1.74636572352515e-08 7.34769420036791e-08 1.30484808664473e-07 6.24531814605405e-08 9.55785942354088e-09 3.86589269929343e-09
"1662" 39721 3.83813429535904e-09 7.26741431238416e-09 1.75551353724985e-08 7.35875444897244e-08 1.30923895630976e-07 6.34818856185903e-08 9.54777339029888e-09 3.85878887115903e-09
"1663" 39722 3.84155670846812e-09 7.28630339350313e-09 1.76466135097454e-08 7.36981469757698e-08 1.31362982597479e-07 6.45105897766401e-08 9.53768735705689e-09 3.85168504302463e-09
"1664" 39723 3.8449791215772e-09 7.30519247462211e-09 1.77380916469923e-08 7.38087494618151e-08 1.31802069563982e-07 6.55392939346898e-08 9.52760132381489e-09 3.84458121489023e-09
"1665" 39724 3.84840153468628e-09 7.32408155574108e-09 1.78295697842392e-08 7.39193519478605e-08 1.32241156530484e-07 6.65679980927396e-08 9.5175152905729e-09 3.83747738675583e-09
"1666" 39725 3.85182394779536e-09 7.34297063686005e-09 1.79210479214862e-08 7.40299544339058e-08 1.32680243496987e-07 6.75967022507894e-08 9.5074292573309e-09 3.83037355862143e-09
"1667" 39726 3.85524636090444e-09 7.36185971797903e-09 1.80125260587331e-08 7.41405569199512e-08 1.3311933046349e-07 6.86254064088391e-08 9.49734322408891e-09 3.82326973048702e-09
"1668" 39727 3.85044171651477e-09 7.35020096613257e-09 1.80136765333455e-08 7.41405569199512e-08 1.33476956706663e-07 6.86627356354197e-08 9.48997261395644e-09 3.81616590235262e-09
"1669" 39728 3.84563707212511e-09 7.33854221428611e-09 1.80148270079579e-08 7.41405569199512e-08 1.33834582949837e-07 6.87000648620003e-08 9.48260200382397e-09 3.80906207421822e-09
"1670" 39729 3.84083242773544e-09 7.32688346243965e-09 1.80159774825704e-08 7.41405569199512e-08 1.3419220919301e-07 6.87373940885808e-08 9.4752313936915e-09 3.80195824608382e-09
"1671" 39730 3.83602778334577e-09 7.31522471059319e-09 1.80171279571828e-08 7.41405569199512e-08 1.34549835436184e-07 6.87747233151614e-08 9.46786078355903e-09 3.79485441794942e-09
"1672" 39731 3.83122313895611e-09 7.30356595874673e-09 1.80182784317952e-08 7.41405569199512e-08 1.34907461679357e-07 6.8812052541742e-08 9.46049017342656e-09 3.78775058981502e-09
"1673" 39732 3.82641849456644e-09 7.29190720690027e-09 1.80194289064076e-08 7.41405569199512e-08 1.35265087922531e-07 6.88493817683225e-08 9.45311956329409e-09 3.78064676168061e-09
"1674" 39733 3.82161385017678e-09 7.28024845505381e-09 1.802057938102e-08 7.41405569199512e-08 1.35622714165704e-07 6.88867109949031e-08 9.44574895316162e-09 3.77354293354621e-09
"1675" 39734 3.81680920578711e-09 7.26858970320735e-09 1.80217298556325e-08 7.41405569199512e-08 1.35980340408878e-07 6.89240402214837e-08 9.43837834302915e-09 3.76643910541181e-09
"1676" 39735 3.81138704233886e-09 7.26229334283435e-09 1.80225544694973e-08 7.41120157047433e-08 1.36344988340476e-07 6.83735487621932e-08 9.443310436131e-09 3.76473465406293e-09
"1677" 39736 3.81232042773225e-09 7.25651585407221e-09 1.79758979172695e-08 7.39552453354044e-08 1.36728530859097e-07 6.74924087328393e-08 9.42164220505279e-09 3.76664729740907e-09
"1678" 39737 3.80969842046416e-09 7.25581961155748e-09 1.79676119306381e-08 7.30921900414153e-08 1.36253971646864e-07 6.75369657551786e-08 9.42635254587374e-09 3.76768825739536e-09
"1679" 39738 3.80707641319606e-09 7.25512336904276e-09 1.79593259440068e-08 7.22291347474262e-08 1.35779412434631e-07 6.75815227775179e-08 9.43106288669469e-09 3.76872921738165e-09
"1680" 39739 3.80445440592797e-09 7.25442712652803e-09 1.79510399573755e-08 7.13660794534371e-08 1.35304853222398e-07 6.76260797998571e-08 9.43577322751564e-09 3.76977017736794e-09
"1681" 39740 3.80183239865988e-09 7.2537308840133e-09 1.79427539707442e-08 7.0503024159448e-08 1.34830294010166e-07 6.76706368221964e-08 9.44048356833658e-09 3.77081113735423e-09
"1682" 39741 3.79921039139179e-09 7.25303464149858e-09 1.79344679841128e-08 6.96399688654589e-08 1.34355734797933e-07 6.77151938445356e-08 9.44519390915753e-09 3.77185209734052e-09
"1683" 39742 3.79546737407756e-09 7.25214090958633e-09 1.7945919381817e-08 6.88070090674857e-08 1.33732682106281e-07 6.81196548586703e-08 9.54139801222307e-09 3.77106278310337e-09
"1684" 39743 3.79765001119914e-09 7.28085098249318e-09 1.79368087813209e-08 6.79558115607825e-08 1.33037165134058e-07 6.81929468202548e-08 9.53729711114496e-09 3.77089804485799e-09
"1685" 39744 3.79478099630761e-09 7.28235730109162e-09 1.7962364734248e-08 6.71627688490808e-08 1.32837269696363e-07 6.81836055104092e-08 9.53729711114496e-09 3.7762585062727e-09
"1686" 39745 3.79191198141609e-09 7.28386361969006e-09 1.79879206871751e-08 6.63697261373792e-08 1.32637374258667e-07 6.81742642005636e-08 9.53729711114496e-09 3.78161896768741e-09
"1687" 39746 3.78904296652456e-09 7.2853699382885e-09 1.80134766401022e-08 6.55766834256775e-08 1.32437478820972e-07 6.8164922890718e-08 9.53729711114496e-09 3.78697942910212e-09
"1688" 39747 3.78617395163303e-09 7.28687625688694e-09 1.80390325930293e-08 6.47836407139759e-08 1.32237583383277e-07 6.81555815808725e-08 9.53729711114496e-09 3.79233989051682e-09
"1689" 39748 3.78330493674151e-09 7.28838257548538e-09 1.80645885459564e-08 6.39905980022743e-08 1.32037687945582e-07 6.81462402710269e-08 9.53729711114496e-09 3.79770035193153e-09
"1690" 39749 3.78043592184998e-09 7.28988889408382e-09 1.80901444988835e-08 6.31975552905726e-08 1.31837792507887e-07 6.81368989611812e-08 9.53729711114496e-09 3.80306081334624e-09
"1691" 39750 3.77756690695846e-09 7.29139521268226e-09 1.81157004518107e-08 6.2404512578871e-08 1.31637897070192e-07 6.81275576513357e-08 9.53729711114496e-09 3.80842127476095e-09
"1692" 39751 3.77469789206693e-09 7.2929015312807e-09 1.81412564047378e-08 6.16114698671694e-08 1.31438001632496e-07 6.81182163414901e-08 9.53729711114496e-09 3.81378173617566e-09
"1693" 39752 3.77182887717541e-09 7.29440784987914e-09 1.81668123576649e-08 6.08184271554677e-08 1.31238106194801e-07 6.81088750316445e-08 9.53729711114496e-09 3.81914219759037e-09
"1694" 39753 3.76895986228388e-09 7.29591416847758e-09 1.8192368310592e-08 6.00253844437661e-08 1.31038210757106e-07 6.80995337217989e-08 9.53729711114496e-09 3.82450265900508e-09
"1695" 39754 3.76609084739236e-09 7.29742048707602e-09 1.82179242635191e-08 5.92323417320644e-08 1.30838315319411e-07 6.80901924119533e-08 9.53729711114496e-09 3.82986312041979e-09
"1696" 39755 3.76322183250083e-09 7.29892680567446e-09 1.82434802164462e-08 5.84392990203628e-08 1.30638419881716e-07 6.80808511021077e-08 9.53729711114496e-09 3.8352235818345e-09
"1697" 39756 3.76035281760931e-09 7.3004331242729e-09 1.82690361693733e-08 5.76462563086612e-08 1.3043852444402e-07 6.80715097922621e-08 9.53729711114496e-09 3.84058404324921e-09
"1698" 39757 3.75916768672215e-09 7.30074444723941e-09 1.83020136470838e-08 5.76375987782377e-08 1.30890637023001e-07 6.80715097922621e-08 9.53530219343354e-09 3.84702438002102e-09
"1699" 39758 3.75798255583499e-09 7.30105577020592e-09 1.83349911247942e-08 5.76289412478142e-08 1.31342749601982e-07 6.80715097922621e-08 9.53330727572212e-09 3.85346471679283e-09
"1700" 39759 3.74620484354511e-09 7.30105577020592e-09 1.83688330643527e-08 5.76973537016705e-08 1.31995508755635e-07 6.80100034128194e-08 9.50753852259544e-09 3.84427443030479e-09
"1701" 39760 3.73442713125522e-09 7.30105577020592e-09 1.84026750039111e-08 5.77657661555267e-08 1.32648267909288e-07 6.79484970333767e-08 9.48176976946875e-09 3.83508414381674e-09
"1702" 39761 3.72264941896534e-09 7.30105577020592e-09 1.84365169434695e-08 5.7834178609383e-08 1.33301027062941e-07 6.7886990653934e-08 9.45600101634207e-09 3.82589385732869e-09
"1703" 39762 3.7111187142989e-09 7.29895698341492e-09 1.84507146950957e-08 5.79984639492701e-08 1.34546171341815e-07 6.80532299563839e-08 9.46237421499753e-09 3.81134310942593e-09
"1704" 39763 3.69934100200901e-09 7.29745066481648e-09 1.84554162135034e-08 5.79960076128597e-08 1.34664288783447e-07 6.8017515490773e-08 9.43344662895693e-09 3.79600304728602e-09
"1705" 39764 3.68756328971913e-09 7.29594434621804e-09 1.8460117731911e-08 5.79935512764494e-08 1.34782406225079e-07 6.79818010251622e-08 9.40451904291634e-09 3.78066298514611e-09
"1706" 39765 3.67578557742925e-09 7.2944380276196e-09 1.84648192503187e-08 5.79910949400391e-08 1.3490052366671e-07 6.79460865595513e-08 9.37559145687574e-09 3.7653229230062e-09
"1707" 39766 3.66400786513937e-09 7.29293170902116e-09 1.84695207687263e-08 5.79886386036287e-08 1.35018641108342e-07 6.79103720939404e-08 9.34666387083514e-09 3.74998286086628e-09
"1708" 39767 3.65223015284949e-09 7.29142539042272e-09 1.8474222287134e-08 5.79861822672184e-08 1.35136758549974e-07 6.78746576283295e-08 9.31773628479454e-09 3.73464279872637e-09
"1709" 39768 3.64045244055961e-09 7.28991907182428e-09 1.84789238055416e-08 5.7983725930808e-08 1.35254875991606e-07 6.78389431627187e-08 9.28880869875394e-09 3.71930273658646e-09
"1710" 39769 3.62867472826973e-09 7.28841275322584e-09 1.84836253239493e-08 5.79812695943977e-08 1.35372993433238e-07 6.78032286971078e-08 9.25988111271335e-09 3.70396267444655e-09
"1711" 39770 3.61689701597985e-09 7.2869064346274e-09 1.84883268423569e-08 5.79788132579874e-08 1.35491110874869e-07 6.77675142314969e-08 9.23095352667275e-09 3.68862261230663e-09
"1712" 39771 3.59463601248794e-09 7.257603893528e-09 1.85004498855479e-08 5.87689916677317e-08 1.36108809488763e-07 6.83361917716924e-08 9.15841247763943e-09 3.6462331357251e-09
"1713" 39772 3.57237500899603e-09 7.22830135242859e-09 1.85125729287389e-08 5.95591700774759e-08 1.36726508102657e-07 6.89048693118879e-08 9.08587142860611e-09 3.60384365914357e-09
"1714" 39773 3.55011400550412e-09 7.19899881132919e-09 1.85246959719298e-08 6.03493484872202e-08 1.3734420671655e-07 6.94735468520834e-08 9.01333037957280e-09 3.56145418256204e-09
"1715" 39774 3.52785300201221e-09 7.16969627022978e-09 1.85368190151208e-08 6.11395268969645e-08 1.37961905330444e-07 7.00422243922788e-08 8.94078933053948e-09 3.51906470598051e-09
"1716" 39775 3.5055919985203e-09 7.14039372913038e-09 1.85489420583118e-08 6.19297053067088e-08 1.38579603944338e-07 7.06109019324743e-08 8.86824828150616e-09 3.47667522939898e-09
"1717" 39776 3.48333099502839e-09 7.11109118803097e-09 1.85610651015027e-08 6.27198837164531e-08 1.39197302558231e-07 7.11795794726698e-08 8.79570723247284e-09 3.43428575281745e-09
"1718" 39777 3.48389386898662e-09 7.11109118803097e-09 1.86148770897411e-08 6.25967412995118e-08 1.38982045693095e-07 7.12876491530775e-08 8.79581810861329e-09 3.43428575281745e-09
"1719" 39778 3.48364686136319e-09 7.09042470233433e-09 1.86388236629217e-08 6.25456233142219e-08 1.38967278823496e-07 7.13975870954543e-08 8.79664939539444e-09 3.43428575281745e-09
"1720" 39779 3.48339985373976e-09 7.06975821663769e-09 1.86627702361024e-08 6.24945053289319e-08 1.38952511953897e-07 7.15075250378311e-08 8.79748068217559e-09 3.43428575281745e-09
"1721" 39780 3.48315284611632e-09 7.04909173094104e-09 1.86867168092831e-08 6.2443387343642e-08 1.38937745084298e-07 7.16174629802079e-08 8.79831196895673e-09 3.43428575281745e-09
"1722" 39781 3.48290583849289e-09 7.0284252452444e-09 1.87106633824637e-08 6.2392269358352e-08 1.38922978214699e-07 7.17274009225848e-08 8.79914325573788e-09 3.43428575281745e-09
"1723" 39782 3.48265883086946e-09 7.00775875954776e-09 1.87346099556444e-08 6.23411513730621e-08 1.38908211345101e-07 7.18373388649616e-08 8.79997454251903e-09 3.43428575281745e-09
"1724" 39783 3.48241182324602e-09 6.98709227385111e-09 1.87585565288251e-08 6.22900333877721e-08 1.38893444475502e-07 7.19472768073384e-08 8.80080582930018e-09 3.43428575281745e-09
"1725" 39784 3.48216481562259e-09 6.96642578815447e-09 1.87825031020058e-08 6.22389154024821e-08 1.38878677605903e-07 7.20572147497152e-08 8.80163711608132e-09 3.43428575281745e-09
"1726" 39785 3.48347345032147e-09 6.97650462482078e-09 1.88165513583623e-08 6.23272611441316e-08 1.39353078867513e-07 7.21726029635795e-08 8.80246840286247e-09 3.43449394481471e-09
"1727" 39786 3.48235244027534e-09 6.96450437226735e-09 1.88008836949308e-08 6.23160602451133e-08 1.39338311997914e-07 7.22672887986389e-08 8.80612589413619e-09 3.43540908192644e-09
"1728" 39787 3.48123143022921e-09 6.95250411971393e-09 1.87852160314993e-08 6.23048593460949e-08 1.39323545128315e-07 7.23619746336983e-08 8.8097833854099e-09 3.43632421903816e-09
"1729" 39788 3.48011042018308e-09 6.9405038671605e-09 1.87695483680679e-08 6.22936584470765e-08 1.39308778258717e-07 7.24566604687576e-08 8.81344087668362e-09 3.43723935614988e-09
"1730" 39789 3.47898941013695e-09 6.92850361460708e-09 1.87538807046364e-08 6.22824575480581e-08 1.39294011389118e-07 7.2551346303817e-08 8.81709836795733e-09 3.43815449326161e-09
"1731" 39790 3.47786840009082e-09 6.91650336205365e-09 1.87382130412049e-08 6.22712566490398e-08 1.39279244519519e-07 7.26460321388764e-08 8.82075585923105e-09 3.43906963037333e-09
"1732" 39791 3.47674739004468e-09 6.90450310950022e-09 1.87225453777735e-08 6.22600557500214e-08 1.3926447764992e-07 7.27407179739357e-08 8.82441335050476e-09 3.43998476748505e-09
"1733" 39792 3.47562637999855e-09 6.8925028569468e-09 1.8706877714342e-08 6.2248854851003e-08 1.39249710780322e-07 7.28354038089951e-08 8.82807084177848e-09 3.44089990459678e-09
"1734" 39793 3.47450536995242e-09 6.88050260439337e-09 1.86912100509105e-08 6.22376539519846e-08 1.39234943910723e-07 7.29300896440545e-08 8.83172833305220e-09 3.4418150417085e-09
"1735" 39794 3.47431774529968e-09 6.88708010999241e-09 1.8700706284129e-08 6.22171554711703e-08 1.3885031821021e-07 7.30247754791139e-08 8.826463611529e-09 3.44273017882022e-09
"1736" 39795 3.45786363030219e-09 6.87937114609633e-09 1.87043704483191e-08 6.22586268382498e-08 1.38219240309298e-07 7.30876348696452e-08 8.79476516430865e-09 3.43491486719029e-09
"1737" 39796 3.4414095153047e-09 6.87166218220025e-09 1.87080346125091e-08 6.23000982053294e-08 1.37588162408386e-07 7.31504942601765e-08 8.7630667170883e-09 3.42709955556036e-09
"1738" 39797 3.42495540030721e-09 6.86395321830417e-09 1.87116987766992e-08 6.2341569572409e-08 1.36957084507474e-07 7.32133536507079e-08 8.73136826986796e-09 3.41928424393043e-09
"1739" 39798 3.40850128530972e-09 6.85624425440809e-09 1.87153629408892e-08 6.23830409394886e-08 1.36326006606562e-07 7.32762130412392e-08 8.69966982264761e-09 3.4114689323005e-09
"1740" 39799 3.39204717031223e-09 6.84853529051201e-09 1.87190271050793e-08 6.24245123065681e-08 1.3569492870565e-07 7.33390724317705e-08 8.66797137542726e-09 3.40365362067057e-09
"1741" 39800 3.37559305531474e-09 6.84082632661593e-09 1.87226912692693e-08 6.24659836736477e-08 1.35063850804738e-07 7.34019318223019e-08 8.63627292820691e-09 3.39583830904064e-09
"1742" 39801 3.37092612834782e-09 6.83311736271984e-09 1.87146912954024e-08 6.25074550407273e-08 1.34432772903826e-07 7.33731143942403e-08 8.60069533218935e-09 3.38947580301045e-09
"1743" 39802 3.35870904591142e-09 6.82093973926254e-09 1.87529558174862e-08 6.24817650459674e-08 1.3403195360635e-07 7.3473416281364e-08 8.5651177361718e-09 3.38286618961220e-09
"1744" 39803 3.34649196347502e-09 6.80876211580523e-09 1.879122033957e-08 6.24560750512074e-08 1.33631134308875e-07 7.35737181684877e-08 8.52954014015424e-09 3.37625657621394e-09
"1745" 39804 3.33427488103862e-09 6.79658449234793e-09 1.88294848616538e-08 6.24303850564475e-08 1.33230315011399e-07 7.36740200556113e-08 8.49396254413669e-09 3.36964696281568e-09
"1746" 39805 3.32205779860222e-09 6.78440686889062e-09 1.88677493837376e-08 6.24046950616876e-08 1.32829495713924e-07 7.3774321942735e-08 8.45838494811913e-09 3.36303734941742e-09
"1747" 39806 3.30984071616582e-09 6.77222924543332e-09 1.89060139058214e-08 6.23790050669277e-08 1.32428676416448e-07 7.38746238298587e-08 8.42280735210158e-09 3.35642773601916e-09
"1748" 39807 3.29762363372942e-09 6.76005162197601e-09 1.89442784279052e-08 6.23533150721678e-08 1.32027857118973e-07 7.39749257169824e-08 8.38722975608402e-09 3.3498181226209e-09
"1749" 39808 3.28540655129302e-09 6.7478739985187e-09 1.89825429499889e-08 6.23276250774079e-08 1.31627037821497e-07 7.40752276041061e-08 8.35165216006646e-09 3.34320850922264e-09
"1750" 39809 3.27318946885661e-09 6.7356963750614e-09 1.90208074720727e-08 6.2301935082648e-08 1.31226218524021e-07 7.41755294912297e-08 8.31607456404891e-09 3.33659889582439e-09
"1751" 39810 3.26097238642021e-09 6.72351875160409e-09 1.90590719941565e-08 6.2276245087888e-08 1.30825399226546e-07 7.42758313783534e-08 8.28049696803135e-09 3.32998928242613e-09
"1752" 39811 3.24875530398381e-09 6.71134112814679e-09 1.90973365162403e-08 6.22505550931281e-08 1.3042457992907e-07 7.43761332654771e-08 8.2449193720138e-09 3.32337966902787e-09
"1753" 39812 3.23653822154741e-09 6.69916350468948e-09 1.91356010383241e-08 6.22248650983682e-08 1.30023760631595e-07 7.44764351526008e-08 8.20934177599624e-09 3.31677005562961e-09
"1754" 39813 3.22432113911101e-09 6.68698588123218e-09 1.91738655604079e-08 6.21991751036083e-08 1.29622941334119e-07 7.45767370397245e-08 8.17376417997869e-09 3.31016044223135e-09
"1755" 39814 3.21210405667461e-09 6.67480825777487e-09 1.92121300824917e-08 6.21734851088484e-08 1.29222122036644e-07 7.46770389268482e-08 8.13818658396113e-09 3.30355082883309e-09
"1756" 39815 3.21602996077124e-09 6.67522335506355e-09 1.92617528058764e-08 6.18865111651902e-08 1.29174124303041e-07 7.48049319814444e-08 8.13602535203904e-09 3.30475652706477e-09
"1757" 39816 3.21165994865775e-09 6.67075469550232e-09 1.91183317253557e-08 5.81871170889346e-08 1.27665316462434e-07 7.26296461145565e-08 8.06348430300572e-09 3.29058778616678e-09
"1758" 39817 3.21558585275438e-09 6.66845841931381e-09 1.91588438482443e-08 5.79332021492673e-08 1.26957695837378e-07 7.27299480016802e-08 8.02170001205819e-09 3.28397817276852e-09
"1759" 39818 3.21951175685101e-09 6.66616214312529e-09 1.91993559711329e-08 5.76792872096001e-08 1.26250075212321e-07 7.28302498888039e-08 7.97991572111066e-09 3.27736855937026e-09
"1760" 39819 3.22343766094763e-09 6.66386586693677e-09 1.92398680940215e-08 5.74253722699329e-08 1.25542454587264e-07 7.29305517759276e-08 7.93813143016313e-09 3.270758945972e-09
"1761" 39820 3.22736356504426e-09 6.66156959074826e-09 1.928038021691e-08 5.71714573302657e-08 1.24834833962207e-07 7.30308536630513e-08 7.89634713921560e-09 3.26414933257374e-09
"1762" 39821 3.22736356504426e-09 6.65747579148843e-09 1.93077717903732e-08 5.7276619379645e-08 1.24342809633293e-07 7.31618052274038e-08 7.85550491643225e-09 3.25562707582935e-09
"1763" 39822 3.23079545389402e-09 6.65476441801124e-09 1.93532977919802e-08 5.80680207783541e-08 1.23990507080673e-07 7.31561921926148e-08 7.82009363462537e-09 3.25105139027073e-09
"1764" 39823 3.23135832785226e-09 6.64916430015297e-09 1.93475454189181e-08 5.78103984102598e-08 1.23118248653087e-07 7.32451495085424e-08 7.78468235281849e-09 3.24468888424054e-09
"1765" 39824 3.23192120181049e-09 6.64356418229471e-09 1.9341793045856e-08 5.75527760421654e-08 1.222459902255e-07 7.33341068244701e-08 7.74927107101161e-09 3.23832637821036e-09
"1766" 39825 3.23248407576873e-09 6.63796406443644e-09 1.93360406727939e-08 5.72951536740711e-08 1.21373731797913e-07 7.34230641403977e-08 7.71385978920473e-09 3.23196387218017e-09
"1767" 39826 3.23304694972696e-09 6.63236394657818e-09 1.93302882997318e-08 5.70375313059768e-08 1.20501473370327e-07 7.35120214563253e-08 7.67844850739784e-09 3.22560136614998e-09
"1768" 39827 3.2336098236852e-09 6.62676382871991e-09 1.93245359266697e-08 5.67799089378825e-08 1.1962921494274e-07 7.36009787722529e-08 7.64303722559096e-09 3.21923886011980e-09
"1769" 39828 3.23417269764344e-09 6.62116371086165e-09 1.93187835536076e-08 5.65222865697882e-08 1.18756956515153e-07 7.36899360881806e-08 7.60762594378408e-09 3.21287635408961e-09
"1770" 39829 3.23473557160167e-09 6.61556359300338e-09 1.93130311805455e-08 5.62646642016938e-08 1.17884698087567e-07 7.37788934041082e-08 7.5722146619772e-09 3.20651384805942e-09
"1771" 39830 3.23317992927936e-09 6.61645732491563e-09 1.93081966177514e-08 5.57849797458534e-08 1.17948010717737e-07 7.3902289431768e-08 7.56977642921879e-09 3.20867359877363e-09
"1772" 39831 3.23162428695705e-09 6.61735105682787e-09 1.93033620549574e-08 5.53052952900131e-08 1.18011323347907e-07 7.40256854594278e-08 7.56733819646039e-09 3.21083334948784e-09
"1773" 39832 3.23006864463475e-09 6.61824478874012e-09 1.92985274921633e-08 5.48256108341727e-08 1.18074635978076e-07 7.41490814870876e-08 7.56489996370199e-09 3.21299310020205e-09
"1774" 39833 3.22851300231244e-09 6.61913852065236e-09 1.92936929293692e-08 5.43459263783323e-08 1.18137948608246e-07 7.42724775147473e-08 7.56246173094358e-09 3.21515285091626e-09
"1775" 39834 3.22695735999013e-09 6.62003225256461e-09 1.92888583665752e-08 5.38662419224919e-08 1.18201261238416e-07 7.43958735424071e-08 7.56002349818518e-09 3.21731260163047e-09
"1776" 39835 3.22827073255935e-09 6.62600723072427e-09 1.92930945562941e-08 5.34175091706466e-08 1.18218913321436e-07 7.51569820654219e-08 7.55531315736423e-09 3.22125917281625e-09
"1777" 39836 3.22547057637919e-09 6.61939954738477e-09 1.92849615380407e-08 5.3411702860671e-08 1.18182485457232e-07 7.5523993137027e-08 7.50372011828324e-09 3.20978331273942e-09
"1778" 39837 3.22715446038356e-09 6.61351828430046e-09 1.92918643857153e-08 5.34184234000821e-08 1.18191042549792e-07 7.62109471916041e-08 7.49540753474398e-09 3.21157013321099e-09
"1779" 39838 3.22883834438792e-09 6.60763702121615e-09 1.92987672333898e-08 5.34251439394931e-08 1.18199599642351e-07 7.68979012461813e-08 7.48709495120473e-09 3.21335695368256e-09
"1780" 39839 3.23052222839229e-09 6.60175575813183e-09 1.93056700810643e-08 5.34318644789041e-08 1.18208156734911e-07 7.75848553007585e-08 7.47878236766548e-09 3.21514377415413e-09
"1781" 39840 3.23220611239666e-09 6.59587449504752e-09 1.93125729287389e-08 5.34385850183152e-08 1.1821671382747e-07 7.82718093553357e-08 7.47046978412623e-09 3.2169305946257e-09
"1782" 39841 3.23388999640102e-09 6.5899932319632e-09 1.93194757764134e-08 5.34453055577262e-08 1.1822527092003e-07 7.89587634099128e-08 7.46215720058698e-09 3.21871741509727e-09
"1783" 39842 3.23557388040539e-09 6.58411196887889e-09 1.93263786240879e-08 5.34520260971372e-08 1.18233828012589e-07 7.964571746449e-08 7.45384461704772e-09 3.22050423556884e-09
"1784" 39843 3.23725776440975e-09 6.57823070579457e-09 1.93332814717624e-08 5.34587466365482e-08 1.18242385105149e-07 8.03326715190672e-08 7.44553203350847e-09 3.22229105604041e-09
"1785" 39844 3.23943566366099e-09 6.57057203813259e-09 1.93823919415931e-08 5.39820677809205e-08 1.18366702194752e-07 8.03876168507762e-08 7.44885689636084e-09 3.2318542727711e-09
"1786" 39845 3.24161356291222e-09 6.5629133704706e-09 1.94315024114238e-08 5.45053889252927e-08 1.18491019284355e-07 8.04425621824852e-08 7.45218175921321e-09 3.24141748950178e-09
"1787" 39846 3.24379146216345e-09 6.55525470280862e-09 1.94806128812544e-08 5.50287100696649e-08 1.18615336373958e-07 8.04975075141943e-08 7.45550662206558e-09 3.25098070623247e-09
"1788" 39847 3.24596936141468e-09 6.54759603514663e-09 1.95297233510851e-08 5.55520312140372e-08 1.18739653463561e-07 8.05524528459033e-08 7.45883148491795e-09 3.26054392296316e-09
"1789" 39848 3.24814726066591e-09 6.53993736748465e-09 1.95788338209157e-08 5.60753523584094e-08 1.18863970553164e-07 8.06073981776123e-08 7.46215634777032e-09 3.27010713969384e-09
"1790" 39849 3.25032515991715e-09 6.53227869982266e-09 1.96279442907464e-08 5.65986735027816e-08 1.18988287642767e-07 8.06623435093213e-08 7.46548121062268e-09 3.27967035642453e-09
"1791" 39850 3.25250305916838e-09 6.52462003216068e-09 1.96770547605771e-08 5.71219946471539e-08 1.1911260473237e-07 8.07172888410304e-08 7.46880607347505e-09 3.28923357315522e-09
"1792" 39851 3.25468095841961e-09 6.51696136449869e-09 1.97261652304077e-08 5.76453157915261e-08 1.19236921821973e-07 8.07722341727394e-08 7.47213093632742e-09 3.2987967898859e-09
"1793" 39852 3.25685885767084e-09 6.5093026968367e-09 1.97752757002384e-08 5.81686369358984e-08 1.19361238911576e-07 8.08271795044484e-08 7.47545579917979e-09 3.30836000661659e-09
"1794" 39853 3.26078476176747e-09 6.51110021990801e-09 1.97992222734191e-08 5.87158692191683e-08 1.18836452084571e-07 8.09020089697927e-08 7.48903291472742e-09 3.31937602894702e-09
"1795" 39854 3.26078476176747e-09 6.5088039437195e-09 1.97720100158802e-08 5.91057949508065e-08 1.1864428705587e-07 8.10242612256798e-08 7.49867544340762e-09 3.31937602894702e-09
"1796" 39855 3.26390078428243e-09 6.50650766753098e-09 1.98266466179833e-08 5.96337836006646e-08 1.18309339571671e-07 8.1056062923563e-08 7.50526992055695e-09 3.32893924567771e-09
"1797" 39856 3.26701680679739e-09 6.50421139134247e-09 1.98812832200865e-08 6.01617722505226e-08 1.17974392087473e-07 8.10878646214461e-08 7.51186439770627e-09 3.3385024624084e-09
"1798" 39857 3.27013282931234e-09 6.50191511515395e-09 1.99359198221896e-08 6.06897609003807e-08 1.17639444603275e-07 8.11196663193293e-08 7.5184588748556e-09 3.34806567913908e-09
"1799" 39858 3.27144146401122e-09 6.53195413575536e-09 1.99521659347046e-08 6.06701972412825e-08 1.17188737122033e-07 8.13683018899731e-08 7.51164255066797e-09 3.34569773642762e-09
"1800" 39859 3.27455748652618e-09 6.52656156654143e-09 1.99543139155515e-08 6.09712822335396e-08 1.17660763423896e-07 8.14001035878563e-08 7.50344074851176e-09 3.3520602424578e-09
"1801" 39860 3.27767350904114e-09 6.5211689973275e-09 1.99564618963983e-08 6.12723672257967e-08 1.18132789725759e-07 8.14319052857394e-08 7.49523894635555e-09 3.35842274848799e-09
"1802" 39861 3.28078953155609e-09 6.51577642811358e-09 1.99586098772451e-08 6.15734522180537e-08 1.18604816027623e-07 8.14637069836226e-08 7.48703714419934e-09 3.36478525451818e-09
"1803" 39862 3.28390555407105e-09 6.51038385889965e-09 1.9960757858092e-08 6.18745372103108e-08 1.19076842329486e-07 8.14955086815058e-08 7.47883534204313e-09 3.37114776054836e-09
"1804" 39863 3.28702157658601e-09 6.50499128968572e-09 1.99629058389388e-08 6.21756222025679e-08 1.19548868631349e-07 8.15273103793889e-08 7.47063353988692e-09 3.37751026657855e-09
"1805" 39864 3.29013759910097e-09 6.4995987204718e-09 1.99650538197856e-08 6.2476707194825e-08 1.20020894933212e-07 8.15591120772721e-08 7.46243173773071e-09 3.38387277260874e-09
"1806" 39865 3.29325362161593e-09 6.49420615125787e-09 1.99672018006325e-08 6.2777792187082e-08 1.20492921235076e-07 8.15909137751553e-08 7.4542299355745e-09 3.39023527863892e-09
"1807" 39866 3.29636964413089e-09 6.48881358204394e-09 1.99693497814793e-08 6.30788771793391e-08 1.20964947536939e-07 8.16227154730384e-08 7.44602813341829e-09 3.39659778466911e-09
"1808" 39867 3.29948566664584e-09 6.48342101283001e-09 1.99714977623261e-08 6.33799621715962e-08 1.21436973838802e-07 8.16545171709216e-08 7.43782633126208e-09 3.4029602906993e-09
"1809" 39868 3.3026016891608e-09 6.47802844361609e-09 1.9973645743173e-08 6.36810471638533e-08 1.21909000140666e-07 8.16863188688047e-08 7.42962452910587e-09 3.40932279672948e-09
"1810" 39869 3.30571771167576e-09 6.47263587440216e-09 1.99757937240198e-08 6.39821321561103e-08 1.22381026442529e-07 8.17181205666879e-08 7.42142272694966e-09 3.41568530275967e-09
"1811" 39870 3.30883373419072e-09 6.46724330518823e-09 1.99779417048666e-08 6.42832171483674e-08 1.22853052744392e-07 8.17499222645711e-08 7.41322092479345e-09 3.42204780878986e-09
"1812" 39871 3.31194975670568e-09 6.46185073597431e-09 1.99800896857135e-08 6.45843021406245e-08 1.23325079046255e-07 8.17817239624542e-08 7.40501912263724e-09 3.42841031482004e-09
"1813" 39872 3.31506577922064e-09 6.45645816676038e-09 1.99822376665603e-08 6.48853871328816e-08 1.23797105348119e-07 8.18135256603374e-08 7.39681732048103e-09 3.43477282085023e-09
"1814" 39873 3.31818180173559e-09 6.45106559754645e-09 1.99843856474072e-08 6.51864721251386e-08 1.24269131649982e-07 8.18453273582206e-08 7.38861551832482e-09 3.44113532688042e-09
"1815" 39874 3.32210770583222e-09 6.43243436130591e-09 1.97934898243486e-08 6.55068007508076e-08 1.25200422525647e-07 8.19201568235649e-08 7.38739635456691e-09 3.4460404889298e-09
"1816" 39875 3.32603360992885e-09 6.41380312506538e-09 1.960259400129e-08 6.58271293764766e-08 1.26131713401311e-07 8.19949862889092e-08 7.38617719080901e-09 3.45094565097918e-09
"1817" 39876 3.33008301783719e-09 6.41401067370971e-09 1.95965491919087e-08 6.60927280390606e-08 1.26887657790284e-07 8.19833882167137e-08 7.38324011017599e-09 3.45876096260911e-09
"1818" 39877 3.33413242574554e-09 6.41421822235405e-09 1.95905043825274e-08 6.63583267016446e-08 1.27643602179257e-07 8.19717901445182e-08 7.38030302954297e-09 3.46657627423904e-09
"1819" 39878 3.33818183365388e-09 6.41442577099839e-09 1.95844595731462e-08 6.66239253642286e-08 1.28399546568229e-07 8.19601920723228e-08 7.37736594890996e-09 3.47439158586897e-09
"1820" 39879 3.34223124156222e-09 6.41463331964273e-09 1.95784147637649e-08 6.68895240268126e-08 1.29155490957202e-07 8.19485940001273e-08 7.37442886827694e-09 3.4822068974989e-09
"1821" 39880 3.34447326165448e-09 6.41404085145017e-09 1.95698961127892e-08 6.6860118185178e-08 1.29278710621378e-07 8.18078961277852e-08 7.37160266378437e-09 3.48149995238443e-09
"1822" 39881 3.34671528174674e-09 6.41344838325761e-09 1.95613774618135e-08 6.68307123435435e-08 1.29401930285555e-07 8.16671982554431e-08 7.3687764592918e-09 3.48079300726997e-09
"1823" 39882 3.35027067440822e-09 6.42809965380732e-09 1.95821920483498e-08 6.68124203687428e-08 1.29212765161647e-07 8.167308430627e-08 7.3689982115727e-09 3.48631820693006e-09
"1824" 39883 3.3538260670697e-09 6.44275092435702e-09 1.96030066348861e-08 6.67941283939421e-08 1.29023600037739e-07 8.1678970357097e-08 7.3692199638536e-09 3.49184340659015e-09
"1825" 39884 3.35738145973118e-09 6.45740219490672e-09 1.96238212214223e-08 6.67758364191413e-08 1.28834434913831e-07 8.1684856407924e-08 7.3694417161345e-09 3.49736860625024e-09
"1826" 39885 3.36093685239265e-09 6.47205346545642e-09 1.96446358079586e-08 6.67575444443406e-08 1.28645269789923e-07 8.1690742458751e-08 7.3696634684154e-09 3.50289380591033e-09
"1827" 39886 3.36449224505413e-09 6.48670473600613e-09 1.96654503944949e-08 6.67392524695399e-08 1.28456104666015e-07 8.16966285095779e-08 7.36988522069629e-09 3.50841900557042e-09
"1828" 39887 3.36804763771561e-09 6.50135600655583e-09 1.96862649810312e-08 6.67209604947392e-08 1.28266939542107e-07 8.17025145604049e-08 7.37010697297719e-09 3.51394420523051e-09
"1829" 39888 3.37160303037709e-09 6.51600727710553e-09 1.97070795675675e-08 6.67026685199385e-08 1.28077774418199e-07 8.17084006112319e-08 7.37032872525809e-09 3.5194694048906e-09
"1830" 39889 3.37515842303857e-09 6.52226340049124e-09 1.96449346678325e-08 6.63173279246635e-08 1.27493579310304e-07 8.16629068421049e-08 7.37055047753899e-09 3.52378890631902e-09
"1831" 39890 3.37871381570004e-09 6.52851952387696e-09 1.95827897680976e-08 6.59319873293885e-08 1.2690938420241e-07 8.16174130729779e-08 7.37077222981989e-09 3.52810840774744e-09
"1832" 39891 3.38226920836152e-09 6.53477564726267e-09 1.95206448683626e-08 6.55466467341135e-08 1.26325189094515e-07 8.1571919303851e-08 7.37099398210078e-09 3.53242790917585e-09
"1833" 39892 3.385824601023e-09 6.54103177064839e-09 1.94584999686277e-08 6.51613061388384e-08 1.25740993986621e-07 8.1526425534724e-08 7.37121573438168e-09 3.53674741060427e-09
"1834" 39893 3.38937999368448e-09 6.5472878940341e-09 1.93963550688927e-08 6.47759655435634e-08 1.25156798878726e-07 8.1480931765597e-08 7.37143748666258e-09 3.54106691203269e-09
"1835" 39894 3.44437581612964e-09 6.61786305104588e-09 1.93243880751917e-08 6.44841622038835e-08 1.28694899575228e-07 8.14354379964701e-08 7.43184224142966e-09 3.58840046603441e-09
"1836" 39895 3.49937163857481e-09 6.68843820805765e-09 1.92524210814906e-08 6.41923588642036e-08 1.3223300027173e-07 8.13899442273431e-08 7.49224699619675e-09 3.63573402003614e-09
"1837" 39896 3.55436746101998e-09 6.75901336506943e-09 1.91804540877895e-08 6.39005555245237e-08 1.35771100968232e-07 8.13444504582161e-08 7.55265175096383e-09 3.68306757403786e-09
"1838" 39897 3.60936328346514e-09 6.8295885220812e-09 1.91084870940884e-08 6.36087521848438e-08 1.39309201664734e-07 8.12989566890892e-08 7.61305650573091e-09 3.73040112803958e-09
"1839" 39898 3.66435910591031e-09 6.90016367909298e-09 1.90365201003874e-08 6.33169488451639e-08 1.42847302361236e-07 8.12534629199622e-08 7.67346126049799e-09 3.7777346820413e-09
"1840" 39899 3.71935492835548e-09 6.97073883610476e-09 1.89645531066863e-08 6.30251455054839e-08 1.46385403057738e-07 8.12079691508352e-08 7.73386601526508e-09 3.82506823604303e-09
"1841" 39900 3.77435075080065e-09 7.04131399311653e-09 1.88925861129852e-08 6.2733342165804e-08 1.49923503754239e-07 8.11624753817082e-08 7.79427077003216e-09 3.87240179004475e-09
"1842" 39901 3.77659277089291e-09 7.06277043640325e-09 1.88583649642591e-08 6.27541110692957e-08 1.50540636826006e-07 8.10048364011443e-08 7.81034165116583e-09 3.87240179004475e-09
"1843" 39902 3.77883479098517e-09 7.08422687968997e-09 1.8824143815533e-08 6.27748799727875e-08 1.51157769897772e-07 8.08471974205804e-08 7.82641253229949e-09 3.87240179004475e-09
"1844" 39903 3.76947724769961e-09 7.09055341780342e-09 1.88187841520754e-08 6.28789649945191e-08 1.52282543852731e-07 8.07794329876933e-08 7.82591358966747e-09 3.85823304914676e-09
"1845" 39904 3.76011970441405e-09 7.09687995591687e-09 1.88134244886178e-08 6.29830500162507e-08 1.5340731780769e-07 8.07116685548061e-08 7.82541464703545e-09 3.84406430824877e-09
"1846" 39905 3.75076216112849e-09 7.10320649403032e-09 1.88080648251602e-08 6.30871350379823e-08 1.5453209176265e-07 8.0643904121919e-08 7.82491570440343e-09 3.82989556735078e-09
"1847" 39906 3.74140461784294e-09 7.10953303214377e-09 1.88027051617026e-08 6.31912200597139e-08 1.55656865717609e-07 8.05761396890318e-08 7.82441676177141e-09 3.81572682645279e-09
"1848" 39907 3.73204707455738e-09 7.11585957025722e-09 1.8797345498245e-08 6.32953050814455e-08 1.56781639672568e-07 8.05083752561447e-08 7.82391781913939e-09 3.8015580855548e-09
"1849" 39908 3.72268953127182e-09 7.12218610837067e-09 1.87919858347874e-08 6.33993901031771e-08 1.57906413627527e-07 8.04406108232576e-08 7.82341887650737e-09 3.78738934465681e-09
"1850" 39909 3.71333198798626e-09 7.12851264648411e-09 1.87866261713298e-08 6.35034751249088e-08 1.59031187582486e-07 8.03728463903704e-08 7.82291993387535e-09 3.77322060375882e-09
"1851" 39910 3.70397444470071e-09 7.13483918459756e-09 1.87812665078722e-08 6.36075601466404e-08 1.60155961537446e-07 8.03050819574833e-08 7.82242099124333e-09 3.75905186286083e-09
"1852" 39911 3.69461690141515e-09 7.14116572271101e-09 1.87759068444146e-08 6.3711645168372e-08 1.61280735492405e-07 8.02373175245961e-08 7.82192204861131e-09 3.74488312196284e-09
"1853" 39912 3.69461690141515e-09 7.16951099456328e-09 1.88237273716917e-08 6.40631454100283e-08 1.6247734002531e-07 8.01537557552599e-08 7.82192204861131e-09 3.74317867061396e-09
"1854" 39913 3.69280951359907e-09 7.18767365542707e-09 1.88310357760802e-08 6.45001317544387e-08 1.63066198005552e-07 8.01668913312151e-08 7.84165042101869e-09 3.74438436884563e-09
"1855" 39914 3.69100212578298e-09 7.20583631629086e-09 1.88383441804687e-08 6.4937118098849e-08 1.63655055985794e-07 8.01800269071703e-08 7.86137879342607e-09 3.7455900670773e-09
"1856" 39915 3.6891947379669e-09 7.22399897715465e-09 1.88456525848572e-08 6.53741044432594e-08 1.64243913966036e-07 8.01931624831255e-08 7.88110716583345e-09 3.74679576530897e-09
"1857" 39916 3.71581153996128e-09 7.25423548715358e-09 1.89180849072471e-08 6.56939586634775e-08 1.66782709668219e-07 8.06713287058704e-08 7.98008175104911e-09 3.7941818498247e-09
"1858" 39917 3.73121824149435e-09 7.2769404041603e-09 1.89092866670617e-08 6.57379443884238e-08 1.67269939446901e-07 8.07079746866627e-08 8.08016509766926e-09 3.8427211020581e-09
"1859" 39918 3.73632927647813e-09 7.2769404041603e-09 1.88720929236239e-08 6.57320632200969e-08 1.66701887290629e-07 8.07272220505241e-08 8.104603905655e-09 3.85053641368803e-09
"1860" 39919 3.74144031146192e-09 7.2769404041603e-09 1.88348991801862e-08 6.572618205177e-08 1.66133835134357e-07 8.07464694143855e-08 8.12904271364073e-09 3.85835172531796e-09
"1861" 39920 3.7465513464457e-09 7.2769404041603e-09 1.87977054367485e-08 6.57203008834431e-08 1.65565782978084e-07 8.07657167782469e-08 8.15348152162647e-09 3.86616703694789e-09
"1862" 39921 3.75166238142949e-09 7.2769404041603e-09 1.87605116933107e-08 6.57144197151161e-08 1.64997730821812e-07 8.07849641421083e-08 8.1779203296122e-09 3.87398234857782e-09
"1863" 39922 3.75677341641328e-09 7.2769404041603e-09 1.8723317949873e-08 6.57085385467892e-08 1.6442967866554e-07 8.08042115059697e-08 8.20235913759794e-09 3.88179766020775e-09
"1864" 39923 3.76188445139706e-09 7.2769404041603e-09 1.86861242064353e-08 6.57026573784623e-08 1.63861626509268e-07 8.08234588698311e-08 8.22679794558367e-09 3.88961297183768e-09
"1865" 39924 3.76699548638085e-09 7.2769404041603e-09 1.86489304629975e-08 6.56967762101354e-08 1.63293574352996e-07 8.08427062336925e-08 8.25123675356941e-09 3.89742828346761e-09
"1866" 39925 3.77210652136464e-09 7.2769404041603e-09 1.86117367195598e-08 6.56908950418085e-08 1.62725522196724e-07 8.08619535975539e-08 8.27567556155514e-09 3.90524359509754e-09
"1867" 39926 3.77721755634842e-09 7.2769404041603e-09 1.8574542976122e-08 6.56850138734816e-08 1.62157470040452e-07 8.08812009614154e-08 8.30011436954088e-09 3.91305890672747e-09
"1868" 39927 3.78232859133221e-09 7.2769404041603e-09 1.85373492326843e-08 6.56791327051547e-08 1.6158941788418e-07 8.09004483252768e-08 8.32455317752661e-09 3.9208742183574e-09
"1869" 39928 3.78743962631599e-09 7.2769404041603e-09 1.85001554892466e-08 6.56732515368278e-08 1.61021365727907e-07 8.09196956891382e-08 8.34899198551235e-09 3.92868952998733e-09
"1870" 39929 3.79255066129978e-09 7.2769404041603e-09 1.84629617458088e-08 6.56673703685009e-08 1.60453313571635e-07 8.09389430529996e-08 8.37343079349808e-09 3.93650484161726e-09
"1871" 39930 3.79766169628357e-09 7.2769404041603e-09 1.84257680023711e-08 6.5661489200174e-08 1.59885261415363e-07 8.0958190416861e-08 8.39786960148382e-09 3.94432015324720e-09
"1872" 39931 3.80277273126735e-09 7.2769404041603e-09 1.83885742589334e-08 6.56556080318471e-08 1.59317209259091e-07 8.09774377807224e-08 8.42230840946956e-09 3.95213546487713e-09
"1873" 39932 3.80837778149801e-09 7.28574058936615e-09 1.83993141631675e-08 6.55220629024102e-08 1.59188042330803e-07 8.04613520376376e-08 8.42175402876731e-09 3.95442557684697e-09
"1874" 39933 3.81398283172866e-09 7.29454077457199e-09 1.84100540674017e-08 6.53885177729733e-08 1.59058875402514e-07 7.99452662945527e-08 8.42119964806507e-09 3.95671568881681e-09
"1875" 39934 3.81067918456095e-09 7.30292586248916e-09 1.83577447620697e-08 6.48343244460193e-08 1.5877299269014e-07 7.87374160124524e-08 8.39016617341519e-09 3.95671568881681e-09
"1876" 39935 3.80737553739325e-09 7.31131095040633e-09 1.83054354567378e-08 6.42801311190653e-08 1.58487109977766e-07 7.75295657303522e-08 8.35913269876532e-09 3.95671568881681e-09
"1877" 39936 3.80407189022555e-09 7.3196960383235e-09 1.82531261514058e-08 6.37259377921113e-08 1.58201227265392e-07 7.63217154482519e-08 8.32809922411544e-09 3.95671568881681e-09
"1878" 39937 3.80076824305784e-09 7.32808112624067e-09 1.82008168460739e-08 6.31717444651573e-08 1.57915344553018e-07 7.51138651661516e-08 8.29706574946557e-09 3.95671568881681e-09
"1879" 39938 3.80457064334275e-09 7.34025874969797e-09 1.81725807347543e-08 6.26269525890789e-08 1.57602226143115e-07 7.38737061841693e-08 8.25018305120552e-09 3.95671568881681e-09
"1880" 39939 3.79279293105287e-09 7.35160617857793e-09 1.82265321909337e-08 6.20770318835731e-08 1.60536329957236e-07 7.2876742964556e-08 8.20330035294547e-09 3.94819343207241e-09
"1881" 39940 3.78668438983467e-09 7.37286513246713e-09 1.83591208241444e-08 6.30847789399467e-08 1.6162408011866e-07 7.18797797449427e-08 8.19609615178108e-09 3.95139414277291e-09
"1882" 39941 3.78057584861647e-09 7.39412408635633e-09 1.84917094573551e-08 6.40925259963203e-08 1.62711830280084e-07 7.08828165253294e-08 8.18889195061669e-09 3.95459485347341e-09
"1883" 39942 3.77446730739827e-09 7.41538304024553e-09 1.86242980905658e-08 6.51002730526939e-08 1.63799580441508e-07 6.98858533057161e-08 8.1816877494523e-09 3.95779556417391e-09
"1884" 39943 3.76835876618007e-09 7.43664199413473e-09 1.87568867237765e-08 6.61080201090676e-08 1.64887330602933e-07 6.88888900861028e-08 8.17448354828791e-09 3.96099627487441e-09
"1885" 39944 3.76225022496187e-09 7.45790094802393e-09 1.88894753569872e-08 6.71157671654412e-08 1.65975080764357e-07 6.78919268664895e-08 8.16727934712352e-09 3.96419698557491e-09
"1886" 39945 3.75614168374367e-09 7.47915990191313e-09 1.90220639901979e-08 6.81235142218148e-08 1.67062830925781e-07 6.68949636468762e-08 8.16007514595913e-09 3.96739769627541e-09
"1887" 39946 3.75003314252547e-09 7.50041885580233e-09 1.91546526234085e-08 6.91312612781884e-08 1.68150581087205e-07 6.58980004272629e-08 8.15287094479474e-09 3.97059840697591e-09
"1888" 39947 3.72572248146439e-09 7.47627115753206e-09 1.92299244961236e-08 7.06873204931892e-08 1.69484509435544e-07 6.57939980290028e-08 8.18562233631973e-09 3.97379911767641e-09
"1889" 39948 3.7014118204033e-09 7.45212345926178e-09 1.93051963688387e-08 7.22433797081899e-08 1.70818437783883e-07 6.56899956307427e-08 8.21837372784472e-09 3.97699982837691e-09
"1890" 39949 3.67710115934222e-09 7.42797576099151e-09 1.93804682415537e-08 7.37994389231906e-08 1.72152366132222e-07 6.55859932324826e-08 8.2511251193697e-09 3.98020053907741e-09
"1891" 39950 3.64655845325122e-09 7.38256910883203e-09 1.92708421757262e-08 7.3800145414467e-08 1.7207093305312e-07 6.52317960304494e-08 8.23538677189998e-09 3.97238522744748e-09
"1892" 39951 3.61601574716022e-09 7.33716245667256e-09 1.91612161098986e-08 7.38008519057433e-08 1.71989499974017e-07 6.48775988284161e-08 8.21964842443025e-09 3.96456991581755e-09
"1893" 39952 3.58547304106921e-09 7.29175580451309e-09 1.9051590044071e-08 7.38015583970197e-08 1.71908066894915e-07 6.45234016263829e-08 8.20391007696053e-09 3.95675460418762e-09
"1894" 39953 3.58491016711098e-09 7.27153459384558e-09 1.90093824219149e-08 7.36244430189548e-08 1.71883353978687e-07 6.45211448640331e-08 8.13962617339624e-09 3.95530179858788e-09
"1895" 39954 3.56876718057795e-09 7.2261279416861e-09 1.90221372626095e-08 7.33571281850269e-08 1.70851601858877e-07 6.45223876223853e-08 8.10975651919145e-09 3.93638809550482e-09
"1896" 39955 3.55262419404492e-09 7.18072128952663e-09 1.90348921033041e-08 7.3089813351099e-08 1.69819849739066e-07 6.45236303807375e-08 8.07988686498666e-09 3.91747439242177e-09
"1897" 39956 3.5364812075119e-09 7.13531463736716e-09 1.90476469439987e-08 7.28224985171711e-08 1.68788097619256e-07 6.45248731390897e-08 8.05001721078188e-09 3.89856068933872e-09
"1898" 39957 3.52033822097887e-09 7.08990798520768e-09 1.90604017846933e-08 7.25551836832431e-08 1.67756345499445e-07 6.45261158974419e-08 8.02014755657709e-09 3.87964698625567e-09
"1899" 39958 3.50419523444584e-09 7.04450133304821e-09 1.90731566253879e-08 7.22878688493152e-08 1.66724593379635e-07 6.45273586557941e-08 7.9902779023723e-09 3.86073328317262e-09
"1900" 39959 3.48980025275821e-09 6.99698583485092e-09 1.90816752763636e-08 7.24936508116244e-08 1.6949803738696e-07 6.4558882106033e-08 7.96146119247215e-09 3.84327238568931e-09
"1901" 39960 3.47540527107058e-09 6.94947033665363e-09 1.90901939273393e-08 7.26994327739336e-08 1.72271481394284e-07 6.45904055562718e-08 7.932644482572e-09 3.825811488206e-09
"1902" 39961 3.46101028938294e-09 6.90195483845634e-09 1.9098712578315e-08 7.29052147362428e-08 1.75044925401609e-07 6.46219290065107e-08 7.90382777267185e-09 3.80835059072269e-09
"1903" 39962 3.44661530769531e-09 6.85443934025905e-09 1.91072312292907e-08 7.3110996698552e-08 1.77818369408933e-07 6.46534524567496e-08 7.8750110627717e-09 3.79088969323938e-09
"1904" 39963 3.43222032600768e-09 6.80692384206176e-09 1.91157498802664e-08 7.33167786608612e-08 1.80591813416258e-07 6.46849759069884e-08 7.84619435287155e-09 3.77342879575608e-09
"1905" 39964 3.41782534432005e-09 6.75940834386447e-09 1.91242685312421e-08 7.35225606231704e-08 1.83365257423583e-07 6.47164993572273e-08 7.8173776429714e-09 3.75596789827277e-09
"1906" 39965 3.40343036263241e-09 6.71189284566718e-09 1.91327871822178e-08 7.37283425854796e-08 1.86138701430907e-07 6.47480228074662e-08 7.78856093307126e-09 3.73850700078946e-09
"1907" 39966 3.38903538094478e-09 6.66437734746989e-09 1.91413058331935e-08 7.39341245477888e-08 1.88912145438232e-07 6.47795462577051e-08 7.75974422317111e-09 3.72104610330615e-09
"1908" 39967 3.37464039925715e-09 6.6168618492726e-09 1.91498244841692e-08 7.4139906510098e-08 1.91685589445557e-07 6.48110697079439e-08 7.73092751327096e-09 3.70358520582284e-09
"1909" 39968 3.36024541756952e-09 6.56934635107531e-09 1.91583431351449e-08 7.43456884724072e-08 1.94459033452881e-07 6.48425931581828e-08 7.70211080337081e-09 3.68612430833954e-09
"1910" 39969 3.36143054845668e-09 6.5690350281088e-09 1.91300337514137e-08 7.44865904372419e-08 1.95273047814015e-07 6.48728738500695e-08 7.68698189564393e-09 3.68433748786797e-09
"1911" 39970 3.35488263709196e-09 6.559267514409e-09 1.91348683142077e-08 7.49651360885926e-08 1.98496738322759e-07 6.48670155631627e-08 7.68393393887046e-09 3.67419768727844e-09
"1912" 39971 3.34515458237125e-09 6.53693745770367e-09 1.91375349721634e-08 7.53436569384389e-08 2.02303665577946e-07 6.45526053404943e-08 7.68476522565161e-09 3.67627506886996e-09
"1913" 39972 3.33542652765054e-09 6.51460740099835e-09 1.9140201630119e-08 7.57221777882851e-08 2.06110592833134e-07 6.42381951178258e-08 7.68559651243275e-09 3.67835245046148e-09
"1914" 39973 3.32569847292984e-09 6.49227734429302e-09 1.91428682880746e-08 7.61006986381314e-08 2.09917520088322e-07 6.39237848951574e-08 7.6864277992139e-09 3.680429832053e-09
"1915" 39974 3.31634092964428e-09 6.46875229195576e-09 1.91407003832362e-08 7.60289324553243e-08 2.10434112254886e-07 6.35778512222501e-08 7.69501738358946e-09 3.68616776209141e-09
"1916" 39975 3.32419747570787e-09 6.47393731252535e-09 1.91759987341631e-08 7.6364701835346e-08 2.13265311704615e-07 6.42935042032707e-08 7.80535288814747e-09 3.71122670244527e-09
"1917" 39976 3.33205402177147e-09 6.47912233309494e-09 1.921129708509e-08 7.67004712153678e-08 2.16096511154344e-07 6.50091571842914e-08 7.91568839270547e-09 3.73628564279912e-09
"1918" 39977 3.33991056783506e-09 6.48430735366453e-09 1.92465954360168e-08 7.70362405953895e-08 2.18927710604073e-07 6.5724810165312e-08 8.02602389726348e-09 3.76134458315297e-09
"1919" 39978 3.34776711389866e-09 6.48949237423412e-09 1.92818937869437e-08 7.73720099754113e-08 2.21758910053802e-07 6.64404631463326e-08 8.13635940182149e-09 3.78640352350682e-09
"1920" 39979 3.35562365996226e-09 6.4946773948037e-09 1.93171921378706e-08 7.7707779355433e-08 2.2459010950353e-07 6.71561161273533e-08 8.24669490637949e-09 3.81146246386068e-09
"1921" 39980 3.36348020602585e-09 6.49986241537329e-09 1.93524904887975e-08 7.80435487354547e-08 2.27421308953259e-07 6.78717691083739e-08 8.3570304109375e-09 3.83652140421453e-09
"1922" 39981 3.37133675208945e-09 6.50504743594288e-09 1.93877888397243e-08 7.83793181154765e-08 2.30252508402988e-07 6.85874220893946e-08 8.4673659154955e-09 3.86158034456838e-09
"1923" 39982 3.37919329815304e-09 6.51023245651247e-09 1.94230871906512e-08 7.87150874954982e-08 2.33083707852717e-07 6.93030750704152e-08 8.57770142005351e-09 3.88663928492224e-09
"1924" 39983 3.38704984421664e-09 6.51541747708206e-09 1.94583855415781e-08 7.90508568755199e-08 2.35914907302445e-07 7.00187280514358e-08 8.68803692461152e-09 3.91169822527609e-09
"1925" 39984 3.39490639028023e-09 6.52060249765165e-09 1.9493683892505e-08 7.93866262555417e-08 2.38746106752174e-07 7.07343810324565e-08 8.79837242916952e-09 3.93675716562994e-09
"1926" 39985 3.40276293634383e-09 6.52578751822124e-09 1.95289822434318e-08 7.97223956355634e-08 2.41577306201903e-07 7.14500340134771e-08 8.90870793372753e-09 3.9618161059838e-09
"1927" 39986 3.41061948240742e-09 6.53097253879083e-09 1.95642805943587e-08 8.00581650155851e-08 2.44408505651632e-07 7.21656869944978e-08 9.01904343828553e-09 3.98687504633765e-09
"1928" 39987 3.41847602847102e-09 6.53615755936042e-09 1.95995789452856e-08 8.03939343956069e-08 2.4723970510136e-07 7.28813399755184e-08 9.12937894284354e-09 4.0119339866915e-09
"1929" 39988 3.42633257453461e-09 6.54134257993e-09 1.96348772962125e-08 8.07297037756286e-08 2.50070904551089e-07 7.3596992956539e-08 9.23971444740154e-09 4.03699292704536e-09
"1930" 39989 3.43418912059821e-09 6.54652760049959e-09 1.96701756471393e-08 8.10654731556504e-08 2.52902104000818e-07 7.43126459375597e-08 9.35004995195955e-09 4.06205186739921e-09
"1931" 39990 3.4420456666618e-09 6.55171262106918e-09 1.97054739980662e-08 8.14012425356721e-08 2.55733303450547e-07 7.50282989185803e-08 9.46038545651756e-09 4.08711080775306e-09
"1932" 39991 3.4499022127254e-09 6.55689764163877e-09 1.97407723489931e-08 8.17370119156938e-08 2.58564502900276e-07 7.5743951899601e-08 9.57072096107556e-09 4.11216974810691e-09
"1933" 39992 3.4674868135097e-09 6.5805264682982e-09 1.97782386047584e-08 8.18832635296244e-08 2.61396660711455e-07 7.66821425258691e-08 9.68033605499287e-09 4.13751924958072e-09
"1934" 39993 3.48338753028964e-09 6.60146403997407e-09 1.98193889487053e-08 8.2313608856037e-08 2.64039653398727e-07 7.76089885809412e-08 9.78452020793372e-09 4.16050080834305e-09
"1935" 39994 3.49928824706957e-09 6.62240161164995e-09 1.98605392926523e-08 8.27439541824496e-08 2.66682646085999e-07 7.85358346360133e-08 9.88870436087457e-09 4.18348236710539e-09
"1936" 39995 3.50415227442993e-09 6.64902295701262e-09 1.99587602323136e-08 8.4097724522314e-08 2.70179093775447e-07 7.93673003440808e-08 1.00148890890427e-08 4.2237944620954e-09
"1937" 39996 3.50695243061008e-09 6.64455429745139e-09 1.995960477017e-08 8.40919930706899e-08 2.71333743643587e-07 7.95000841576006e-08 1.00503003708496e-08 4.23705714264379e-09
"1938" 39997 3.50975258679024e-09 6.64008563789017e-09 1.99604493080264e-08 8.40862616190657e-08 2.72488393511727e-07 7.96328679711205e-08 1.00857116526565e-08 4.25031982319218e-09
"1939" 39998 3.51255274297039e-09 6.63561697832894e-09 1.99612938458828e-08 8.40805301674416e-08 2.73643043379867e-07 7.97656517846403e-08 1.01211229344634e-08 4.26358250374058e-09
"1940" 39999 3.51535289915055e-09 6.63114831876772e-09 1.99621383837392e-08 8.40747987158175e-08 2.74797693248007e-07 7.98984355981601e-08 1.01565342162703e-08 4.27684518428897e-09
"1941" 40000 3.5181530553307e-09 6.62667965920649e-09 1.99629829215956e-08 8.40690672641934e-08 2.75952343116147e-07 8.00312194116799e-08 1.01919454980772e-08 4.29010786483737e-09
"1942" 40001 3.52095321151086e-09 6.62221099964527e-09 1.9963827459452e-08 8.40633358125692e-08 2.77106992984287e-07 8.01640032251997e-08 1.0227356779884e-08 4.30337054538576e-09
"1943" 40002 3.52375336769101e-09 6.61774234008404e-09 1.99646719973085e-08 8.40576043609451e-08 2.78261642852427e-07 8.02967870387195e-08 1.02627680616909e-08 4.31663322593416e-09
"1944" 40003 3.52655352387117e-09 6.61327368052282e-09 1.99655165351649e-08 8.4051872909321e-08 2.79416292720567e-07 8.04295708522394e-08 1.02981793434978e-08 4.32989590648255e-09
"1945" 40004 3.52935368005132e-09 6.6088050209616e-09 1.99663610730213e-08 8.40461414576969e-08 2.80570942588707e-07 8.05623546657592e-08 1.03335906253047e-08 4.34315858703094e-09
"1946" 40005 3.49455498991787e-09 6.5833987897245e-09 1.97596979665732e-08 8.30927744203176e-08 2.8182918665516e-07 8.08280025672841e-08 1.03188494050397e-08 4.30933482094569e-09
"1947" 40006 3.45975629978441e-09 6.5579925584874e-09 1.95530348601252e-08 8.21394073829384e-08 2.83087430721614e-07 8.1093650468809e-08 1.03041081847748e-08 4.27551105486043e-09
"1948" 40007 3.42495760965096e-09 6.5325863272503e-09 1.93463717536772e-08 8.11860403455591e-08 2.84345674788067e-07 8.13592983703339e-08 1.02893669645099e-08 4.24168728877517e-09
"1949" 40008 3.3901589195175e-09 6.5071800960132e-09 1.91397086472292e-08 8.02326733081799e-08 2.8560391885452e-07 8.16249462718588e-08 1.02746257442449e-08 4.20786352268992e-09
"1950" 40009 3.35536022938405e-09 6.4817738647761e-09 1.89330455407811e-08 7.92793062708006e-08 2.86862162920974e-07 8.18905941733837e-08 1.025988452398e-08 4.17403975660466e-09
"1951" 40010 3.32056153925060e-09 6.45636763353901e-09 1.87263824343331e-08 7.83259392334214e-08 2.88120406987427e-07 8.21562420749086e-08 1.02451433037151e-08 4.1402159905194e-09
"1952" 40011 3.28576284911714e-09 6.43096140230191e-09 1.85197193278851e-08 7.73725721960421e-08 2.8937865105388e-07 8.24218899764336e-08 1.02304020834501e-08 4.10639222443415e-09
"1953" 40012 3.29211839795877e-09 6.4351589758839e-09 1.85147118727214e-08 7.72847457997905e-08 2.9053330092202e-07 8.26456756116396e-08 1.02630425040772e-08 4.12202284769401e-09
"1954" 40013 3.29847394680041e-09 6.4393565494659e-09 1.85097044175578e-08 7.71969194035388e-08 2.9168795079016e-07 8.28694612468456e-08 1.02956829247044e-08 4.13765347095387e-09
"1955" 40014 3.30482949564204e-09 6.44355412304789e-09 1.85046969623941e-08 7.71090930072872e-08 2.928426006583e-07 8.30932468820516e-08 1.03283233453315e-08 4.15328409421373e-09
"1956" 40015 3.31118504448367e-09 6.44775169662988e-09 1.84996895072304e-08 7.70212666110355e-08 2.9399725052644e-07 8.33170325172577e-08 1.03609637659586e-08 4.16891471747359e-09
"1957" 40016 3.31754059332531e-09 6.45194927021188e-09 1.84946820520668e-08 7.69334402147839e-08 2.95151900394581e-07 8.35408181524637e-08 1.03936041865858e-08 4.18454534073345e-09
"1958" 40017 3.32327862310836e-09 6.471681787009e-09 1.85514467110251e-08 7.69156264008197e-08 2.95208443720185e-07 8.35053211750504e-08 1.03867878623981e-08 4.18870010391649e-09
"1959" 40018 3.32901665289141e-09 6.49141430380612e-09 1.86082113699835e-08 7.68978125868556e-08 2.9526498704579e-07 8.34698241976371e-08 1.03799715382105e-08 4.19285486709953e-09
"1960" 40019 3.34847276233282e-09 6.50695930626807e-09 1.8614043439012e-08 7.68886563033149e-08 2.95238474841012e-07 8.34473885562445e-08 1.03870095199216e-08 4.19929520387134e-09
"1961" 40020 3.36792887177423e-09 6.52250430873002e-09 1.86198755080405e-08 7.68795000197742e-08 2.95211962636233e-07 8.34249529148518e-08 1.03940475016328e-08 4.20573554064315e-09
"1962" 40021 3.38738498121565e-09 6.53804931119196e-09 1.86257075770689e-08 7.68703437362335e-08 2.95185450431454e-07 8.34025172734591e-08 1.04010854833439e-08 4.21217587741497e-09
"1963" 40022 3.40684109065706e-09 6.55359431365391e-09 1.86315396460974e-08 7.68611874526928e-08 2.95158938226675e-07 8.33800816320664e-08 1.0408123465055e-08 4.21861621418678e-09
"1964" 40023 3.42629720009848e-09 6.56913931611586e-09 1.86373717151259e-08 7.68520311691521e-08 2.95132426021896e-07 8.33576459906737e-08 1.04151614467661e-08 4.22505655095859e-09
"1965" 40024 3.44575330953989e-09 6.5846843185778e-09 1.86432037841544e-08 7.68428748856114e-08 2.95105913817117e-07 8.3335210349281e-08 1.04221994284772e-08 4.23149688773041e-09
"1966" 40025 3.4652094189813e-09 6.60022932103975e-09 1.86490358531828e-08 7.68337186020707e-08 2.95079401612338e-07 8.33127747078883e-08 1.04292374101884e-08 4.23793722450222e-09
"1967" 40026 3.48466552842272e-09 6.6157743235017e-09 1.86548679222113e-08 7.682456231853e-08 2.95052889407559e-07 8.32903390664956e-08 1.04362753918995e-08 4.24437756127404e-09
"1968" 40027 3.50225012920702e-09 6.62534434780398e-09 1.85683310445985e-08 7.65653061482144e-08 2.95176590309694e-07 8.33002811333133e-08 1.04521801483373e-08 4.25081789804585e-09
"1969" 40028 3.49239857067460e-09 6.53200391830456e-09 1.81222066699164e-08 7.56906092235461e-08 2.91216947424427e-07 8.17555377081931e-08 1.02858180751988e-08 4.18448827183838e-09
"1970" 40029 3.50269423722388e-09 6.53117372372721e-09 1.8097062697258e-08 7.57689967397465e-08 2.91149314095893e-07 8.17424021322379e-08 1.02931886853313e-08 4.1888077732668e-09
"1971" 40030 3.51298990377316e-09 6.53034352914986e-09 1.80719187245996e-08 7.58473842559469e-08 2.91081680767359e-07 8.17292665562827e-08 1.03005592954638e-08 4.19312727469522e-09
"1972" 40031 3.52328557032245e-09 6.52951333457251e-09 1.80467747519412e-08 7.59257717721473e-08 2.91014047438825e-07 8.17161309803274e-08 1.03079299055962e-08 4.19744677612364e-09
"1973" 40032 3.53358123687173e-09 6.52868313999515e-09 1.80216307792828e-08 7.60041592883477e-08 2.90946414110291e-07 8.17029954043722e-08 1.03153005157287e-08 4.20176627755206e-09
"1974" 40033 3.54387690342101e-09 6.5278529454178e-09 1.79964868066244e-08 7.60825468045481e-08 2.90878780781757e-07 8.1689859828417e-08 1.03226711258612e-08 4.20608577898047e-09
"1975" 40034 3.5541725699703e-09 6.52702275084045e-09 1.7971342833966e-08 7.61609343207485e-08 2.90811147453223e-07 8.16767242524618e-08 1.03300417359937e-08 4.21040528040889e-09
"1976" 40035 3.56446823651958e-09 6.52619255626309e-09 1.79461988613076e-08 7.62393218369489e-08 2.90743514124689e-07 8.16635886765066e-08 1.03374123461261e-08 4.21472478183731e-09
"1977" 40036 3.57476390306887e-09 6.52536236168574e-09 1.79210548886492e-08 7.63177093531493e-08 2.90675880796155e-07 8.16504531005513e-08 1.03447829562586e-08 4.21904428326573e-09
"1978" 40037 3.58505956961815e-09 6.52453216710839e-09 1.78959109159908e-08 7.63960968693497e-08 2.90608247467622e-07 8.16373175245961e-08 1.03521535663911e-08 4.22336378469415e-09
"1979" 40038 3.59535523616743e-09 6.52370197253104e-09 1.78707669433324e-08 7.64744843855501e-08 2.90540614139088e-07 8.16241819486409e-08 1.03595241765235e-08 4.22768328612256e-09
"1980" 40039 3.59535523616743e-09 6.5569310012332e-09 1.7916113629015e-08 7.69815123229761e-08 2.91220237800571e-07 8.22070533304727e-08 1.0422311536464e-08 4.23749361022132e-09
