time,channel1,channel2,channel3,channel4,channel5,channel6,channel7,channel8,class
24364,7.098623515815037e-9,1.5865949294140931e-9,3.146725763932931e-9,1.583703644565528e-8,5.7144642366800264e-8,2.2910075898128376e-8,2.7182202802156394e-8,1.3839878814613912e-8,0
24365,7.090236750583829e-9,1.5814011634490968e-9,3.1458862846099633e-9,1.5841404085700973e-8,5.714941029980308e-8,2.2910238422713497e-8,2.7184583886556488e-8,1.3876416399708202e-8,0
24366,7.081849985352622e-9,1.5762073974841005e-9,3.145046805286996e-9,1.5845771725746662e-8,5.7154178232805894e-8,2.291040094729862e-8,2.718696497095658e-8,1.3912953984802492e-8,0
24367,7.073463220121414e-9,1.5710136315191041e-9,3.1442073259640284e-9,1.5850139365792354e-8,5.71589461658087e-8,2.291056347188374e-8,2.7189346055356674e-8,1.3949491569896782e-8,0
24368,7.065076454890207e-9,1.5658198655541078e-9,3.143367846641061e-9,1.5854507005838043e-8,5.716371409881152e-8,2.2910725996468866e-8,2.7191727139756765e-8,1.3986029154991074e-8,0
24369,7.056689689658999e-9,1.5606260995891115e-9,3.1425283673180934e-9,1.5858874645883735e-8,5.716848203181433e-8,2.2910888521053988e-8,2.719410822415686e-8,1.4022566740085364e-8,0
24370,7.048302924427793e-9,1.5554323336241152e-9,3.141688887995126e-9,1.5863242285929427e-8,5.717324996481714e-8,2.291105104563911e-8,2.7196489308556955e-8,1.4059104325179655e-8,0
24371,7.039916159196585e-9,1.5502385676591188e-9,3.1408494086721584e-9,1.5867609925975116e-8,5.717801789781995e-8,2.2911213570224232e-8,2.7198870392957046e-8,1.4095641910273945e-8,0
24372,7.031529393965378e-9,1.5450448016941225e-9,3.140009929349191e-9,1.5871977566020808e-8,5.7182785830822766e-8,2.2911376094809354e-8,2.720125147735714e-8,1.4132179495368237e-8,0
24373,7.02314262873417e-9,1.5398510357291262e-9,3.1391704500262235e-9,1.5876345206066496e-08,5.718755376382558e-8,2.2911538619394476e-8,2.7203632561757232e-8,1.4168717080462527e-8,0
24374,7.014755863502963e-9,1.5346572697641299e-9,3.138330970703256e-9,1.588071284611219e-8,5.719232169682839e-8,2.2911701143979598e-8,2.7206013646157327e-8,1.4205254665556817e-8,0
24375,7.006369098271755e-9,1.5294635037991335e-9,3.1374914913802885e-9,1.588508048615788e-8,5.7197089629831205e-8,2.291186366856472e-8,2.7208394730557418e-8,1.4241792250651107e-8,0
24376,6.698674007437695e-9,1.5103293029898715e-9,3.1373211282774083e-9,1.588218292720794e-8,5.6824513711393275e-8,2.2832791523684975e-8,2.700237151777437e-8,1.4218651988852593e-8,0
24377,6.590313978931819e-9,1.4990765423058022e-9,3.1164105059290165e-9,1.557420775396772e-8,5.572830262748982e-8,2.2782860315155074e-8,2.6871784404816145e-8,1.3961198126906642e-8,0
24378,6.578753601302749e-9,1.5000863747589809e-9,3.1127365348142534e-9,1.5568277296978145e-8,5.574152706459748e-8,2.2779380222696467e-8,2.6865461323851835e-8,1.4000753321939136e-8,0
24379,6.567193223673679e-9,1.5010962072121598e-9,3.1090625636994907e-9,1.556234683998857e-8,5.575475150170515e-8,2.2775900130237856e-8,2.6859138242887528e-8,1.404030851697163e-8,0
24380,6.555632846044609e-9,1.5021060396653387e-9,3.1053885925847275e-9,1.5556416382998997e-8,5.576797593881281e-8,2.277242003777925e-8,2.685281516192322e-8,1.4079863712004123e-8,0
24381,6.54407246841554e-9,1.5031158721185174e-9,3.101714621469965e-9,1.5550485926009422e-8,5.5781200375920474e-8,2.2768939945320643e-8,2.684649208095891e-8,1.4119418907036617e-8,0
24382,6.53251209078647e-9,1.5041257045716963e-9,3.098040650355202e-9,1.5544555469019846e-8,5.5794424813028134e-8,2.2765459852862033e-8,2.68401689999946e-8,1.4158974102069111e-8,0
24383,6.5209517131574e-9,1.5051355370248752e-9,3.094366679240439e-9,1.5538625012030274e-8,5.5807649250135794e-8,2.2761979760403426e-8,2.683384591903029e-8,1.4198529297101606e-8,0
24384,6.50939133552833e-9,1.5061453694780539e-9,3.0906927081256762e-9,1.5532694555040698e-8,5.582087368724346e-8,2.275849966794482e-8,2.6827522838065982e-8,1.42380844921341e-8,0
24385,6.499689404640122e-9,1.512348967896229e-9,3.08734712702524e-9,1.552712751207864e-8,5.58110177384567e-8,2.275849966794482e-8,2.6838608087830475e-8,1.4232924433789997e-8,0
24386,6.489987473751915e-9,1.518552566314404e-9,3.084001545924804e-9,1.5521560469116582e-8,5.580116178966995e-8,2.275849966794482e-8,2.684969333759497e-8,1.4227764375445896e-8,0
24387,6.480695240047604e-9,1.5207784660136884e-9,3.104475096113158e-9,1.5596857988734318e-8,5.60435594745747e-8,2.2778926187026623e-8,2.6883726157249426e-8,1.4248668086734737e-8,0
24388,6.471403006343295e-9,1.5230043657129725e-9,3.1249486463015113e-9,1.5672155508352054e-8,5.628595715947945e-8,2.2799352706108427e-8,2.6917758976903882e-8,1.4269571798023578e-8,0
24389,6.4621107726389846e-9,1.5252302654122566e-9,3.1454221964898652e-9,1.574745302796979e-8,5.65283548443842e-8,2.281977922519023e-8,2.6951791796558338e-8,1.4290475509312421e-8,0
24390,6.452818538934675e-9,1.5274561651115408e-9,3.165895746678219e-9,1.5822750547587526e-8,5.677075252928895e-8,2.2840205744272036e-8,2.698582461621279e-8,1.4311379220601262e-8,0
24391,6.4532282361185725e-9,1.5274191864552461e-9,3.1897148779670092e-9,1.5908804538021343e-8,5.698340369749736e-8,2.2863103670216193e-8,2.7026180516831557e-8,1.434136400430305e-8,0
24392,6.453637933302471e-9,1.5273822077989517e-9,3.213534009255799e-9,1.599485852845516e-8,5.7196054865705764e-8,2.288600159616035e-8,2.706653641745032e-8,1.4371348788004836e-8,0
24393,6.454047630486368e-9,1.527345229142657e-9,3.237353140544589e-9,1.6080912518888977e-8,5.7408706033914174e-8,2.290889952210451e-8,2.7106892318069085e-8,1.4401333571706623e-8,0
24394,6.454457327670266e-9,1.5273082504863626e-9,3.261172271833379e-9,1.6166966509322795e-8,5.7621357202122583e-8,2.2931797448048667e-8,2.7147248218687848e-8,1.443131835540841e-8,0
24395,6.454867024854164e-9,1.527271271830068e-9,3.2849914031221687e-9,1.6253020499756612e-8,5.783400837033099e-8,2.295469537399282e-8,2.7187604119306613e-8,1.4461303139110196e-8,0
24396,6.455276722038061e-9,1.5272342931737735e-9,3.3088105344109588e-9,1.633907449019043e-8,5.8046659538539396e-8,2.297759329993698e-8,2.7227960019925376e-8,1.4491287922811983e-8,0
24397,6.4556864192219595e-9,1.5271973145174789e-9,3.332629665699749e-9,1.6425128480624243e-8,5.8259310706747806e-8,2.3000491225881137e-8,2.7268315920544142e-8,1.452127270651377e-8,0
24398,6.449567797915512e-9,1.529423214216763e-9,3.3564487969885385e-9,1.650390307098191e-8,5.848848395454489e-8,2.3005142528521122e-8,2.7310757963880174e-8,1.4535159368727307e-8,0
24399,6.440999938989684e-9,1.5304330466699419e-9,3.3627498882179154e-9,1.651030610283282e-8,5.851254321772822e-8,2.299522336298619e-8,2.7310666833631733e-8,1.4534883325252057e-8,0
24400,6.432432080063856e-9,1.5314428791231206e-9,3.3690509794472923e-9,1.651670913468373e-8,5.8536602480911534e-8,2.2985304197451253e-8,2.7310575703383292e-8,1.4534607281776805e-8,0
24401,6.423864221138028e-9,1.5324527115762995e-9,3.375352070676669e-9,1.652311216653464e-8,5.856066174409485e-8,2.2975385031916316e-8,2.731048457313485e-8,1.4534331238301554e-8,0
24402,6.4152963622122e-9,1.5334625440294784e-9,3.3816531619060456e-9,1.652951519838555e-8,5.8584721007278175e-08,2.2965465866381384e-8,2.731039344288641e-8,1.4534055194826302e-8,0
24403,6.406728503286372e-9,1.534472376482657e-9,3.3879542531354225e-9,1.6535918230236456e-8,5.860878027046149e-8,2.2955546700846447e-8,2.731030231263797e-8,1.453377915135105e-8,0
24404,6.398160644360544e-9,1.535482208935836e-9,3.3942553443647994e-9,1.6542321262087366e-8,5.863283953364481e-8,2.294562753531151e-8,2.731021118238953e-8,1.4533503107875798e-8,0
24405,6.3895927854347165e-9,1.5364920413890146e-9,3.400556435594176e-9,1.6548724293938276e-8,5.8656898796828134e-8,2.2935708369776578e-8,2.7310120052141088e-8,1.4533227064400547e-8,0
24406,6.3810249265088886e-9,1.5375018738421935e-9,3.4068575268235527e-9,1.6555127325789186e-8,5.868095806001145e-8,2.2925789204241642e-8,2.7310028921892647e-8,1.4532951020925295e-8,0
24407,6.372457067583061e-9,1.5385117062953724e-9,3.4131586180529296e-9,1.6561530357640096e-8,5.870501732319477e-8,2.291587003870671e-8,2.7309937791644203e-8,1.4532674977450043e-8,0
24408,6.363889208657233e-9,1.5395215387485511e-9,3.4194597092823065e-9,1.6567933389491003e-8,5.872907658637809e-8,2.2905950873171773e-8,2.7309846661395762e-8,1.4532398933974791e-8,0
24409,6.355321349731405e-9,1.54053137120173e-9,3.425760800511683e-9,1.6574336421341913e-8,5.875313584956141e-8,2.2896031707636836e-8,2.730975553114732e-8,1.453212289049954e-8,0
24410,6.346753490805577e-9,1.541541203654909e-9,3.43206189174106e-9,1.6580739453192823e-8,5.8777195112744734e-8,2.2886112542101903e-8,2.730966440089888e-8,1.4531846847024288e-8,0
24411,6.338185631879749e-9,1.5425510361080876e-9,3.4383629829704367e-9,1.6587142485043733e-8,5.880125437592805e-8,2.2876193376566967e-8,2.730957327065044e-8,1.4531570803549036e-8,0
24412,6.329617772953921e-9,1.5435608685612665e-9,3.4446640741998132e-9,1.6593545516894643e-8,5.882531363911137e-8,2.2866274211032034e-8,2.7309482140402e-8,1.4531294760073784e-8,0
24413,6.321049914028093e-9,1.5445707010144452e-9,3.45096516542919e-9,1.659994854874555e-8,5.884937290229469e-8,2.2856355045497098e-8,2.7309391010153558e-8,1.4531018716598533e-8,0
24414,6.2901242389332584e-9,1.54335463376834e-9,3.4574242835700134e-9,1.6613051468882623e-8,5.8611400768723954e-8,2.2450212649347985e-8,2.7300890656223538e-8,1.4490989859683793e-8,0
24415,6.225461463734967e-9,1.5633663895504435e-9,3.4969221257836426e-9,1.654875492000448e-8,5.8647340911169566e-8,2.24338208726512e-8,2.7229595437898878e-8,1.4482865525234784e-8,0
24416,6.1607986885366755e-9,1.5833781453325472e-9,3.5364199679972722e-9,1.6484458371126335e-8,5.8683281053615184e-8,2.2417429095954416e-8,2.715830021957422e-8,1.4474741190785775e-8,0
24417,6.096135913338384e-9,1.6033899011146506e-9,3.5759178102109014e-9,1.642016182224819e-8,5.8719221196060796e-8,2.240103731925763e-8,2.708700500124956e-8,1.4466616856336765e-8,0
24418,6.031473138140093e-9,1.6234016568967541e-9,3.6154156524245307e-9,1.6355865273370045e-8,5.875516133850641e-8,2.2384645542560844e-8,2.70157097829249e-8,1.4458492521887756e-8,0
24419,5.9668103629418e-9,1.6434134126788578e-9,3.6549134946381603e-9,1.6291568724491902e-8,5.879110148095202e-8,2.236825376586406e-8,2.6944414564600243e-8,1.4450368187438748e-8,0
24420,5.902147587743509e-9,1.6634251684609613e-9,3.6944113368517895e-9,1.6227272175613757e-8,5.882704162339764e-8,2.2351861989167275e-8,2.6873119346275582e-8,1.4442243852989739e-8,0
24421,5.8374848125452175e-9,1.683436924243065e-9,3.733909179065419e-9,1.6162975626735612e-8,5.886298176584325e-8,2.233547021247049e-8,2.6801824127950922e-8,1.443411951854073e-8,0
24422,5.767971071902822e-9,1.6831937107938438e-9,3.731074687273623e-9,1.6173988574650557e-8,5.958029290294092e-8,2.2763613642585915e-8,2.6793640266641226e-8,1.4355928209641897e-8,0
24423,5.698457331260427e-9,1.6829504973446229e-9,3.728240195481828e-9,1.61850015225655e-8,6.02976040400386e-8,2.3191757072701343e-8,2.6785456405331534e-8,1.4277736900743066e-8,0
24424,5.629489853529895e-9,1.6829628235633877e-9,3.727047653761666e-9,1.606948071888008e-8,6.013636537073568e-8,2.321734482690218e-8,2.6794139019758436e-8,1.4203397595044264e-8,0
24425,5.560522375799363e-9,1.6829751497821525e-9,3.725855112041505e-9,1.595395991519466e-8,5.997512670143277e-8,2.3242932581103016e-8,2.6802821634185334e-8,1.4129058289345461e-8,0
24426,5.491554898068831e-9,1.6829874760009173e-9,3.7246625703213426e-9,1.583843911150924e-8,5.9813888032129865e-08,2.3268520335303853e-8,2.6811504248612236e-8,1.405471898364666e-8,0
24427,5.4225874203383e-9,1.6829998022196821e-9,3.723470028601181e-9,1.5722918307823822e-08,5.965264936282696e-8,2.3294108089504692e-8,2.6820186863039138e-8,1.3980379677947858e-8,0
24428,5.353619942607768e-9,1.6830121284384471e-9,3.7222774868810194e-9,1.5607397504138403e-8,5.9491410693524046e-8,2.331969584370553e-8,2.682886947746604e-8,1.3906040372249057e-8,0
24429,5.284652464877236e-9,1.683024454657212e-9,3.7210849451608574e-9,1.5491876700452983e-8,5.9330172024221137e-8,2.3345283597906366e-8,2.683755209189294e-8,1.3831701066550254e-8,0
24430,5.215684987146704e-9,1.6830367808759768e-9,3.719892403440696e-9,1.537635589676756e-8,5.9168933354918234e-8,2.3370871352107202e-8,2.6846234706319843e-8,1.3757361760851452e-8,0
24431,5.146717509416173e-9,1.6830491070947416e-9,3.7186998617205342e-9,1.5260835093082142e-8,5.9007694685615324e-8,2.339645910630804e-8,2.6854917320746745e-8,1.3683022455152651e-8,0
24432,5.077750031685641e-9,1.6830614333135064e-9,3.717507320000372e-9,1.5145314289396723e-8,5.8846456016312415e-8,2.342204686050888e-8,2.6863599935173647e-8,1.360868314945385e-8,0
24433,5.008782553955109e-9,1.6830737595322714e-9,3.7163147782802106e-9,1.5029793485711304e-8,5.8685217347009505e-8,2.3447634614709715e-8,2.687228254960055e-8,1.3534343843755046e-8,0
24434,4.939815076224577e-9,1.6830860857510362e-9,3.715122236560049e-9,1.4914272682025884e-8,5.8523978677706596e-8,2.347322236891055e-8,2.688096516402745e-8,1.3460004538056245e-8,0
24435,4.914654780530956e-9,1.6770763959070227e-9,3.7172752759403236e-9,1.4913436693137033e-8,5.856176480105694e-8,2.3526045481887128e-8,2.6949042501276986e-8,1.3462231674366473e-8,0
24436,4.9062205055050915e-9,1.6751060358757244e-9,3.7160827342201616e-9,1.4913436693137033e-8,5.8634846952113756e-8,2.3559871258962475e-8,2.6918088404075775e-8,1.3387271270848355e-8,0
24437,4.901915802972851e-9,1.6751183620944894e-9,3.717724684291795e-9,1.48911685212888e-8,5.852065111721887e-8,2.3516664621074273e-8,2.6925221804279176e-8,1.3197425123200599e-8,0
24438,4.897611100440611e-9,1.6751306883132542e-9,3.719366634363429e-9,1.4868900349440566e-8,5.8406455282323986e-8,2.3473457983186067e-8,2.693235520448258e-8,1.3007578975552842e-8,0
24439,4.893306397908371e-9,1.675143014532019e-9,3.721008584435063e-9,1.4846632177592333e-8,5.82922594474291e-8,2.3430251345297864e-8,2.6939488604685982e-8,1.2817732827905085e-8,0
24440,4.889001695376131e-9,1.6751553407507838e-9,3.7226505345066965e-9,1.48243640057441e-8,5.817806361253421e-8,2.338704470740966e-8,2.6946622004889384e-8,1.2627886680257329e-8,0
24441,4.884696992843891e-9,1.6751676669695486e-9,3.72429248457833e-9,1.4802095833895868e-8,5.806386777763932e-8,2.334383806952146e-8,2.6953755405092788e-8,1.2438040532609572e-8,0
24442,4.88039229031165e-9,1.6751799931883137e-9,3.725934434649963e-9,1.4779827662047635e-8,5.794967194274443e-8,2.3300631431633252e-8,2.696088880529619e-8,1.2248194384961816e-8,0
24443,4.8760875877794106e-9,1.6751923194070785e-9,3.727576384721597e-9,1.4757559490199403e-8,5.783547610784955e-8,2.325742479374505e-8,2.6968022205499594e-8,1.205834823731406e-8,0
24444,4.871236622335306e-9,1.6749491059578573e-9,3.7267369053986296e-9,1.4773129997666639e-8,5.767624741001882e-8,2.3174676493736054e-8,2.692485112017603e-8,1.1863316940087239e-8,0
24445,4.866385656891203e-9,1.6747058925086363e-9,3.725897426075662e-9,1.4788700505133873e-8,5.75170187121881e-8,2.309192819372706e-8,2.6881680034852467e-8,1.1668285642860419e-8,0
24446,4.88874347306021e-9,1.6834032565128465e-9,3.730897293439166e-9,1.478417134774262e-8,5.742470845767163e-8,2.299391460975529e-8,2.6963556823325977e-8,1.1488389466321841e-8,0
24447,4.911101289229217e-9,1.6921006205170564e-9,3.735897160802669e-9,1.4779642190351366e-8,5.733239820315515e-8,2.2895901025783524e-8,2.7045433611799487e-8,1.1308493289783262e-8,0
24448,4.933459105398225e-9,1.7007979845212665e-9,3.740897028166173e-9,1.4775113032960113e-8,5.724008794863868e-8,2.2797887441811757e-8,2.7127310400272998e-8,1.1128597113244684e-8,0
24449,4.955816921567232e-9,1.7094953485254766e-9,3.745896895529676e-9,1.477058387556886e-8,5.714777769412221e-8,2.269987385783999e-8,2.7209187188746505e-8,1.0948700936706105e-8,0
24450,4.98642493723948e-9,1.6934366390247342e-9,3.735144034819738e-9,1.4766054718177606e-8,5.717985793501402e-8,2.2699711333254868e-8,2.7221361074993857e-8,1.0922878705114007e-8,0
24451,5.017032952911729e-9,1.677377929523992e-9,3.7243911741098e-9,1.4761525560786353e-8,5.721193817590583e-8,2.2699548808669746e-8,2.7233534961241207e-8,1.0897056473521909e-8,0
24452,5.047640968583978e-9,1.6613192200232498e-9,3.7136383133998618e-9,1.4756996403395098e-8,5.724401841679764e-8,2.2699386284084624e-8,2.724570884748856e-8,1.0871234241929809e-8,0
24453,5.078248984256226e-9,1.6452605105225074e-9,3.7028854526899235e-9,1.4752467246003845e-8,5.727609865768945e-8,2.2699223759499502e-8,2.725788273373591e-8,1.084541201033771e-8,0
24454,5.108856999928475e-9,1.6292018010217652e-9,3.692132591979985e-9,1.4747938088612591e-8,5.7308178898581265e-8,2.269906123491438e-8,2.7270056619983258e-8,1.0819589778745613e-8,0
24455,5.139465015600723e-9,1.613143091521023e-9,3.6813797312700467e-9,1.4743408931221338e-8,5.7340259139473076e-8,2.269889871032926e-8,2.728223050623061e-8,1.0793767547153513e-8,0
24456,5.192656469103254e-9,1.633287124783464e-9,3.690661005011232e-9,1.4731141999973117e-8,5.735434334031226e-8,2.2768802402271124e-8,2.731650531269601e-8,1.0859223398846364e-8,0
24457,5.256455321967096e-9,1.6534311580459049e-9,3.6934831606115933e-9,1.4607261307399185e-8,5.717846583021643e-8,2.2832850043306103e-8,2.697434404985296e-8,1.0930733298814511e-8,0
24458,5.320254174830937e-9,1.6735751913083458e-9,3.6963053162119548e-9,1.4483380614825254e-8,5.7002588320120596e-8,2.2896897684341083e-8,2.6632182787009905e-8,1.1002243198782658e-8,0
24459,5.384053027694779e-9,1.6937192245707867e-9,3.6991274718123167e-9,1.4359499922251321e-8,5.6826710810024764e-8,2.2960945325376062e-8,2.6290021524166854e-8,1.1073753098750806e-8,0
24460,5.4478518805586195e-9,1.7138632578332276e-9,3.701949627412678e-9,1.423561922967739e-8,5.665083329992893e-8,2.302499296641104e-8,2.59478602613238e-8,1.1145262998718953e-8,0
24461,5.511650733422461e-9,1.7340072910956688e-9,3.70477178301304e-9,1.4111738537103458e-8,5.64749557898331e-8,2.308904060744602e-8,2.5605698998480748e-8,1.12167728986871e-8,0
24462,5.575449586286303e-9,1.7541513243581097e-9,3.7075939386134015e-9,1.3987857844529526e-8,5.6299078279737275e-8,2.3153088248481e-8,2.5263537735637697e-8,1.1288282798655248e-8,0
24463,5.639248439150144e-9,1.7742953576205506e-9,3.7104160942137633e-9,1.3863977151955593e-8,5.612320076964144e-8,2.321713588951598e-8,2.4921376472794643e-8,1.1359792698623395e-8,0
24464,5.703047292013986e-9,1.7944393908829916e-9,3.713238249814125e-9,1.3740096459381662e-8,5.594732325954561e-8,2.328118353055096e-8,2.4579215209951592e-8,1.1431302598591542e-8,0
24465,5.708489048336608e-9,1.7954245708986406e-9,3.7182751257519297e-9,1.361480026612889e-8,5.57519161921545e-8,2.328014130686918e-8,2.4251206221385656e-8,1.145108019610779e-8,0
24466,5.71393080465923e-9,1.7964097509142897e-9,3.7233120016897346e-9,1.3489504072876119e-8,5.555650912476339e-8,2.3279099083187405e-8,2.392319723281972e-8,1.1470857793624036e-8,0
24467,5.719372560981852e-9,1.797394930929939e-9,3.7283488776275395e-9,1.3364207879623347e-8,5.536110205737228e-8,2.3278056859505626e-8,2.3595188244253783e-8,1.1490635391140283e-8,0
24468,5.724814317304474e-9,1.798380110945588e-9,3.7333857535653444e-9,1.3238911686370577e-8,5.516569498998118e-8,2.3277014635823848e-8,2.3267179255687847e-8,1.151041298865653e-8,0
24469,5.730256073627096e-9,1.799365290961237e-9,3.738422629503149e-9,1.3113615493117805e-8,5.497028792259007e-8,2.3275972412142072e-8,2.293917026712191e-8,1.1530190586172777e-8,0
24470,5.735697829949719e-9,1.8003504709768862e-9,3.743459505440954e-9,1.2988319299865033e-8,5.477488085519896e-8,2.3274930188460294e-8,2.2611161278555974e-8,1.1549968183689025e-8,0
24471,5.739824420615341e-9,1.8003504709768862e-9,3.754286383299495e-9,1.295584576682967e-8,5.471150195142265e-8,2.3274930188460294e-8,2.2619124703992222e-8,1.155419033246808e-8,0
24472,5.720779764400164e-9,1.8003504709768862e-9,3.76227876936624e-9,1.2792701140991243e-8,5.431462854268663e-8,2.3129697582938985e-8,2.239857299799767e-8,1.1442711172254562e-8,0
24473,5.701735108184987e-9,1.8003504709768862e-9,3.7702711554329855e-9,1.2629556515152816e-8,5.3917755133950616e-8,2.2984464977417677e-8,2.217802129200312e-8,1.1331232012041042e-8,0
24474,5.682690451969811e-9,1.8003504709768862e-9,3.778263541499731e-9,1.2466411889314388e-8,5.35208817252146e-8,2.2839232371896368e-8,2.1957469586008568e-8,1.1219752851827524e-8,0
24475,5.6636457957546335e-9,1.8003504709768862e-9,3.786255927566477e-9,1.2303267263475961e-8,5.312400831647858e-8,2.269399976637506e-8,2.1736917880014016e-8,1.1108273691614005e-8,0
24476,5.644601139539457e-9,1.8003504709768862e-9,3.7942483136332224e-9,1.2140122637637534e-8,5.272713490774256e-8,2.254876716085375e-8,2.1516366174019464e-8,1.0996794531400486e-8,0
24477,5.625556483324281e-9,1.8003504709768862e-9,3.802240699699968e-9,1.1976978011799106e-8,5.2330261499006545e-8,2.2403534555332443e-8,2.1295814468024913e-8,1.0885315371186967e-8,0
24478,5.6065118271091034e-9,1.8003504709768862e-9,3.810233085766713e-9,1.181383338596068e-8,5.193338809027052e-8,2.2258301949811134e-8,2.1075262762030365e-8,1.0773836210973448e-8,0
24479,5.587467170893927e-9,1.8003504709768862e-9,3.8182254718334585e-9,1.1650688760122253e-8,5.1536514681534506e-8,2.2113069344289826e-8,2.0854711056035813e-8,1.066235705075993e-8,0
24480,5.570414545319576e-9,1.8056305204732366e-9,3.818857579479245e-9,1.1563166912497851e-8,5.15388969526822e-8,2.1976035210038157e-8,2.0593894579670936e-8,1.0530833663754357e-8,0
24481,5.551369889104399e-9,1.8136598752236077e-9,3.8317758157608914e-9,1.1400480660440242e-8,5.114495650587073e-8,2.1824329993355e-8,2.0327634920891786e-8,1.0399542400590185e-8,0
24482,5.528198642223601e-9,1.8166893725831442e-9,3.837553481490194e-9,1.1260183718240034e-8,5.077764727355282e-8,2.167181215374623e-8,2.005865613415472e-8,1.0274167163963683e-8,0
24483,5.505027395342803e-9,1.8197188699426807e-9,3.843331147219496e-9,1.1119886776039828e-8,5.041033804123491e-8,2.151929431413746e-8,1.978967734741765e-8,1.0148791927337181e-8,0
24484,5.481856148462004e-9,1.822748367302217e-9,3.849108812948798e-9,1.0979589833839623e-8,5.0043028808917e-8,2.1366776474528695e-8,1.952069856068058e-8,1.0023416690710681e-8,0
24485,5.458684901581205e-9,1.8257778646617534e-9,3.8548864786781e-9,1.0839292891639417e-8,4.967571957659909e-8,2.1214258634919926e-8,1.9251719773943512e-8,9.898041454084179e-9,0
24486,5.435513654700407e-9,1.82880736202129e-9,3.860664144407402e-9,1.069899594943921e-8,4.930841034428118e-8,2.1061740795311157e-8,1.8982740987206446e-8,9.772666217457677e-9,0
24487,5.412342407819609e-9,1.8318368593808264e-9,3.8664418101367046e-9,1.0558699007239004e-8,4.8941101111963274e-8,2.090922295570239e-8,1.8713762200469377e-8,9.647290980831177e-9,0
24488,5.3891711609388096e-9,1.8348663567403629e-9,3.872219475866007e-9,1.0418402065038798e-8,4.857379187964536e-8,2.075670511609362e-8,1.8444783413732308e-8,9.521915744204675e-9,0
24489,5.365999914058011e-9,1.8378958540998994e-9,3.877997141595309e-9,1.0278105122838592e-8,4.8206482647327456e-8,2.0604187276484852e-8,1.817580462699524e-8,9.396540507578173e-9,0
24490,5.342828667177213e-9,1.8409253514594358e-9,3.883774807324612e-9,1.0137808180638386e-8,4.7839173415009544e-8,2.0451669436876086e-8,1.7906825840258173e-8,9.271165270951672e-9,0
24491,5.319657420296415e-9,1.8439548488189721e-9,3.889552473053914e-9,9.997511238438179e-9,4.747186418269163e-8,2.0299151597267317e-8,1.7637847053521103e-8,9.14579003432517e-9,0
24492,5.296486173415616e-9,1.8469843461785086e-9,3.895330138783216e-9,9.857214296237973e-9,4.710455495037373e-8,2.0146633757658548e-8,1.7368868266784034e-8,9.020414797698668e-9,0
24493,5.289548157741373e-9,1.847033651053568e-9,3.90277442696702e-9,9.872338407099745e-9,4.700382177970127e-8,2.013934852357109e-8,1.7328404611477768e-8,8.906244253492121e-9,0
24494,5.282610142067129e-9,1.8470829559286275e-9,3.910218715150823e-9,9.887462517961519e-9,4.6903088609028814e-8,2.013206328948363e-8,1.7287940956171498e-8,8.792073709285574e-9,0
24495,5.28487828599189e-9,1.8500878008506342e-9,3.898759729646497e-9,9.9088947009209e-9,4.6931257010707176e-8,1.9949093985159062e-8,1.7284857307219816e-8,8.797989735823244e-9,0
24496,5.2871464299166495e-9,1.853092645772641e-9,3.887300744142169e-9,9.930326883880282e-9,4.695942541238554e-8,1.9766124680834495e-8,1.7281773658268134e-8,8.803905762360915e-9,0
24497,5.289414573841409e-9,1.8560974906946477e-9,3.875841758637843e-9,9.951759066839662e-9,4.6987593814063893e-8,1.9583155376509924e-8,1.7278690009316452e-8,8.809821788898586e-9,0
24498,5.291682717766169e-9,1.8591023356166545e-9,3.864382773133516e-9,9.973191249799045e-9,4.7015762215742255e-8,1.9400186072185357e-8,1.7275606360364766e-8,8.815737815436257e-9,0
24499,5.293950861690928e-9,1.8621071805386612e-9,3.852923787629189e-9,9.994623432758425e-9,4.704393061742062e-8,1.921721676786079e-8,1.7272522711413084e-8,8.821653841973929e-9,0
24500,5.296219005615689e-9,1.865112025460668e-9,3.841464802124862e-9,1.0016055615717808e-8,4.707209901909898e-8,1.9034247463536222e-8,1.7269439062461402e-8,8.8275698685116e-9,0
24501,5.2984871495404485e-9,1.8681168703826747e-9,3.8300058166205355e-9,1.0037487798677188e-8,4.7100267420777335e-8,1.8851278159211652e-8,1.7266355413509717e-8,8.83348589504927e-9,0
24502,5.300755293465208e-9,1.867362577597482e-9,3.811102542932405e-9,1.003611267733474e-8,4.7161297641354825e-8,1.8670780261749438e-8,1.727777870683204e-8,8.913741227285742e-9,0
24503,5.303023437389968e-9,1.866608284812289e-9,3.792199269244274e-9,1.0034737555992292e-8,4.722232786193231e-8,1.8490282364287224e-8,1.728920200015436e-8,8.993996559522216e-9,0
24504,5.306559237177071e-9,1.8678243520583943e-9,3.78661663900072e-9,1.0033322055313451e-8,4.723992563347961e-8,1.8499221216468935e-8,1.728920200015436e-8,8.993996559522216e-9,0
24505,5.310095036964175e-9,1.8690404193044997e-9,3.781034008757165e-9,1.0031906554634611e-8,4.7257523405026905e-8,1.8508160068650645e-8,1.728920200015436e-8,8.993996559522216e-9,0
24506,5.313630836751278e-9,1.8702564865506047e-9,3.775451378513611e-9,1.0030491053955773e-8,4.72751211765742e-8,1.8517098920832355e-8,1.728920200015436e-8,8.993996559522216e-9,0
24507,5.3171666365383816e-9,1.87147255379671e-9,3.769868748270056e-9,1.0029075553276932e-8,4.72927189481215e-8,1.8526037773014065e-8,1.728920200015436e-8,8.993996559522216e-9,0
24508,5.319749458057726e-9,1.872713273480345e-9,3.776693264999508e-9,1.0023886125422909e-8,4.730854130536923e-8,1.8715474522657992e-8,1.7267980978486343e-8,8.993962054087809e-9,0
24509,5.32233227957707e-9,1.8739539931639802e-9,3.783517781728959e-9,1.0018696697568886e-8,4.732436366261695e-8,1.890491127230192e-8,1.7246759956818325e-8,8.993927548653403e-9,0
24510,5.324915101096414e-9,1.8751947128476153e-9,3.79034229845841e-9,1.0013507269714863e-8,4.7340186019864675e-8,1.9094348021945843e-8,1.722553893515031e-8,8.993893043218996e-9,0
24511,5.327497922615758e-9,1.8764354325312503e-9,3.797166815187862e-9,1.000831784186084e-8,4.73560083771124e-8,1.928378477158977e-8,1.7204317913482293e-8,8.99385853778459e-9,0
24512,5.330080744135102e-9,1.8776761522148854e-9,3.8039913319173126e-9,1.0003128414006816e-8,4.737183073436013e-8,1.9473221521233694e-8,1.7183096891814275e-8,8.993824032350183e-9,0
24513,5.332663565654446e-9,1.8789168718985204e-9,3.810815848646764e-9,9.997938986152793e-9,4.7387653091607856e-8,1.966265827087762e-8,1.716187587014626e-8,8.993789526915777e-9,0
24514,5.27924649049064e-9,1.8749391731796293e-9,3.825973477648722e-9,9.970063392006111e-9,4.740758458735063e-8,1.9689417235259837e-8,1.7130684712632544e-8,8.991829019881354e-9,0
24515,5.222293615539731e-9,1.870998453117033e-9,3.826958647691701e-9,9.970063392006111e-9,4.7712028628012786e-8,1.954716596907993e-8,1.7265084516529982e-8,8.990668400674353e-9,0
24516,5.165340740588821e-9,1.8670577330544364e-9,3.827943817734682e-9,9.970063392006111e-9,4.801647266867495e-8,1.940491470290002e-8,1.739948432042742e-8,8.989507781467353e-9,0
24517,5.108387865637911e-9,1.86311701299184e-9,3.828928987777662e-9,9.970063392006111e-9,4.832091670933711e-8,1.9262663436720113e-8,1.753388412432486e-8,8.988347162260352e-9,0
24518,5.051434990687002e-9,1.8591762929292436e-9,3.829914157820642e-9,9.970063392006111e-9,4.862536074999927e-8,1.9120412170540205e-8,1.7668283928222297e-8,8.98718654305335e-9,0
24519,4.994482115736093e-9,1.8552355728666472e-9,3.830899327863623e-9,9.970063392006111e-9,4.8929804790661435e-8,1.89781609043603e-8,1.7802683732119735e-8,8.986025923846348e-9,0
24520,4.937529240785183e-9,1.8512948528040507e-9,3.831884497906602e-9,9.970063392006111e-9,4.923424883132359e-8,1.8835909638180392e-8,1.7937083536017173e-8,8.984865304639347e-9,0
24521,4.880576365834273e-9,1.8473541327414542e-9,3.832869667949583e-9,9.970063392006111e-9,4.9538692871985756e-8,1.8693658372000484e-8,1.807148333991461e-8,8.983704685432347e-9,0
24522,4.8236234908833635e-9,1.8434134126788577e-9,3.833854837992563e-9,9.970063392006111e-9,4.984313691264791e-8,1.8551407105820576e-8,1.8205883143812053e-8,8.982544066225344e-9,0
24523,4.766670615932455e-9,1.8394726926162613e-9,3.834840008035543e-9,9.970063392006111e-9,5.014758095331008e-8,1.840915583964067e-8,1.834028294770949e-8,8.981383447018343e-9,0
24524,4.724950484125684e-9,1.834278926651265e-9,3.834669644932663e-9,9.974661330894793e-9,5.0204137354836056e-8,1.8263816606343445e-8,1.830600814124409e-8,9.004300999174903e-9,0
24525,4.6832303523189135e-9,1.8290851606862686e-9,3.834499281829783e-9,9.979259269783476e-9,5.0260693756362035e-8,1.8118477373046218e-8,1.827173333477869e-8,9.027218551331463e-9,0
24526,4.641510220512143e-9,1.8238913947212723e-9,3.834328918726902e-9,9.983857208672156e-9,5.0317250157888014e-8,1.797313813974899e-8,1.8237458528313286e-8,9.050136103488022e-9,0
24527,4.599790088705373e-9,1.818697628756276e-9,3.834158555624022e-9,9.988455147560838e-9,5.0373806559413986e-8,1.7827798906451767e-8,1.8203183721847886e-8,9.073053655644582e-9,0
24528,4.558069956898602e-9,1.8135038627912796e-9,3.833988192521142e-9,9.99305308644952e-9,5.0430362960939965e-8,1.768245967315454e-8,1.8168908915382487e-8,9.095971207801142e-9,0
24529,4.516349825091832e-9,1.8083100968262833e-9,3.833817829418262e-9,9.9976510253382e-9,5.0486919362465943e-8,1.7537120439857316e-8,1.8134634108917084e-8,9.118888759957702e-9,0
24530,4.523195803004764e-9,1.809076715830241e-9,3.8253143540428755e-9,1.0015836436400643e-8,5.041224046744564e-8,1.754527419367959e-8,1.8129716157055955e-8,9.143766819148683e-9,0
24531,4.530041780917696e-9,1.809843334834199e-9,3.816810878667489e-9,1.0034021847463085e-8,5.033756157242533e-8,1.7553427947501863e-8,1.8124798205194827e-8,9.168644878339664e-9,0
24532,4.516032165669245e-9,1.808590288931799e-9,3.810971531981018e-9,1.0063341344449646e-8,5.023900208455778e-8,1.7565952672241244e-8,1.806131740068766e-8,9.18488102156554e-9,0
24533,4.502022550420795e-9,1.807337243029399e-9,3.805132185294547e-9,1.0092660841436204e-8,5.014044259669023e-8,1.7578477396980622e-8,1.799783659618049e-8,9.201117164791415e-9,0
24534,4.488012935172345e-9,1.8060841971269992e-9,3.799292838608076e-9,1.0121980338422763e-8,5.004188310882268e-8,1.7591002121720003e-8,1.7934355791673323e-8,9.21735330801729e-9,0
24535,4.474003319923895e-9,1.8048311512245993e-9,3.793453491921605e-9,1.0151299835409321e-8,4.994332362095513e-8,1.760352684645938e-8,1.7870874987166155e-8,9.233589451243166e-9,0
24536,4.459993704675445e-9,1.8035781053221995e-9,3.787614145235134e-9,1.018061933239588e-8,4.984476413308758e-8,1.7616051571198762e-8,1.7807394182658987e-8,9.24982559446904e-9,0
24537,4.445984089426995e-9,1.8023250594197996e-9,3.7817747985486625e-9,1.0209938829382438e-8,4.974620464522003e-8,1.762857629593814e-8,1.774391337815182e-8,9.266061737694915e-9,0
24538,4.4319744741785444e-9,1.8010720135173998e-9,3.7759354518621915e-9,1.0239258326368997e-8,4.9647645157352475e-8,1.7641101020677518e-8,1.7680432573644652e-8,9.28229788092079e-9,0
24539,4.450472867481858e-9,1.8028238125370066e-9,3.7712516383215815e-9,1.02409303041467e-8,4.9512996774709946e-8,1.768273830952371e-8,1.7716525058580438e-8,9.579513970505674e-9,0
24540,4.4304366686882716e-9,1.800804147630649e-9,3.769718370395659e-9,1.0240647648791964e-8,4.9430456943371715e-8,1.7675453075436248e-8,1.77507949385474e-8,9.582738613050316e-9,0
24541,4.410400469894685e-9,1.7987844827242914e-9,3.768185102469737e-9,1.024036499343723e-8,4.934791711203348e-8,1.7668167841348787e-8,1.778506481851436e-8,9.585963255594958e-9,0
24542,4.390364271101099e-9,1.7967648178179336e-9,3.766651834543815e-9,1.0240082338082495e-8,4.9265377280695247e-8,1.7660882607261326e-8,1.7819334698481324e-8,9.5891878981396e-9,0
24543,4.3703280723075126e-9,1.794745152911576e-9,3.765118566617892e-9,1.0239799682727759e-8,4.918283744935701e-8,1.765359737317387e-8,1.7853604578448288e-8,9.592412540684243e-9,0
24544,4.350291873513926e-9,1.7927254880052184e-9,3.76358529869197e-9,1.0239517027373025e-8,4.910029761801878e-8,1.7646312139086408e-8,1.788787445841525e-8,9.595637183228885e-9,0
24545,4.33025567472034e-9,1.7907058230988608e-9,3.762052030766048e-9,1.023923437201829e-8,4.901775778668054e-8,1.7639026904998947e-8,1.7922144338382214e-8,9.598861825773528e-9,0
24546,4.3102194759267536e-9,1.788686158192503e-9,3.7605187628401255e-9,1.0238951716663554e-8,4.893521795534231e-8,1.763174167091149e-8,1.7956414218349174e-8,9.602086468318169e-9,0
24547,4.290183277133167e-9,1.7866664932861455e-9,3.7589854949142035e-9,1.023866906130882e-8,4.885267812400407e-8,1.762445643682403e-8,1.7990684098316137e-8,9.605311110862811e-9,0
24548,4.270147078339581e-9,1.7846468283797879e-9,3.757452226988282e-9,1.0238386405954085e-8,4.877013829266584e-8,1.7617171202736568e-8,1.80249539782831e-8,9.608535753407453e-9,0
24549,4.250110879545995e-9,1.7826271634734303e-9,3.755918959062359e-9,1.0238103750599351e-8,4.8687598461327604e-8,1.7609885968649107e-8,1.8059223858250064e-8,9.611760395952096e-9,0
24550,4.230074680752408e-9,1.7806074985670725e-9,3.754385691136437e-9,1.0237821095244616e-8,4.8605058629989367e-8,1.760260073456165e-8,1.8093493738217027e-8,9.614985038496738e-9,0
24551,4.210038481958822e-9,1.778587833660715e-9,3.752852423210515e-9,1.023753843988988e-8,4.8522518798651136e-8,1.759531550047419e-8,1.8127763618183987e-8,9.61820968104138e-9,0
24552,4.156677862073679e-9,1.7698165123439157e-9,3.74438595640943e-9,1.0239951446803135e-8,4.808876729801378e-8,1.7462568915764245e-8,1.8225514302658118e-8,9.509230549249968e-9,0
24553,4.103317242188536e-9,1.7610451910271165e-9,3.7359194896083445e-9,1.0242364453716388e-8,4.765501579737643e-8,1.73298223310543e-8,1.832326498713225e-8,9.400251417458556e-9,0
24554,4.11025525786278e-9,1.7411443712138967e-9,3.728559211187385e-9,1.0237512261634009e-8,4.771879296965807e-8,1.718526819611651e-8,1.825234106124354e-8,9.391995324107991e-9,0
24555,4.117193273537023e-9,1.7212435514006768e-9,3.7211989327664257e-9,1.023266006955163e-8,4.778257014193972e-8,1.7040714061178723e-8,1.818141713535483e-8,9.383739230757428e-9,0
24556,4.124131289211266e-9,1.701342731587457e-9,3.713838654345466e-9,1.0227807877469252e-8,4.784634731422136e-8,1.6896159926240933e-8,1.8110493209466122e-8,9.375483137406864e-9,0
24557,4.1310693048855095e-9,1.681441911774237e-9,3.7064783759245068e-9,1.0222955685386873e-8,4.7910124486503005e-8,1.6751605791303142e-8,1.8039569283577412e-8,9.367227044056301e-9,0
24558,4.138007320559752e-9,1.661541091961017e-9,3.699118097503547e-9,1.0218103493304493e-8,4.7973901658784654e-8,1.6607051656365352e-8,1.7968645357688702e-8,9.358970950705738e-9,0
24559,4.144945336233996e-9,1.6416402721477973e-9,3.6917578190825875e-9,1.0213251301222114e-8,4.8037678831066296e-8,1.6462497521427565e-8,1.7897721431799992e-8,9.350714857355174e-9,0
24560,4.2134051153633135e-9,1.6375056435110391e-9,3.68124699504694e-9,1.0205527728445665e-8,4.805411538504646e-8,1.634257835190356e-8,1.7737209131809347e-8,9.331392093322284e-9,0
24561,4.281864894492632e-9,1.633371014874281e-9,3.6707361710112918e-9,1.0197804155669216e-8,4.807055193902662e-8,1.622265918237956e-8,1.7576696831818702e-8,9.312069329289392e-9,0
24562,4.285991485158254e-9,1.614236814065019e-9,3.6685214506738487e-9,1.024188434949003e-8,4.807418095334997e-8,1.6089761252446335e-8,1.7411105870407546e-8,9.303813235938827e-9,0
24563,4.290118075823876e-9,1.5951026132557567e-9,3.6663067303364053e-9,1.0285964543310847e-8,4.807780996767331e-8,1.595686332251311e-8,1.7245514908996387e-8,9.295557142588264e-9,0
24564,4.294244666489498e-9,1.5759684124464946e-9,3.6640920099989623e-9,1.0330044737131661e-8,4.8081438981996655e-8,1.5823965392579884e-8,1.707992394758523e-8,9.287301049237702e-9,0
24565,4.299959554268052e-9,1.5467358871054443e-9,3.6084390325489616e-9,1.0180485359561828e-8,4.763148915449391e-8,1.5624548414749326e-8,1.700247805579627e-8,9.25028038806172e-9,0
24566,4.305674442046606e-9,1.5175033617643939e-9,3.552786055098961e-9,1.0030925981991995e-8,4.718153932699117e-8,1.5425131436918768e-8,1.6925032164007305e-8,9.213259726885739e-9,0
24567,4.31138932982516e-9,1.4882708364233437e-9,3.4971330776489608e-9,9.881366604422164e-9,4.673158949948842e-8,1.5225714459088213e-8,1.6847586272218344e-8,9.176239065709758e-9,0
24568,4.317104217603714e-9,1.4590383110822933e-9,3.44148010019896e-9,9.731807226852331e-9,4.628163967198567e-8,1.5026297481257655e-8,1.677014038042938e-8,9.139218404533777e-9,0
24569,4.322819105382268e-9,1.429805785741243e-9,3.3858271227489595e-9,9.5822478492825e-9,4.583168984448293e-8,1.4826880503427096e-8,1.6692694488640414e-8,9.102197743357796e-9,0
24570,4.328533993160822e-9,1.4005732604001928e-9,3.3301741452989593e-9,9.432688471712667e-9,4.5381740016980184e-8,1.4627463525596538e-8,1.6615248596851453e-8,9.065177082181814e-9,0
24571,4.334248880939376e-9,1.3713407350591424e-9,3.2745211678489586e-9,9.283129094142836e-9,4.493179018947744e-8,1.4428046547765981e-8,1.6537802705062488e-8,9.028156421005833e-9,0
24572,4.334931709579206e-9,1.368385195012195e-9,3.2686448125881862e-9,9.329743432886076e-9,4.492801976270904e-8,1.4439702752770546e-8,1.6532724043641978e-8,8.967891981728118e-9,0
24573,4.335614538219035e-9,1.3654296549652478e-9,3.262768457327414e-9,9.376357771629315e-9,4.492424933594064e-8,1.445135895777511e-8,1.6527645382221467e-8,8.907627542450403e-9,0
24574,4.329721538573863e-9,1.3617198221331075e-9,3.2499218946171777e-9,9.372583844454132e-9,4.493855313494908e-8,1.447116891660195e-8,1.6518598246800802e-8,8.83549654466294e-9,0
24575,4.323828538928691e-9,1.3580099893009671e-9,3.237075331906941e-9,9.36880991727895e-9,4.495285693395751e-8,1.4490978875428789e-8,1.6509551111380137e-8,8.763365546875474e-9,0
24576,4.317935539283518e-9,1.354300156468827e-9,3.224228769196705e-9,9.365035990103765e-9,4.496716073296595e-8,1.4510788834255628e-8,1.650050397595947e-8,8.691234549088011e-9,0
24577,4.3120425396383455e-9,1.3505903236366867e-9,3.2113822064864687e-9,9.361262062928582e-9,4.498146453197439e-8,1.4530598793082466e-8,1.6491456840538804e-8,8.619103551300548e-9,0
24578,4.306149539993173e-9,1.3468804908045466e-9,3.198535643776232e-9,9.357488135753397e-9,4.499576833098283e-8,1.4550408751909307e-8,1.648240970511814e-8,8.546972553513085e-9,0
24579,4.300256540348e-9,1.3431706579724063e-9,3.185689081065996e-9,9.353714208578214e-9,4.501007212999126e-8,1.4570218710736145e-8,1.647336256969747e-8,8.47484155572562e-9,0
24580,4.2943635407028286e-9,1.339460825140266e-9,3.1728425183557598e-9,9.34994028140303e-9,4.50243759289997e-8,1.4590028669562984e-8,1.6464315434276805e-8,8.402710557938157e-9,0
24581,4.288470541057656e-9,1.3357509923081258e-9,3.159995955645523e-9,9.346166354227847e-9,4.503867972800814e-8,1.4609838628389824e-8,1.645526829885614e-8,8.330579560150693e-9,0
24582,4.282577541412483e-9,1.3320411594759855e-9,3.147149392935287e-9,9.342392427052662e-9,4.505298352701658e-8,1.4629648587216663e-8,1.6446221163435472e-8,8.25844856236323e-9,0
24583,4.292098378606071e-9,1.3290856194290383e-9,3.13297693397631e-9,9.389006765795902e-9,4.5169390302607395e-8,1.465428355263045e-8,1.644114250201496e-8,8.186317564575765e-9,0
24584,4.301619215799658e-9,1.326130079382091e-9,3.118804475017333e-9,9.435621104539143e-9,4.528579707819821e-8,1.4678918518044236e-8,1.643606384059445e-8,8.114186566788302e-9,0
24585,4.311140052993245e-9,1.3231745393351435e-9,3.104632016058356e-9,9.482235443282383e-9,4.540220385378902e-8,1.4703553483458024e-8,1.643098517917394e-8,8.042055569000839e-9,0
24586,4.320660890186833e-9,1.3202189992881963e-9,3.090459557099379e-9,9.528849782025624e-9,4.551861062937984e-8,1.4728188448871811e-8,1.642590651775343e-8,7.969924571213374e-9,0
24587,4.33018172738042e-9,1.317263459241249e-9,3.076287098140402e-9,9.575464120768864e-9,4.5635017404970654e-8,1.4752823414285598e-8,1.642082785633292e-8,7.89779357342591e-9,0
24588,4.326010608748143e-9,1.3060106985571796e-9,3.0708131500425587e-9,9.609635809837802e-9,4.5511308002957815e-8,1.473761402713203e-8,1.630530432013622e-8,7.898025697267312e-9,0
24589,4.337707552105179e-9,1.3060353509947094e-9,3.0694872537938182e-9,9.654160176358913e-9,4.5619273233447135e-8,1.4754963758458358e-8,1.630530432013622e-8,7.841889304664878e-9,0
24590,4.350672151324559e-9,1.3060353509947094e-9,3.070314396925352e-9,9.704346545595385e-9,4.5743079450129696e-8,1.4778786100946535e-8,1.6309476605570757e-8,7.842121428506277e-9,0
24591,4.363636750543938e-9,1.3060353509947094e-9,3.0711415400568857e-9,9.754532914831855e-9,4.586688566681225e-8,1.4802608443434711e-8,1.6313648891005296e-8,7.842353552347679e-9,0
24592,4.376601349763317e-9,1.3060353509947094e-9,3.0719686831884194e-9,9.804719284068325e-9,4.599069188349481e-8,1.4826430785922888e-8,1.6317821176439832e-8,7.842585676189078e-9,0
24593,4.389565948982697e-9,1.3060353509947094e-9,3.072795826319953e-9,9.854905653304797e-9,4.6114498100177374e-8,1.4850253128411065e-8,1.632199346187437e-8,7.84281780003048e-9,0
24594,4.402530548202076e-9,1.3060353509947094e-9,3.0736229694514868e-9,9.905092022541267e-9,4.623830431685993e-8,1.4874075470899242e-8,1.632616574730891e-8,7.843049923871879e-9,0
24595,4.4154951474214555e-9,1.3060353509947094e-9,3.0744501125830205e-9,9.955278391777737e-9,4.636211053354249e-8,1.489789781338742e-8,1.6330338032743448e-8,7.843282047713278e-9,0
24596,4.4284597466408346e-9,1.3060353509947094e-9,3.0752772557145542e-9,1.0005464761014207e-8,4.648591675022505e-8,1.4921720155875595e-8,1.6334510318177984e-8,7.84351417155468e-9,0
24597,4.441424345860214e-9,1.3060353509947094e-9,3.076104398846088e-9,1.0055651130250679e-8,4.6609722966907613e-8,1.4945542498363772e-8,1.6338682603612522e-8,7.843746295396079e-9,0
24598,4.448362361534457e-9,1.3050255185415305e-9,3.0759463719346415e-9,1.0098895335182641e-8,4.674527966023388e-8,1.4964539834265e-8,1.6395475806161617e-8,7.852620335202586e-9,0
24599,4.449630017396801e-9,1.3042712257563376e-9,3.0757883450231947e-9,1.0100431973870653e-8,4.676698290033406e-8,1.5033149343045238e-8,1.6430839249109873e-8,7.854812966078408e-9,0
24600,4.450897673259144e-9,1.3035169329711447e-9,3.0756303181117483e-9,1.0101968612558665e-8,4.6788686140434246e-8,1.5101758851825477e-8,1.646620269205813e-8,7.857005596954229e-9,0
24601,4.452165329121488e-9,1.3027626401859518e-9,3.075472291200302e-9,1.0103505251246676e-8,4.6810389380534424e-8,1.5170368360605713e-8,1.6501566135006386e-8,7.859198227830051e-9,0
24602,4.4534329849838315e-9,1.3020083474007589e-9,3.0753142642888555e-9,1.0105041889934688e-8,4.683209262063461e-8,1.523897786938595e-8,1.6536929577954643e-8,7.861390858705872e-9,0
24603,4.454700640846175e-9,1.301254054615566e-9,3.0751562373774087e-9,1.01065785286227e-8,4.685379586073479e-8,1.5307587378166185e-8,1.6572293020902896e-8,7.863583489581695e-9,0
24604,4.455968296708519e-9,1.3004997618303732e-9,3.0749982104659623e-9,1.0108115167310711e-8,4.687549910083497e-8,1.5376196886946425e-8,1.6607656463851152e-8,7.865776120457515e-9,0
24605,4.457235952570863e-9,1.2997454690451803e-9,3.074840183554516e-9,1.0109651805998723e-8,4.689720234093515e-8,1.544480639572666e-8,1.664301990679941e-8,7.867968751333338e-9,0
24606,4.458503608433207e-9,1.2989911762599874e-9,3.0746821566430695e-9,1.0111188444686734e-8,4.691890558103533e-8,1.5513415904506897e-8,1.6678383349747665e-8,7.87016138220916e-9,0
24607,4.45977126429555e-9,1.2982368834747945e-9,3.0745241297316227e-9,1.0112725083374746e-8,4.6940608821135514e-8,1.5582025413287133e-8,1.671374679269592e-8,7.872354013084981e-9,0
24608,4.461038920157894e-9,1.2974825906896016e-9,3.0743661028201763e-9,1.0114261722062758e-8,4.69623120612357e-8,1.5650634922067372e-8,1.6749110235644177e-8,7.874546643960804e-9,0
24609,4.462306576020237e-9,1.2967282979044086e-9,3.07420807590873e-9,1.011579836075077e-8,4.6984015301335876e-8,1.5719244430847608e-8,1.6784473678592434e-8,7.876739274836624e-9,0
24610,4.465705810079375e-9,1.2959986575567454e-9,3.0740500489972836e-9,1.0116081016105505e-8,4.700250642456356e-8,1.5789013970447382e-8,1.681058617468564e-8,7.858887678920392e-9,0
24611,4.467383163125616e-9,1.2939913188691526e-9,3.069914333339615e-9,1.0067431285557046e-8,4.6382861423653056e-8,1.55683750434906e-8,1.6843841923979125e-8,7.818711386068582e-9,0
24612,4.469060516171858e-9,1.2919839801815598e-9,3.065778617681946e-9,1.0018781555008586e-8,4.576321642274255e-8,1.5347736116533815e-8,1.6877097673272612e-8,7.778535093216772e-9,0
24613,4.470737869218099e-9,1.289976641493967e-9,3.0616429020242775e-9,9.970131824460128e-9,4.5143571421832045e-8,1.5127097189577033e-8,1.69103534225661e-8,7.738358800364962e-9,0
24614,4.472415222264341e-9,1.2879693028063743e-9,3.057507186366609e-9,9.92148209391167e-9,4.452392642092154e-8,1.490645826262025e-8,1.6943609171859584e-8,7.698182507513152e-9,0
24615,4.4740925753105825e-9,1.2859619641187815e-9,3.0533714707089404e-9,9.872832363363209e-9,4.3904281420011035e-8,1.468581933566347e-8,1.697686492115307e-8,7.658006214661341e-9,0
24616,4.4757699283568235e-9,1.2839546254311887e-9,3.049235755051272e-9,9.82418263281475e-9,4.328463641910053e-8,1.4465180408706687e-8,1.701012067044656e-8,7.617829921809531e-9,0
24617,4.477447281403065e-9,1.281947286743596e-9,3.0451000393936033e-9,9.775532902266292e-9,4.2664991418190025e-8,1.4244541481749905e-8,1.7043376419740043e-8,7.577653628957721e-9,0
24618,4.479124634449306e-9,1.2799399480560032e-09,3.0409643237359348e-9,9.726883171717834e-9,4.204534641727952e-8,1.4023902554793123e-8,1.707663216903353e-8,7.537477336105911e-9,0
24619,4.480801987495548e-9,1.2779326093684104e-9,3.0368286080782662e-9,9.678233441169374e-9,4.1425701416369015e-8,1.380326362783634e-8,1.7109887918327015e-8,7.4973010432541e-9,0
24620,4.4798965190224454e-09,1.2766549110284809e-9,3.032522529317717e-9,9.62784517525095e-9,4.094490708132364e-8,1.3548983807113015e-8,1.7111952510106785e-8,7.471030241014718e-9,0
24621,4.542789903413184e-9,1.2833326101263332e-9,3.0340557972436395e-9,9.590329530626608e-9,4.046256427003227e-8,1.327716937175456e-8,1.7110751192437988e-8,7.4410015376790785e-9,0
24622,4.605683287803923e-9,1.2900103092241856e-9,3.035589065169562e-9,9.552813886002266e-9,3.9980221458740894e-8,1.3005354936396103e-8,1.710954987476919e-8,7.41097283434344e-9,0
24623,4.668576672194661e-9,1.296688008322038e-9,3.0371223330954838e-9,9.515298241377924e-9,3.949787864744952e-8,1.2733540501037646e-8,1.7108348557100394e-8,7.380944131007802e-9,0
24624,4.732375525058503e-9,1.3046434057598201e-9,3.0409543311216933e-9,9.452550308363143e-9,3.965367196029633e-8,1.2752795809938073e-8,1.710508264765183e-8,7.380944131007802e-9,0
24625,4.796174377922345e-9,1.3125988031976021e-9,3.044786329147903e-9,9.389802375348363e-9,3.980946527314314e-8,1.27720511188385e-8,1.7101816738203263e-8,7.380944131007802e-9,0
24626,4.859973230786186e-9,1.3205542006353842e-9,3.048618327174112e-9,9.327054442333584e-9,3.9965258585989957e-8,1.2791306427738928e-8,1.70985508287547e-8,7.380944131007802e-9,0
24627,4.9237720836500275e-9,1.3285095980731662e-9,3.0524503252003215e-9,9.264306509318805e-9,4.0121051898836766e-8,1.2810561736639355e-8,1.7095284919306132e-8,7.380944131007802e-9,0
24628,4.9875709365138684e-9,1.3364649955109482e-9,3.0562823232265306e-9,9.201558576304025e-9,4.0276845211683576e-8,1.2829817045539783e-8,1.709201900985757e-8,7.380944131007802e-9,0
24629,5.05136978937771e-9,1.3444203929487302e-9,3.06011432125274e-9,9.138810643289244e-9,4.043263852453039e-8,1.284907235444021e-8,1.7088753100409002e-8,7.380944131007802e-9,0
24630,5.115168642241551e-9,1.3523757903865122e-9,3.0639463192789497e-9,9.076062710274465e-9,4.05884318373772e-8,1.2868327663340637e-8,1.7085487190960438e-8,7.380944131007802e-9,0
24631,5.178967495105393e-9,1.3603065353867644e-9,3.063156184721717e-9,9.068270356000588e-9,4.0719968587759107e-8,1.288657428664481e-8,1.7006415734194848e-8,7.368519222711479e-9,0
24632,5.178967495105393e-9,1.3633113803087713e-9,3.0565267034780134e-9,9.235849179476968e-9,4.089256313514255e-8,1.2894901744414048e-8,1.6974677795190485e-8,7.349902244402233e-9,0
24633,5.178967495105393e-9,1.366316225230778e-9,3.04989722223431e-9,9.40342800295335e-9,4.1065157682525985e-8,1.2903229202183285e-8,1.694293985618612e-8,7.331285266092988e-9,0
24634,5.178967495105393e-9,1.3693210701527848e-9,3.0432677409906065e-9,9.57100682642973e-9,4.123775222990943e-8,1.2911556659952523e-8,1.6911201917181754e-8,7.312668287783742e-9,0
24635,5.178967495105393e-9,1.3723259150747915e-9,3.036638259746903e-9,9.73858564990611e-9,4.141034677729287e-8,1.2919884117721761e-8,1.687946397817739e-8,7.294051309474496e-9,0
24636,5.178967495105393e-9,1.3753307599967983e-9,3.0300087785031996e-9,9.906164473382492e-9,4.158294132467631e-8,1.2928211575490999e-8,1.6847726039173026e-8,7.275434331165251e-9,0
24637,5.178967495105393e-9,1.378335604918805e-9,3.023379297259496e-9,1.0073743296858872e-8,4.1755535872059754e-8,1.2936539033260237e-8,1.681598810016866e-8,7.256817352856005e-9,0
24638,5.178967495105393e-9,1.3813404498408116e-9,3.0167498160157923e-9,1.0241322120335252e-8,4.192813041944319e-8,1.2944866491029474e-8,1.6784250161164297e-8,7.2382003745467594e-09,0
24639,5.178967495105393e-9,1.3843452947628185e-9,3.010120334772089e-9,1.0408900943811633e-8,4.210072496682663e-8,1.2953193948798712e-8,1.675251222215993e-8,7.219583396237513e-9,0
24640,5.178967495105393e-9,1.3873501396848251e-9,3.0034908535283854e-9,1.0576479767288013e-8,4.2273319514210075e-8,1.296152140656795e-8,1.6720774283155566e-8,7.200966417928267e-9,0
24641,5.202088250363533e-9,1.3953548419976666e-9,3.0034908535283854e-9,1.0592817482146672e-8,4.2393656757959854e-8,1.3362826769091417e-8,1.6660585865532904e-8,7.176201289239951e-9,0
24642,5.225209005621672e-9,1.403359544310508e-9,3.0034908535283854e-9,1.060915519700533e-8,4.2513994001709634e-8,1.3764132131614885e-8,1.660039744791024e-8,7.151436160551634e-9,0
24643,5.248329760879812e-9,1.4113642466233496e-9,3.0034908535283854e-9,1.062549291186399e-8,4.2634331245459414e-8,1.4165437494138354e-8,1.6540209030287577e-8,7.126671031863317e-9,0
24644,5.271450516137951e-9,1.4193689489361908e-9,3.0034908535283854e-9,1.0641830626722646e-8,4.2754668489209194e-8,1.4566742856661822e-8,1.6480020612664915e-8,7.101905903175001e-9,0
24645,5.2945712713960905e-9,1.4273736512490323e-9,3.0034908535283854e-9,1.0658168341581305e-8,4.2875005732958974e-8,1.496804821918529e-8,1.641983219504225e-8,7.077140774486684e-9,0
24646,5.3176920266542304e-9,1.4353783535618738e-9,3.0034908535283854e-9,1.0674506056439964e-8,4.299534297670875e-8,1.5369353581708757e-8,1.635964377741959e-8,7.052375645798367e-9,0
24647,5.316326369374571e-9,1.42848209345233e-9,3.0016168593967027e-9,1.071292424754542e-8,4.3110190266227095e-8,1.576749272158202e-8,1.635495118793034e-8,7.02761051711005e-9,0
24648,5.340263537172504e-9,1.4374966282183503e-9,3.0074068613174387e-9,1.0711914764135653e-8,4.299424131592031e-8,1.6119875561171842e-8,1.630189617051108e-8,7.025417886234228e-9,0
24649,5.309432881666982e-9,1.440245933472371e-9,2.9829926309571644e-9,1.0656337070363205e-8,4.3050499933552825e-8,1.652118092369531e-8,1.6272169868414606e-8,7.0093197647459795e-9,0
24650,5.278602226161461e-9,1.4429952387263918e-9,2.9585784005968896e-9,1.0600759376590758e-8,4.310675855118534e-8,1.6922486286218776e-8,1.6242443566318132e-8,6.99322164325773e-9,0
24651,5.247771570655939e-9,1.4457445439804127e-9,2.934164170236615e-9,1.0545181682818312e-8,4.316301716881786e-8,1.7323791648742246e-8,1.6212717264221658e-8,6.97712352176948e-9,0
24652,5.2169409151504174e-9,1.4484938492344336e-9,2.90974993987634e-9,1.0489603989045863e-8,4.3219275786450375e-8,1.7725097011265713e-8,1.6182990962125184e-8,6.9610254002812316e-9,0
24653,5.186110259644896e-9,1.4512431544884545e-9,2.885335709516066e-9,1.0434026295273417e-8,4.327553440408289e-8,1.8126402373789183e-8,1.615326466002871e-8,6.944927278792982e-9,0
24654,5.155279604139374e-9,1.4539924597424752e-9,2.860921479155791e-9,1.037844860150097e-8,4.333179302171541e-8,1.852770773631265e-8,1.6123538357932235e-8,6.928829157304732e-9,0
24655,5.10051178083592e-9,1.44995312992976e-9,2.8307172468747804e-9,1.0295209187439148e-8,4.327990773852252e-8,1.852904147107915e-8,1.60781949261414e-8,6.914923666692305e-9,0
24656,5.066240345132608e-9,1.4439311138669817e-9,2.7998438983736824e-9,1.0260457986580221e-8,4.3375906564141036e-8,1.858528276618578e-8,1.6070231500705152e-8,6.9288103289058425e-9,0
24657,5.01704786205174e-9,1.4398917840542663e-9,2.7746395334561753e-9,1.0189309785340539e-8,4.3347123965730236e-8,1.8584111556004403e-8,1.6063452768498635e-8,6.96856314234533e-9,0
24658,4.9678553789708715e-9,1.435852454241551e-9,2.749435168538668e-9,1.0118161584100856e-8,4.331834136731944e-8,1.8582940345823027e-8,1.605667403629212e-8,7.0083159557848185e-9,0
24659,4.918662895890003e-9,1.4318131244288357e-9,2.724230803621161e-9,1.0047013382861173e-8,4.328955876890865e-8,1.858176913564165e-8,1.6049895304085607e-8,7.048068769224306e-9,0
24660,4.869470412809134e-9,1.4277737946161205e-9,2.699026438703654e-9,9.97586518162149e-9,4.326077617049785e-8,1.8580597925460274e-8,1.6043116571879093e-8,7.087821582663794e-9,0
24661,4.820277929728265e-9,1.4237344648034052e-9,2.6738220737861472e-9,9.90471698038181e-9,4.323199357208706e-8,1.8579426715278895e-8,1.6036337839672575e-8,7.127574396103281e-9,0
24662,4.771085446647397e-9,1.41969513499069e-9,2.64861770886864e-9,9.833568779142127e-9,4.320321097367626e-8,1.8578255505097517e-8,1.602955910746606e-8,7.167327209542769e-9,0
24663,4.721892963566529e-9,1.4156558051779746e-9,2.623413343951133e-9,9.762420577902444e-9,4.3174428375265464e-8,1.857708429491614e-8,1.6022780375259547e-8,7.2070800229822566e-9,0
24664,4.67270048048566e-9,1.4116164753652594e-9,2.598208979033626e-9,9.691272376662761e-9,4.314564577685467e-8,1.8575913084734763e-8,1.6016001643053033e-8,7.246832836421745e-9,0
24665,4.623507997404791e-9,1.407577145552544e-9,2.5730046141161187e-9,9.620124175423079e-9,4.3116863178443876e-8,1.8574741874553388e-8,1.6009222910846516e-8,7.286585649861233e-9,0
24666,4.5743155143239225e-9,1.4035378157398289e-9,2.5478002491986116e-9,9.548975974183396e-9,4.308808058003308e-8,1.857357066437201e-8,1.6002444178640002e-8,7.32633846330072e-9,0
24667,4.525123031243055e-9,1.3994984859271135e-9,2.5225958842811045e-9,9.477827772943713e-9,4.305929798162228e-8,1.8572399454190634e-8,1.5995665446433488e-8,7.366091276740208e-9,0
24668,4.475930548162186e-9,1.3954591561143983e-9,2.4973915193635974e-9,9.40667957170403e-9,4.303051538321149e-8,1.8571228244009256e-8,1.5988886714226974e-8,7.4058440901796954e-9,0
24669,4.479784007371876e-9,1.3914814573955074e-9,2.473925450472002e-9,9.424337827488228e-9,4.307743910406213e-8,1.8567585626965527e-8,1.602516145965964e-8,7.449354804715439e-9,0
24670,4.483637466581566e-9,1.3875037586766163e-9,2.450459381580406e-9,9.441996083272426e-9,4.312436282491276e-8,1.8563943009921798e-8,1.6061436205092307e-8,7.492865519251183e-9,0
24671,4.487490925791256e-9,1.3835260599577254e-9,2.4269933126888103e-9,9.459654339056624e-9,4.31712865457634e-8,1.8560300392878066e-8,1.6097710950524974e-8,7.536376233786926e-9,0
24672,4.491344385000946e-9,1.3795483612388343e-9,2.4035272437972148e-9,9.477312594840821e-9,4.3218210266614034e-8,1.8556657775834337e-8,1.6133985695957642e-8,7.57988694832267e-9,0
24673,4.495197844210635e-9,1.3755706625199434e-9,2.380061174905619e-9,9.49497085062502e-9,4.3265133987464674e-8,1.855301515879061e-8,1.617026044139031e-8,7.623397662858412e-9,0
24674,4.4986416062364275e-9,1.3775410225512415e-9,2.3855721315777633e-9,9.499500008016274e-9,4.332097570764634e-8,1.855301515879061e-8,1.6210889732754395e-8,7.670374557979644e-9,0
24675,4.48912076904284e-9,1.37575224487534e-9,2.391083088249908e-9,9.500267215407696e-9,4.3209939772729574e-8,1.853203398978239e-8,1.6180782285225095e-8,7.695861149427122e-9,0
24676,4.479599931849253e-9,1.3739634671994386e-9,2.396594044922052e-9,9.501034422799119e-9,4.309890383781281e-8,1.8511052820774174e-8,1.6150674837695794e-8,7.7213477408746e-9,0
24677,4.467902988492217e-9,1.3762140193362526e-9,2.400571733668274e-9,9.517372137657778e-9,4.333672721905418e-8,1.849089545405341e-8,1.6188762335100406e-8,7.691215521235743e-9,0
24678,4.456206045135182e-9,1.3784645714730663e-9,2.404549422414496e-9,9.533709852516436e-9,4.3574550600295545e-8,1.8470738087332643e-8,1.622684983250502e-8,7.661083301596885e-9,0
24679,4.44165314880287e-9,1.374693107547102e-9,2.406228381060431e-9,9.52238584708572e-9,4.375091924438954e-8,1.8629207426262373e-8,1.6154005399956863e-8,7.630985587392435e-9,0
24680,4.427100252470558e-9,1.3709216436211373e-9,2.407907339706366e-9,9.511061841655004e-9,4.392728788848354e-8,1.8787676765192103e-8,1.6081160967408702e-8,7.600887873187983e-9,0
24681,4.412547356138247e-9,1.367150179695173e-9,2.409586298352301e-9,9.499737836224287e-9,4.4103656532577536e-8,1.8946146104121833e-8,1.6008316534860544e-8,7.570790158983533e-9,0
24682,4.396901933982207e-9,1.3651305147888151e-9,2.4104381138667024e-9,9.465632704747612e-9,4.439004864635053e-8,1.9002987614279094e-8,1.5943747093870523e-8,7.568864157383517e-9,0
24683,4.3812565118261685e-9,1.3631108498824576e-9,2.4112899293811036e-9,9.431527573270937e-9,4.4676440760123526e-8,1.9059829124436358e-8,1.5879177652880498e-8,7.566938155783501e-9,0
24684,4.365611089670129e-9,1.3610911849761e-9,2.412141744895505e-9,9.397422441794262e-9,4.4962832873896514e-8,1.9116670634593622e-8,1.5814608211890477e-8,7.565012154183487e-9,0
24685,4.34996566751409e-9,1.3590715200697424e-9,2.412993560409906e-9,9.363317310317587e-9,4.524922498766951e-8,1.9173512144750883e-8,1.5750038770900452e-8,7.563086152583472e-9,0
24686,4.334320245358051e-9,1.3570518551633846e-9,2.413845375924307e-9,9.329212178840912e-9,4.5535617101442504e-8,1.9230353654908148e-8,1.568546932991043e-8,7.561160150983458e-9,0
24687,4.318674823202012e-9,1.355032190257027e-9,2.4146971914387082e-9,9.295107047364237e-9,4.58220092152155e-8,1.9287195165065412e-8,1.562089988892041e-8,7.559234149383442e-9,0
24688,4.303029401045972e-9,1.3530125253506694e-9,2.4155490069531095e-9,9.261001915887562e-9,4.6108401328988494e-8,1.9344036675222673e-8,1.5556330447930385e-8,7.557308147783427e-9,0
24689,4.287383978889934e-9,1.3509928604443118e-9,2.4164008224675108e-9,9.226896784410887e-9,4.639479344276149e-8,1.9400878185379937e-8,1.5491761006940364e-8,7.555382146183413e-9,0
24690,4.271738556733894e-9,1.348973195537954e-9,2.417252637981912e-9,9.192791652934212e-9,4.668118555653448e-8,1.9457719695537198e-8,1.542719156595034e-8,7.553456144583397e-9,0
24691,4.246979012740164e-9,1.3402758315337441e-9,2.4167785572475724e-9,9.203507744413902e-9,4.6930804012194894e-8,1.9596154640726415e-8,1.531625963599757e-8,7.553722773859204e-9,0
24692,4.2222194687464324e-9,1.331578467529534e-9,2.4163044765132333e-9,9.214223835893593e-9,4.718042246785531e-8,1.9734589585915628e-8,1.5205327706044797e-8,7.55398940313501e-9,0
24693,4.197459924752702e-9,1.3228811035253239e-9,2.4158303957788937e-9,9.224939927373283e-9,4.743004092351573e-8,1.987302453110484e-8,1.5094395776092025e-8,7.554256032410817e-9,0
24694,4.172700380758971e-9,1.314183739521114e-9,2.415356315044554e-9,9.235656018852975e-9,4.7679659379176146e-8,2.0011459476294058e-8,1.4983463846139256e-8,7.554522661686624e-9,0
24695,4.14794083676524e-9,1.3054863755169038e-9,2.414882234310215e-9,9.246372110332665e-9,4.7929277834836564e-8,2.014989442148327e-8,1.4872531916186484e-8,7.554789290962431e-9,0
24696,4.123181292771509e-9,1.2967890115126937e-9,2.4144081535758753e-9,9.257088201812356e-9,4.817889629049698e-8,2.0288329366672485e-8,1.4761599986233711e-8,7.555055920238238e-9,0
24697,4.098421748777779e-9,1.2880916475084838e-9,2.4139340728415357e-9,9.267804293292046e-9,4.84285147461574e-8,2.04267643118617e-8,1.465066805628094e-8,7.555322549514045e-9,0
24698,4.0736622047840475e-9,1.2793942835042736e-9,2.4134599921071965e-9,9.278520384771738e-9,4.8678133201817816e-8,2.0565199257050915e-8,1.4539736126328168e-8,7.555589178789851e-9,0
24699,4.050490957903249e-9,1.2826300156567366e-9,2.4168179093990664e-9,9.330283772032611e-9,4.865011750164571e-8,2.0539448978264956e-8,1.442971057236137e-8,7.556621190458671e-9,0
24700,4.027319711022451e-9,1.2858657478091997e-9,2.420175826690936e-9,9.382047159293484e-9,4.86221018014736e-8,2.0513698699478998e-8,1.4319685018394572e-8,7.557653202127491e-9,0
24701,4.013440697845962e-9,1.2791880487113471e-9,2.420175826690936e-9,9.518733915569233e-9,4.9112964343590676e-8,2.076391540557427e-8,1.4465572768426833e-8,7.569993422519485e-9,0
24702,3.999561684669474e-9,1.2725103496134948e-9,2.420175826690936e-9,9.655420671844985e-9,4.9603826885707746e-8,2.1014132111669546e-8,1.4611460518459095e-8,7.582333642911478e-9,0
24703,3.985682671492985e-9,1.2658326505156422e-9,2.420175826690936e-9,9.792107428120735e-9,5.0094689427824824e-8,2.1264348817764822e-8,1.4757348268491357e-8,7.594673863303474e-9,0
24704,3.971803658316497e-9,1.25915495141779e-9,2.420175826690936e-9,9.928794184396486e-9,5.0585551969941894e-8,2.1514565523860097e-8,1.4903236018523618e-8,7.607014083695467e-9,0
24705,3.9579246451400084e-9,1.2524772523199374e-9,2.420175826690936e-9,1.0065480940672236e-8,5.107641451205897e-8,2.1764782229955373e-8,1.5049123768555878e-8,7.61935430408746e-9,0
24706,3.968805175957251e-9,1.245725595909496e-9,2.421501722939677e-9,1.018012760003758e-8,5.160405071228862e-8,2.1944215545012127e-8,1.529948120895472e-8,7.627635488672986e-9,0
24707,3.980546647280941e-9,1.2440231017649484e-9,2.4086551602294407e-9,1.0311665307795698e-8,5.174444618445759e-8,2.2180640867772572e-8,1.5552128603505218e-8,7.619931482272925e-9,0
24708,3.9922881186046315e-9,1.242320607620401e-9,2.395808597519204e-9,1.0443203015553816e-8,5.188484165662657e-8,2.2417066190533013e-8,1.580477599805571e-8,7.612227475872866e-9,0
24709,4.004029589928322e-9,1.2406181134758535e-9,2.382962034808968e-9,1.0574740723311934e-8,5.202523712879554e-8,2.2653491513293455e-8,1.605742339260621e-8,7.604523469472805e-9,0
24710,4.015771061252012e-9,1.2389156193313062e-9,2.3701154720987317e-9,1.0706278431070053e-8,5.2165632600964516e-8,2.28899168360539e-8,1.6310070787156702e-8,7.596819463072746e-9,0
24711,4.0275125325757025e-9,1.2372131251867586e-9,2.357268909388495e-9,1.083781613882817e-8,5.230602807313349e-8,2.312634215881434e-8,1.6562718181707196e-8,7.589115456672685e-9,0
24712,4.039254003899392e-9,1.235510631042211e-9,2.344422346678259e-9,1.0969353846586288e-8,5.244642354530246e-8,2.3362767481574783e-8,1.6815365576257692e-8,7.581411450272625e-9,0
24713,4.050995475223082e-9,1.2338081368976638e-9,2.3315757839680228e-9,1.1100891554344406e-8,5.2586819017471436e-8,2.3599192804335227e-8,1.7068012970808186e-8,7.573707443872564e-9,0
24714,4.053035015658565e-9,1.2300983040655234e-9,2.3174033250090457e-9,1.1100891554344406e-8,5.2162555115122216e-8,2.3559651142214435e-8,1.714381851812521e-8,7.555855847956334e-9,0
24715,4.0550745560940475e-9,1.2263884712333833e-9,2.3032308660500687e-9,1.1100891554344406e-8,5.173829121277299e-8,2.3520109480093642e-8,1.7219624065442233e-8,7.538004252040102e-9,0
24716,4.120007480920269e-9,1.2246489984325413e-9,2.296406349320617e-9,1.1109990248463304e-8,5.1600594424590686e-8,2.347110268810776e-8,1.7224155945372098e-8,7.538004252040102e-9,0
24717,4.184940405746491e-9,1.2229095256316991e-9,2.289581832591166e-9,1.1119088942582203e-8,5.146289763640838e-8,2.3422095896121875e-8,1.722868782530196e-8,7.538004252040102e-9,0
24718,4.249873330572711e-9,1.2211700528308572e-9,2.282757315861715e-9,1.11281876367011e-8,5.132520084822607e-8,2.3373089104135993e-8,1.7233219705231826e-8,7.538004252040102e-9,0
24719,4.314806255398933e-9,1.2194305800300152e-9,2.2759327991322636e-9,1.1137286330819998e-8,5.118750406004376e-8,2.332408231215011e-8,1.723775158516169e-8,7.538004252040102e-9,0
24720,4.3797391802251545e-9,1.2176911072291732e-9,2.269108282402812e-9,1.1146385024938895e-8,5.1049807271861457e-8,2.3275075520164226e-8,1.7242283465091555e-8,7.538004252040102e-9,0
24721,4.444672105051375e-9,1.2159516344283312e-9,2.262283765673361e-9,1.1155483719057793e-8,5.091211048367915e-8,2.3226068728178344e-8,1.7246815345021417e-8,7.538004252040102e-9,0
24722,4.509605029877597e-9,1.2142121616274892e-9,2.2554592489439097e-9,1.1164582413176691e-8,5.077441369549684e-8,2.317706193619246e-8,1.7251347224951283e-8,7.538004252040102e-9,0
24723,4.5745379547038175e-9,1.2124726888266472e-9,2.2486347322144586e-9,1.1173681107295588e-8,5.063671690731453e-8,2.3128055144206576e-8,1.7255879104881145e-8,7.538004252040102e-9,0
24724,4.639470879530039e-9,1.210733216025805e-9,2.241810215485007e-9,1.1182779801414486e-8,5.049902011913223e-8,2.307904835222069e-8,1.726041098481101e-8,7.538004252040102e-9,0
24725,4.704403804356261e-9,1.208993743224963e-9,2.234985698755556e-9,1.1191878495533385e-8,5.036132333094992e-8,2.303004156023481e-8,1.7264942864740873e-8,7.538004252040102e-9,0
24726,4.769336729182481e-9,1.207254270424121e-9,2.2281611820261046e-9,1.1200977189652281e-8,5.022362654276761e-8,2.2981034768248924e-8,1.726947474467074e-8,7.538004252040102e-9,0
24727,4.834269654008703e-9,1.205514797623279e-9,2.2213366652966535e-9,1.121007588377118e-8,5.00859297545853e-8,2.2932027976263042e-8,1.7274006624600605e-8,7.538004252040102e-9,0
24728,4.894939422441336e-9,1.2074974838733422e-9,2.2295117506577126e-9,1.1221492625050032e-8,5.0327787758539664e-8,2.292256284639795e-8,1.7266386169220617e-8,7.527684135351898e-9,0
24729,4.935617520047038e-9,1.2057087061974408e-9,2.2371757467101317e-9,1.120790515287627e-8,5.064968815830407e-8,2.29247203834519e-8,1.7176251013628034e-8,7.505359438416318e-9,0
24730,4.97629561765274e-9,1.2039199285215394e-9,2.2448397427625503e-9,1.119431768070251e-8,5.0971588558068474e-8,2.292687792050585e-8,1.708611585803545e-8,7.48303474148074e-9,0
24731,5.016973715258442e-9,1.202131150845638e-9,2.252503738814969e-9,1.118073020852875e-8,5.129348895783288e-8,2.29290354575598e-8,1.6995980702442867e-8,7.460710044545162e-9,0
24732,5.057651812864144e-9,1.2003423731697365e-9,2.2601677348673876e-9,1.1167142736354989e-8,5.161538935759729e-8,2.2931192994613748e-8,1.6905845546850287e-8,7.4383853476095834e-9,0
24733,5.0983299104698455e-9,1.198553595493835e-9,2.2678317309198063e-9,1.1153555264181227e-8,5.193728975736169e-8,2.29333505316677e-8,1.6815710391257704e-8,7.416060650674005e-9,0
24734,5.139008008075547e-9,1.1967648178179336e-9,2.2754957269722254e-9,1.1139967792007467e-8,5.22591901571261e-8,2.293550806872165e-8,1.672557523566512e-8,7.393735953738426e-9,0
24735,5.179686105681249e-9,1.1949760401420322e-9,2.283159723024644e-9,1.1126380319833707e-8,5.25810905568905e-8,2.29376656057756e-8,1.6635440080072537e-8,7.371411256802848e-9,0
24736,5.161324278105902e-9,1.1999019402202777e-9,2.2823202437016765e-9,1.1108736265130028e-8,5.2630165661658376e-8,2.2936527933679746e-8,1.6536804570549933e-8,7.330005333875223e-9,0
24737,5.142962450530555e-9,1.1968724428607414e-9,2.2834881130389706e-9,1.1094543102910406e-8,5.267247782095461e-8,2.3078610661755183e-8,1.6444427489179138e-8,7.303458488160589e-9,0
24738,5.12242451679176e-9,1.1931133051535416e-9,2.288487980402474e-9,1.1127163952210813e-8,5.2752520216764653e-08,2.310418723659418e-8,1.6345791979656538e-8,7.263385711611999e-9,0
24739,5.1018865830529645e-9,1.189354167446342e-9,2.2934878477659777e-9,1.115978480151122e-8,5.28325626125747e-8,2.3129763811433175e-8,1.6247156470133934e-8,7.223312935063408e-9,0
24740,5.081348649314169e-9,1.1855950297391423e-9,2.2984877151294813e-9,1.119240565081163e-8,5.291260500838474e-8,2.315534038627217e-8,1.614852096061133e-8,7.183240158514816e-9,0
24741,5.08302600236041e-9,1.1855950297391423e-9,2.3041566987130722e-9,1.1242670554815715e-8,5.2988757863869e-8,2.3096184827995183e-8,1.612333146494316e-8,7.176662265887351e-9,0
24742,5.084703355406652e-9,1.1855950297391423e-9,2.309825682296663e-9,1.12929354588198e-8,5.3064910719353256e-8,2.30370292697182e-8,1.6098141969274987e-8,7.1700843732598865e-9,0
24743,5.086380708452893e-9,1.1855950297391423e-9,2.315494665880254e-9,1.1343200362823888e-8,5.3141063574837516e-8,2.297787371144121e-8,1.6072952473606815e-8,7.163506480632421e-9,0
24744,5.088058061499135e-9,1.1855950297391423e-9,2.3211636494638445e-9,1.1393465266827974e-8,5.3217216430321777e-8,2.2918718153164228e-8,1.6047762977938646e-8,7.156928588004956e-9,0
24745,5.089735414545376e-9,1.1855950297391423e-9,2.3268326330474354e-9,1.1443730170832061e-8,5.329336928580604e-8,2.285956259488724e-8,1.6022573482270474e-8,7.150350695377491e-9,0
24746,5.091412767591618e-9,1.1855950297391423e-9,2.3325016166310263e-9,1.1493995074836147e-8,5.33695221412903e-8,2.2800407036610253e-8,1.5997383986602302e-8,7.143772802750025e-9,0
24747,5.09309012063786e-9,1.1855950297391423e-9,2.338170600214617e-9,1.1544259978840233e-8,5.344567499677456e-8,2.274125147833327e-8,1.597219449093413e-8,7.1371949101225605e-09,0
24748,5.094767473684101e-9,1.1855950297391423e-9,2.343839583798208e-9,1.159452488284432e-8,5.352182785225882e-8,2.268209592005628e-8,1.5947004995265958e-8,7.130617017495095e-9,0
24749,5.0964448267303424e-9,1.1855950297391423e-9,2.3495085673817985e-9,1.1644789786848406e-8,5.359798070774308e-8,2.2622940361779297e-8,1.5921815499597786e-8,7.12403912486763e-9,0
24750,5.099844060789479e-9,1.1858505694071283e-9,2.3541923809224093e-9,1.1687654152767169e-8,5.365777519497138e-8,2.2650988343480643e-8,1.588665586808391e-8,7.1012250890142895e-9,0
24751,5.103243294848617e-9,1.1861061090751143e-9,2.35887619446302e-9,1.1730518518685932e-8,5.3717569682199684e-8,2.2679036325181993e-8,1.585149623657004e-8,7.078411053160949e-9,0
24752,5.106642528907755e-9,1.1863616487431002e-9,2.3635600080036305e-9,1.1773382884604695e-8,5.3777364169427986e-8,2.2707084306883342e-8,1.5816336605056167e-8,7.055597017307609e-9,0
24753,5.110041762966892e-9,1.186617188411086e-9,2.3682438215442413e-9,1.1816247250523458e-8,5.383715865665629e-8,2.273513228858469e-8,1.578117697354229e-8,7.0327829814542685e-9,0
24754,5.11344099702603e-9,1.186872728079072e-9,2.3729276350848517e-9,1.1859111616442221e-8,5.389695314388459e-8,2.276318027028604e-8,1.574601734202842e-8,7.009968945600928e-9,0
24755,5.116840231085167e-9,1.187128267747058e-9,2.3776114486254625e-9,1.1901975982360984e-8,5.3956747631112894e-8,2.279122825198739e-8,1.5710857710514548e-8,6.987154909747588e-9,0
24756,5.120239465144305e-9,1.1873838074150437e-9,2.382295262166073e-9,1.1944840348279747e-8,5.401654211834119e-8,2.281927623368874e-8,1.5675698079000672e-8,6.9643408738942475e-9,0
24757,5.123638699203442e-9,1.1876393470830297e-9,2.3869790757066836e-9,1.198770471419851e-8,5.407633660556949e-8,2.284732421539009e-8,1.56405384474868e-8,6.941526838040907e-9,0
24758,5.124455111743236e-9,1.1899022254386085e-9,2.3952751794048883e-9,1.2064068521548088e-8,5.429644310170618e-8,2.2896246738323737e-8,1.562496441966744e-8,6.9583370080888735e-9,0
24759,5.140643814983137e-9,1.1908874054542575e-9,2.3952751794048883e-9,1.2049590480068568e-8,5.4279846506335455e-8,2.289941296097394e-8,1.559340874115996e-8,6.9372858608629614e-9,0
24760,5.14032615556055e-9,1.1911306189034787e-9,2.3984257250195767e-9,1.2046246524513163e-8,5.4260436062597565e-8,2.2898404275377688e-8,1.5558045298211704e-8,6.9132076894994e-9,0
24761,5.1400084961379635e-9,1.1913738323526997e-9,2.401576270634265e-9,1.2042902568957757e-8,5.424102561885967e-8,2.289739558978143e-8,1.5522681855263448e-8,6.889129518135839e-9,0
24762,5.1396908367153775e-9,1.1916170458019208e-9,2.4047268162489536e-9,1.2039558613402353e-8,5.422161517512178e-8,2.2896386904185178e-8,1.548731841231519e-8,6.865051346772278e-9,0
24763,5.139373177292791e-9,1.1918602592511418e-9,2.4078773618636416e-9,1.2036214657846947e-8,5.420220473138389e-8,2.289537821858892e-8,1.5451954969366935e-8,6.840973175408717e-9,0
24764,5.113752692792612e-9,1.1881381002002367e-9,2.4036799652488046e-9,1.1973466724832168e-8,5.419717627237864e-8,2.2891898126130314e-8,1.528456110898071e-8,6.829906504726389e-9,0
24765,5.102011221468921e-9,1.1843666362742723e-9,2.4055046146147522e-9,1.1949336655699632e-8,5.4177765828640744e-8,2.280969931020524e-8,1.5219991667990687e-8,6.810583740693498e-9,0
24766,5.101830127774301e-9,1.1836000172703145e-9,2.409810693375301e-9,1.1958798763846047e-8,5.415358745190004e-8,2.280969931020524e-8,1.5217610583590595e-8,6.7629794849168785e-9,0
24767,5.1016490340796805e-9,1.1828333982663566e-9,2.4141167721358496e-9,1.196826087199246e-8,5.4129409075159334e-8,2.280969931020524e-8,1.52152294991905e-8,6.71537522914026e-9,0
24768,5.10146794038506e-9,1.1820667792623989e-9,2.4184228508963988e-9,1.1977722980138875e-8,5.4105230698418635e-8,2.280969931020524e-8,1.521284841479041e-8,6.6677709733636415e-9,0
24769,5.10128684669044e-9,1.1813001602584411e-9,2.4227289296569475e-9,1.1987185088285289e-8,5.408105232167793e-8,2.280969931020524e-8,1.5210467330390315e-8,6.620166717587023e-9,0
24770,5.101105752995819e-9,1.1805335412544834e-9,2.427035008417496e-9,1.1996647196431703e-8,5.4056873944937225e-8,2.280969931020524e-8,1.5208086245990224e-8,6.572562461810404e-9,0
24771,5.100924659301198e-9,1.1797669222505257e-9,2.4313410871780453e-9,1.2006109304578116e-8,5.403269556819652e-8,2.280969931020524e-8,1.520570516159013e-8,6.524958206033786e-9,0
24772,5.100743565606578e-9,1.179000303246568e-9,2.435647165938594e-9,1.201557141272453e-8,5.4008517191455816e-8,2.280969931020524e-8,1.5203324077190038e-8,6.477353950257167e-9,0
24773,5.100743565606578e-9,1.1802533491489678e-9,2.435647165938594e-9,1.2012160899576863e-8,5.3992437978147806e-8,2.282480206958289e-8,1.5206949581133928e-8,6.428717682811728e-9,0
24774,5.100562471911957e-9,1.1802286967114382e-9,2.435647165938594e-9,1.2007914397540344e-8,5.407655225456187e-8,2.2833095989266605e-08,1.5208740782168372e-8,6.3811134270351095e-9,0
24775,5.100381378217337e-9,1.1831842367583854e-9,2.4393211370533568e-9,1.2003128763050227e-8,5.4107873216334034e-8,2.2858739640276644e-8,1.5208740782168372e-8,6.344817379981665e-9,0
24776,5.1002002845227165e-9,1.1861397768053328e-9,2.44299510816812e-9,1.199834312856011e-8,5.41391941781062e-8,2.2884383291286688e-8,1.5208740782168372e-8,6.308521332928219e-9,0
24777,5.100019190828096e-9,1.1890953168522802e-9,2.4466690792828826e-9,1.1993557494069994e-8,5.417051513987837e-8,2.291002694229673e-8,1.5208740782168372e-8,6.272225285874774e-9,0
24778,5.099838097133476e-9,1.1920508568992274e-9,2.4503430503976453e-9,1.1988771859579878e-8,5.4201836101650537e-8,2.293567059330677e-8,1.5208740782168372e-8,6.235929238821328e-9,0
24779,5.0996570034388545e-9,1.1950063969461748e-9,2.4540170215124085e-9,1.1983986225089762e-8,5.4233157063422704e-8,2.2961314244316814e-8,1.5208740782168372e-8,6.1996331917678835e-9,0
24780,5.099475909744234e-9,1.1979619369931222e-9,2.4576909926271712e-9,1.1979200590599645e-8,5.426447802519487e-8,2.2986957895326854e-8,1.5208740782168372e-8,6.163337144714438e-9,0
24781,5.099294816049614e-9,1.2009174770400694e-9,2.4613649637419343e-9,1.1974414956109529e-8,5.429579898696704e-8,2.3012601546336897e-8,1.5208740782168372e-8,6.127041097660993e-9,0
24782,5.099113722354993e-9,1.2038730170870168e-9,2.465038934856697e-9,1.1969629321619412e-8,5.4327119948739206e-8,2.303824519734694e-8,1.5208740782168372e-8,6.090745050607547e-9,0
24783,5.098932628660373e-9,1.2068285571339642e-9,2.46871290597146e-9,1.1964843687129296e-8,5.4358440910511374e-8,2.306388884835698e-8,1.5208740782168372e-8,6.0544490035541014e-9,0
24784,5.0987515349657526e-9,1.2097840971809114e-9,2.472386877086223e-9,1.196005805263918e-8,5.4389761872283535e-8,2.3089532499367023e-8,1.5208740782168372e-8,6.0181529565006566e-9,0
24785,5.098570441271131e-9,1.2127396372278588e-9,2.4760608482009857e-9,1.1955272418149063e-8,5.44210828340557e-8,2.3115176150377063e-8,1.5208740782168372e-8,5.981856909447211e-9,0
24786,5.0965309008356496e-9,1.2105014113098099e-9,2.479406429301422e-9,1.1950123369631431e-8,5.447548418172229e-8,2.31373397089285e-8,1.5191332451439567e-8,5.990276115770362e-9,0
24787,5.094491360400167e-9,1.2082631853917607e-9,2.482752010401858e-9,1.1944974321113799e-8,5.4529885529388874e-8,2.3159503267479933e-8,1.5173924120710764e-8,5.998695322093513e-9,0
24788,5.092042122780786e-9,1.2100026581926027e-9,2.462278460213504e-9,1.1858960710016373e-8,5.4332033243363955e-8,2.316124030694956e-8,1.5133568220092e-8,5.98105075878372e-9,0
24789,5.089592885161406e-9,1.211742130993445e-9,2.4418049100251506e-9,1.1772947098918946e-8,5.4134180957339035e-8,2.316297734641919e-8,1.5093212319473236e-8,5.963406195473926e-9,0
24790,5.087143647542026e-9,1.213481603794287e-9,2.4213313598367967e-9,1.168693348782152e-8,5.3936328671314115e-8,2.316471438588882e-8,1.505285641885447e-8,5.945761632164133e-9,0
24791,5.084694409922645e-9,1.2152210765951289e-9,2.4008578096484427e-9,1.1600919876724094e-8,5.3738476385289196e-8,2.316645142535845e-8,1.5012500518235708e-8,5.92811706885434e-9,0
24792,5.082245172303265e-9,1.2169605493959709e-9,2.380384259460089e-9,1.1514906265626666e-8,5.3540624099264276e-8,2.316818846482808e-8,1.4972144617616942e-8,5.910472505544547e-9,0
24793,5.079795934683885e-9,1.2187000221968129e-9,2.3599107092717353e-9,1.142889265452924e-8,5.3342771813239357e-8,2.316992550429771e-8,1.493178871699818e-8,5.8928279422347535e-9,0
24794,5.077346697064504e-9,1.2204394949976548e-9,2.3394371590833814e-9,1.1342879043431813e-8,5.314491952721444e-8,2.3171662543767338e-8,1.4891432816379413e-8,5.87518337892496e-9,0
24795,5.074897459445124e-9,1.2221789677984968e-9,2.3189636088950275e-9,1.1256865432334387e-8,5.294706724118951e-8,2.317339958323697e-8,1.485107691576065e-8,5.857538815615167e-9,0
24796,5.072448221825744e-9,1.223918440599339e-9,2.298490058706674e-9,1.1170851821236961e-8,5.274921495516459e-8,2.31751366227066e-8,1.4810721015141885e-8,5.839894252305374e-9,0
24797,5.069998984206363e-9,1.225657913400181e-9,2.27801650851832e-9,1.1084838210139535e-8,5.255136266913967e-8,2.3176873662176228e-8,1.4770365114523121e-8,5.822249688995581e-9,0
24798,5.067549746586983e-9,1.227397386201023e-9,2.257542958329966e-9,1.0998824599042108e-8,5.235351038311475e-8,2.3178610701645856e-8,1.4730009213904357e-8,5.804605125685788e-9,0
24799,5.065100508967603e-9,1.229136859001865e-9,2.2370694081416123e-9,1.0912810987944682e-8,5.215565809708983e-8,2.3180347741115485e-8,1.4689653313285593e-8,5.786960562375995e-9,0
24800,5.065100508967603e-9,1.2320923990488124e-9,2.234113898012672e-9,1.0899168935354012e-8,5.216291979567868e-8,2.3196655248760036e-8,1.4691830586251303e-8,5.783478704754991e-9,0
24801,5.065100508967603e-9,1.2350479390957596e-9,2.2311583878837312e-9,1.0885526882763341e-8,5.2170181494267526e-8,2.3212962756404586e-8,1.4694007859217013e-8,5.779996847133987e-9,0
24802,5.071676337252605e-9,1.2342936463105666e-9,2.2248572966543544e-9,1.0899720044982964e-8,5.2150733792638615e-8,2.3238332089211094e-8,1.4697611812223404e-8,5.76440689296239e-9,0
24803,5.072537277759053e-9,1.233283813857388e-9,2.2190672947336184e-9,1.091306524113838e-8,5.2245794668801403e-8,2.3249814590268697e-8,1.470387024037521e-8,5.75264385075586e-9,0
24804,5.072537277759053e-9,1.2344998811034932e-9,2.2132772928128824e-9,1.0899382809211318e-8,5.220060910435931e-8,2.3295122868401647e-8,1.471237059430523e-8,5.737053896584264e-9,0
24805,5.072537277759053e-9,1.2357159483495986e-9,2.2074872908921465e-9,1.0885700377284258e-8,5.215542353991722e-8,2.3340431146534596e-8,1.472087094823525e-8,5.721463942412666e-9,0
24806,5.072537277759053e-9,1.2369320155957038e-9,2.20169728897141e-9,1.0872017945357197e-8,5.211023797547513e-8,2.3385739424667543e-8,1.472937130216527e-8,5.705873988241069e-9,0
24807,5.072537277759053e-9,1.2381480828418092e-9,2.195907287050674e-9,1.0858335513430137e-8,5.206505241103304e-8,2.3431047702800493e-8,1.4737871656095288e-8,5.690284034069471e-9,0
24808,5.072537277759053e-9,1.2393641500879144e-9,2.190117285129938e-9,1.0844653081503076e-8,5.201986684659095e-8,2.3476355980933443e-8,1.4746372010025308e-8,5.674694079897874e-9,0
24809,5.072537277759053e-9,1.2405802173340199e-9,2.184327283209202e-9,1.0830970649576015e-8,5.197468128214886e-8,2.352166425906639e-8,1.4754872363955328e-8,5.659104125726277e-9,0
24810,5.072537277759053e-9,1.241796284580125e-9,2.1785372812884662e-9,1.0817288217648955e-8,5.192949571770677e-8,2.356697253719934e-8,1.4763372717885346e-8,5.64351417155468e-9,0
24811,5.072537277759053e-9,1.2430123518262305e-9,2.1727472793677303e-9,1.0803605785721894e-8,5.188431015326468e-8,2.361228081533229e-8,1.4771873071815367e-8,5.627924217383082e-9,0
24812,5.072537277759053e-9,1.244228419072336e-9,2.166957277446994e-9,1.0789923353794832e-8,5.183912458882259e-8,2.3657589093465236e-8,1.4780373425745385e-8,5.612334263211485e-9,0
24813,5.072537277759053e-9,1.2454444863184411e-9,2.161167275526258e-9,1.0776240921867773e-8,5.17939390243805e-8,2.3702897371598186e-8,1.4788873779675405e-8,5.596744309039887e-9,0
24814,5.072537277759053e-9,1.2466605535645465e-9,2.155377273605522e-9,1.0762558489940711e-8,5.1748753459938414e-8,2.3748205649731135e-8,1.4797374133605424e-8,5.5811543548682905e-9,0
24815,5.072537277759053e-9,1.2478766208106518e-9,2.149587271684786e-9,1.0748876058013652e-8,5.170356789549632e-8,2.3793513927864085e-8,1.4805874487535444e-8,5.565564400696693e-9,0
24816,5.063969418833225e-9,1.2298475512786112e-9,2.107254937679361e-9,1.0697072291416388e-8,5.140114850607497e-8,2.3835493458761706e-8,1.4814578652899847e-8,5.493433402909229e-9,0
24817,5.057850797526777e-9,1.2098357954965077e-9,2.0660904730112307e-9,1.0646885922179916e-8,5.110704787825557e-8,2.382300227210785e-8,1.4815667289382702e-8,5.421070281280365e-9,0
24818,5.05173217622033e-9,1.1898240397144042e-9,2.0249260083431003e-9,1.0596699552943446e-8,5.081294725043617e-8,2.381051108545399e-8,1.4816755925865557e-8,5.348707159651501e-9,0
24819,5.045613554913882e-9,1.1698122839323006e-9,1.9837615436749695e-9,1.0546513183706976e-8,5.051884662261678e-8,2.3798019898800135e-8,1.4817844562348412e-8,5.276344038022637e-9,0
24820,5.0394949336074345e-9,1.149800528150197e-9,1.942597079006839e-9,1.0496326814470506e-8,5.022474599479738e-8,2.378552871214628e-8,1.4818933198831265e-8,5.203980916393774e-9,0
24821,5.0333763123009875e-9,1.1297887723680934e-9,1.9014326143387087e-9,1.0446140445234034e-8,4.993064536697798e-8,2.3773037525492424e-8,1.482002183531412e-8,5.131617794764909e-9,0
24822,5.02725769099454e-9,1.1097770165859899e-9,1.860268149670578e-9,1.0395954075997564e-8,4.963654473915858e-8,2.3760546338838568e-8,1.4821110471796976e-8,5.059254673136046e-9,0
24823,5.0278039539064034e-9,1.1120398949415686e-9,1.8688803071916757e-9,1.0271712193301281e-8,4.8705201618116106e-8,2.3316011132026356e-8,1.4758202926216395e-8,5.0730566474452535e-9,0
24824,5.028350216818267e-9,1.1143027732971472e-9,1.8774924647127735e-9,1.0147470310604999e-8,4.777385849707364e-8,2.2871475925214147e-8,1.4695295380635813e-8,5.086858621754462e-9,0
24825,5.028350216818267e-9,1.11631011198474e-9,1.8844626721622373e-9,1.014976217950908e-8,4.7721065182431744e-8,2.2829496394316523e-8,1.4615521359318635e-8,5.09680859286364e-9,0
24826,5.028350216818267e-9,1.118317450672333e-9,1.8914328796117015e-9,1.0152054048413162e-8,4.766827186778985e-8,2.2787516863418902e-8,1.4535747338001456e-8,5.106758563972818e-9,0
24827,5.028350216818267e-9,1.1203247893599257e-9,1.8984030870611653e-9,1.0154345917317243e-8,4.761547855314796e-8,2.274553733252128e-8,1.4455973316684278e-8,5.116708535081996e-9,0
24828,5.028350216818267e-9,1.1223321280475185e-9,1.9053732945106295e-9,1.0156637786221325e-8,4.756268523850607e-8,2.2703557801623657e-8,1.43761992953671e-8,5.1266585061911744e-9,0
24829,5.028350216818267e-9,1.1243394667351113e-9,1.9123435019600933e-9,1.0158929655125406e-8,4.750989192386418e-8,2.2661578270726036e-8,1.4296425274049922e-8,5.1366084773003525e-9,0
24830,5.028350216818267e-9,1.126346805422704e-9,1.9193137094095575e-9,1.0161221524029488e-8,4.7457098609222284e-8,2.2619598739828415e-8,1.4216651252732743e-8,5.1465584484095314e-9,0
24831,5.032654919350508e-9,1.127101098207897e-9,1.9226716267014274e-9,1.0163796048288305e-8,4.7363470765690265e-8,2.2564954318329973e-8,1.414857391548321e-8,5.152508980381608e-9,0
24832,5.036959621882747e-9,1.1278553909930897e-9,1.9260295439932974e-9,1.016637057254712e-8,4.726984292215825e-8,2.251030989683153e-8,1.4080496578233676e-8,5.158459512353686e-9,0
24833,5.041264324414988e-9,1.1286096837782826e-9,1.9293874612851673e-9,1.0168945096805937e-8,4.7176215078626234e-8,2.245566547533309e-8,1.4012419240984142e-8,5.164410044325763e-9,0
24834,5.0455690269472275e-9,1.1293639765634755e-9,1.9327453785770372e-9,1.0171519621064752e-8,4.7082587235094216e-8,2.2401021053834648e-8,1.3944341903734608e-8,5.17036057629784e-9,0
24835,5.049873729479468e-9,1.1301182693486684e-9,1.936103295868907e-9,1.017409414532357e-8,4.6988959391562204e-8,2.2346376632336205e-8,1.3876264566485073e-8,5.176311108269918e-9,0
24836,5.0541784320117085e-9,1.1308725621338614e-9,1.9394612131607767e-9,1.0176668669582386e-8,4.6895331548030185e-8,2.2291732210837766e-8,1.380818722923554e-8,5.182261640241995e-9,0
24837,5.058483134543948e-9,1.1316268549190543e-9,1.9428191304526466e-9,1.0179243193841201e-8,4.680170370449817e-8,2.2237087789339323e-8,1.3740109891986006e-8,5.188212172214072e-9,0
24838,5.054537637572947e-9,1.133634193606647e-9,1.9428191304526466e-9,1.0185943082127364e-8,4.6981645755313705e-8,2.2328006188374928e-8,1.3660335870668828e-8,5.2120488055367885e-9,0
24839,5.050592140601946e-9,1.1356415322942398e-9,1.9428191304526466e-9,1.0192642970413527e-8,4.716158780612924e-8,2.241892458741053e-8,1.358056184935165e-8,5.235885438859504e-9,0
24840,5.0466466436309445e-9,1.1376488709818326e-9,1.9428191304526466e-9,1.019934285869969e-8,4.7341529856944775e-8,2.2509842986446133e-8,1.3500787828034471e-8,5.25972207218222e-9,0
24841,5.042701146659943e-9,1.1396562096694254e-9,1.9428191304526466e-9,1.0206042746985853e-8,4.752147190776031e-8,2.2600761385481738e-8,1.3421013806717293e-8,5.283558705504935e-9,0
24842,5.0387556496889416e-9,1.1416635483570182e-9,1.9428191304526466e-9,1.0212742635272016e-8,4.7701413958575845e-8,2.269167978451734e-8,1.3341239785400115e-8,5.307395338827651e-9,0
24843,5.034810152717941e-9,1.143670887044611e-9,1.9428191304526466e-9,1.0219442523558179e-8,4.788135600939138e-8,2.2782598183552943e-8,1.3261465764082938e-8,5.331231972150367e-9,0
24844,5.0308646557469394e-9,1.1456782257322037e-9,1.9428191304526466e-9,1.0226142411844342e-8,4.8061298060206915e-8,2.2873516582588545e-8,1.3181691742765758e-8,5.355068605473083e-9,0
24845,5.027465421687802e-9,1.1479411040877825e-9,1.9453005598472478e-9,1.0195003620815038e-8,4.828627297395829e-8,2.3003976643744942e-8,1.3152222206975545e-8,5.384090388374862e-9,0
24846,5.024066187628664e-9,1.1502039824433612e-9,1.9477819892418493e-9,1.0163864829785732e-8,4.851124788770966e-8,2.3134436704901335e-8,1.3122752671185332e-8,5.413112171276642e-9,0
24847,4.993458171956416e-9,1.1435262833455087e-9,1.9444240719499794e-9,1.0152825703614916e-8,4.866930435814678e-8,2.32801620500205e-8,1.2968235261598047e-8,5.426998833490179e-9,0
24848,4.962850156284167e-9,1.1368485842476563e-9,1.9410661546581094e-9,1.01417865774441e-8,4.88273608285839e-8,2.3425887395139667e-8,1.2813717852010762e-8,5.440885495703717e-9,0
24849,4.932242140611918e-9,1.1301708851498038e-9,1.9377082373662395e-9,1.0130747451273284e-8,4.898541729902102e-8,2.3571612740258836e-8,1.2659200442423477e-8,5.454772157917254e-9,0
24850,4.90163412493967e-9,1.1234931860519515e-9,1.9343503200743696e-9,1.0119708325102467e-8,4.9143473769458143e-8,2.3717338085378e-8,1.2504683032836192e-8,5.4686588201307915e-9,0
24851,4.871026109267421e-9,1.1168154869540991e-9,1.9309924027824996e-9,1.0108669198931652e-8,4.9301530239895265e-8,2.3863063430497167e-8,1.2350165623248907e-8,5.4825454823443295e-9,0
24852,4.840418093595173e-9,1.1101377878562466e-9,1.9276344854906297e-9,1.0097630072760835e-8,4.945958671033238e-8,2.4008788775616332e-8,1.2195648213661622e-8,5.496432144557867e-9,0
24853,4.811941656119718e-9,1.1022070428559944e-9,1.9261012175647073e-9,1.011178507954923e-8,4.972854504312553e-8,2.4039918710915652e-8,1.2045099278074491e-8,5.492432705420766e-9,0
24854,4.783465218644263e-9,1.094276297855742e-9,1.9245679496387854e-9,1.0125940086337626e-8,4.9997503375918674e-8,2.407104864621497e-8,1.1894550342487362e-8,5.488433266283665e-9,0
24855,4.7527206372440485e-9,1.0855789338515319e-9,1.920735951612576e-9,1.0109238957451452e-8,4.9886199575115156e-8,2.4100267838097696e-8,1.1739829121465694e-8,5.473367156464236e-9,0
24856,4.721976055843834e-9,1.076881569847322e-9,1.9169039535863663e-9,1.0092537828565278e-8,4.977489577431164e-8,2.4129487029980424e-8,1.1585107900444026e-8,5.458301046644807e-9,0
24857,4.657224224712233e-9,1.056980750034102e-9,1.909459665402563e-9,1.0092739725247231e-8,4.977435976330341e-8,2.4085159912877554e-8,1.154974445749577e-8,5.387556529069674e-9,0
24858,4.5924723935806325e-9,1.037079930220882e-9,1.9020153772187596e-9,1.0092941621929184e-8,4.977382375229518e-8,2.4040832795774688e-8,1.1514381014547513e-8,5.31681201149454e-9,0
24859,4.527720562449031e-9,1.0171791104076623e-9,1.894571089034956e-9,1.0093143518611138e-8,4.9773287741286946e-8,2.399650567867182e-8,1.1479017571599257e-8,5.246067493919406e-9,0
24860,4.462968731317431e-9,9.972782905944423e-10,1.887126800851153e-9,1.0093345415293091e-8,4.9772751730278715e-8,2.3952178561568953e-8,1.1443654128651002e-8,5.175322976344273e-9,0
24861,4.39821690018583e-9,9.773774707812223e-10,1.879682512667349e-9,1.0093547311975045e-8,4.9772215719270484e-8,2.3907851444466083e-8,1.1408290685702746e-8,5.104578458769139e-9,0
24862,4.3334650690542295e-9,9.574766509680026e-10,1.8722382244835456e-9,1.0093749208656998e-8,4.977167970826225e-8,2.3863524327363217e-8,1.137292724275449e-8,5.033833941194006e-9,0
24863,4.268713237922628e-9,9.375758311547826e-10,1.8647939362997423e-9,1.0093951105338951e-8,4.977114369725402e-8,2.3819197210260348e-8,1.1337563799806233e-8,4.9630894236188726e-9,0
24864,4.203961406791028e-9,9.176750113415628e-10,1.8573496481159389e-9,1.0094153002020905e-8,4.977060768624579e-8,2.377487009315748e-8,1.1302200356857978e-8,4.892344906043739e-9,0
24865,4.139209575659427e-9,8.977741915283429e-10,1.8499053599321353e-9,1.0094354898702858e-8,4.977007167523756e-8,2.3730542976054613e-8,1.1266836913909722e-8,4.821600388468605e-9,0
24866,4.132814841069045e-9,8.970322249619148e-10,1.8402463514108887e-9,1.0095972296063652e-8,4.978906522152461e-8,2.37513057236685e-8,1.121732119668435e-8,4.8025881733453715e-9,0
24867,4.126420106478664e-9,8.962902583954868e-10,1.830587342889642e-9,1.0097589693424444e-8,4.9808058767811653e-8,2.377206847128239e-8,1.1167805479458978e-8,4.7835759582221386e-9,0
24868,4.120025371888282e-9,8.955482918290587e-10,1.8209283343683952e-9,1.0099207090785238e-8,4.98270523140987e-8,2.3792831218896282e-8,1.1118289762233605e-8,4.764563743098905e-9,0
24869,4.113630637297901e-9,8.948063252626307e-10,1.8112693258471486e-9,1.010082448814603e-8,4.9846045860385746e-8,2.381359396651017e-8,1.1068774045008233e-8,4.745551527975672e-9,0
24870,4.107235902707519e-9,8.940643586962026e-10,1.801610317325902e-9,1.0102441885506823e-8,4.986503940667279e-8,2.383435671412406e-8,1.1019258327782862e-8,4.726539312852439e-9,0
24871,4.100841168117138e-9,8.933223921297746e-10,1.7919513088046552e-9,1.0104059282867617e-8,4.988403295295984e-8,2.3855119461737948e-8,1.0969742610557489e-8,4.707527097729205e-9,0
24872,4.094446433526756e-9,8.925804255633466e-10,1.7822923002834086e-9,1.0105676680228409e-8,4.9903026499246886e-8,2.3875882209351836e-8,1.0920226893332116e-8,4.688514882605972e-9,0
24873,4.088051698936374e-9,8.918384589969185e-10,1.772633291762162e-9,1.0107294077589203e-8,4.9922020045533925e-8,2.3896644956965728e-8,1.0870711176106745e-8,4.669502667482739e-9,0
24874,4.081656964345992e-9,8.910964924304905e-10,1.7629742832409154e-9,1.0108911474949994e-8,4.994101359182097e-8,2.3917407704579617e-8,1.0821195458881372e-8,4.650490452359506e-9,0
24875,4.075262229755611e-9,8.903545258640623e-10,1.7533152747196685e-9,1.0110528872310788e-8,4.996000713810802e-8,2.3938170452193506e-8,1.0771679741656001e-8,4.631478237236273e-9,0
24876,4.071135639089989e-9,8.893693458484133e-10,1.7441303469327613e-9,1.0110987246091605e-8,4.9967868074425945e-8,2.3958933199807394e-8,1.0728170612774613e-8,4.611666134285619e-9,0
24877,4.065420751311435e-9,8.946493953447636e-10,1.7490561971476624e-9,1.0112402746770444e-8,4.997894112761637e-8,2.3956276909636237e-8,1.068511713513543e-8,4.595680943300034e-9,0
24878,4.059705863532881e-9,8.999294448411138e-10,1.7539820473625636e-9,1.0113818247449284e-8,4.99900141808068e-8,2.395362061946508e-8,1.0642063657496248e-8,4.579695752314449e-9,0
24879,4.053990975754327e-9,9.052094943374642e-10,1.7589078975774645e-9,1.0115233748128123e-8,5.000108723399723e-8,2.3950964329293924e-8,1.0599010179857066e-8,4.5637105613288646e-9,0
24880,4.048276087975773e-9,9.104895438338145e-10,1.7638337477923656e-9,1.0116649248806963e-8,5.0012160287187655e-8,2.3948308039122767e-8,1.0555956702217884e-8,4.547725370343279e-9,0
24881,4.040569169556393e-9,9.104895438338145e-10,1.7761198764282262e-9,1.0042441971271776e-8,4.9623977660494366e-8,2.393745327768197e-8,1.0553167994949026e-8,4.551784406149748e-9,0
24882,4.034854281777839e-9,9.077402385797937e-10,1.7761198764282262e-9,1.00433990981698e-8,4.963211775176024e-8,2.3941269598672665e-8,1.0555822470094441e-8,4.555611318114817e-9,0
24883,4.033265984664907e-9,9.099907907166075e-10,1.7832604469805704e-9,1.0021966915210417e-8,4.961362662853256e-8,2.394589854258897e-8,1.0561196073197777e-8,4.5535222035422145e-9,0
24884,4.031677687551974e-9,9.122413428534214e-10,1.7904010175329145e-9,1.0000534732251036e-8,4.959513550530488e-8,2.395052748650527e-8,1.0566569676301111e-8,4.551433088969612e-9,0
24885,4.030089390439042e-9,9.144918949902352e-10,1.7975415880852589e-9,9.979102549291654e-9,4.95766443820772e-8,2.3955156430421574e-8,1.0571943279404447e-8,4.549343974397009e-9,0
24886,4.02850109332611e-9,9.16742447127049e-10,1.804682158637603e-9,9.957670366332273e-9,4.9558153258849515e-8,2.3959785374337878e-8,1.0577316882507781e-8,4.547254859824407e-9,0
24887,4.026912796213178e-9,9.189929992638629e-10,1.8118227291899474e-9,9.93623818337289e-9,4.953966213562183e-8,2.396441431825418e-8,1.0582690485611117e-8,4.545165745251805e-9,0
24888,4.025324499100245e-9,9.212435514006767e-10,1.8189632997422916e-9,9.91480600041351e-9,4.952117101239415e-8,2.3969043262170483e-8,1.0588064088714451e-8,4.543076630679203e-9,0
24889,4.023736201987313e-9,9.234941035374906e-10,1.8261038702946357e-9,9.893373817454128e-9,4.950267988916647e-8,2.3973672206086787e-8,1.0593437691817787e-8,4.5409875161066e-9,0
24890,4.0216046237905185e-9,9.316557357681991e-10,1.8459576490286374e-9,9.871105645605895e-9,4.947433281715203e-8,2.3974484829012396e-8,1.0592349055334932e-8,4.5439204381404745e-9,0
24891,4.019473045593725e-9,9.398173679989077e-10,1.865811427762639e-9,9.848837473757663e-9,4.9445985745137594e-8,2.3975297451938006e-8,1.0591260418852077e-8,4.5468533601743485e-9,0
24892,4.017341467396931e-9,9.479790002296162e-10,1.8856652064966404e-9,9.82656930190943e-9,4.941763867312316e-8,2.3976110074863615e-8,1.0590171782369222e-8,4.5497862822082226e-9,0
24893,4.015209889200137e-9,9.561406324603247e-10,1.905518985230642e-9,9.804301130061197e-9,4.938929160110872e-8,2.3976922697789228e-8,1.0589083145886367e-8,4.552719204242097e-9,0
24894,4.013078311003344e-9,9.643022646910333e-10,1.925372763964644e-9,9.782032958212965e-9,4.936094452909428e-8,2.3977735320714837e-8,1.0587994509403512e-8,4.55565212627597e-9,0
24895,4.0109467328065496e-9,9.724638969217418e-10,1.9452265426986455e-9,9.759764786364732e-9,4.9332597457079846e-8,2.3978547943640447e-8,1.0586905872920657e-8,4.558585048309844e-9,0
24896,4.014390494832341e-9,9.68704759214542e-10,1.936930439000441e-9,9.736917102726511e-9,4.936545927597897e-8,2.4012244734216194e-8,1.058792493009257e-8,4.552436897930773e-9,0
24897,4.017834256858134e-9,9.649456215073425e-10,1.928634335302236e-9,9.71406941908829e-9,4.9398321094878096e-8,2.404594152479194e-8,1.0588943987264486e-8,4.546288747551702e-9,0
24898,4.021278018883926e-9,9.611864838001427e-10,1.920338231604031e-9,9.69122173545007e-9,4.9431182913777224e-8,2.4079638315367692e-8,1.0589963044436401e-8,4.540140597172631e-9,0
24899,4.024721780909718e-9,9.574273460929431e-10,1.9120421279058266e-9,9.668374051811848e-9,4.9464044732676345e-8,2.411333510594344e-8,1.0590982101608315e-8,4.53399244679356e-9,0
24900,4.02816554293551e-9,9.536682083857436e-10,1.903746024207622e-9,9.645526368173626e-9,4.9496906551575474e-8,2.4147031896519187e-8,1.059200115878023e-8,4.527844296414489e-9,0
24901,4.0316093049613024e-9,9.499090706785438e-10,1.8954499205094173e-9,9.622678684535405e-9,4.9529768370474595e-8,2.4180728687094935e-8,1.0593020215952144e-8,4.5216961460354174e-9,0
24902,4.035053066987094e-9,9.461499329713442e-10,1.8871538168112126e-9,9.599831000897184e-9,4.956263018937372e-8,2.4214425477670682e-8,1.059403927312406e-8,4.515547995656346e-9,0
24903,4.038496829012887e-9,9.461499329713442e-10,1.8863020012968114e-9,9.599790621560793e-9,4.956263018937372e-8,2.424565086138408e-8,1.058055138802197e-8,4.435060539578473e-9,0
24904,4.0419405910386784e-9,9.461499329713442e-10,1.88545018578241e-9,9.599750242224404e-9,4.956263018937372e-8,2.4276876245097473e-8,1.0567063502919881e-8,4.3545730835006e-9,0
24905,4.0441166972021274e-09,9.44179572940046e-10,1.871277726823433e-9,9.599750242224404e-9,4.960606263840391e-8,2.4118664879166943e-8,1.0564998911140113e-8,4.3543409596592e-9,0
24906,4.0462928033655756e-9,9.422092129087477e-10,1.857105267864456e-9,9.599750242224404e-9,4.9649495087434095e-8,2.3960453513236413e-8,1.0562934319360343e-8,4.354108835817799e-9,0
24907,4.048468909529024e-9,9.402388528774496e-10,1.842932808905479e-9,9.599750242224404e-9,4.969292753646429e-8,2.380224214730588e-8,1.0560869727580575e-8,4.3538767119764e-9,0
24908,4.050645015692473e-9,9.382684928461513e-10,1.828760349946502e-9,9.599750242224404e-9,4.973635998549447e-8,2.364403078137535e-8,1.0558805135800807e-8,4.3536445881349996e-9,0
24909,4.052821121855921e-9,9.362981328148531e-10,1.814587890987525e-9,9.599750242224404e-9,4.977979243452466e-8,2.348581941544482e-8,1.0556740544021038e-8,4.353412464293599e-9,0
24910,4.054997228019369e-9,9.343277727835548e-10,1.800415432028548e-9,9.599750242224404e-9,4.982322488355485e-8,2.332760804951429e-8,1.055467595224127e-8,4.353180340452199e-9,0
24911,4.051280334537645e-9,9.343277727835548e-10,1.7909267866101815e-9,9.599790621560793e-9,4.981209227358573e-8,2.313651251593362e-8,1.0551410042792705e-8,4.35514084748662e-9,0
24912,4.0496029814914035e-9,9.321018730842707e-10,1.7759271845196708e-9,9.60024899534161e-9,4.980835910470836e-8,2.2943433149245963e-8,1.0547237757358168e-8,4.35514084748662e-9,0
24913,4.0479256284451625e-9,9.298759733849866e-10,1.76092758242916e-9,9.600707369122427e-9,4.980462593583098e-8,2.2750353782558307e-8,1.0543065471923629e-8,4.35514084748662e-9,0
24914,4.046248275398921e-9,9.276500736857025e-10,1.7459279803386493e-9,9.601165742903242e-9,4.980089276695361e-8,2.255727441587065e-8,1.0538893186489092e-8,4.35514084748662e-9,0
24915,4.04457092235268e-9,9.254241739864183e-10,1.7309283782481385e-9,9.601624116684059e-9,4.979715959807623e-8,2.2364195049182995e-8,1.0534720901054553e-8,4.35514084748662e-9,0
24916,4.046429369093541e-9,9.231612956308396e-10,1.7301012351166048e-9,9.574206896318194e-9,4.950891388427946e-8,2.2340125913057462e-8,1.0364957654208858e-8,4.3543409596592e-9,0
24917,4.048287815834403e-9,9.208984172752608e-10,1.729274091985071e-9,9.546789675952328e-9,4.922066817048269e-8,2.231605677693193e-8,1.0195194407363164e-8,4.35354107183178e-9,0
24918,4.0501462625752655e-9,9.186355389196822e-10,1.7284469488535372e-9,9.519372455586463e-9,4.8932422456685926e-8,2.2291987640806393e-8,1.0025431160517469e-8,4.35274118400436e-9,0
24919,4.052004709316128e-9,9.163726605641034e-10,1.7276198057220035e-9,9.491955235220598e-9,4.864417674288916e-8,2.226791850468086e-8,9.855667913671774e-9,4.351941296176939e-9,0
24920,4.053863156056989e-9,9.141097822085248e-10,1.7267926625904698e-9,9.464538014854732e-9,4.8355931029092386e-8,2.2243849368555323e-8,9.68590466682608e-9,4.35114140834952e-9,0
24921,4.055721602797851e-9,9.11846903852946e-10,1.725965519458936e-9,9.437120794488867e-9,4.806768531529562e-8,2.221978023242979e-8,9.516141419980385e-9,4.350341520522099e-9,0
24922,4.057580049538714e-9,9.095840254973674e-10,1.7251383763274024e-9,9.409703574123002e-9,4.777943960149885e-8,2.2195711096304254e-8,9.34637817313469e-9,4.349541632694679e-9,0
24923,4.059438496279575e-9,9.073211471417886e-10,1.7243112331958687e-9,9.382286353757136e-9,4.749119388770208e-8,2.217164196017872e-8,9.176614926288996e-9,4.348741744867259e-9,0
24924,4.061296943020437e-9,9.0505826878621e-10,1.723484090064335e-9,9.354869133391271e-9,4.720294817390531e-8,2.2147572824053188e-8,9.006851679443301e-9,4.347941857039839e-9,0
24925,4.04792264661716e-9,9.040484363330312e-10,1.7238124800786617e-9,9.322853974136724e-9,4.716259009924473e-8,2.212659165504497e-8,9.005763042960446e-9,4.323063797848858e-9,0
24926,4.0345483502138835e-9,9.030386038798523e-10,1.7241408700929885e-9,9.290838814882177e-9,4.712223202458414e-8,2.2105610486036754e-8,9.004674406477591e-9,4.298185738657876e-9,0
24927,4.021174053810606e-9,9.020287714266735e-10,1.7244692601073153e-9,9.25882365562763e-9,4.708187394992356e-8,2.208462931702854e-8,9.003585769994736e-9,4.273307679466895e-9,0
24928,4.007799757407329e-9,9.010189389734947e-10,1.7247976501216418e-9,9.226808496373083e-9,4.7041515875262973e-8,2.2063648148020323e-8,9.00249713351188e-9,4.248429620275914e-9,0
24929,3.9944254610040515e-9,9.000091065203159e-10,1.7251260401359686e-9,9.194793337118536e-9,4.7001157800602385e-8,2.2042666979012106e-8,9.001408497029026e-9,4.223551561084933e-9,0
24930,3.981051164600774e-9,8.98999274067137e-10,1.7254544301502954e-9,9.16277817786399e-9,4.6960799725941804e-8,2.2021685810003892e-8,9.00031986054617e-9,4.198673501893952e-9,0
24931,3.967676868197497e-9,8.979894416139582e-10,1.7257828201646221e-9,9.130763018609443e-9,4.6920441651281215e-8,2.2000704640995675e-8,8.999231224063315e-9,4.17379544270297e-9,0
24932,3.95430257179422e-9,8.969796091607794e-10,1.726111210178949e-9,9.098747859354896e-9,4.6880083576620634e-8,2.1979723471987458e-8,8.99814258758046e-9,4.148917383511989e-9,0
24933,3.940928275390943e-9,8.959697767076006e-10,1.7264396001932757e-9,9.066732700100349e-9,4.6839725501960046e-8,2.1958742302979244e-8,8.997053951097605e-9,4.124039324321008e-9,0
24934,3.927553978987666e-9,8.949599442544218e-10,1.7267679902076024e-9,9.034717540845802e-9,4.6799367427299464e-8,2.1937761133971027e-8,8.99596531461475e-9,4.099161265130027e-9,0
24935,3.9141796825843886e-9,8.939501118012429e-10,1.727096380221929e-9,9.002702381591253e-9,4.6759009352638876e-8,2.191677996496281e-8,8.994876678131895e-9,4.074283205939046e-9,0
24936,3.900805386181111e-9,8.929402793480641e-10,1.7274247702362558e-9,8.970687222336706e-9,4.6718651277978294e-8,2.1895798795954596e-8,8.99378804164904e-9,4.049405146748064e-9,0
24937,3.887431089777834e-9,8.919304468948853e-10,1.7277531602505825e-9,8.93867206308216e-9,4.6678293203317706e-8,2.1874817626946378e-8,8.992699405166185e-9,4.024527087557083e-9,0
24938,3.874056793374557e-9,8.909206144417066e-10,1.7280815502649093e-9,8.906656903827613e-9,4.6637935128657124e-8,2.185383645793816e-8,8.99161076868333e-9,3.999649028366102e-9,0
24939,3.86068249697128e-9,8.899107819885277e-10,1.728409940279236e-9,8.874641744573066e-9,4.6597577053996536e-8,2.1832855288929947e-8,8.990522132200474e-9,3.974770969175121e-9,0
24940,3.8148001920162394e-9,8.858961046133421e-10,1.7275827971477024e-9,8.870274104527375e-9,4.659330787411093e-8,2.178276155581492e-8,8.889860206274667e-9,3.668912963625131e-9,0
24941,3.805730598145203e-9,8.858961046133421e-10,1.7236051084014802e-9,8.867402723833305e-9,4.652166976551136e-8,2.1788259019466038e-8,8.792109521800536e-9,3.657846292942803e-9,0
24942,3.796343344851579e-9,8.866380711797702e-10,1.721306378301193e-9,8.864531343139236e-9,4.645015077046917e-8,2.1787250333869784e-8,8.693565142526375e-9,3.6480437577706957e-9,0
24943,3.7869560915579555e-9,8.873800377461982e-10,1.7190076482009059e-9,8.861659962445166e-9,4.6378631775426985e-8,2.1786241648273528e-8,8.595020763252214e-9,3.6382412225985884e-9,0
24944,3.777568838264332e-9,8.881220043126263e-10,1.7167089181006187e-9,8.858788581751096e-9,4.63071127803848e-8,2.1785232962677274e-8,8.496476383978053e-9,3.628438687426481e-9,0
24945,3.768181584970708e-9,8.888639708790543e-10,1.7144101880003315e-9,8.855917201057026e-9,4.623559378534261e-8,2.1784224277081018e-8,8.397932004703892e-9,3.6186361522543735e-9,0
24946,3.758794331677085e-9,8.896059374454823e-10,1.7121114579000445e-9,8.853045820362956e-9,4.616407479030042e-8,2.1783215591484764e-8,8.29938762542973e-9,3.6088336170822662e-9,0
24947,3.749407078383461e-9,8.903479040119104e-10,1.7098127277997573e-9,8.850174439668886e-9,4.609255579525823e-8,2.1782206905888508e-8,8.20084324615557e-9,3.599031081910159e-9,0
24948,3.7400198250898385e-9,8.910898705783384e-10,1.7075139976994702e-9,8.847303058974817e-9,4.602103680021605e-8,2.1781198220292254e-8,8.102298866881407e-9,3.5892285467380517e-9,0
24949,3.730632571796215e-9,8.918318371447665e-10,1.705215267599183e-9,8.844431678280747e-9,4.594951780517386e-8,2.1780189534695998e-8,8.003754487607246e-9,3.5794260115659444e-9,0
24950,3.721245318502591e-9,8.925738037111945e-10,1.7029165374988958e-9,8.841560297586677e-9,4.5877998810131674e-8,2.1779180849099745e-8,7.905210108333085e-9,3.569623476393837e-9,0
24951,3.7118580652089677e-9,8.933157702776226e-10,1.7006178073986086e-9,8.838688916892607e-9,4.5806479815089486e-8,2.1778172163503488e-8,7.806665729058924e-9,3.5598209412217295e-9,0
24952,3.702470811915344e-9,8.940577368440506e-10,1.6983190772983214e-9,8.835817536198537e-9,4.57349608200473e-8,2.1777163477907235e-8,7.708121349784763e-9,3.5500184060496222e-9,0
24953,3.6930835586217206e-9,8.947997034104787e-10,1.6960203471980345e-9,8.832946155504467e-9,4.566344182500511e-8,2.1776154792310978e-8,7.609576970510602e-9,3.540215870877515e-9,0
24954,3.683696305328097e-9,8.955416699769068e-10,1.6937216170977473e-9,8.830074774810398e-9,4.559192282996292e-8,2.1775146106714725e-8,7.51103259123644e-9,3.5304133357054077e-9,0
24955,3.6743090520344735e-9,8.955416699769068e-10,1.6897439283515251e-9,8.827203394116328e-9,4.5525730077819445e-8,2.1776479841481225e-8,7.412397081713838e-9,3.5193466650230798e-9,0
24956,3.6657827392472982e-09,8.963082889808645e-10,1.6897439283515251e-9,8.825747514101098e-9,4.5453433174712105e-8,2.177564485983193e-8,7.313852702439676e-9,3.5074801065133314e-9,0
24957,3.6572564264601226e-9,8.970749079848222e-10,1.6897439283515251e-9,8.824291634085867e-9,4.538113627160476e-8,2.177480987818264e-8,7.215308323165515e-9,3.4956135480035834e-9,0
24958,3.6487301136729474e-9,8.978415269887801e-10,1.6897439283515251e-9,8.822835754070637e-9,4.530883936849741e-8,2.1773974896533346e-8,7.116763943891354e-9,3.483746989493835e-9,0
24959,3.6402038008857718e-9,8.986081459927378e-10,1.6897439283515251e-9,8.821379874055406e-9,4.523654246539007e-8,2.1773139914884055e-8,7.018219564617192e-9,3.471880430984087e-9,0
24960,3.631677488098596e-9,8.993747649966955e-10,1.6897439283515251e-9,8.819923994040176e-9,4.516424556228273e-8,2.1772304933234765e-8,6.919675185343031e-9,3.4600138724743387e-9,0
24961,3.561629411856346e-9,8.843751928241915e-10,1.6928944739662136e-9,8.821339494719017e-9,4.5139289277476864e-8,2.1746834986171684e-8,6.910719180170806e-9,3.4592139846469187e-9,0
24962,3.4915813356140955e-9,8.693756206516874e-10,1.6960450195809018e-9,8.822754995397855e-9,4.511433299267101e-8,2.1721365039108607e-8,6.901763174998581e-9,3.4584140968194983e-9,0
24963,3.485866447835541e-9,8.693756206516874e-10,1.6908994614973856e-9,8.772366729479432e-9,4.510218424752196e-8,2.170887385245475e-8,6.8978858312468675e-9,3.4465475383097504e-9,0
24964,3.480151560056987e-9,8.693756206516874e-10,1.6857539034138692e-9,8.721978463561008e-9,4.5090035502372915e-8,2.1696382665800892e-08,6.894008487495153e-9,3.434680979800002e-9,0
24965,3.474436672278433e-9,8.693756206516874e-10,1.680608345330353e-9,8.671590197642583e-9,4.507788675722387e-8,2.1683891479147036e-8,6.8901311437434395e-9,3.422814421290254e-9,0
24966,3.4687217844998787e-9,8.693756206516874e-10,1.6754627872468366e-9,8.62120193172416e-9,4.506573801207483e-8,2.167140029249318e-8,6.886253799991725e-9,3.4109478627805057e-9,0
24967,3.4630068967213247e-9,8.693756206516874e-10,1.6703172291633204e-9,8.570813665805736e-9,4.505358926692578e-8,2.1658909105839324e-8,6.882376456240011e-9,3.3990813042707577e-9,0
24968,3.4572920089427708e-9,8.693756206516874e-10,1.665171671079804e-9,8.520425399887313e-9,4.5041440521776737e-8,2.1646417919185468e-8,6.878499112488297e-9,3.3872147457610093e-9,0
24969,3.4515771211642168e-9,8.693756206516874e-10,1.6600261129962876e-9,8.470037133968888e-9,4.502929177662769e-8,2.1633926732531612e-8,6.874621768736583e-9,3.375348187251261e-9,0
24970,3.4450012928792145e-9,8.705916878977928e-10,1.6564138228386935e-9,8.418812879161612e-9,4.501919760072617e-8,2.1623604262293544e-8,6.870449483302045e-9,3.3632495049001127e-9,0
24971,3.4384254645942125e-9,8.718077551438981e-10,1.6528015326810995e-9,8.367588624354338e-9,4.500910342482464e-8,2.161328179205548e-8,6.866277197867507e-9,3.3511508225489644e-9,0
24972,3.4318496363092102e-9,8.730238223900035e-10,1.6491892425235054e-9,8.316364369547063e-9,4.499900924892312e-8,2.1602959321817415e-8,6.862104912432969e-9,3.3390521401978157e-9,0
24973,3.4252738080242083e-9,8.742398896361088e-10,1.6455769523659114e-9,8.265140114739788e-9,4.4988915073021595e-8,2.159263685157935e-8,6.857932626998431e-9,3.3269534578466674e-9,0
24974,3.418697979739206e-9,8.754559568822141e-10,1.6419646622083171e-9,8.213915859932512e-9,4.4978820897120074e-8,2.1582314381341282e-8,6.853760341563892e-9,3.314854775495519e-9,0
24975,3.418697979739206e-9,8.774263169135123e-10,1.645322579500187e-9,8.21307987104366e-9,4.495065249544171e-8,2.1563838157280944e-8,6.853556530129509e-9,3.3146226516541188e-9,0
24976,3.418697979739206e-9,8.793966769448106e-10,1.648680496792057e-9,8.21224388215481e-9,4.492248409376335e-8,2.1545361933220602e-8,6.8533527186951265e-9,3.3143905278127184e-9,0
24977,3.418697979739206e-9,8.813670369761087e-10,1.652038414083927e-9,8.211407893265958e-9,4.489431569208499e-8,2.1526885709160264e-8,6.853148907260744e-9,3.314158403971318e-9,0
24978,3.418697979739206e-9,8.833373970074069e-10,1.6553963313757969e-9,8.210571904377108e-9,4.486614729040663e-8,2.1508409485099922e-8,6.852945095826361e-9,3.3139262801299177e-9,0
24979,3.418697979739206e-9,8.853077570387052e-10,1.6587542486676668e-9,8.209735915488256e-9,4.483797888872827e-8,2.148993326103958e-8,6.8527412843919775e-9,3.313694156288518e-9,0
24980,3.418697979739206e-9,8.872781170700034e-10,1.6621121659595365e-9,8.208899926599404e-9,4.480981048704991e-8,2.1471457036979243e-8,6.852537472957595e-9,3.3134620324471175e-9,0
24981,3.418697979739206e-9,8.892484771013016e-10,1.6654700832514065e-9,8.208063937710554e-9,4.478164208537155e-8,2.14529808129189e-8,6.852333661523212e-9,3.313229908605717e-9,0
24982,3.418697979739206e-9,8.912188371325999e-10,1.6688280005432764e-9,8.207227948821702e-9,4.475347368369319e-8,2.1434504588858563e-8,6.852129850088829e-9,3.312997784764317e-9,0
24983,3.418697979739206e-9,8.931891971638981e-10,1.6721859178351463e-9,8.206391959932852e-9,4.472530528201483e-8,2.141602836479822e-8,6.8519260386544465e-9,3.3127656609229165e-9,0
24984,3.4032841429004465e-9,8.944052644100034e-10,1.676869731375757e-9,8.155167705125576e-9,4.459503390375409e-8,2.139272713415093e-8,6.847753753219908e-9,3.3125335370815165e-9,0
24985,3.3878703060616865e-9,8.956213316561087e-10,1.6815535449163675e-9,8.103943450318301e-9,4.446476252549335e-8,2.1369425903503645e-8,6.84358146778537e-9,3.312301413240116e-9,0
24986,3.372456469222927e-9,8.96837398902214e-10,1.686237358456978e-9,8.052719195511026e-9,4.4334491147232616e-8,2.1346124672856356e-8,6.839409182350832e-9,3.312069289398716e-9,0
24987,3.357042632384167e-9,8.980534661483194e-10,1.6909211719975887e-9,8.00149494070375e-9,4.420421976897188e-8,2.132282344220907e-8,6.835236896916294e-9,3.3118371655573155e-9,0
24988,3.3416287955454076e-9,8.992695333944247e-10,1.6956049855381993e-9,7.950270685896475e-9,4.407394839071114e-8,2.129952221156178e-8,6.831064611481756e-9,3.311605041715915e-9,0
24989,3.3262149587066477e-9,9.0048560064053e-10,1.7002887990788099e-9,7.8990464310892e-9,4.39436770124504e-8,2.1276220980914494e-8,6.826892326047218e-9,3.311372917874515e-9,0
24990,3.310801121867888e-9,9.017016678866353e-10,1.7049726126194204e-9,7.847822176281926e-9,4.381340563418966e-8,2.1252919750267204e-8,6.822720040612679e-9,3.311140794033115e-9,0
24991,3.2953872850291287e-9,9.029177351327406e-10,1.7096564261600312e-9,7.79659792147465e-9,4.368313425592892e-8,2.1229618519619918e-8,6.818547755178141e-9,3.3109086701917146e-9,0
24992,3.280291107612955e-9,9.021634423475478e-10,1.7128069717747195e-9,7.745373666667375e-9,4.3552684207332104e-8,2.120579617713174e-8,6.814375469743603e-9,3.3117085580191346e-9,0
24993,3.265194930196782e-9,9.014091495623549e-10,1.715957517389408e-9,7.6941494118601e-9,4.342223415873529e-8,2.1181973834643564e-8,6.810203184309065e-9,3.312508445846555e-9,0
24994,3.2500987527806088e-9,9.00654856777162e-10,1.7191080630040963e-9,7.642925157052824e-9,4.3291784110138475e-8,2.1158151492155387e-8,6.806030898874527e-9,3.313308333673975e-9,0
24995,3.2350025753644356e-9,8.999005639919691e-10,1.7222586086187846e-9,7.591700902245549e-9,4.316133406154166e-8,2.113432914966721e-8,6.801858613439989e-9,3.314108221501395e-9,0
24996,3.2199063979482624e-9,8.991462712067761e-10,1.725409154233473e-9,7.540476647438274e-9,4.303088401294484e-8,2.1110506807179032e-8,6.79768632800545e-9,3.3149081093288155e-9,0
24997,3.2048102205320893e-9,8.983919784215832e-10,1.7285596998481615e-9,7.489252392630998e-9,4.2900433964348026e-8,2.1086684464690855e-8,6.793514042570912e-9,3.3157079971562355e-9,0
24998,3.1897140431159157e-9,8.976376856363904e-10,1.73171024546285e-9,7.4380281378237236e-9,4.276998391575121e-8,2.1062862122202678e-8,6.789341757136374e-9,3.316507884983656e-9,0
24999,3.180644449244879e-9,9.016030581365165e-10,1.732379361682937e-9,7.394582036209807e-9,4.262796206084676e-8,2.1042704755481914e-8,6.7325485545872805e-9,3.30786596901855e-9,0
25000,3.177245215185741e-9,9.053128909686567e-10,1.7330484779030243e-9,7.392843500839842e-9,4.25997936591684e-8,2.097293521588214e-8,6.697185111639025e-9,3.305905461984128e-9,0
25001,3.173845981126604e-9,9.09022723800797e-10,1.7337175941231114e-9,7.3911049654698766e-9,4.2571625257490044e-8,2.0903165676282366e-8,6.6618216686907686e-9,3.303944954949707e-9,0
25002,3.1704467470674662e-09,9.127325566329373e-10,1.7343867103431988e-9,7.3893664300999115e-9,4.254345685581168e-8,2.0833396136682596e-8,6.626458225742512e-9,3.3019844479152852e-9,0
25003,3.167047513008329e-9,9.164423894650775e-10,1.735055826563286e-9,7.3876278947299465e-9,4.251528845413332e-8,2.0763626597082822e-8,6.591094782794257e-9,3.300023940880864e-9,0
25004,3.1636482789491912e-9,9.201522222972177e-10,1.7357249427833732e-9,7.3858893593599815e-9,4.2487120052454964e-8,2.0693857057483048e-8,6.555731339846e-9,3.2980634338464422e-9,0
25005,3.161065457429847e-9,9.209065150824106e-10,1.7358829696948198e-9,7.382735323311177e-9,4.245683752475039e-8,2.0629063869693506e-8,6.5224755905525145e-9,3.2961374322464274e-9,0
25006,3.1582095044545713e-9,9.229138537700034e-10,1.7523048139883489e-9,7.40166176350917e-9,4.242849045273595e-8,2.0579451696814496e-8,6.4874070892870825e-9,3.294211430646412e-9,0
25007,3.1553535514792952e-9,9.249211924575962e-10,1.768726658281878e-9,7.420588203707164e-9,4.2400143380721515e-8,2.052983952393549e-8,6.4523385880216505e-9,3.2922854290463974e-9,0
25008,3.152497598504019e-9,9.269285311451889e-10,1.7851485025754071e-9,7.439514643905157e-9,4.237179630870708e-8,2.0480227351056483e-8,6.4172700867562186e-9,3.2903594274463825e-9,0
25009,3.1496416455287434e-9,9.289358698327817e-10,1.8015703468689362e-9,7.45844108410315e-9,4.234344923669264e-8,2.0430615178177472e-8,6.382201585490787e-9,3.2884334258463673e-9,0
25010,3.1467856925534673e-9,9.309432085203745e-10,1.8179921911624655e-9,7.477367524301143e-9,4.2315102164678205e-8,2.0381003005298466e-8,6.347133084225355e-9,3.2865074242463525e-9,0
25011,3.1439297395781912e-9,9.329505472079674e-10,1.8344140354559946e-9,7.496293964499138e-9,4.228675509266376e-8,2.033139083241946e-8,6.312064582959923e-9,3.2845814226463373e-9,0
25012,3.1410737866029156e-9,9.349578858955602e-10,1.8508358797495238e-9,7.51522040469713e-9,4.2258408020649325e-8,2.028177865954045e-8,6.276996081694491e-9,3.2826554210463225e-9,0
25013,3.1382178336276394e-9,9.36965224583153e-10,1.867257724043053e-9,7.534146844895124e-9,4.223006094863489e-8,2.0232166486661442e-8,6.241927580429059e-9,3.2807294194463072e-9,0
25014,3.134682033840536e-9,9.407243622903525e-10,1.876538997784238e-9,7.530992808846319e-9,4.219955882276106e-8,2.0171071812724833e-8,6.210736422915341e-9,3.2788034178462924e-9,0
25015,3.1311462340534326e-9,9.444834999975523e-10,1.8858202715254226e-9,7.527838772797515e-9,4.216905669688723e-8,2.0109977138788223e-8,6.179545265401623e-9,3.276877416246277e-9,0
25016,3.127610434266329e-9,9.482426377047518e-10,1.8951015452666077e-9,7.52468473674871e-9,4.21385545710134e-8,2.0048882464851614e-8,6.148354107887905e-9,3.2749514146462624e-9,0
25017,3.1240746344792257e-9,9.520017754119514e-10,1.9043828190077925e-9,7.521530700699906e-9,4.210805244513957e-8,1.9987787790915004e-8,6.117162950374187e-9,3.2730254130462475e-9,0
25018,3.120538834692122e-9,9.557609131191512e-10,1.9136640927489776e-9,7.5183766646511e-9,4.207755031926574e-8,1.9926693116978395e-8,6.085971792860469e-9,3.2710994114462323e-9,0
25019,3.117003034905019e-9,9.595200508263508e-10,1.9229453664901624e-9,7.515222628602296e-9,4.204704819339191e-8,1.9865598443041786e-8,6.054780635346751e-9,3.2691734098462175e-9,0
25020,3.1134672351179152e-09,9.632791885335503e-10,1.932226640231347e-9,7.512068592553492e-9,4.201654606751808e-8,1.9804503769105176e-8,6.023589477833033e-9,3.2672474082462023e-9,0
25021,3.1125142568501558e-9,9.663086858930868e-10,1.9416782770754124e-9,7.510653091874652e-9,4.184719327577912e-8,1.977704998893511e-8,6.023589477833033e-9,3.25141591603376e-9,0
25022,3.047762425718555e-9,9.613827858148413e-10,1.9452905672330067e-9,7.49636496990173e-9,4.167938896028616e-8,1.9767130823400175e-8,6.026855387281599e-9,3.2393423249175727e-9,0
25023,2.9830105945869543e-9,9.564568857365958e-10,1.9489028573906005e-9,7.48207684792881e-9,4.15115846447932e-8,1.9757211657865242e-8,6.030121296730164e-9,3.227268733801386e-9,0
25024,2.9182587634553535e-9,9.515309856583502e-10,1.9525151475481948e-9,7.467788725955889e-9,4.134378032930024e-8,1.9747292492330306e-8,6.033387206178729e-9,3.2151951426851988e-9,0
25025,2.8535069323237528e-9,9.466050855801047e-10,1.9561274377057886e-9,7.453500603982967e-9,4.1175976013807276e-08,1.9737373326795373e-8,6.036653115627295e-9,3.203121551569012e-9,0
25026,2.788755101192152e-9,9.416791855018592e-10,1.959739727863383e-9,7.439212482010046e-9,4.100817169831432e-8,1.9727454161260436e-8,6.03991902507586e-9,3.191047960452825e-9,0
25027,2.7240032700605513e-9,9.367532854236136e-10,1.963352018020977e-9,7.4249243600371255e-9,4.084036738282136e-8,1.97175349957255e-8,6.043184934524425e-9,3.178974369336638e-9,0
25028,2.6593880046569165e-9,9.280559214194035e-10,1.9578410613488327e-9,7.433483921702426e-9,4.067471812118779e-8,1.970175977928368e-8,6.0443862521932215e-9,3.1666341489446444e-9,0
25029,2.5946361735253157e-9,9.201005239816215e-10,1.9578410613488327e-9,7.429427339172507e-9,4.0512999327713186e-8,1.9685984562841862e-8,6.0455875698620186e-9,3.1545260523940508e-9,0
25030,2.529884342393715e-9,9.121451265438394e-10,1.9578410613488327e-9,7.425370756642589e-9,4.035128053423859e-8,1.9670209346400044e-8,6.046788887530816e-9,3.1424179558434575e-9,0
