time,channel1,channel2,channel3,channel4,channel5,channel6,channel7,channel8,class
42893,1.6302030511611527e-9,5.066209583863195e-9,2.2605096479844284e-8,3.4361482019438353e-7,2.2567160774136123e-7,9.228886125383228e-8,8.671510291593242e-9,2.2430804299649678e-9,0
42894,1.6069212917261055e-9,4.96984786609613e-9,2.1607722900531563e-8,3.4080087224328477e-7,2.286963216873582e-7,9.442199951276601e-8,8.731370267181696e-9,2.232321622117197e-9,0
42895,1.5836395322910584e-9,4.873486148329065e-9,2.0610349321218845e-8,3.3798692429218606e-7,2.3172103563335516e-7,9.655513777169976e-8,8.791230242770152e-9,2.221562814269427e-9,0
42896,1.5826669787442444e-9,4.876328387216475e-9,2.0622868843690545e-8,3.3849674856739315e-7,2.3517235297742717e-7,9.879382458390373e-8,8.846492507166425e-9,2.227399873595193e-9,0
42897,1.5816944251974301e-9,4.879170626103886e-9,2.0635388366162242e-8,3.3900657284260023e-7,2.3862367032149916e-7,1.010325113961077e-7,8.901754771562697e-9,2.2332369329209594e-9,0
42898,1.5807218716506161e-9,4.882012864991297e-9,2.0647907888633942e-8,3.395163971178073e-7,2.420749876655712e-7,1.0327119820831166e-7,8.95701703595897e-9,2.239073992246726e-9,0
42899,1.579749318103802e-9,4.8848551038787075e-9,2.0660427411105642e-8,3.4002622139301446e-7,2.455263050096432e-7,1.0550988502051563e-7,9.012279300355242e-9,2.244911051572492e-9,0
42900,1.5787767645569879e-9,4.8876973427661186e-9,2.067294693357734e-8,3.4053604566822154e-7,2.489776223537152e-7,1.077485718327196e-7,9.067541564751516e-9,2.2507481108982586e-9,0
42901,1.5778042110101739e-9,4.89053958165353e-9,2.068546645604904e-8,3.4104586994342863e-7,2.5242893969778723e-7,1.0998725864492357e-7,9.122803829147789e-9,2.2565851702240247e-9,0
42902,1.5768316574633596e-9,4.89338182054094e-9,2.0697985978520737e-8,3.415556942186357e-7,2.558802570418592e-7,1.1222594545712754e-7,9.178066093544061e-9,2.262422229549791e-9,0
42903,1.5758591039165456e-9,4.896224059428351e-9,2.0710505500992437e-8,3.4206551849384285e-7,2.593315743859312e-7,1.144646322693315e-7,9.233328357940334e-9,2.2682592888755577e-9,0
42904,1.5748865503697316e-9,4.899066298315761e-9,2.0723025023464137e-8,3.4257534276904994e-7,2.6278289173000326e-7,1.1670331908153547e-7,9.288590622336606e-9,2.2740963482013238e-9,0
42905,1.5739139968229174e-9,4.901908537203172e-9,2.0735544545935834e-8,3.43085167044257e-7,2.6623420907407525e-7,1.1894200589373944e-7,9.343852886732879e-9,2.2799334075270903e-9,0
42906,1.5729414432761034e-9,4.916620664359664e-9,2.07295361341744e-8,3.4286380109881323e-7,2.6848377841473806e-7,1.1895670776173372e-7,9.341821563218279e-9,2.280262255013558e-9,0
42907,1.5719688897292891e-9,4.931332791516154e-9,2.0723527722412966e-8,3.4264243515336944e-07,2.707333477554009e-7,1.1897140962972798e-7,9.339790239703677e-9,2.2805911025000254e-9,0
42908,1.5709963361824751e-9,4.946044918672645e-9,2.0717519310651533e-8,3.424210692079256e-7,2.729829170960637e-7,1.1898611149772225e-7,9.337758916189076e-9,2.2809199499864934e-9,0
42909,1.5712157995794378e-9,4.946044918672645e-9,2.06989913764184e-8,3.42183023273936e-7,2.741426727325902e-7,1.1865407810922244e-7,9.318779588213055e-9,2.2769408888238483e-9,0
42910,1.5702432460326238e-9,4.931354568748781e-9,2.0701247452623306e-8,3.4215200678261456e-7,2.7683238767819784e-7,1.1867199334975281e-7,9.321454909027956e-9,2.2769408888238483e-9,0
42911,1.5692706924858095e-9,4.916664218824917e-9,2.070350352882821e-8,3.4212099029129314e-7,2.795221026238055e-7,1.186899085902832e-7,9.324130229842856e-9,2.2769408888238483e-9,0
42912,1.5682981389389955e-9,4.901973868901053e-9,2.070575960503312e-8,3.420899737999717e-7,2.8221181756941314e-7,1.1870782383081358e-7,9.326805550657757e-9,2.2769408888238483e-9,0
42913,1.5673255853921815e-9,4.887283518977188e-9,2.0708015681238024e-8,3.420589573086503e-7,2.849015325150208e-7,1.1872573907134395e-7,9.329480871472658e-9,2.2769408888238483e-9,0
42914,1.565245793912472e-9,4.85710786558505e-9,2.0708015681238024e-8,3.419797216275096e-7,2.852978569164945e-7,1.1869681691471022e-7,9.332156192287557e-9,2.27678194696812e-9,0
42915,1.5631660024327626e-9,4.8269322121929134e-9,2.0708015681238024e-8,3.4190048594636887e-7,2.8569418131796827e-7,1.1866789475807649e-7,9.334831513102458e-9,2.2766230051123915e-9,0
42916,1.569734571967335e-9,4.81690705657683e-9,2.0760263940938384e-8,3.4216054787337775e-7,2.8563730057678323e-7,1.1869834139615278e-7,9.366887355263182e-9,2.2806020662750366e-9,0
42917,1.576303141501907e-9,4.806881900960746e-9,2.081251220063874e-8,3.424206098003866e-7,2.855804198355982e-7,1.187287880342291e-7,9.398943197423904e-9,2.2845811274376813e-9,0
42918,1.5828717110364793e-9,4.796856745344663e-9,2.08647604603391e-8,3.4268067172739547e-7,2.855235390944132e-7,1.1875923467230539e-7,9.430999039584626e-9,2.2885601886003265e-9,0
42919,1.5894402805710516e-9,4.78683158972858e-9,2.0917008720039455e-8,3.4294073365440435e-7,2.8546665835322817e-7,1.1878968131038169e-7,9.463054881745348e-9,2.292539249762971e-9,0
42920,1.596008850105624e-9,4.7768064341124965e-9,2.0969256979739812e-8,3.4320079558141324e-7,2.854097776120432e-7,1.1882012794845798e-7,9.495110723906071e-9,2.2965183109256163e-9,0
42921,1.602577419640196e-9,4.766781278496413e-9,2.102150523944017e-8,3.434608575084221e-7,2.8535289687085815e-7,1.1885057458653428e-7,9.527166566066793e-9,2.300497372088261e-9,0
42922,1.6091459891747683e-9,4.7567561228803294e-9,2.1073753499140526e-8,3.43720919435431e-7,2.8529601612967317e-7,1.1888102122461057e-7,9.559222408227515e-9,2.304476433250906e-9,0
42923,1.6157145587093406e-9,4.746730967264246e-9,2.1126001758840883e-8,3.439809813624399e-7,2.8523913538848813e-7,1.1891146786268688e-7,9.591278250388237e-9,2.308455494413551e-9,0
42924,1.622283128243913e-9,4.736705811648163e-9,2.117825001854124e-8,3.442410432894488e-7,2.8518225464730315e-7,1.1894191450076318e-7,9.62333409254896e-9,2.312434555576196e-9,0
42925,1.6288516977784852e-9,4.72668065603208e-9,2.1230498278241597e-8,3.4450110521645766e-7,2.851253739061181e-7,1.1897236113883947e-7,9.655389934709683e-9,2.3164136167388407e-9,0
42926,1.6354202673130573e-9,4.716655500415996e-9,2.1282746537941957e-8,3.447611671434665e-7,2.8506849316493313e-7,1.1900280777691577e-7,9.687445776870405e-9,2.320392677901486e-9,0
42927,1.6419888368476296e-9,4.7066303447999126e-9,2.1334994797642314e-8,3.450212290704754e-7,2.850116124237481e-7,1.1903325441499207e-7,9.719501619031127e-9,2.3243717390641305e-9,0
42928,1.648557406382202e-9,4.69660518918383e-9,2.138724305734267e-8,3.4528129099748426e-7,2.849547316825631e-7,1.1906370105306836e-7,9.75155746119185e-9,2.3283508002267757e-9,0
42929,1.6551259759167742e-9,4.686580033567746e-9,2.1439491317043028e-8,3.4554135292449315e-7,2.8489785094137807e-7,1.1909414769114467e-7,9.783613303352572e-9,2.3323298613894204e-9,0
42930,1.6616945454513463e-9,4.676554877951663e-9,2.1491739576743385e-8,3.4580141485150203e-7,2.8484097020019303e-7,1.1912459432922097e-7,9.815669145513294e-9,2.3363089225520655e-9,0
42931,1.664382821746744e-9,4.676554877951663e-9,2.1352186147176856e-8,3.454659837073912e-7,2.8340435359673484e-7,1.1909652244293306e-7,9.821119118756797e-9,2.3363089225520655e-9,0
42932,1.6475448684082699e-9,4.6551607667859366e-9,2.1067507097363174e-8,3.454473087063766e-7,2.8335413293079875e-7,1.17545208217947e-7,9.60509390338955e-9,2.3056602578966455e-9,0
42933,1.6561932294225516e-9,4.6746382747940955e-9,2.1067857712687432e-08,3.457672066333494e-7,2.8310628355935093e-7,1.1751713633165911e-7,9.561920248467181e-9,2.3005137848688474e-9,0
42934,1.6648415904368333e-9,4.694115782802254e-9,2.1068208328011686e-8,3.460871045603222e-7,2.828584341879031e-7,1.1748906444537122e-7,9.518746593544813e-9,2.295367311841049e-9,0
42935,1.6734899514511148e-9,4.713593290810414e-9,2.1068558943335944e-8,3.46407002487295e-7,2.826105848164553e-7,1.1746099255908332e-7,9.475572938622444e-9,2.290220838813251e-9,0
42936,1.6821383124653966e-9,4.733070798818573e-9,2.1068909558660202e-8,3.4672690041426784e-7,2.8236273544500746e-7,1.1743292067279542e-7,9.432399283700075e-9,2.285074365785453e-9,0
42937,1.6832455503982918e-9,4.740950662149998e-9,2.103306945728615e-8,3.4727965477384807e-7,2.828647425204473e-7,1.1748968221228606e-7,9.359590930111473e-9,2.2767764321986842e-9,0
42938,1.6874550387329104e-9,4.746112429972756e-9,2.100718104390129e-8,3.480964658767418e-7,2.827432005721234e-7,1.1820497944990328e-7,9.316417275189104e-9,2.2681606149004593e-9,0
42939,1.691664527067529e-9,4.751274197795513e-9,2.0981292630516425e-8,3.489132769796356e-7,2.826216586237995e-7,1.1892027668752051e-7,9.273243620266735e-9,2.259544797602234e-9,0
42940,1.6958740154021476e-9,4.756435965618271e-9,2.0955404217131563e-8,3.4973008808252933e-7,2.8250011667547563e-7,1.1963557392513774e-7,9.230069965344368e-9,2.2509289803040085e-9,0
42941,1.700083503736766e-9,4.7615977334410285e-9,2.0929515803746702e-8,3.5054689918542314e-7,2.823785747271517e-7,1.2035087116275497e-7,9.186896310421999e-9,2.2423131630057836e-9,0
42942,1.7042929920713845e-9,4.7667595012637864e-9,2.090362739036184e-8,3.513637102883169e-7,2.8225703277882786e-7,1.210661684003722e-7,9.14372265549963e-9,2.2336973457075582e-9,0
42943,1.7085024804060031e-9,4.771921269086544e-9,2.087773897697698e-8,3.5218052139121064e-7,2.8213549083050396e-7,1.2178146563798941e-7,9.100549000577261e-9,2.2250815284093333e-9,0
42944,1.7127119687406217e-9,4.777083036909302e-9,2.0851850563592114e-8,3.529973324941044e-7,2.820139488821801e-7,1.2249676287560665e-7,9.057375345654892e-9,2.216465711111108e-9,0
42945,1.7169214570752403e-9,4.782244804732059e-9,2.0825962150207253e-8,3.5381414359699815e-7,2.818924069338562e-7,1.2321206011322388e-7,9.014201690732525e-9,2.2078498938128825e-9,0
42946,1.7211309454098587e-9,4.788129655594656e-9,2.0839954557675622e-8,3.545619200081403e-7,2.8201905971119555e-7,1.2402971522950191e-7,9.043582212078346e-9,2.2066824819477295e-9,0
42947,1.7250361913366331e-9,4.793291423417413e-9,2.0674816581338586e-8,3.5537396471553994e-7,2.8187906348416215e-7,1.2477308435340704e-7,9.073216910744579e-9,2.2066824819477295e-9,0
42948,1.716642167354996e-9,4.790573327908747e-9,2.0674816581338586e-8,3.5597245408208743e-7,2.8146252834521626e-7,1.254729091960623e-7,9.072381756691797e-9,2.203848905100216e-9,0
42949,1.7082481433733587e-9,4.78785523240008e-9,2.0674816581338586e-8,3.5657094344863487e-7,2.810459932062704e-7,1.2617273403871757e-7,9.071546602639015e-9,2.2010153282527025e-9,0
42950,1.6998541193917214e-9,4.785137136891414e-9,2.0674816581338586e-8,3.5716943281518236e-7,2.806294580673245e-7,1.2687255888137284e-7,9.070711448586233e-9,2.198181751405189e-9,0
42951,1.6914600954100843e-9,4.782419041382747e-9,2.0674816581338586e-8,3.577679221817298e-7,2.802129229283786e-7,1.275723837240281e-7,9.06987629453345e-9,2.1953481745576752e-9,0
42952,1.683066071428447e-9,4.779700945874081e-9,2.0674816581338586e-8,3.583664115482773e-7,2.797963877894327e-7,1.2827220856668337e-7,9.069041140480667e-9,2.192514597710162e-9,0
42953,1.6746720474468098e-9,4.776982850365414e-9,2.0674816581338586e-8,3.589649009148247e-7,2.7937985265048684e-7,1.2897203340933864e-7,9.068205986427885e-9,2.1896810208626483e-9,0
42954,1.6662780234651725e-9,4.774264754856748e-9,2.0674816581338586e-8,3.595633902813722e-7,2.7896331751154095e-7,1.296718582519939e-7,9.067370832375103e-9,2.1868474440151346e-9,0
42955,1.6578839994835354e-9,4.771546659348081e-9,2.0674816581338586e-8,3.6016187964791965e-7,2.7854678237259507e-7,1.3037168309464917e-7,9.06653567832232e-9,2.1840138671676214e-9,0
42956,1.649489975501898e-9,4.768828563839414e-9,2.0674816581338586e-8,3.6076036901446714e-7,2.781302472336492e-7,1.3107150793730443e-7,9.065700524269537e-9,2.1811802903201077e-9,0
42957,1.6410959515202608e-9,4.766110468330748e-9,2.0674816581338586e-8,3.613588583810146e-7,2.777137120947033e-7,1.317713327799597e-7,9.064865370216755e-9,2.178346713472594e-9,0
42958,1.6371408002182868e-9,4.759602720972201e-9,2.0687067148410962e-8,3.619037093525911e-7,2.775232498461655e-7,1.31874030526251e-7,9.031548242977589e-9,2.1813063408508033e-9,0
42959,1.6331856489163126e-9,4.753094973613653e-9,2.0699317715483335e-8,3.624485603241676e-7,2.7733278759762776e-7,1.3197672827254228e-7,8.998231115738425e-9,2.1842659682290125e-9,0
42960,1.6207766473094197e-9,4.745315296826116e-9,2.068513831317536e-8,3.6336482250551346e-7,2.7679272271312414e-7,1.3186015623067587e-7,8.96801544033982e-9,2.181432391381499e-9,0
42961,1.6083676457025268e-9,4.737535620038579e-9,2.067095891086739e-8,3.642810846868594e-7,2.7625265782862047e-7,1.3174358418880949e-7,8.937799764941216e-9,2.178598814533985e-9,0
42962,1.5959586440956337e-9,4.7297559432510424e-9,2.0656779508559415e-8,3.651973468682053e-7,2.7571259294411685e-7,1.3162701214694307e-7,8.9075840895426115e-09,2.175765237686472e-9,0
42963,1.5835496424887408e-9,4.7219762664635055e-9,2.0642600106251442e-8,3.661136090495512e-7,2.7517252805961323e-7,1.3151044010507669e-7,8.877368414144008e-9,2.1729316608389582e-9,0
42964,1.571140640881848e-9,4.7141965896759686e-9,2.062842070394347e-8,3.6702987123089714e-7,2.746324631751096e-7,1.3139386806321027e-7,8.847152738745403e-9,2.1700980839914446e-9,0
42965,1.5587316392749548e-9,4.706416912888432e-9,2.0614241301635496e-8,3.6794613341224306e-7,2.7409239829060594e-7,1.312772960213439e-7,8.8169370633468e-9,2.1672645071439313e-9,0
42966,1.546322637668062e-9,4.698637236100895e-9,2.060006189932752e-8,3.68862395593589e-7,2.7355233340610233e-7,1.3116072397947747e-7,8.786721387948195e-9,2.1644309302964176e-9,0
42967,1.5309959754207268e-9,4.663474051536687e-9,2.0391138983590942e-8,3.659280328115747e-7,2.6940718779364164e-7,1.3003379653467778e-7,8.685847217136527e-9,2.144354755077443e-9,0
42968,1.5308862437222454e-9,4.6645216510430454e-9,2.039809815287689e-8,3.669838845926104e-7,2.68743854189737e-7,1.2939307483831592e-7,8.649610193285665e-9,2.1335301645796065e-9,0
42969,1.5184772421153523e-9,4.6455951690262665e-9,2.0393870438558107e-8,3.67491734035459e-7,2.686219130735702e-7,1.2887264895907189e-7,8.613373169434805e-9,2.114884466062187e-9,0
42970,1.5060682405084594e-9,4.6266686870094884e-9,2.0389642724239323e-8,3.679995834783075e-7,2.684999719574034e-7,1.2835222307982788e-7,8.577136145583943e-9,2.0962387675447678e-9,0
42971,1.4936592389015665e-9,4.60774220499271e-9,2.038541500992054e-8,3.685074329211561e-7,2.683780308412366e-7,1.2783179720058384e-7,8.540899121733083e-9,2.077593069027348e-9,0
42972,1.4812502372946736e-9,4.588815722975931e-9,2.0381187295601752e-8,3.6901528236400467e-7,2.6825608972506983e-7,1.273113713213398e-7,8.504662097882221e-9,2.0589473705099286e-9,0
42973,1.4688412356877805e-9,4.569889240959153e-9,2.037695958128297e-8,3.6952313180685327e-7,2.6813414860890305e-7,1.267909454420958e-7,8.46842507403136e-9,2.040301671992509e-9,0
42974,1.4604472117061434e-9,4.5538049978297854e-9,2.0359144715193222e-8,3.6921838508414826e-7,2.6803851852347767e-7,1.2630360720240267e-7,8.430655479783104e-9,2.0216559734750894e-9,0
42975,1.448950937322783e-9,4.5458750412264175e-9,2.034002453042308e-8,3.6875375495513084e-7,2.6791616298225237e-7,1.2580555711965295e-7,8.396449779446845e-9,2.004177686822823e-9,0
42976,1.43654193571589e-9,4.53794508462305e-9,2.0488204900775077e-8,3.682159488149659e-7,2.6786521346484636e-7,1.2587623835057203e-7,8.364774155742393e-9,1.9974691717933383e-9,0
42977,1.4241329341089969e-9,4.530015128019682e-9,2.0636385271127074e-8,3.676781426748009e-7,2.6781426394744036e-7,1.2594691958149112e-7,8.333098532037942e-9,1.9907606567638534e-9,0
42978,1.411723932502104e-9,4.522085171416314e-9,2.0784565641479075e-8,3.6714033653463597e-7,2.6776331443003435e-7,1.2601760081241023e-7,8.301422908333489e-9,1.984052141734369e-9,0
42979,1.399314930895211e-9,4.514155214812945e-9,2.0932746011831073e-8,3.66602530394471e-7,2.6771236491262835e-7,1.260882820433293e-7,8.269747284629036e-9,1.9773436267048842e-9,0
42980,1.3869059292883182e-9,4.506225258209577e-9,2.108092638218307e-8,3.6606472425430605e-7,2.6766141539522234e-7,1.261589632742484e-7,8.238071660924585e-9,1.9706351116753994e-9,0
42981,1.374496927681425e-9,4.498295301606209e-9,2.1229106752535068e-8,3.655269181141411e-7,2.6761046587781634e-7,1.2622964450516748e-7,8.206396037220133e-9,1.9639265966459146e-9,0
42982,1.3620879260745322e-9,4.490365345002841e-9,2.1377287122887066e-8,3.6498911197397613e-07,2.6755951636041033e-7,1.2630032573608656e-7,8.174720413515682e-9,1.9572180816164297e-9,0
42983,1.3496789244676393e-9,4.482435388399473e-9,2.1525467493239067e-8,3.6445130583381117e-7,2.6750856684300433e-7,1.2637100696700564e-7,8.14304478981123e-9,1.950509566586945e-9,0
42984,1.3372699228607462e-9,4.4745054317961054e-9,2.1673647863591064e-8,3.639134996936462e-7,2.674576173255983e-7,1.2644168819792473e-7,8.111369166106778e-9,1.9438010515574605e-9,0
42985,1.3248609212538533e-9,4.4665754751927375e-9,2.1821828233943062e-8,3.6337569355348125e-7,2.674066678081924e-7,1.265123694288438e-7,8.079693542402326e-9,1.9370925365279757e-9,0
42986,1.3124519196469604e-9,4.45864551858937e-9,2.197000860429506e-8,3.628378874133163e-7,2.6735571829078637e-7,1.265830506597629e-7,8.048017918697873e-9,1.930384021498491e-9,0
42987,1.3000429180400675e-9,4.450715561986002e-9,2.2118188974647057e-8,3.6230008127315133e-7,2.6730476877338036e-7,1.2665373189068198e-7,8.016342294993422e-9,1.923675506469006e-9,0
42988,1.2876339164331744e-9,4.442785605382633e-9,2.2266369344999058e-8,3.617622751329864e-7,2.6725381925597436e-7,1.2672441312160106e-7,7.98466667128897e-9,1.916966991439521e-9,0
42989,1.2752249148262815e-9,4.434855648779265e-9,2.2414549715351056e-8,3.6122446899282146e-7,2.6720286973856836e-7,1.2679509435252015e-7,7.952991047584518e-9,1.9102584764100364e-9,0
42990,1.2733396340559348e-9,4.434504995875659e-9,2.25787876287051e-8,3.612535613275362e-7,2.650357035296181e-7,1.2722227057260888e-7,7.957806625051339e-9,1.913579842599746e-9,0
42991,1.2697635832246046e-9,4.42136099857536e-9,2.274478286514685e-8,3.608107431920431e-7,2.6421605216075276e-7,1.277771613369578e-7,7.965043346012649e-9,1.926026742979899e-9,0
42992,1.2661875323932741e-9,4.40821700127506e-9,2.2910778101588597e-8,3.6036792505655e-7,2.633964007918874e-7,1.2833205210130672e-7,7.972280066973959e-9,1.9384736433600514e-9,0
42993,1.2626114815619439e-9,4.395073003974761e-9,2.307677333803034e-8,3.599251069210569e-7,2.6257674942302204e-7,1.2888694286565564e-7,7.979516787935269e-9,1.9509205437402043e-9,0
42994,1.2590354307306134e-9,4.381929006674461e-9,2.324276857447209e-8,3.594822887855638e-7,2.617570980541567e-7,1.2944183363000456e-7,7.986753508896579e-9,1.963367444120357e-9,0
42995,1.2554593798992832e-9,4.368785009374161e-9,2.3408763810913836e-8,3.5903947065007074e-7,2.609374466852913e-7,1.299967243943535e-7,7.993990229857889e-9,1.9758143445005097e-9,0
42996,1.2518833290679527e-9,4.3556410120738615e-9,2.3574759047355584e-8,3.585966525145776e-7,2.6011779531642596e-7,1.3055161515870242e-7,8.001226950819197e-9,1.9882612448806622e-9,0
42997,1.2483072782366225e-9,4.342497014773562e-9,2.374075428379733e-8,3.581538343790845e-7,2.592981439475606e-7,1.3110650592305134e-7,8.008463671780507e-9,2.0007081452608147e-9,0
42998,1.244731227405292e-9,4.329353017473263e-9,2.3906749520239076e-8,3.5771101624359145e-7,2.5847849257869524e-7,1.3166139668740026e-7,8.015700392741817e-9,2.0131550456409676e-9,0
42999,1.2411551765739617e-9,4.316209020172963e-9,2.4072744756680824e-8,3.5726819810809834e-7,2.576588412098299e-7,1.3221628745174917e-7,8.022937113703127e-9,2.02560194602112e-9,0
43000,1.2375791257426313e-9,4.303065022872664e-9,2.423873999312257e-8,3.5682537997260523e-7,2.568391898409645e-7,1.327711782160981e-7,8.030173834664437e-9,2.038048846401273e-9,0
43001,1.2375791257426313e-9,4.298301821623225e-9,2.4256765228406873e-8,3.5628559697079694e-7,2.5863302727871434e-7,1.3279545823335455e-7,8.032594978158926e-9,2.0378899045455447e-9,0
43002,1.234003074911301e-9,4.273388122597733e-9,2.4254723467228144e-8,3.557759086013047e-7,2.577488833588275e-7,1.330338566992152e-7,8.054249626949848e-9,2.037561057059077e-9,0
43003,1.2313397513035032e-9,4.2543091811628936e-9,2.4351960896560177e-8,3.5791802826823147e-7,2.574219615133508e-7,1.330226234051147e-7,8.053823495924187e-9,2.039238185816448e-9,0
43004,1.230367197756689e-9,4.2593707624417636e-9,2.4435611174121247e-8,3.605228597135783e-7,2.5788416709794264e-7,1.3304622921127442e-7,8.043131814188201e-9,2.0409153145738195e-9,0
43005,1.2311701932817403e-9,4.264432343720634e-9,2.4492831482301972e-8,3.632161255318536e-7,2.569758601453122e-7,1.3302863114044786e-7,8.040284539668053e-9,2.042751385186919e-9,0
43006,1.2319731888067913e-9,4.2694939249995044e-9,2.4550051790482696e-8,3.659093913501289e-7,2.560675531926817e-7,1.330110330696213e-7,8.037437265147903e-9,2.0445874558000183e-9,0
43007,1.2327761843318424e-9,4.277273601787041e-9,2.451404806862399e-8,3.675467844744609e-7,2.545955251179018e-7,1.3299593428854506e-7,8.036158872070921e-9,2.0469003519803032e-09,0
43008,1.2335791798568937e-9,4.2962000838038195e-9,2.4571268376804716e-8,3.696082478481244e-7,2.531207193655557e-7,1.332621439151717e-7,8.051557198136408e-9,2.0487364225934026e-9,0
43009,1.2343821753819448e-9,4.3151265658205976e-9,2.4628488684985437e-8,3.716697112217879e-7,2.5164591361320967e-7,1.335283535417983e-7,8.066955524201895e-9,2.0505724932065024e-9,0
43010,1.2351851709069958e-9,4.3340530478373765e-9,2.468570899316616e-8,3.7373117459545137e-7,2.501711078608636e-7,1.3379456316842495e-7,8.082353850267383e-9,2.0524085638196018e-9,0
43011,1.2359881664320471e-9,4.3529795298541546e-09,2.4742929301346886e-8,3.757926379691149e-7,2.486963021085175e-7,1.3406077279505156e-7,8.09775217633287e-9,2.0542446344327015e-9,0
43012,1.2367911619570982e-9,4.3719060118709335e-9,2.480014960952761e-8,3.7785410134277836e-7,2.472214963561714e-7,1.343269824216782e-7,8.113150502398357e-9,2.056080705045801e-9,0
43013,1.2375941574821493e-9,4.390832493887712e-9,2.485736991770833e-8,3.7991556471644183e-7,2.4574669060382533e-7,1.345931920483048e-7,8.128548828463844e-9,2.0579167756589003e-9,0
43014,1.2383971530072005e-9,4.40975897590449e-9,2.4914590225889056e-8,3.8197702809010536e-7,2.4427188485147924e-7,1.3485940167493142e-7,8.143947154529332e-9,2.059752846272e-9,0
43015,1.2392001485322516e-9,4.428685457921269e-9,2.497181053406978e-8,3.840384914637688e-7,2.4279707909913316e-7,1.3512561130155806e-7,8.159345480594819e-9,2.0615889168850995e-9,0
43016,1.2400031440573027e-9,4.447611939938047e-9,2.5029030842250505e-8,3.8609995483743235e-7,2.413222733467871e-7,1.3539182092818467e-7,8.174743806660306e-9,2.0634249874981993e-9,0
43017,1.2462076448607492e-9,4.44751175339416e-9,2.49877084024188e-8,3.860989008494367e-7,2.40649316423243e-7,1.3538232744519534e-7,8.179559384127127e-9,2.066927223093659e-9,0
43018,1.2524121456641958e-9,4.447411566850272e-9,2.4946385962587095e-8,3.8609784686144105e-7,2.3997635949969897e-7,1.35372833962206e-7,8.184374961593949e-9,2.070429458689119e-9,0
43019,1.2586166464676421e-9,4.447311380306385e-9,2.490506352275539e-8,3.8609679287344535e-7,2.393034025761549e-7,1.3536334047921668e-7,8.18919053906077e-9,2.0739316942845784e-9,0
43020,1.2648211472710887e-9,4.447211193762497e-9,2.4863741082923685e-8,3.860957388854497e-7,2.386304456526108e-7,1.3535384699622735e-7,8.19400611652759e-9,2.0774339298800384e-9,0
43021,1.2710256480745353e-9,4.44711100721861e-9,2.482241864309198e-8,3.8609468489745405e-7,2.379574887290668e-7,1.3534435351323802e-7,8.198821693994413e-9,2.0809361654754984e-9,0
43022,1.2772301488779816e-9,4.447010820674723e-9,2.4781096203260276e-8,3.860936309094584e-7,2.372845318055227e-7,1.353348600302487e-7,8.203637271461234e-9,2.084438401070958e-9,0
43023,1.2834346496814282e-9,4.446910634130835e-9,2.473977376342857e-8,3.8609257692146275e-7,2.3661157488197866e-7,1.3532536654725934e-7,8.208452848928054e-9,2.087940636666418e-9,0
43024,1.2896391504848747e-9,4.446810447586948e-9,2.4698451323596866e-8,3.860915229334671e-7,2.3593861795843458e-7,1.3531587306427e-7,8.213268426394875e-9,2.0914428722618775e-9,0
43025,1.295843651288321e-9,4.44671026104306e-9,2.465712888376516e-8,3.8609046894547145e-7,2.3526566103489053e-7,1.3530637958128068e-7,8.218084003861697e-9,2.0949451078573375e-9,0
43026,1.3020481520917676e-9,4.446610074499173e-9,2.4615806443933456e-8,3.860894149574758e-7,2.3459270411134645e-7,1.3529688609829135e-7,8.222899581328518e-9,2.098447343452797e-9,0
43027,1.308252652895214e-9,4.446509887955285e-9,2.457448400410175e-8,3.8608836096948015e-7,2.339197471878024e-7,1.3528739261530202e-7,8.227715158795339e-9,2.101949579048257e-9,0
43028,1.3144571536986605e-9,4.446409701411398e-9,2.4533161564270047e-8,3.860873069814845e-7,2.3324679026425835e-7,1.352778991323127e-7,8.23253073626216e-9,2.105451814643717e-9,0
43029,1.320661654502107e-9,4.44630951486751e-9,2.4491839124438342e-8,3.8608625299348886e-7,2.3257383334071427e-7,1.3526840564932336e-7,8.237346313728982e-9,2.1089540502391767e-9,0
43030,1.3268661553055534e-9,4.446209328323623e-9,2.445051668460664e-8,3.860851990054932e-7,2.3190087641717022e-7,1.3525891216633404e-7,8.242161891195803e-9,2.1124562858346367e-9,0
43031,1.333070656109e-9,4.446109141779735e-9,2.4409194244774935e-8,3.8608414501749756e-7,2.3122791949362614e-7,1.3524941868334468e-7,8.246977468662624e-9,2.1159585214300962e-09,0
43032,1.3756243081452746e-9,4.460821268936227e-9,2.436791855365313e-8,3.8678209301594624e-7,2.2995543080876807e-7,1.353291455641535e-7,8.246977468662624e-9,2.127451770675879e-9,0
43033,1.4181779601815492e-9,4.475533396092717e-9,2.4326642862531326e-8,3.8748004101439497e-7,2.2868294212391e-7,1.3540887244496235e-7,8.246977468662624e-9,2.138945019921661e-9,0
43034,1.4191505137283632e-9,4.4895246198116e-9,2.444142225672216e-8,3.905004152596138e-7,2.2765763581463797e-7,1.3462112534195435e-7,8.223046920560306e-9,2.139454736813879e-9,0
43035,1.4201230672751774e-9,4.503515843530482e-9,2.4307390022659937e-8,3.9050736251624613e-7,2.2722560798788177e-7,1.3472195261373873e-7,8.21192910779866e-9,2.1401233955618254e-9,0
43036,1.4210956208219914e-9,4.517507067249365e-9,2.4173357788597715e-8,3.9051430977287853e-7,2.2679358016112557e-7,1.3482277988552309e-7,8.200811295037013e-9,2.1407920543097717e-9,0
43037,1.4220681743688054e-9,4.5314982909682475e-9,2.4039325554535492e-8,3.905212570295109e-7,2.2636155233436937e-7,1.3492360715730747e-7,8.189693482275368e-9,2.141460713057718e-9,0
43038,1.4230407279156197e-9,4.5454895146871295e-9,2.390529332047327e-8,3.905282042861433e-7,2.259295245076132e-7,1.3502443442909185e-7,8.178575669513721e-9,2.1421293718056644e-9,0
43039,1.4240132814624337e-9,4.559480738406012e-9,2.3771261086411048e-8,3.905351515427757e-7,2.25497496680857e-7,1.351252617008762e-7,8.167457856752074e-9,2.1427980305536107e-9,0
43040,1.4249858350092479e-9,4.573471962124894e-9,2.3637228852348825e-8,3.9054209879940803e-7,2.250654688541008e-7,1.3522608897266058e-7,8.156340043990429e-9,2.143466689301557e-9,0
43041,1.425958388556062e-9,4.587463185843777e-9,2.3503196618286603e-8,3.9054904605604043e-7,2.246334410273446e-7,1.3532691624444496e-7,8.145222231228782e-9,2.1441353480495033e-9,0
43042,1.426930942102876e-9,4.601454409562659e-9,2.336916438422438e-8,3.905559933126728e-7,2.2420141320058839e-7,1.3542774351622932e-7,8.134104418467137e-9,2.1448040067974496e-9,0
43043,1.4279034956496902e-9,4.615445633281542e-9,2.3235132150162158e-8,3.905629405693052e-7,2.237693853738322e-7,1.355285707880137e-7,8.12298660570549e-9,2.145472665545396e-9,0
43044,1.4288760491965042e-9,4.6294368570004245e-9,2.3101099916099936e-8,3.905698878259376e-7,2.23337357547076e-7,1.3562939805979808e-7,8.111868792943845e-9,2.1461413242933423e-9,0
43045,1.4298486027433184e-9,4.6434280807193064e-9,2.2967067682037713e-8,3.9057683508256994e-7,2.229053297203198e-7,1.3573022533158244e-7,8.100750980182198e-9,2.146809983041288e-9,0
43046,1.4308211562901324e-9,4.657419304438189e-9,2.283303544797549e-8,3.9058378233920234e-7,2.224733018935636e-7,1.3583105260336682e-7,8.08963316742055e-9,2.1474786417892345e-9,0
43047,1.4317937098369464e-9,4.671410528157071e-9,2.269900321391327e-8,3.905907295958347e-7,2.2204127406680743e-7,1.359318798751512e-7,8.078515354658905e-9,2.148147300537181e-9,0
43048,1.4327662633837606e-9,4.685401751875954e-9,2.2564970979851046e-8,3.905976768524671e-7,2.2160924624005123e-7,1.3603270714693555e-7,8.067397541897259e-9,2.148815959285127e-9,0
43049,1.4306365665288515e-9,4.681588143191216e-9,2.259612347083576e-8,3.943678752263335e-7,2.2153935936140698e-7,1.3580431748967425e-7,8.056824394822211e-9,2.1494846180330735e-9,0
43050,1.4318285834726282e-9,4.696701016523257e-9,2.2696774157260146e-8,3.9692024481096144e-7,2.2133133353988483e-7,1.3586408259619667e-7,8.027443873476388e-9,2.1460152737626467e-9,0
43051,1.433020600416405e-9,4.711813889855297e-9,2.2797424843684532e-8,3.994726143955894e-7,2.2112330771836268e-7,1.359238477027191e-7,7.998063352130567e-9,2.1425459294922195e-9,0
43052,1.4342126173601817e-9,4.726926763187338e-9,2.2898075530108918e-8,4.020249839802173e-7,2.2091528189684053e-7,1.3598361280924152e-7,7.968682830784746e-9,2.1390765852217924e-9,0
43053,1.4354046343039586e-9,4.742039636519379e-9,2.29987262165333e-8,4.0457735356484526e-7,2.207072560753184e-7,1.3604337791576394e-7,7.939302309438923e-9,2.1356072409513656e-9,0
43054,1.4365966512477353e-9,4.757152509851419e-9,2.3099376902957687e-8,4.071297231494732e-7,2.2049923025379625e-7,1.3610314302228636e-7,7.909921788093102e-9,2.1321378966809384e-9,0
43055,1.4377886681915122e-9,4.772265383183459e-9,2.3200027589382073e-8,4.0968209273410113e-7,2.202912044322741e-7,1.361629081288088e-7,7.88054126674728e-9,2.1286685524105116e-9,0
43056,1.4389806851352889e-9,4.787378256515501e-9,2.3300678275806456e-8,4.122344623187291e-7,2.2008317861075195e-7,1.362226732353312e-7,7.851160745401458e-9,2.1251992081400845e-9,0
43057,1.4401727020790658e-9,4.802491129847541e-9,2.3401328962230842e-8,4.1478683190335705e-7,2.198751527892298e-7,1.3628243834185363e-7,7.821780224055636e-9,2.1217298638696577e-9,0
43058,1.4413647190228425e-9,4.817604003179581e-9,2.3501979648655228e-8,4.1733920148798496e-7,2.1966712696770768e-7,1.3634220344837606e-7,7.792399702709815e-9,2.1182605195992305e-9,0
43059,1.4425567359666193e-9,4.832716876511622e-9,2.3485711736458623e-8,4.1710327587480273e-7,2.1962309092309949e-7,1.363348411654156e-7,7.777546042330924e-9,2.1182605195992305e-9,0
43060,1.443748752910396e-9,4.8407971129308215e-9,2.3490461578249566e-8,4.1610294555232685e-7,2.1995741653913776e-7,1.3659527495887047e-7,7.745027758098769e-9,2.11510905904026e-9,0
43061,1.444940769854173e-9,4.84887734935002e-9,2.3495211420040506e-8,4.1510261522985093e-7,2.20291742155176e-7,1.3685570875232534e-7,7.712509473866612e-9,2.11195759848129e-9,0
43062,1.4461327867979496e-9,4.856957585769219e-9,2.349996126183145e-8,4.14102284907375e-7,2.2062606777121427e-7,1.3711614254578023e-7,7.679991189634456e-9,2.1088061379223196e-9,0
43063,1.4473248037417265e-9,4.853690643871402e-9,2.3475974363495613e-8,4.135140424146015e-7,2.2029914592573756e-7,1.3719094938792743e-7,7.677107604068534e-9,2.1096337385259943e-9,0
43064,1.4590405415220496e-9,4.850123142341923e-9,2.3475647122526305e-8,4.1406570445525033e-7,2.194794945568722e-7,1.3696038926021777e-7,7.677361781388945e-9,2.109474796670266e-9,0
43065,1.4619233285268101e-9,4.843837545303777e-9,2.3446700013204974e-8,4.132599634957143e-7,2.197991944782562e-7,1.3713055426362244e-7,7.674514506868797e-9,2.1091459491837984e-9,0
43066,1.4648061155315707e-9,4.837551948265631e-9,2.3417752903883643e-8,4.1245422253617824e-7,2.201188943996402e-7,1.3730071926702714e-7,7.671667232348647e-9,2.1088171016973304e-9,0
43067,1.4676889025363312e-9,4.831266351227485e-9,2.338880579456231e-8,4.116484815766422e-7,2.204385943210242e-7,1.3747088427043182e-7,7.668819957828497e-9,2.108488254210863e-9,0
43068,1.4705716895410919e-9,4.824980754189339e-9,2.335985868524098e-8,4.108427406171061e-7,2.207582942424082e-7,1.3764104927383651e-7,7.665972683308349e-9,2.1081594067243953e-9,0
43069,1.4617387387655292e-9,4.789270902838211e-9,2.3331238816888953e-8,4.100960229853266e-7,2.2000558383187637e-7,1.378489612299318e-7,7.620114106047463e-9,2.08867514382829e-9,0
43070,1.4529057879899666e-9,4.753561051487083e-9,2.3302618948536926e-8,4.093493053535471e-7,2.1925287342134452e-7,1.3805687318602712e-7,7.574255528786576e-9,2.069190880932185e-9,0
43071,1.444072837214404e-9,4.717851200135955e-9,2.3273999080184904e-8,4.0860258772176763e-7,2.1850016301081268e-7,1.382647851421224e-7,7.52839695152569e-9,2.04970661803608e-9,0
43072,1.4352398864388413e-9,4.682141348784827e-9,2.3245379211832877e-8,4.078558700899881e-7,2.1774745260028084e-7,1.384726970982177e-7,7.482538374264803e-9,2.0302223551399746e-9,0
43073,1.424716165602295e-9,4.656482789486869e-9,2.3245706452802182e-8,4.0717560916905357e-7,2.1598594174511014e-7,1.383326781356783e-7,7.436643485958144e-9,2.0132208940548938e-9,0
43074,1.4124168956938834e-9,4.614938180545089e-9,2.3203285117653016e-8,4.065921111442241e-7,2.1407809664267637e-7,1.3817057232425748e-7,7.391211039722918e-9,1.999573690484555e-9,0
43075,1.4001176257854719e-9,4.5733935716033085e-9,2.3160863782503847e-8,4.060086131193947e-7,2.1217025154024257e-7,1.3800846651283668e-7,7.345778593487692e-9,1.9859264869142162e-9,0
43076,1.3878183558770601e-9,4.531848962661527e-9,2.311844244735468e-8,4.0542511509456526e-7,2.102624064378088e-7,1.3784636070141585e-7,7.300346147252467e-9,1.9722792833438775e-9,0
43077,1.3755190859686485e-9,4.490304353719747e-9,2.3076021112205513e-8,4.0484161706973586e-7,2.08354561335375e-7,1.3768425488999504e-7,7.254913701017241e-9,1.9586320797735387e-9,0
43078,1.363219816060237e-9,4.448759744777967e-9,2.3033599777056347e-8,4.042581190449064e-7,2.064467162329412e-7,1.3752214907857423e-7,7.209481254782015e-9,1.9449848762032e-9,0
43079,1.3509205461518254e-9,4.407215135836186e-9,2.2991178441907178e-8,4.03674621020077e-7,2.0453887113050743e-7,1.373600432671534e-7,7.1640488085467894e-9,1.931337672632861e-9,0
43080,1.3386212762434136e-9,4.365670526894405e-9,2.2948757106758012e-8,4.0309112299524755e-7,2.0263102602807363e-7,1.371979374557326e-7,7.1186163623115636e-9,1.9176904690625223e-9,0
43081,1.326322006335002e-9,4.324125917952625e-9,2.2906335771608843e-8,4.0250762497041815e-7,2.0072318092563984e-7,1.3703583164431176e-7,7.0731839160763385e-9,1.9040432654921836e-9,0
43082,1.3140227364265905e-9,4.282581309010844e-9,2.2863914436459678e-8,4.019241269455887e-7,1.9881533582320606e-7,1.3687372583289096e-7,7.027751469841113e-9,1.8903960619218448e-9,0
43083,1.301723466518179e-9,4.241036700069064e-9,2.282149310131051e-8,4.013406289207593e-7,1.9690749072077227e-7,1.3671162002147015e-7,6.982319023605887e-9,1.876748858351506e-9,0
43084,1.2894241966097674e-9,4.199492091127283e-9,2.2779071766161343e-8,4.0075713089592984e-7,1.9499964561833847e-7,1.3654951421004932e-7,6.936886577370661e-9,1.8631016547811672e-9,0
43085,1.2771249267013556e-9,4.157947482185503e-9,2.2736650431012174e-8,4.0017363287110044e-7,1.930918005159047e-7,1.3638740839862851e-7,6.891454131135436e-9,1.8494544512108283e-9,0
43086,1.264825656792944e-9,4.116402873243722e-9,2.2694229095863005e-8,3.99590134846271e-7,1.911839554134709e-7,1.362253025872077e-7,6.84602168490021e-9,1.8358072476404897e-9,0
43087,1.2531099190126209e-9,4.075631440613724e-9,2.264955168450893e-8,3.9921772714490956e-7,1.8943719231067936e-7,1.363378563820455e-7,6.801731989082491e-9,1.820630893393497e-9,0
43088,1.2413941812322977e-9,4.034860007983726e-9,2.2604874273154857e-8,3.9884531944354813e-7,1.876904292078878e-7,1.364504101768833e-7,6.757442293264772e-9,1.8054545391465045e-9,0
43089,1.2298979068489372e-9,3.99398838880984e-9,2.2556421151889305e-8,3.9815589714711925e-7,1.8697775038655658e-7,1.3697868664514603e-7,6.714430990524035e-9,1.7859702762503994e-9,0
43090,1.2184016324655767e-9,3.953116769635954e-9,2.2507968030623753e-8,3.974664748506903e-7,1.8626507156522532e-7,1.3750696311340878e-7,6.671419687783298e-9,1.7664860133542943e-9,0
43091,1.2069053580822164e-9,3.912245150462069e-9,2.2459514909358202e-8,3.9677705255426145e-7,1.855523927438941e-7,1.380352395816715e-7,6.6284083850425605e-9,1.7470017504581892e-9,0
43092,1.195409083698856e-9,3.871373531288183e-9,2.241106178809265e-8,3.960876302578325e-7,1.8483971392256285e-7,1.3856351604993425e-7,6.585397082301824e-9,1.7275174875620841e-9,0
43093,1.1710300072789952e-9,3.808881291423709e-9,2.235538843380507e-8,3.9459689073006966e-7,1.821445223881379e-7,1.3860414815712858e-7,6.449753342420063e-9,1.6864059712203284e-9,0
43094,1.1661771604930066e-9,3.7894037834155496e-9,2.2313656792444337e-8,3.942215651425917e-7,1.8294149935500345e-7,1.3882751593569302e-7,6.43497230413272e-9,1.6797742026159202e-9,0
43095,1.161324313707018e-9,3.769926275407391e-9,2.2271925151083604e-8,3.9384623955511375e-7,1.8373847632186898e-7,1.3905088371425745e-7,6.420191265845375e-9,1.673142434011512e-9,0
43096,1.1564714669210294e-9,3.750448767399232e-9,2.223019350972287e-8,3.9347091396763574e-7,1.845354532887345e-7,1.392742514928219e-7,6.405410227558032e-9,1.6665106654071038e-9,0
43097,1.1516186201350408e-9,3.730971259391072e-9,2.2188461868362138e-8,3.930955883801578e-7,1.8533243025560006e-7,1.3949761927138636e-7,6.390629189270688e-9,1.6598788968026956e-9,0
43098,1.1467657733490522e-9,3.711493751382913e-9,2.2146730227001405e-8,3.9272026279267983e-7,1.8612940722246559e-7,1.397209870499508e-7,6.375848150983345e-9,1.6532471281982874e-9,0
43099,1.1419129265630636e-9,3.692016243374754e-9,2.2104998585640672e-8,3.923449372052019e-7,1.869263841893311e-7,1.3994435482851523e-7,6.361067112696001e-9,1.6466153595938792e-9,0
43100,1.137060079777075e-9,3.6725387353665945e-9,2.206326694427994e-8,3.919696116177239e-7,1.8772336115619667e-7,1.4016772260707967e-7,6.346286074408657e-9,1.639983590989471e-9,0
43101,1.1322072329910864e-9,3.6530612273584352e-9,2.2021535302919206e-8,3.9159428603024597e-7,1.885203381230622e-7,1.403910903856441e-7,6.331505036121313e-9,1.6333518223850628e-9,0
43102,1.1273543862050978e-9,3.633583719350276e-9,2.1979803661558473e-8,3.91218960442768e-7,1.8931731508992772e-7,1.4061445816420854e-7,6.31672399783397e-9,1.6267200537806546e-9,0
43103,1.1225015394191091e-9,3.614106211342117e-9,2.193807202019774e-8,3.9084363485529006e-7,1.9011429205679327e-7,1.4083782594277298e-7,6.301942959546626e-9,1.6200882851762464e-9,0
43104,1.1176486926331205e-9,3.5946287033339577e-9,2.1896340378837007e-8,3.904683092678121e-7,1.909112690236588e-7,1.4106119372133742e-7,6.287161921259282e-9,1.6134565165718382e-9,0
43105,1.112795845847132e-9,3.5751511953257984e-9,2.1854608737476273e-8,3.9009298368033415e-7,1.9170824599052435e-7,1.4128456149990186e-7,6.272380882971938e-9,1.60682474796743e-9,0
43106,1.1079429990611433e-9,3.555673687317639e-9,2.181287709611554e-8,3.8971765809285615e-7,1.9250522295738988e-7,1.415079292784663e-7,6.257599844684595e-9,1.6001929793630218e-9,0
43107,1.108162462458106e-9,3.552530888798566e-9,2.1812117279262254e-8,3.89638083521148e-7,1.9323551277684364e-7,1.4214964908233214e-7,6.255314343849582e-9,1.6000230737322824e-9,0
43108,1.1083819258550686e-9,3.549388090279493e-9,2.1811357462408968e-8,3.8955850894943986e-7,1.9396580259629743e-7,1.42791368886198e-7,6.253028843014569e-9,1.599853168101543e-9,0
43109,1.10352907906908e-9,3.5198854266552506e-9,2.14318609805876e-8,3.871749619962983e-7,1.9520076954150222e-7,1.4345573686167823e-7,6.255912428580491e-9,1.5955452594524305e-9,0
43110,1.1271400335995712e-9,3.5706841945035623e-9,2.1184292439613336e-8,3.847484801674166e-7,1.951960659223103e-7,1.4338714143493468e-7,6.266168377767199e-9,1.6121520904009784e-9,0
43111,1.1222871868135826e-9,3.5424033670363653e-9,2.0816672535185137e-8,3.8233140858326666e-7,1.9529141209575552e-7,1.4331766751575433e-7,6.2734681192964375e-9,1.608014087382605e-9,0
43112,1.1187360886698522e-9,3.527713017112501e-9,2.0457009306277295e-8,3.798855270732082e-7,1.9526916778940268e-7,1.4324819359657399e-7,6.2734681192964375e-9,1.6057121549773313e-9,0
43113,1.1151849905261216e-9,3.513022667188637e-9,2.0097346077369457e-8,3.774396455631497e-7,1.952469234830498e-7,1.4317871967739364e-7,6.2734681192964375e-9,1.6034102225720576e-9,0
43114,1.1116338923823912e-9,3.4983323172647725e-9,1.973768284846162e-8,3.749937640530912e-7,1.9522467917669695e-7,1.431092457582133e-7,6.2734681192964375e-9,1.601108290166784e-9,0
43115,1.1080827942386606e-9,3.483641967340908e-9,1.9378019619553778e-8,3.725478825430327e-7,1.9520243487034408e-7,1.4303977183903294e-7,6.2734681192964375e-9,1.5988063577615102e-9,0
43116,1.1045316960949302e-9,3.468951617417044e-9,1.901835639064594e-8,3.701020010329742e-7,1.9518019056399123e-7,1.429702979198526e-7,6.2734681192964375e-9,1.5965044253562363e-9,0
43117,1.1009805979511996e-9,3.4542612674931796e-9,1.8658693161738102e-8,3.6765611952291574e-7,1.9515794625763835e-7,1.4290082400067224e-7,6.2734681192964375e-9,1.5942024929509626e-9,0
43118,1.0974294998074692e-9,3.4395709175693156e-9,1.8299029932830264e-8,3.6521023801285726e-7,1.9513570195128548e-7,1.428313500814919e-7,6.2734681192964375e-9,1.5919005605456888e-9,0
43119,1.0938784016637386e-9,3.424880567645451e-9,1.7939366703922423e-8,3.627643565027988e-7,1.9511345764493263e-7,1.4276187616231154e-7,6.2734681192964375e-9,1.5895986281404151e-9,0
43120,1.0903273035200082e-9,3.410190217721587e-9,1.7579703475014585e-8,3.6031847499274025e-7,1.9509121333857976e-7,1.426924022431312e-7,6.2734681192964375e-9,1.5872966957351414e-9,0
43121,1.0867762053762778e-9,3.3954998677977228e-9,1.7220040246106747e-8,3.578725934826818e-7,1.950689690322269e-7,1.4262292832395084e-7,6.2734681192964375e-9,1.5849947633298677e-9,0
43122,1.088880949543587e-9,3.4102119949542137e-9,1.7224080965585927e-8,3.552762531851435e-7,1.9451882104475135e-7,1.4115479237990498e-7,6.240114681011499e-9,1.586162175195021e-9,0
43123,1.0894644816716755e-9,3.411483924383203e-9,1.7223893970746323e-8,3.5340451593694395e-7,1.9436394613888762e-7,1.3968627669653956e-7,6.20676124272656e-9,1.585652458302803e-9,0
43124,1.0891602392638312e-9,3.414326163270614e-9,1.721674780662077e-8,3.508496334212621e-7,1.93820634924759e-7,1.3831026284328842e-7,6.173979179650375e-9,1.585652458302803e-9,0
43125,1.088855996855987e-9,3.4171684021580245e-9,1.720960164249522e-8,3.482947509055802e-7,1.9327732371063033e-7,1.3693424899003728e-7,6.14119711657419e-9,1.585652458302803e-9,0
43126,1.088551754448143e-9,3.420010641045435e-9,1.720245547836967e-8,3.457398683898984e-7,1.927340124965017e-7,1.3555823513678614e-7,6.1084150534980045e-9,1.585652458302803e-9,0
43127,1.0882475120402988e-9,3.422852879932846e-9,1.7195309314244117e-8,3.431849858742165e-7,1.9219070128237307e-7,1.34182221283535e-7,6.075632990421819e-9,1.585652458302803e-9,0
43128,1.0879432696324547e-9,3.425695118820257e-9,1.7188163150118568e-8,3.4063010335853465e-7,1.9164739006824445e-7,1.3280620743028386e-7,6.0428509273456335e-9,1.585652458302803e-9,0
43129,1.0876390272246105e-9,3.4285373577076675e-9,1.7181016985993015e-8,3.380752208428528e-7,1.9110407885411582e-7,1.3143019357703272e-7,6.010068864269448e-9,1.585652458302803e-9,0
43130,1.0873347848167664e-9,3.4313795965950786e-9,1.7173870821867466e-8,3.355203383271709e-7,1.905607676399872e-7,1.3005417972378158e-7,5.9772868011932626e-9,1.585652458302803e-9,0
43131,1.0870305424089223e-9,3.4342218354824892e-9,1.7166724657741914e-8,3.3296545581148904e-7,1.9001745642585856e-7,1.2867816587053043e-7,5.944504738117077e-9,1.585652458302803e-9,0
43132,1.086726300001078e-9,3.433398565898763e-9,1.7152880388066493e-8,3.3084961194466423e-7,1.8950045624247132e-7,1.272534895414616e-7,5.915993586821116e-9,1.5872966957351414e-9,0
43133,1.0864220575932338e-9,3.4325752963150372e-9,1.7139036118391076e-8,3.2873376807783943e-7,1.889834560590841e-7,1.258288132123928e-7,5.887482435525155e-9,1.5889409331674798e-9,0
43134,1.0861178151853896e-9,3.431752026731311e-9,1.7125191848715655e-8,3.2661792421101463e-7,1.8846645587569688e-7,1.2440413688332394e-7,5.858971284229193e-9,1.5905851705998182e-9,0
43135,1.0858135727775455e-9,3.430928757147585e-9,1.7111347579040234e-8,3.2450208034418983e-7,1.8794945569230967e-7,1.2297946055425512e-7,5.830460132933232e-9,1.5922294080321566e-9,0
43136,1.0855093303697014e-9,3.430105487563859e-9,1.7097503309364817e-8,3.2238623647736503e-07,1.8743245550892245e-7,1.215547842251863e-7,5.80194898163727e-9,1.593873645464495e-9,0
43137,1.0768609693554196e-9,3.421201981560934e-9,1.706394265855062e-8,3.228112535571791e-7,1.8702660057122147e-7,1.202233907002584e-7,5.7127180862266106e-9,1.593873645464495e-9,0
43138,1.0682126083411381e-9,3.4122984755580084e-9,1.703038200773643e-8,3.232362706369931e-7,1.8662074563352052e-7,1.1889199717533052e-7,5.623487190815951e-9,1.593873645464495e-9,0
43139,1.0595642473268564e-9,3.4033949695550833e-9,1.6996821356922233e-8,3.236612877168071e-7,1.8621489069581957e-7,1.1756060365040263e-7,5.534256295405291e-9,1.593873645464495e-9,0
43140,1.0509158863125746e-9,3.3944914635521582e-9,1.696326070610804e-8,3.2408630479662117e-7,1.8580903575811862e-7,1.1622921012547474e-7,5.4450253999946315e-9,1.593873645464495e-9,0
43141,1.0422675252982931e-9,3.385587957549233e-9,1.6929700055293845e-8,3.2451132187643517e-7,1.8540318082041766e-7,1.1489781660054687e-7,5.355794504583973e-9,1.593873645464495e-9,0
43142,1.0336191642840114e-9,3.376684451546308e-9,1.6896139404479652e-8,3.249363389562492e-7,1.849973258827167e-7,1.1356642307561898e-7,5.266563609173313e-9,1.593873645464495e-9,0
43143,1.0243124130788417e-9,3.3648646565491716e-9,1.689737460009519e-8,3.2442989298934007e-07,1.842803570405064e-7,1.136095256492031e-7,5.26980070367335e-9,1.5905193879497526e-9,0
43144,1.015005661873672e-9,3.353044861552035e-9,1.6898609795710734e-8,3.23923447022431e-7,1.8356338819829604e-7,1.1365262822278722e-7,5.273037798173387e-9,1.5871651304350102e-9,0
43145,1.0141178873377394e-9,3.352221591968309e-9,1.6880514437361583e-8,3.2413249441976044e-7,1.8352740127440625e-7,1.1369608783776425e-7,5.245361800930207e-9,1.5801935505691234e-9,0
43146,1.015309904281516e-9,3.3552642039434946e-9,1.690925117748836e-8,3.2504922181465474e-7,1.8361264228580182e-7,1.1404192802932874e-7,5.2157271022639735e-9,1.5718956169823548e-9,0
43147,1.016501921225293e-9,3.35830681591868e-9,1.6937987917615136e-8,3.2596594920954904e-7,1.8369788329719737e-7,1.1438776822089323e-7,5.18609240359774e-9,1.5635976833955864e-9,0
43148,1.0198236350239788e-9,3.359428465531838e-9,1.692162650799873e-8,3.2570586332570534e-7,1.8396907489325244e-7,1.1439085705546743e-7,5.1536104304113565e-9,1.5578154429448747e-9,0
43149,1.0231453488226648e-9,3.3605501151449966e-9,1.6905265098382328e-8,3.254457774418616e-7,1.8424026648930753e-7,1.1439394589004164e-7,5.121128457224974e-9,1.552033202494163e-9,0
43150,1.0264670626213507e-9,3.3616717647581547e-9,1.6888903688765922e-8,3.2518569155801784e-7,1.845114580853626e-7,1.1439703472461583e-7,5.0886464840385905e-9,1.5462509620434513e-9,0
43151,1.0297887764200367e-9,3.362793414371313e-9,1.6872542279149516e-8,3.249256056741741e-7,1.8478264968141767e-7,1.1440012355919004e-7,5.056164510852208e-9,1.5404687215927398e-9,0
43152,1.0331104902187226e-9,3.363915063984471e-9,1.685618086953311e-8,3.246655197903304e-7,1.8505384127747274e-7,1.1440321239376424e-7,5.0236825376658244e-9,1.5346864811420281e-9,0
43153,1.0364322040174084e-9,3.365036713597629e-9,1.6839819459916705e-8,3.2440543390648665e-7,1.853250328735278e-7,1.1440630122833845e-7,4.991200564479442e-9,1.5289042406913164e-9,0
43154,1.0397539178160944e-9,3.3661583632107876e-9,1.6823458050300302e-8,3.241453480226429e-7,1.8559622446958287e-7,1.1440939006291265e-7,4.958718591293058e-9,1.5231220002406047e-9,0
43155,1.0430756316147803e-9,3.3672800128239456e-9,1.6807096640683896e-8,3.2388526213879915e-7,1.8586741606563794e-7,1.1441247889748685e-7,4.926236618106676e-9,1.517339759789893e-9,0
43156,1.0463973454134663e-9,3.3684016624371037e-09,1.679073523106749e-8,3.2362517625495545e-7,1.86138607661693e-7,1.1441556773206106e-7,4.893754644920292e-9,1.5115575193391813e-9,0
43157,1.0497190592121522e-9,3.369523312050262e-9,1.6774373821451085e-8,3.233650903711117e-7,1.8640979925774807e-7,1.1441865656663526e-7,4.861272671733909e-9,1.5057752788884697e-9,0
43158,1.0530407730108382e-9,3.37064496166342e-9,1.6758012411834682e-8,3.2310500448726795e-7,1.8668099085380314e-7,1.1442174540120947e-7,4.828790698547526e-9,1.499993038437758e-9,0
43159,1.056362486809524e-9,3.3717666112765786e-9,1.6741651002218277e-8,3.228449186034242e-7,1.8695218244985824e-7,1.1442483423578367e-7,4.796308725361143e-9,1.4942107979870463e-9,0
43160,1.0596842006082099e-9,3.3728882608897366e-9,1.672528959260187e-8,3.225848327195805e-7,1.872233740459133e-7,1.1442792307035787e-7,4.76382675217476e-9,1.4884285575363346e-9,0
43161,1.063005914406896e-9,3.3740099105028946e-9,1.6708928182985465e-8,3.2232474683573676e-7,1.8749456564196837e-7,1.1443101190493207e-7,4.731344778988377e-9,1.4826463170856229e-9,0
43162,1.0663276282055818e-9,3.375131560116053e-9,1.669256677336906e-8,3.22064660951893e-7,1.8776575723802344e-7,1.1443410073950628e-7,4.698862805801994e-9,1.4768640766349114e-9,0
43163,1.0696493420042678e-9,3.376253209729211e-9,1.6676205363752657e-8,3.2180457506804926e-7,1.880369488340785e-7,1.1443718957408048e-7,4.666380832615611e-9,1.4710818361841997e-9,0
43164,1.0696493420042678e-9,3.3695951825548326e-9,1.6498668682550297e-8,3.181087168947664e-7,1.8622597709224563e-7,1.1431173629197532e-7,4.65871798062864e-9,1.4710818361841997e-9,0
43165,1.072751592405991e-9,3.3418653810790164e-9,1.6370960564358735e-8,3.169699372052019e-7,1.8591826167614453e-7,1.1405567166150809e-7,4.655870706108491e-9,1.4710818361841997e-9,0
43166,1.0758538428077142e-9,3.343087217236062e-9,1.6344857835947694e-8,3.1439072119685026e-7,1.8625216565188932e-7,1.1405914023540186e-7,4.6554445750828306e-9,1.474425129923931e-9,0
43167,1.0789560932094375e-9,3.3443090533931074e-9,1.6318755107536656e-8,3.118115051884986e-7,1.865860696276341e-7,1.1406260880929565e-7,4.65501844405717e-9,1.4777684236636625e-9,0
43168,1.0820583436111607e-9,3.345530889550153e-9,1.6292652379125615e-8,3.09232289180147e-7,1.8691997360337888e-7,1.1406607738318942e-7,4.654592313031509e-9,1.481111717403394e-9,0
43169,1.0820583436111607e-9,3.344857899782258e-9,1.6274744015616064e-8,3.066408771699374e-7,1.8735255399687976e-7,1.142380453685906e-7,4.661429612489315e-9,1.4819393180070686e-9,0
43170,1.0820583436111607e-9,3.3441849100143632e-9,1.6256835652106514e-8,3.0404946515972785e-7,1.8778513439038064e-7,1.1441001335399177e-7,4.668266911947119e-9,1.4827669186107433e-9,0
43171,1.0820583436111607e-9,3.3435119202464684e-9,1.6238927288596964e-8,3.014580531495183e-7,1.8821771478388153e-7,1.1458198133939294e-7,4.6751042114049246e-9,1.483594519214418e-9,0
43172,1.0820583436111607e-9,3.342838930478573e-9,1.6221018925087413e-8,2.988666411393087e-7,1.8865029517738238e-7,1.1475394932479412e-7,4.68194151086273e-9,1.4844221198180925e-9,0
43173,1.0820583436111607e-9,3.3421659407106784e-9,1.6203110561577863e-8,2.962752291290992e-7,1.8908287557088326e-7,1.149259173101953e-7,4.688778810320535e-9,1.4852497204217672e-9,0
43174,1.0820583436111607e-9,3.3414929509427836e-9,1.6185202198068312e-8,2.9368381711888965e-7,1.8951545596438414e-7,1.1509788529559647e-7,4.69561610977834e-9,1.486077321025442e-9,0
43175,1.0820583436111607e-9,3.3408199611748888e-09,1.6167293834558762e-8,2.910924051086801e-7,1.8994803635788503e-7,1.1526985328099764e-7,4.702453409236145e-9,1.4869049216291166e-9,0
43176,1.0812553480861096e-9,3.3408199611748888e-09,1.6165630008890863e-8,2.906765915120207e-7,1.8982888817650003e-7,1.1531552323811208e-7,4.666869984209201e-9,1.4845920254488319e-9,0
43177,1.0801481101532142e-9,3.3420417973319342e-9,1.6186507516748708e-8,2.906539264860684e-7,1.8976924501496445e-7,1.1528256013652308e-7,4.631540736502669e-9,1.4822791292685472e-9,0
43178,1.079040872220319e-9,3.3432636334889797e-9,1.620738502460655e-8,2.906312614601161e-7,1.8970960185342887e-7,1.1524959703493407e-7,4.596211488796136e-9,1.4799662330882624e-9,0
43179,1.0779336342874236e-9,3.3444854696460256e-9,1.622826253246439e-8,2.906085964341638e-7,1.896499586918933e-7,1.1521663393334507e-7,4.560882241089604e-9,1.477653336907978e-9,0
43180,1.0768263963545284e-9,3.345707305803071e-9,1.6249140040322233e-8,2.905859314082115e-7,1.8959031553035769e-7,1.1518367083175606e-7,4.525552993383071e-9,1.4753404407276932e-9,0
43181,1.075719158421633e-9,3.3469291419601166e-9,1.6270017548180075e-8,2.905632663822592e-7,1.895306723688221e-7,1.1515070773016706e-7,4.490223745676539e-9,1.4730275445474085e-9,0
43182,1.0766917119684472e-9,3.352341376142593e-9,1.642222680051638e-8,2.901812033436532e-7,1.8981733252674557e-7,1.1538050225380372e-7,4.456925821484608e-9,1.4708735902228522e-9,0
43183,1.0776642655152612e-9,3.3577536103250692e-9,1.657443605285269e-8,2.897991403050472e-7,1.9010399268466903e-7,1.1561029677744038e-7,4.423627897292677e-9,1.468719635898296e-9,0
43184,1.0786368190620752e-9,3.3631658445075455e-9,1.6726645305189e-8,2.894170772664412e-7,1.903906528425925e-7,1.1584009130107704e-7,4.390329973100746e-9,1.4665656815737397e-9,0
43185,1.0796093726088894e-9,3.368578078690022e-9,1.6878854557525306e-8,2.8903501422783515e-7,1.9067731300051593e-7,1.160698858247137e-7,4.357032048908814e-9,1.4644117272491833e-9,0
43186,1.0805819261557035e-9,3.373990312872498e-9,1.7031063809861613e-8,2.8865295118922916e-7,1.909639731584394e-7,1.1629968034835035e-7,4.323734124716883e-9,1.462257772924627e-9,0
43187,1.0815544797025177e-9,3.3794025470549745e-9,1.7183273062197924e-8,2.882708881506231e-7,1.9125063331636285e-7,1.1652947487198701e-7,4.290436200524952e-9,1.4601038186000707e-9,0
43188,1.0825270332493317e-9,3.384814781237451e-9,1.733548231453423e-8,2.8788882511201713e-7,1.915372934742863e-7,1.1675926939562367e-7,4.25713827633302e-9,1.4579498642755145e-9,0
43189,1.0834995867961457e-9,3.390227015419927e-9,1.7487691566870538e-8,2.875067620734111e-7,1.9182395363220975e-7,1.1698906391926033e-7,4.223840352141089e-9,1.4557959099509582e-9,0
43190,1.08447214034296e-9,3.3956392496024035e-9,1.763990081920685e-8,2.871246990348051e-7,1.921106137901332e-7,1.1721885844289698e-7,4.190542427949158e-9,1.4536419556264018e-9,0
43191,1.0823424434880508e-9,3.3720998461520177e-9,1.77898773696932e-8,2.8721333160121906e-7,1.920023076642484e-7,1.1748161606812265e-7,4.194106321861153e-9,1.4519648268690306e-9,0
43192,1.0802127466331416e-9,3.3485604427016324e-9,1.7939853920179553e-8,2.87301964167633e-7,1.918940015383636e-7,1.1774437369334831e-7,4.197670215773149e-9,1.4502876981116594e-9,0
43193,1.0780830497782325e-9,3.325021039251247e-9,1.8089830470665905e-8,2.8739059673404704e-7,1.917856954124788e-7,1.1800713131857398e-7,4.2012341096851435e-9,1.4486105693542882e-9,0
43194,1.0759533529233233e-9,3.3014816358008614e-9,1.8239807021152254e-8,2.87479229300461e-7,1.9167738928659398e-7,1.1826988894379965e-7,4.204798003597138e-9,1.446933440596917e-9,0
43195,1.0738236560684142e-9,3.277942232350476e-9,1.8389783571638606e-8,2.87567861866875e-7,1.915690831607092e-7,1.185326465690253e-7,4.208361897509134e-9,1.4452563118395458e-9,0
43196,1.071693959213505e-9,3.2544028289000903e-9,1.8539760122124958e-8,2.8765649443328897e-7,1.914607770348244e-7,1.1879540419425097e-7,4.211925791421129e-9,1.4435791830821746e-9,0
43197,1.0695642623585958e-9,3.230863425449705e-9,1.868973667261131e-8,2.87745126999703e-7,1.9135247090893958e-7,1.1905816181947663e-7,4.215489685333124e-9,1.4419020543248034e-9,0
43198,1.06986850476644e-9,3.2329586244624202e-9,1.8598659738665283e-8,2.8756104397715085e-7,1.913980032128994e-7,1.1861397707338527e-7,4.188230217591989e-9,1.440065983711704e-9,0
43199,1.0642126624554003e-9,3.2289185062528208e-9,1.8558852986708528e-8,2.8715756228806435e-7,1.9144153246240974e-7,1.1859904270196e-7,4.171136968947476e-9,1.433604120738035e-9,0
43200,1.062437113383535e-9,3.2248783880432213e-9,1.8555459158139503e-8,2.8710153728502043e-7,1.9155131917705772e-7,1.1860583813802324e-7,4.171708344156229e-9,1.4312912245577503e-9,0
43201,1.06066156431167e-9,3.2208382698336215e-9,1.855206532957048e-8,2.8704551228197647e-7,1.916611058917057e-7,1.1861263357408649e-7,4.172279719364982e-9,1.4289783283774658e-9,0
43202,1.0588860152398046e-9,3.216798151624022e-9,1.8548671501001457e-8,2.8698948727893255e-7,1.9177089260635365e-7,1.1861942901014974e-7,4.172851094573736e-9,1.426665432197181e-9,0
43203,1.0571104661679393e-9,3.2127580334144226e-9,1.8545277672432432e-8,2.8693346227588864e-7,1.9188067932100163e-7,1.1862622444621298e-7,4.173422469782489e-9,1.4243525360168963e-9,0
43204,1.055334917096074e-9,3.2087179152048227e-9,1.854188384386341e-8,2.868774372728447e-7,1.9199046603564962e-7,1.1863301988227624e-7,4.173993844991242e-9,1.4220396398366116e-9,0
43205,1.053559368024209e-9,3.2046777969952233e-9,1.8538490015294385e-8,2.8682141226980076e-7,1.921002527502976e-7,1.1863981531833949e-7,4.174565220199996e-9,1.419726743656327e-9,0
43206,1.0517838189523436e-9,3.200637678785624e-9,1.8535096186725364e-8,2.8676538726675684e-7,1.9221003946494558e-7,1.1864661075440274e-7,4.175136595408749e-9,1.4174138474760424e-9,0
43207,1.0623075397888899e-9,3.1981678700344456e-9,1.8528970903189177e-8,2.8676538726675684e-7,1.933558512465224e-7,1.1866112551481936e-7,4.18939217105673e-9,1.4207681049907848e-9,0
43208,1.0728312606254364e-9,3.1956980612832674e-9,1.852284561965299e-8,2.8676538726675684e-7,1.9450166302809918e-7,1.1867564027523597e-7,4.20364774670471e-9,1.4241223625055272e-9,0
43209,1.0833549814619826e-9,3.1932282525320896e-9,1.85167203361168e-8,2.8676538726675684e-7,1.95647474809676e-7,1.1869015503565259e-7,4.217903322352691e-9,1.4274766200202694e-9,0
43210,1.0938787022985291e-9,3.1907584437809114e-9,1.8510595052580615e-8,2.8676538726675684e-7,1.9679328659125278e-7,1.1870466979606922e-7,4.232158898000672e-9,1.4308308775350118e-9,0
43211,1.1044024231350754e-9,3.188288635029733e-9,1.850446976904443e-8,2.8676538726675684e-7,1.9793909837282957e-7,1.1871918455648583e-7,4.246414473648652e-9,1.4341851350497542e-9,0
43212,1.102322631655366e-9,3.1842485168201337e-9,1.8498461357282996e-8,2.8645973683587205e-7,1.9800335278351774e-7,1.1887986220233504e-7,4.251583560049588e-9,1.4318722388694695e-9,0
43213,1.1002428401756567e-9,3.180208398610534e-9,1.849245294552156e-8,2.861540864049872e-7,1.9806760719420592e-7,1.1904053984818426e-7,4.2567526464505236e-9,1.429559342689185e-9,0
43214,1.0981630486959473e-9,3.1761682804009344e-9,1.8486444533760128e-8,2.858484359741024e-7,1.981318616048941e-7,1.1920121749403346e-7,4.261921732851459e-9,1.4272464465089003e-9,0
43215,1.0960832572162378e-9,3.172128162191335e-9,1.8480436121998692e-8,2.855427855432176e-7,1.9819611601558226e-7,1.1936189513988267e-7,4.267090819252395e-9,1.4249335503286155e-9,0
43216,1.0940034657365284e-9,3.1680880439817355e-9,1.847442771023726e-8,2.852371351123328e-7,1.982603704262704e-7,1.195225727857319e-7,4.272259905653331e-9,1.4226206541483308e-9,0
43217,1.091923674256819e-9,3.1640479257721357e-9,1.8468419298475824e-8,2.84931484681448e-7,1.9832462483695859e-7,1.196832504315811e-7,4.277428992054266e-9,1.4203077579680461e-9,0
43218,1.0898438827771095e-9,3.1600078075625362e-9,1.846241088671439e-8,2.8462583425056315e-7,1.9838887924764676e-7,1.198439280774303e-7,4.282598078455201e-9,1.4179948617877616e-9,0
43219,1.0877640912974001e-9,3.1559676893529368e-9,1.8456402474952955e-8,2.8432018381967836e-7,1.9845313365833493e-7,1.2000460572327952e-7,4.287767164856137e-9,1.4156819656074769e-9,0
43220,1.0856842998176909e-9,3.151927571143337e-9,1.845039406319152e-8,2.840145333887935e-7,1.9851738806902308e-7,1.2016528336912874e-7,4.2929362512570725e-9,1.4133690694271922e-9,0
43221,1.065978591213974e-9,3.0977616748533206e-9,1.845039406319152e-8,2.8117530511454246e-7,1.9763754860048528e-7,1.1956893844933056e-7,4.035925645237462e-9,1.3703612145917071e-9,0
43222,1.0638987997342646e-9,3.079656282818038e-9,1.8431632385408883e-8,2.811921689224729e-7,1.9784392476375401e-7,1.1971510133476318e-7,4.038211146072475e-9,1.3702022727359787e-9,0
43223,1.0596893113996462e-9,3.078085973359617e-9,1.843398195903359e-8,2.8126238973121056e-7,1.9793271044722467e-7,1.1910554588342768e-7,4.0040054457362155e-9,1.3618714478241775e-9,0
43224,1.0554798230650276e-9,3.0765156639011953e-9,1.84363315326583e-8,2.813326105399482e-7,1.980214961306953e-7,1.1849599043209217e-7,3.969799745399955e-9,1.353540622912376e-9,0
43225,1.051270334730409e-9,3.074945354442774e-9,1.843868110628301e-8,2.8140283134868584e-7,1.9811028181416596e-7,1.1788643498075669e-7,3.9355940450636956e-9,1.3452097980005749e-9,0
43226,1.0470608463957904e-9,3.0733750449843524e-9,1.8441030679907718e-8,2.814730521574235e-7,1.981990674976366e-7,1.1727687952942118e-7,3.901388344727435e-9,1.3368789730887737e-9,0
43227,1.0428513580611718e-9,3.0718047355259307e-9,1.8443380253532427e-8,2.815432729661611e-7,1.9828785318110727e-7,1.166673240780857e-7,3.867182644391176e-9,1.3285481481769723e-9,0
43228,1.0389461121343976e-9,3.0688623100946326e-9,1.8448344410349546e-8,2.81651511975329e-7,1.981770994746561e-7,1.1597103098020953e-7,3.832976944054915e-9,1.3220533938782706e-9,0
43229,1.0433849848140607e-9,3.090160593920932e-9,1.855462162719291e-8,2.829082951981039e-7,1.9823802405440624e-7,1.1522789496100498e-7,3.800901898846959e-9,1.323007045012641e-9,0
43230,1.0478238574937236e-9,3.1114588777472314e-9,1.8660898844036275e-8,2.841650784208788e-7,1.9829894863415638e-7,1.1448475894180043e-7,3.768826853639002e-9,1.3239606961470112e-9,0
43231,1.0522627301733868e-9,3.1327571615735304e-9,1.876717606087964e-8,2.8542186164365366e-7,1.9835987321390652e-7,1.1374162292259588e-7,3.736751808431046e-9,1.3249143472813812e-9,0
43232,1.05670160285305e-9,3.1540554453998298e-9,1.8873453277723004e-8,2.8667864486642855e-7,1.9842079779365664e-7,1.1299848690339132e-7,3.704676763223089e-9,1.3258679984157515e-9,0
43233,1.061140475532713e-9,3.1753537292261288e-9,1.897973049456637e-8,2.8793542808920343e-7,1.9848172237340679e-7,1.1225535088418677e-7,3.6726017180151323e-9,1.3268216495501218e-9,0
43234,1.0655793482123762e-9,3.196652013052428e-9,1.9086007711409733e-8,2.891922113119783e-7,1.9854264695315693e-7,1.1151221486498222e-7,3.640526672807176e-9,1.327775300684492e-9,0
43235,1.0733399346907252e-9,3.2154804881275494e-9,1.9147186778509916e-8,2.9040205046860756e-7,1.9832588893109336e-7,1.1154035484505014e-7,3.6446886514500804e-9,1.3360732342712605e-9,0
43236,1.0811005211690742e-9,3.2343089632026705e-9,1.9208365845610097e-8,2.9161188962523676e-7,1.9810913090902976e-7,1.1156849482511805e-7,3.6488506300929846e-9,1.3443711678580289e-9,0
43237,1.0888611076474234e-9,3.2531374382777913e-9,1.926954491271028e-8,2.92821728781866e-7,1.9789237288696617e-7,1.1159663480518596e-7,3.653012608735889e-9,1.3526691014447975e-9,0
43238,1.0966216941257723e-9,3.2719659133529125e-9,1.933072397981046e-8,2.940315679384952e-7,1.976756148649026e-7,1.1162477478525388e-7,3.6571745873787938e-9,1.3609670350315659e-9,0
43239,1.1043822806041213e-9,3.2907943884280337e-9,1.9391903046910645e-8,2.9524140709512446e-7,1.97458856842839e-7,1.1165291476532179e-7,3.6613365660216983e-9,1.3692649686183343e-9,0
43240,1.1121428670824703e-9,3.309622863503155e-9,1.9453082114010825e-8,2.9645124625175365e-7,1.9724209882077543e-7,1.116810547453897e-7,3.665498544664603e-9,1.3775629022051029e-9,0
43241,1.1114496032559006e-9,3.3032632163582082e-9,1.9406250015534894e-8,2.9640806628350073e-7,1.9799994335951898e-7,1.1173565133859627e-7,3.669660523307507e-9,1.3775629022051029e-9,0
43242,1.1116441139652634e-9,3.3010939672386924e-9,1.934480593886701e-8,2.960162866345219e-7,1.9900041201157778e-7,1.1172386284719667e-7,3.6738225019504117e-9,1.3692649686183343e-9,0
43243,1.1118386246746262e-9,3.2989247181191765e-9,1.9283361862199126e-8,2.9562450698554304e-7,2.000008806636366e-7,1.1171207435579708e-7,3.6779844805933162e-9,1.3609670350315659e-9,0
43244,1.112033135383989e-9,3.2967554689996607e-9,1.9221917785531243e-8,2.952327273365642e-7,2.0100134931569544e-7,1.1170028586439748e-7,3.682146459236221e-9,1.3526691014447975e-9,0
43245,1.1122276460933518e-9,3.294586219880145e-9,1.9160473708863357e-8,2.948409476875854e-7,2.0200181796775426e-7,1.116884973729979e-7,3.686308437879125e-9,1.3443711678580289e-9,0
43246,1.1124221568027148e-9,3.292416970760629e-9,1.909902963219547e-8,2.944491680386066e-7,2.030022866198131e-7,1.1167670888159831e-7,3.6904704165220296e-9,1.3360732342712605e-9,0
43247,1.1126166675120776e-9,3.290247721641113e-9,1.903758555552759e-8,2.9405738838962777e-7,2.0400275527187192e-7,1.1166492039019871e-7,3.694632395164934e-9,1.327775300684492e-9,0
43248,1.1128111782214404e-9,3.2880784725215973e-9,1.8976141478859703e-8,2.9366560874064896e-7,2.0500322392393072e-7,1.1165313189879913e-7,3.6987943738078387e-9,1.3194773670977234e-9,0
43249,1.1130056889308032e-9,3.2859092234020815e-9,1.891469740219182e-8,2.9327382909167014e-7,2.0600369257598954e-7,1.1164134340739954e-7,3.7029563524507433e-9,1.311179433510955e-9,0
43250,1.113200199640166e-9,3.2837399742825656e-9,1.8853253325523935e-8,2.928820494426913e-7,2.0700416122804837e-7,1.1162955491599994e-7,3.7071183310936475e-9,1.3028814999241866e-9,0
43251,1.1133947103495288e-9,3.28157072516305e-9,1.8791809248856052e-8,2.924902697937125e-7,2.080046298801072e-7,1.1161776642460036e-7,3.711280309736552e-9,1.2945835663374182e-9,0
43252,1.1135892210588916e-9,3.279401476043534e-9,1.8730365172188166e-8,2.920984901447337e-7,2.0900509853216602e-7,1.1160597793320077e-7,3.7154422883794566e-9,1.2862856327506496e-9,0
43253,1.1137837317682544e-9,3.277232226924018e-9,1.8668921095520284e-8,2.9170671049575487e-7,2.1000556718422485e-7,1.1159418944180117e-7,3.719604267022361e-9,1.2779876991638812e-9,0
43254,1.1139782424776172e-9,3.2750629778045023e-9,1.8607477018852398e-8,2.9131493084677605e-7,2.1100603583628365e-7,1.1158240095040159e-7,3.7237662456652658e-9,1.2696897655771128e-9,0
43255,1.11417275318698e-9,3.2728937286849864e-9,1.8546032942184516e-8,2.9092315119779724e-7,2.1200650448834247e-7,1.11570612459002e-7,3.72792822430817e-9,1.2613918319903442e-9,0
43256,1.1143672638963428e-9,3.2707244795654706e-9,1.848458886551663e-8,2.905313715488184e-7,2.130069731404013e-7,1.115588239676024e-7,3.732090202951075e-9,1.2530938984035758e-9,0
43257,1.083589175963673e-9,3.2417728419326085e-9,1.8454897422033715e-8,2.9029975771495824e-7,2.130669616561523e-7,1.1135195491359487e-7,3.6556987524032427e-9,1.1343139100832374e-9,0
43258,1.0815093844839636e-9,3.2265597820566807e-9,1.838619030946553e-8,2.8976546578880615e-7,2.1298330968752055e-7,1.1116718928096156e-7,3.6533865420460737e-9,1.1344838157139767e-9,0
43259,1.0794295930042543e-9,3.2113467221807524e-9,1.831748319689734e-8,2.892311738626541e-7,2.1289965771888878e-7,1.1098242364832826e-7,3.6510743316889046e-9,1.1346537213447161e-9,0
43260,1.0773498015245449e-9,3.1961336623048246e-9,1.8248776084329153e-8,2.88696881936502e-7,2.12816005750257e-7,1.1079765801569495e-7,3.648762121331735e-9,1.1348236269754553e-9,0
43261,1.0752700100448355e-9,3.1809206024288968e-9,1.8180068971760964e-8,2.8816259001034993e-7,2.1273235378162526e-7,1.1061289238306164e-7,3.646449910974566e-9,1.1349935326061947e-9,0
43262,1.073190218565126e-9,3.1657075425529685e-9,1.811136185919278e-8,2.876282980841979e-7,2.126487018129935e-7,1.1042812675042835e-7,3.644137700617397e-9,1.1351634382369339e-9,0
43263,1.0711104270854166e-9,3.1504944826770406e-9,1.804265474662459e-8,2.870940061580458e-7,2.1256504984436171e-7,1.1024336111779503e-7,3.6418254902602277e-9,1.1353333438676732e-9,0
43264,1.0690306356057072e-9,3.1352814228011124e-9,1.79739476340564e-8,2.8655971423189376e-7,2.1248139787572994e-7,1.1005859548516174e-7,3.6395132799030587e-9,1.1355032494984126e-9,0
43265,1.0669508441259977e-9,3.1200683629251845e-9,1.7905240521488213e-8,2.8602542230574167e-7,2.123977459070982e-7,1.0987382985252843e-7,3.6372010695458897e-9,1.1356731551291518e-9,0
43266,1.0648710526462883e-9,3.1048553030492563e-9,1.7836533408920028e-8,2.854911303795896e-7,2.1231409393846642e-7,1.0968906421989512e-7,3.6348888591887202e-9,1.1358430607598912e-9,0
43267,1.062791261166579e-9,3.0896422431733284e-9,1.776782629635184e-8,2.8495683845343754e-7,2.1223044196983465e-7,1.0950429858726182e-7,3.632576648831551e-9,1.1360129663906306e-9,0
43268,1.0607114696868696e-9,3.0744291832974006e-9,1.769911918378365e-8,2.8442254652728545e-7,2.121467900012029e-7,1.0931953295462851e-7,3.630264438474382e-9,1.1361828720213697e-9,0
43269,1.0586316782071602e-9,3.0592161234214723e-9,1.7630412071215465e-8,2.838882546011334e-7,2.1206313803257113e-7,1.0913476732199521e-7,3.6279522281172127e-9,1.1363527776521091e-9,0
43270,1.0565518867274508e-9,3.0440030635455445e-9,1.7561704958647276e-8,2.833539626749813e-7,2.1197948606393935e-7,1.089500016893619e-7,3.6256400177600437e-9,1.1365226832828483e-9,0
43271,1.0544720952477413e-9,3.0287900036696162e-9,1.7492997846079088e-8,2.828196707488292e-7,2.1189583409530758e-7,1.0876523605672859e-7,3.6233278074028747e-9,1.1366925889135877e-9,0
43272,1.0523923037680319e-9,3.0135769437936884e-9,1.742412711302625e-8,2.8219503844396753e-7,2.1157139921355477e-7,1.0855210959019451e-7,3.6204805328827252e-9,1.136862494544327e-9,0
43273,1.0503125122883225e-9,3.003525651740518e-9,1.7349294716921874e-8,2.8159013033674914e-7,2.113405303339154e-7,1.0833934016505332e-7,3.6192021398057433e-9,1.1377010589230126e-9,0
43274,1.0482327208086132e-9,2.9876396020966953e-9,1.7268547406475867e-8,2.80981462923005e-7,2.110068187268571e-7,1.082784352393026e-7,3.617923746728761e-9,1.1380299064094803e-9,0
43275,1.0461529293289038e-9,2.9717535524528723e-9,1.718780009602986e-8,2.803727955092609e-7,2.106731071197988e-7,1.0821753031355188e-7,3.616645353651779e-9,1.1383587538959479e-9,0
43276,1.0440731378491944e-9,2.955867502809049e-9,1.7107052785583852e-8,2.797641280955168e-7,2.103393955127405e-7,1.0815662538780115e-7,3.6153669605747973e-9,1.1386876013824157e-9,0
43277,1.041993346369485e-9,2.9399814531652265e-9,1.7026305475137845e-8,2.7915546068177265e-7,2.100056839056822e-7,1.0809572046205043e-7,3.614088567497815e-9,1.1390164488688834e-9,0
43278,1.0399135548897755e-9,2.9240954035214035e-9,1.694555816469184e-8,2.785467932680285e-7,2.0967197229862388e-7,1.0803481553629971e-7,3.612810174420833e-9,1.139345296355351e-9,0
43279,1.0399135548897755e-9,2.9240954035214035e-9,1.6945819228427918e-8,2.7855688608526213e-7,2.0935394409457104e-7,1.0802829739825123e-7,3.607115625380534e-9,1.1302197621649079e-9,0
43280,1.0399135548897755e-9,2.9240954035214035e-9,1.6946080292163995e-8,2.785669789024957e-7,2.0903591589051817e-7,1.0802177926020273e-7,3.6014210763402358e-9,1.1210942279744648e-9,0
43281,1.0388063169568803e-9,2.9123257017962106e-9,1.6926036670055915e-8,2.744937645604124e-7,2.0820141718399936e-7,1.0814563996708532e-7,3.6025638267577423e-9,1.1212531698301931e-9,0
43282,1.0376990790239849e-9,2.9005560000710177e-9,1.6905993047947832e-8,2.704205502183291e-7,2.0736691847748055e-7,1.0826950067396789e-7,3.6037065771752487e-9,1.1214121116859215e-9,0
43283,1.0365918410910897e-9,2.8887862983458253e-9,1.6885949425839753e-8,2.6634733587624576e-7,2.0653241977096174e-7,1.0839336138085048e-7,3.6048493275927557e-9,1.12157105354165e-9,0
43284,1.0354846031581942e-9,2.8770165966206324e-9,1.686590580373167e-8,2.622741215341625e-7,2.0569792106444293e-7,1.0851722208773307e-7,3.605992078010262e-9,1.1217299953973783e-9,0
43285,1.034377365225299e-9,2.8652468948954395e-9,1.684586218162359e-8,2.5820090719207915e-7,2.048634223579241e-7,1.0864108279461564e-7,3.6071348284277686e-09,1.1218889372531067e-9,0
43286,1.0374796156270222e-9,2.8553720190951874e-9,1.6825795185160557e-8,2.5411760003276226e-7,2.0402251656033248e-7,1.0864108279461564e-7,3.611514673345312e-9,1.1218889372531067e-9,0
43287,1.0384521691738362e-9,2.863752815146049e-9,1.68305450269515e-8,2.500486533330558e-7,2.0318161076274087e-7,1.0861497769870563e-7,3.611052231273878e-9,1.12602694027148e-9,0
43288,1.037344931240941e-9,2.8527562897326385e-9,1.68142771147549e-8,2.4601578630307203e-7,2.0251018143972532e-7,1.0858697390619775e-7,3.610589789202444e-9,1.1258570346407406e-9,0
43289,1.0362376933080456e-9,2.841759764319228e-9,1.6798009202558293e-8,2.419829192730882e-7,2.0183875211670977e-7,1.0855897011368987e-7,3.6101273471310107e-9,1.1256871290100012e-9,0
43290,1.0351304553751504e-9,2.8307632389058177e-9,1.678174129036169e-8,2.379500522431044e-7,2.0116732279369424e-7,1.0853096632118199e-7,3.609664905059577e-9,1.125517223379262e-9,0
43291,1.034023217442255e-9,2.819766713492407e-9,1.676547337816509e-8,2.3391718521312058e-7,2.004958934706787e-7,1.0850296252867412e-7,3.609202462988143e-9,1.1253473177485226e-9,0
43292,1.0329159795093598e-09,2.808770188078997e-9,1.6749205465968484e-8,2.2988431818313677e-7,1.9982446414766314e-7,1.0847495873616622e-7,3.608740020916709e-9,1.1251774121177835e-9,0
43293,1.0318087415764645e-9,2.805927949191586e-9,1.6728421455530446e-8,2.29160388123566e-7,1.9603918984096454e-7,1.0618995597784203e-7,3.5483086701195005e-9,1.119340352792017e-9,0
43294,1.0307015036435691e-9,2.803085710304175e-9,1.6707637445092404e-8,2.284364580639952e-7,1.9225391553426596e-7,1.0390495321951783e-7,3.4878773193222924e-9,1.1135032934662506e-9,0
43295,1.029594265710674e-9,2.8002434714167645e-9,1.6686853434654363e-8,2.2771252800442443e-7,1.8846864122756735e-7,1.0161995046119362e-7,3.4274459685250843e-9,1.1076662341404843e-9,0
43296,1.0284870277777785e-9,2.797401232529354e-9,1.6666069424216325e-8,2.2698859794485365e-7,1.8468336692086875e-7,9.933494770286942e-8,3.3670146177278757e-9,1.101829174814718e-9,0
43297,1.0273797898448833e-9,2.794558993641943e-9,1.6645285413778284e-8,2.2626466788528287e-7,1.8089809261417017e-7,9.704994494454521e-8,3.3065832669306676e-9,1.0959921154889515e-9,0
43298,1.0262725519119879e-9,2.791716754754532e-9,1.6624501403340246e-8,2.2554073782571206e-7,1.7711281830747156e-7,9.476494218622102e-8,3.246151916133459e-9,1.0901550561631852e-9,0
43299,1.0251653139790927e-9,2.7888745158671215e-9,1.6603717392902205e-8,2.2481680776614128e-7,1.7332754400077299e-7,9.247993942789682e-8,3.185720565336251e-9,1.0843179968374189e-9,0
43300,1.02425258675556e-9,2.784984677473353e-9,1.657889660881661e-8,2.2405679803684788e-7,1.6941538681838236e-7,9.019431890265777e-8,3.126894407027983e-9,1.0786508431423917e-9,0
43301,1.0233398595320276e-9,2.7810948390795846e-9,1.655407582473101e-8,2.2329678830755448e-7,1.6550322963599173e-7,8.790869837741873e-8,3.068068248719715e-9,1.0729836894473648e-9,0
43302,1.0224271323084952e-9,2.777205000685816e-9,1.6529255040645416e-8,2.2253677857826107e-7,1.6159107245360113e-7,8.562307785217969e-8,3.009242090411447e-9,1.0673165357523377e-9,0
43303,1.0215144050849626e-9,2.7733151622920476e-9,1.6504434256559817e-8,2.2177676884896767e-7,1.576789152712105e-7,8.333745732694064e-8,2.950415932103179e-9,1.0616493820573108e-9,0
43304,1.0206016778614302e-9,2.769425323898279e-9,1.6479613472474222e-8,2.2101675911967427e-7,1.5376675808881987e-7,8.10518368017016e-8,2.891589773794911e-9,1.0559822283622836e-9,0
43305,1.0196889506378976e-9,2.7655354855045107e-9,1.6454792688388623e-8,2.2025674939038086e-7,1.4985460090642927e-7,7.876621627646256e-8,2.8327636154866433e-9,1.0503150746672565e-9,0
43306,1.0187762234143652e-9,2.7616456471107422e-9,1.6429971904303028e-8,2.1949673966108746e-7,1.4594244372403864e-7,7.648059575122352e-8,2.7739374571783756e-9,1.0446479209722296e-9,0
43307,1.0178634961908328e-9,2.745885920447894e-9,1.6423679054450566e-8,2.1946792015244498e-7,1.4323203454505722e-7,7.641896017019418e-8,2.7724048867809813e-9,1.0444889791165012e-9,0
43308,1.0169507689673002e-9,2.730126193785045e-9,1.64173862045981e-8,2.1943910064380248e-7,1.4052162536607582e-7,7.635732458916483e-8,2.770872316383587e-9,1.0443300372607728e-9,0
43309,1.0160380417437678e-9,2.7143664671221967e-9,1.6411093354745637e-8,2.1941028113515998e-7,1.378112161870944e-7,7.62956890081355e-8,2.769339745986193e-9,1.0441710954050444e-9,0
43310,1.0151253145202351e-9,2.698606740459348e-9,1.6404800504893175e-8,2.1938146162651748e-7,1.3510080700811296e-7,7.623405342710615e-8,2.767807175588799e-9,1.044012153549316e-9,0
43311,1.0142125872967027e-9,2.682847013796499e-9,1.639850765504071e-8,2.1935264211787497e-7,1.3239039782913156e-7,7.61724178460768e-8,2.766274605191405e-9,1.0438532116935877e-9,0
43312,1.0132998600731703e-9,2.6670872871336507e-9,1.6392214805188247e-8,2.1932382260923247e-7,1.2967998865015013e-7,7.611078226504745e-8,2.7647420347940107e-9,1.0436942698378593e-9,0
43313,1.0123871328496377e-9,2.651327560470802e-9,1.6385921955335784e-8,2.1929500310058997e-7,1.269695794711687e-7,7.604914668401812e-8,2.763209464396617e-9,1.043535327982131e-9,0
43314,1.0114744056261053e-9,2.6355678338079535e-9,1.6379629105483322e-8,2.192661835919475e-7,1.2425917029218728e-7,7.598751110298877e-8,2.7616768939992226e-9,1.0433763861264025e-9,0
43315,1.0138833922012587e-9,2.6510531372762268e-9,1.6475109211727656e-8,2.2022198216062525e-7,1.2417751292265151e-7,7.599396667142152e-8,2.758575442158661e-9,1.0433763861264025e-9,0
43316,1.0162923787764122e-9,2.6665384407445e-9,1.657058931797199e-8,2.21177780729303e-7,1.2409585555311575e-7,7.600042223985427e-8,2.7554739903180997e-9,1.0433763861264025e-9,0
43317,1.0100530043372839e-9,2.661873246436719e-9,1.661382116451597e-8,2.2179428168983117e-7,1.244674033262387e-7,7.594750901357698e-8,2.7229920171317167e-9,1.0392383831080292e-9,0
43318,1.0038136298981558e-9,2.6572080521289383e-9,1.6657053011059946e-8,2.2241078265035933e-7,1.2483895109936163e-7,7.589459578729969e-8,2.6905100439453337e-9,1.035100380089656e-9,0
43319,9.975742554590275e-10,2.6525428578211574e-9,1.6700284857603924e-8,2.2302728361088746e-7,1.252104988724846e-7,7.584168256102241e-8,2.6580280707589507e-9,1.0309623770712826e-9,0
43320,9.913348810198992e-10,2.6478776635133765e-9,1.67435167041479e-8,2.2364378457141562e-7,1.2558204664560753e-7,7.578876933474512e-8,2.6255460975725677e-9,1.0268243740529093e-9,0
43321,9.85095506580771e-10,2.6432124692055957e-9,1.678674855069188e-8,2.2426028553194378e-7,1.2595359441873047e-7,7.573585610846784e-8,2.5930641243861846e-9,1.022686371034536e-9,0
43322,9.788561321416428e-10,2.6385472748978148e-9,1.6829980397235856e-8,2.2487678649247194e-7,1.2632514219185344e-7,7.568294288219055e-8,2.5605821511998016e-9,1.0185483680161627e-9,0
43323,9.726167577025147e-10,2.633882080590034e-9,1.6873212243779834e-8,2.254932874530001e-7,1.2669668996497638e-7,7.563002965591327e-8,2.5281001780134186e-9,1.0144103649977895e-9,0
43324,9.663773832633864e-10,2.629216886282253e-9,1.691644409032381e-8,2.2610978841352824e-7,1.2706823773809934e-7,7.557711642963598e-8,2.4956182048270356e-9,1.0102723619794162e-9,0
43325,9.60138008824258e-10,2.624551691974472e-9,1.695967593686779e-8,2.267262893740564e-7,1.2743978551122228e-7,7.55242032033587e-8,2.4631362316406526e-9,1.0061343589610429e-9,0
43326,9.5389863438513e-10,2.6198864976666913e-9,1.7002907783411767e-8,2.2734279033458456e-7,1.2781133328434522e-7,7.547128997708141e-8,2.4306542584542695e-9,1.0019963559426696e-9,0
43327,9.476592599460017e-10,2.6152213033589104e-9,1.7046139629955744e-8,2.2795929129511272e-7,1.281828810574682e-7,7.541837675080414e-8,2.3981722852678865e-9,9.978583529242963e-10,0
43328,9.414198855068736e-10,2.6105561090511295e-9,1.7089371476499722e-8,2.2857579225564088e-7,1.2855442883059113e-7,7.536546352452685e-8,2.365690312081503e-9,9.93720349905923e-10,0
43329,9.351805110677453e-10,2.6058909147433486e-9,1.71326033230437e-8,2.29192293216169e-7,1.2892597660371407e-7,7.531255029824957e-8,2.33320833889512e-9,9.895823468875497e-10,0
43330,9.267266607628265e-10,2.5865135932790768e-9,1.709641260634539e-8,2.2912258074328252e-7,1.2926224383196653e-7,7.52757388834472e-8,2.3021136919230387e-9,9.856032857249047e-10,0
43331,9.18382542156389e-10,2.566088672308447e-9,1.704110170487694e-8,2.2902100455265603e-7,1.2926460708447422e-7,7.520833911884425e-8,2.2724789932568047e-9,9.812953770757923e-10,0
43332,9.156942658609913e-10,2.545938174532393e-9,1.700087026869945e-8,2.287532028769177e-7,1.2927871031344217e-7,7.513417214026899e-8,2.242844294590571e-9,9.794702702377037e-10,0
43333,9.130059895655934e-10,2.525787676756339e-9,1.6960638832521962e-8,2.2848540120117937e-7,1.2929281354241012e-7,7.506000516169372e-8,2.2132095959243375e-9,9.776451633996149e-10,0
43334,9.103177132701957e-10,2.5056371789802847e-9,1.6920407396344473e-8,2.2821759952544105e-7,1.293069167713781e-7,7.498583818311847e-8,2.1835748972581035e-9,9.758200565615263e-10,0
43335,9.07629436974798e-10,2.4854866812042306e-9,1.6880175960166985e-8,2.2794979784970272e-7,1.2932102000034606e-7,7.49116712045432e-8,2.15394019859187e-9,9.739949497234377e-10,0
43336,9.049411606794003e-10,2.4653361834281765e-9,1.6839944523989496e-8,2.2768199617396442e-7,1.2933512322931404e-7,7.483750422596794e-8,2.124305499925636e-9,9.721698428853492e-10,0
43337,9.022528843840025e-10,2.4451856856521223e-9,1.6799713087812008e-8,2.274141944982261e-7,1.29349226458282e-7,7.476333724739269e-8,2.0946708012594023e-9,9.703447360472604e-10,0
43338,9.071057311699911e-10,2.436632832552803e-9,1.6795672368332828e-8,2.2691353638988032e-7,1.2861347324036236e-7,7.460433684303888e-8,2.0946708012594023e-9,9.71671089768142e-10,0
43339,9.088563275542566e-10,2.4307980749621504e-9,1.678167996086446e-8,2.2614882153822105e-7,1.285012690462064e-7,7.37868007405585e-8,2.0650361025931688e-9,9.733153272004804e-10,0
43340,9.106069239385219e-10,2.4249633173714977e-9,1.676768755339609e-8,2.2538410668656175e-7,1.2838906485205045e-7,7.296926463807811e-8,2.0354014039269348e-9,9.749595646328188e-10,0
43341,9.123575203227873e-10,2.419128559780845e-9,1.6753695145927717e-8,2.2461939183490248e-7,1.2827686065789449e-7,7.215172853559773e-8,2.005766705260701e-9,9.766038020651572e-10,0
43342,9.141081167070527e-10,2.4132938021901923e-9,1.6739702738459348e-8,2.238546769832432e-7,1.2816465646373853e-7,7.133419243311733e-8,1.976132006594467e-9,9.782480394974956e-10,0
43343,9.15858713091318e-10,2.4074590445995396e-9,1.672571033099098e-8,2.230899621315839e-7,1.2805245226958257e-7,7.051665633063695e-8,1.9464973079282336e-9,9.79892276929834e-10,0
43344,9.176093094755834e-10,2.4016242870088873e-9,1.671171792352261e-8,2.2232524727992464e-7,1.279402480754266e-7,6.969912022815656e-8,1.916862609262e-9,9.815365143621724e-10,0
43345,9.135943318503277e-10,2.404342382517554e-9,1.669057935192869e-8,2.2149208549631856e-7,1.2781630390481033e-7,6.889846811371693e-8,1.8857679622899182e-9,9.810267974699544e-10,0
43346,9.096890859235533e-10,2.400552730667673e-9,1.6660771036671023e-8,2.2068468463815654e-7,1.2786445244545392e-7,6.825278098284007e-8,1.853712120129196e-9,9.803581387220081e-10,0
43347,9.063673721248674e-10,2.394667879805076e-9,1.663701788188469e-8,2.1999173854498082e-7,1.2786445244545392e-7,6.762698693120005e-8,1.821765211105793e-9,9.795195743433226e-10,0
43348,9.030456583261814e-10,2.38878302894248e-9,1.6613264727098362e-8,2.1929879245180507e-7,1.2786445244545392e-7,6.700119287956e-8,1.7898183020823902e-9,9.78681009964637e-10,0
43349,8.997239445274956e-10,2.3828981780798837e-9,1.658951157231203e-8,2.1860584635862932e-7,1.2786445244545392e-7,6.637539882791996e-8,1.7578713930589872e-9,9.778424455859514e-10,0
43350,8.964022307288096e-10,2.377013327217287e-9,1.6565758417525697e-8,2.179129002654536e-7,1.2786445244545392e-7,6.574960477627992e-8,1.7259244840355843e-9,9.770038812072657e-10,0
43351,8.930805169301237e-10,2.371128476354691e-9,1.6542005262739368e-8,2.1721995417227785e-7,1.2786445244545392e-7,6.512381072463988e-8,1.6939775750121813e-9,9.761653168285802e-10,0
43352,8.897588031314378e-10,2.365243625492094e-9,1.6518252107953036e-8,2.165270080791021e-7,1.2786445244545392e-7,6.449801667299986e-8,1.6620306659887785e-9,9.753267524498947e-10,0
43353,8.864370893327518e-10,2.359358774629498e-9,1.6494498953166704e-8,2.1583406198592637e-7,1.2786445244545392e-7,6.387222262135981e-8,1.6300837569653754e-9,9.74488188071209e-10,0
43354,8.831153755340659e-10,2.3534739237669018e-9,1.647074579838037e-8,2.1514111589275063e-07,1.2786445244545392e-7,6.324642856971977e-8,1.5981368479419726e-9,9.736496236925235e-10,0
43355,8.797936617353799e-10,2.347589072904305e-9,1.6446992643594042e-8,2.1444816979957488e-7,1.2786445244545392e-7,6.262063451807973e-8,1.5661899389185696e-9,9.728110593138378e-10,0
43356,8.764719479366941e-10,2.341704222041709e-9,1.642323948880771e-8,2.1375522370639915e-7,1.2786445244545392e-7,6.19948404664397e-8,1.5342430298951668e-9,9.719724949351523e-10,0
43357,8.731502341380082e-10,2.3358193711791127e-9,1.6399486334021377e-8,2.130622776132234e-7,1.2786445244545392e-7,6.136904641479966e-8,1.5022961208717637e-9,9.711339305564666e-10,0
43358,8.698285203393222e-10,2.329934520316516e-9,1.637573317923505e-8,2.1236933152004765e-7,1.2786445244545392e-7,6.074325236315962e-8,1.470349211848361e-9,9.70295366177781e-10,0
43359,8.620679338609731e-10,2.329934520316516e-9,1.6333436607523878e-8,2.1163497832076738e-7,1.275120721319219e-7,6.052535982055591e-8,1.4703129008025879e-9,9.636635975733729e-10,0
43360,8.543073473826241e-10,2.329934520316516e-9,1.629114003581271e-8,2.109006251214871e-7,1.2715969181838987e-7,6.03074672779522e-8,1.4702765897568146e-9,9.570318289689647e-10,0
43361,8.550006112091939e-10,2.3312064497455054e-9,1.627527343348189e-8,2.097948607124374e-7,1.2715691414082369e-7,6.03088445235062e-8,1.4671388268704802e-9,9.56193264590279e-10,0
43362,8.556938750357637e-10,2.332478379174495e-9,1.6259406831151067e-8,2.086890963033877e-7,1.271541364632575e-7,6.031022176906019e-8,1.4640010639841457e-9,9.553547002115935e-10,0
43363,8.563871388623336e-10,2.3337503086034843e-9,1.6243540228820245e-8,2.0758333189433799e-7,1.2715135878569132e-7,6.031159901461417e-8,1.4608633010978112e-9,9.545161358329078e-10,0
43364,8.570804026889033e-10,2.3350222380324733e-9,1.6227673626489423e-8,2.0647756748528828e-7,1.2714858110812514e-7,6.031297626016815e-8,1.4577255382114766e-9,9.536775714542223e-10,0
43365,8.577736665154732e-10,2.3362941674614627e-9,1.6211807024158605e-8,2.0537180307623857e-7,1.2714580343055896e-7,6.031435350572215e-8,1.4545877753251421e-9,9.528390070755366e-10,0
43366,8.584669303420429e-10,2.337566096890452e-9,1.6195940421827783e-8,2.0426603866718884e-7,1.2714302575299278e-7,6.031573075127613e-8,1.4514500124388077e-9,9.52000442696851e-10,0
43367,8.591601941686128e-10,2.3388380263194415e-9,1.6180073819496962e-8,2.0316027425813913e-7,1.271402480754266e-7,6.031710799683012e-8,1.4483122495524732e-9,9.511618783181654e-10,0
43368,8.610454749389593e-10,2.338064850007659e-9,1.6173254896340717e-8,2.0201438367266792e-7,1.2715157362682837e-7,6.042856244539828e-8,1.4456369287375724e-9,9.503233139394799e-10,0
43369,8.629307557093059e-10,2.3372916736958766e-9,1.6166435973184473e-8,2.008684930871967e-7,1.2716289917823017e-7,6.054001689396642e-8,1.4429616079226718e-9,9.494847495607944e-10,0
43370,8.648160364796525e-10,2.3365184973840943e-9,1.6159617050028228e-8,1.9972260250172547e-7,1.2717422472963195e-7,6.065147134253457e-8,1.440286287107771e-9,9.486461851821087e-10,0
43371,8.667013172499991e-10,2.335745321072312e-9,1.6152798126871984e-8,1.9857671191625426e-7,1.2718555028103375e-7,6.076292579110273e-8,1.4376109662928705e-9,9.478076208034232e-10,0
43372,8.685865980203457e-10,2.3349721447605298e-9,1.614597920371574e-8,1.9743082133078302e-7,1.2719687583243552e-7,6.087438023967088e-8,1.43493564547797e-9,9.469690564247375e-10,0
43373,8.704718787906922e-10,2.3341989684487475e-9,1.6139160280559495e-8,1.962849307453118e-7,1.2720820138383732e-7,6.098583468823903e-8,1.4322603246630691e-9,9.46130492046052e-10,0
43374,8.723571595610389e-10,2.3334257921369652e-9,1.613234135740325e-8,1.951390401598406e-7,1.272195269352391e-7,6.109728913680719e-8,1.4295850038481686e-9,9.452919276673662e-10,0
43375,8.702274627061297e-10,2.329810376937772e-9,1.613910958601797e-8,1.9480574573992294e-7,1.2720454145589948e-7,6.117565594582442e-8,1.4284422534306619e-9,9.444533632886807e-10,0
43376,8.712000162529438e-10,2.318040675212579e-9,1.6147183133313084e-8,1.946323347263177e-7,1.2721628143235977e-7,6.126473459789827e-8,1.4237356091011603e-9,9.424473870448418e-10,0
43377,8.730852970232904e-10,2.3062709734873866e-9,1.5987956125486055e-8,1.9453209972386e-7,1.2715661538500076e-7,6.078508193630331e-8,1.4164988881398503e-9,9.296716391782215e-10,0
43378,8.74970577793637e-10,2.2945012717621937e-9,1.582872911765903e-8,1.9443186472140233e-7,1.2709694933764178e-7,6.030542927470837e-8,1.4092621671785406e-9,9.168958913116012e-10,0
43379,8.768558585639836e-10,2.282731570037001e-9,1.5669502109832004e-8,1.9433162971894463e-7,1.2703728329028277e-7,5.982577661311341e-8,1.4020254462172308e-9,9.041201434449808e-10,0
43380,8.787411393343301e-10,2.2709618683118084e-9,1.5510275102004975e-8,1.9423139471648695e-7,1.2697761724292376e-7,5.934612395151844e-8,1.394788725255921e-9,8.913443955783604e-10,0
43381,8.806264201046768e-10,2.2591921665866155e-9,1.535104809417795e-8,1.9413115971402924e-7,1.2691795119556477e-7,5.886647128992349e-8,1.3875520042946112e-9,8.7856864771174e-10,0
43382,8.825117008750233e-10,2.248195641173205e-9,1.5255041914629832e-8,1.9417834408132079e-7,1.2751029320070862e-7,5.8314555870515404e-8,1.3901087904485753e-9,8.701008084942323e-10,0
43383,8.843969816453699e-10,2.2371991157597947e-9,1.5159035735081716e-8,1.9422552844861233e-7,1.281026352058525e-7,5.7762640451107325e-8,1.3926655766025393e-9,8.616329692767245e-10,0
43384,8.862822624157165e-10,2.226202590346384e-9,1.5063029555533603e-8,1.9427271281590385e-7,1.2869497721099636e-7,5.7210725031699245e-8,1.3952223627565035e-9,8.531651300592167e-10,0
43385,8.881675431860631e-10,2.215206064932974e-9,1.4967023375985486e-8,1.943198971831954e-7,1.292873192161402e-7,5.6658809612291166e-8,1.3977791489104675e-9,8.446972908417089e-10,0
43386,8.900528239564097e-10,2.2042095395195634e-9,1.487101719643737e-8,1.9436708155048694e-7,1.2987966122128409e-7,5.610689419288309e-8,1.4003359350644317e-9,8.362294516242011e-10,0
43387,8.901625556548911e-10,2.1924398377943705e-9,1.4705021959995624e-8,1.9430697272445076e-7,1.298086696225233e-7,5.559767338564861e-8,1.3930992141031218e-9,8.237825512440485e-10,0
43388,8.902722873533724e-10,2.180670136069178e-9,1.4539026723553876e-8,1.9424686389841459e-7,1.2973767802376252e-7,5.508845257841413e-8,1.385862493141812e-9,8.113356508638958e-10,0
43389,8.903820190518537e-10,2.168900434343985e-9,1.437303148711213e-8,1.941867550723784e-7,1.2966668642500174e-7,5.457923177117966e-8,1.3786257721805023e-9,7.988887504837431e-10,0
43390,8.90491750750335e-10,2.1571307326187923e-9,1.4207036250670382e-8,1.9412664624634224e-7,1.2959569482624095e-7,5.407001096394518e-8,1.3713890512191925e-9,7.864418501035904e-10,0
43391,8.906014824488164e-10,2.1453610308936e-9,1.4041041014228636e-8,1.9406653742030606e-7,1.2952470322748017e-7,5.356079015671071e-8,1.3641523302578826e-9,7.739949497234377e-10,0
43392,8.907112141472977e-10,2.133591329168407e-9,1.3875045777786888e-8,1.9400642859426989e-7,1.294537116287194e-7,5.3051569349476234e-8,1.3569156092965728e-9,7.61548049343285e-10,0
43393,8.90820945845779e-10,2.121821627443214e-9,1.3709050541345142e-8,1.939463197682337e-7,1.2938272002995858e-7,5.254234854224175e-8,1.349678888335263e-9,7.491011489631323e-10,0
43394,8.909306775442604e-10,2.1100519257180213e-9,1.3543055304903396e-8,1.9388621094219754e-7,1.293117284311978e-7,5.203312773500728e-8,1.3424421673739531e-9,7.366542485829797e-10,0
43395,8.910404092427418e-10,2.098282223992829e-9,1.3377060068461649e-8,1.9382610211616136e-7,1.2924073683243702e-7,5.1523906927772805e-8,1.3352054464126434e-9,7.24207348202827e-10,0
43396,8.911501409412231e-10,2.086512522267636e-9,1.3211064832019903e-8,1.9376599329012519e-7,1.2916974523367623e-7,5.101468612053833e-8,1.3279687254513337e-9,7.117604478226743e-10,0
43397,8.912598726397045e-10,2.074742820542443e-9,1.3045069595578155e-8,1.93705884464089e-7,1.2909875363491545e-7,5.0505465313303856e-8,1.320732004490024e-9,6.993135474425216e-10,0
43398,8.913696043381858e-10,2.0629731188172506e-9,1.2879074359136409e-8,1.9364577563805284e-7,1.2902776203615467e-7,4.9996244506069375e-8,1.313495283528714e-9,6.868666470623689e-10,0
43399,8.914793360366671e-10,2.0512034170920578e-9,1.2713079122694661e-8,1.9358566681201666e-7,1.2895677043739388e-7,4.94870236988349e-8,1.3062585625674042e-9,6.744197466822162e-10,0
43400,8.915890677351485e-10,2.039433715366865e-9,1.2547083886252915e-8,1.9352555798598049e-7,1.288857788386331e-7,4.8977802891600426e-8,1.2990218416060945e-9,6.619728463020636e-10,0
43401,8.916987994336298e-10,2.0276640136416725e-9,1.2381088649811167e-8,1.934654491599443e-7,1.2881478723987232e-7,4.846858208436595e-8,1.2917851206447845e-9,6.495259459219108e-10,0
43402,8.882324803007808e-10,2.007513515865618e-9,1.2363063414526865e-8,1.9350230520022334e-7,1.2613030683449639e-7,4.848997202422396e-8,1.289363977150296e-9,6.496848877776392e-10,0
43403,8.882324803007808e-10,2.0095586216063896e-9,1.2362825725145737e-8,1.9347181519557855e-7,1.2635534448900387e-7,4.8264801864932615e-8,1.2701304718538626e-9,6.500137352641069e-10,0
43404,8.873197530772484e-10,2.0057689697565086e-9,1.2263308845253845e-8,1.9078951715451485e-7,1.2602316006910125e-7,4.8289263465602435e-8,1.2729777463740118e-9,6.483366065067357e-10,0
43405,8.871002896802856e-10,1.9998841188939124e-9,1.2164053029098033e-8,1.8811565101741637e-7,1.2545025417831285e-7,4.829736805343965e-8,1.2745466278171791e-9,6.463306302628968e-10,0
43406,8.868808262833229e-10,1.993999268031316e-9,1.2064797212942219e-8,1.8544178488031786e-7,1.2487734828752444e-7,4.830547264127687e-8,1.2761155092603465e-9,6.443246540190579e-10,0
43407,8.866613628863603e-10,1.9881144171687195e-9,1.1965541396786407e-8,1.8276791874321938e-7,1.2430444239673603e-7,4.8313577229114087e-08,1.2776843907035136e-9,6.423186777752191e-10,0
43408,8.864418994893976e-10,1.9795114707974568e-9,1.1959509610670021e-8,1.8114992530006417e-7,1.2429525762809705e-7,4.8319182527201e-8,1.2776843907035136e-9,6.398358759641951e-10,0
43409,8.862224360924348e-10,1.959761719196952e-9,1.1860253794514209e-8,1.791078616075775e-7,1.2428885053702426e-7,4.8043479417585045e-8,1.2610076715610442e-9,6.378298997203562e-10,0
43410,8.860029726954722e-10,1.9400119675964477e-9,1.1760997978358395e-8,1.7706579791509078e-7,1.2428244344595146e-7,4.7767776307969086e-8,1.244330952418575e-9,6.358239234765174e-10,0
43411,8.857835092985095e-10,1.9202622159959434e-9,1.1661742162202582e-8,1.750237342226041e-7,1.2427603635487866e-7,4.749207319835313e-8,1.2276542332761057e-9,6.338179472326785e-10,0
43412,8.855640459015469e-10,1.9005124643954387e-9,1.156248634604677e-8,1.7298167053011742e-7,1.2426962926380586e-7,4.721637008873718e-8,1.2109775141336363e-9,6.318119709888396e-10,0
43413,8.853445825045842e-10,1.8807627127949344e-9,1.1463230529890956e-8,1.7093960683763074e-7,1.2426322217273306e-7,4.6940666979121226e-8,1.194300794991167e-9,6.298059947450008e-10,0
43414,8.851251191076214e-10,1.86101296119443e-9,1.1363974713735144e-8,1.6889754314514406e-7,1.2425681508166027e-7,4.6664963869505273e-8,1.1776240758486976e-9,6.278000185011619e-10,0
43415,8.849056557106588e-10,1.8412632095939254e-9,1.126471889757933e-8,1.6685547945265736e-7,1.2425040799058747e-7,4.638926075988932e-8,1.1609473567062283e-9,6.25794042257323e-10,0
43416,8.846861923136961e-10,1.8215134579934209e-9,1.1165463081423517e-8,1.6481341576017068e-7,1.2424400089951467e-7,4.611355765027336e-8,1.144270637563759e-9,6.237880660134842e-10,0
43417,8.844667289167334e-10,1.8017637063929166e-9,1.1066207265267705e-8,1.62771352067684e-7,1.2423759380844187e-7,4.583785454065741e-8,1.1275939184212897e-9,6.217820897696453e-10,0
43418,8.788457602413754e-10,1.8010406233530778e-9,1.106549419712432e-8,1.6279180573685646e-7,1.2342933788856704e-7,4.583785454065741e-8,1.1214999478774865e-9,6.181099485434462e-10,0
43419,8.732247915660173e-10,1.8003175403132393e-9,1.1064781128980934e-8,1.628122594060289e-7,1.2262108196869224e-7,4.583785454065741e-8,1.1154059773336832e-9,6.144378073172471e-10,0
43420,8.676038228906593e-10,1.7995944572734007e-9,1.106406806083755e-8,1.6283271307520136e-7,1.218128260488174e-7,4.583785454065741e-8,1.10931200678988e-9,6.107656660910479e-10,0
43421,8.619828542153014e-10,1.798871374233562e-9,1.1063354992694166e-8,1.6285316674437383e-7,1.210045701289426e-7,4.583785454065741e-8,1.1032180362460767e-9,6.070935248648488e-10,0
43422,8.563618855399433e-10,1.7981482911937234e-9,1.1062641924550781e-8,1.628736204135463e-7,1.2019631420906777e-7,4.583785454065741e-8,1.0971240657022735e-9,6.034213836386497e-10,0
43423,8.507409168645853e-10,1.7974252081538847e-9,1.1061928856407395e-8,1.6289407408271873e-7,1.1938805828919297e-7,4.583785454065741e-8,1.0910300951584702e-9,5.997492424124506e-10,0
43424,8.46641160228448e-10,1.800367633585183e-9,1.1060954724527933e-8,1.6296662400312568e-7,1.1858393053594197e-7,4.5806977243243924e-8,1.084936124614667e-9,5.962470068169908e-10,0
43425,8.425414035923109e-10,1.8033100590164811e-9,1.1059980592648469e-8,1.6303917392353262e-7,1.1777980278269098e-7,4.5776099945830434e-8,1.0788421540708637e-9,5.927447712215309e-10,0
43426,8.360326603810202e-10,1.8046821749893578e-9,1.1059006460769006e-8,1.630393950592106e-7,1.1697183077479631e-7,4.588852367854205e-8,1.0711429910381201e-9,5.892425356260711e-10,0
43427,8.295239171697296e-10,1.8060542909622347e-9,1.1058032328889542e-8,1.630396161948886e-7,1.1616385876690164e-7,4.6000947411253676e-8,1.0634438280053765e-9,5.857403000306113e-10,0
43428,8.230151739584389e-10,1.8074264069351113e-9,1.105705819701008e-8,1.6303983733056657e-7,1.1535588675900698e-7,4.611337114396529e-8,1.0557446649726328e-9,5.822380644351516e-10,0
43429,8.165064307471483e-10,1.808798522907988e-9,1.1056084065130615e-8,1.6304005846624456e-7,1.1454791475111231e-7,4.622579487667692e-8,1.0480455019398892e-9,5.787358288396917e-10,0
43430,8.099976875358576e-10,1.8101706388808649e-9,1.1055109933251151e-8,1.6304027960192254e-7,1.1373994274321764e-7,4.6338218609388534e-8,1.0403463389071456e-9,5.752335932442319e-10,0
43431,8.034889443245671e-10,1.8115427548537415e-9,1.1054135801371688e-8,1.6304050073760052e-7,1.1293197073532297e-7,4.645064234210016e-8,1.032647175874402e-9,5.717313576487721e-10,0
43432,7.969802011132764e-10,1.8129148708266182e-9,1.1053161669492224e-8,1.630407218732785e-7,1.1212399872742829e-7,4.6563066074811776e-8,1.0249480128416583e-9,5.682291220533122e-10,0
43433,7.541223066691576e-10,1.7994746730991167e-9,1.105214078890286e-8,1.623419410225121e-7,1.1191555848084764e-7,4.658626944372524e-8,1.0220644272757358e-9,5.567358728075298e-10,0
43434,7.112644122250389e-10,1.786034475371615e-9,1.1051119908313495e-8,1.616431601717457e-7,1.1170711823426699e-7,4.66094728126387e-8,1.0191808417098136e-9,5.452426235617473e-10,0
43435,7.091846207453295e-10,1.7721935314685637e-9,1.093016453604495e-8,1.578670897239953e-7,1.1167684769301915e-7,4.663841214303483e-8,1.0160430788234789e-9,5.44573964813801e-10,0
43436,7.071048292656201e-10,1.7583525875655125e-9,1.0809209163776406e-8,1.5409101927624488e-7,1.1164657715177129e-7,4.666735147343096e-8,1.0129053159371444e-9,5.439053060658547e-10,0
43437,7.050250377859107e-10,1.7445116436624611e-9,1.068825379150786e-8,1.5031494882849444e-7,1.1161630661052345e-7,4.669629080382709e-8,1.00976755305081e-9,5.432366473179085e-10,0
43438,7.029452463062013e-10,1.7306706997594098e-9,1.0567298419239315e-8,1.4653887838074403e-7,1.1158603606927561e-7,4.672523013422323e-8,1.0066297901644755e-9,5.425679885699622e-10,0
43439,7.008654548264918e-10,1.715457639883482e-9,1.0452519025048481e-8,1.427635278217888e-7,1.1155782961133968e-7,4.6609253161344995e-8,1.0035283383239141e-9,5.418993298220158e-10,0
43440,6.987856633467825e-10,1.7002445800075539e-9,1.0337739630857648e-8,1.3898817726283356e-7,1.1152962315340374e-7,4.6493276188466757e-8,1.0004268864833527e-9,5.412306710740696e-10,0
43441,6.970101142749172e-10,1.6862533562886713e-9,1.0222960236666814e-8,1.3542243035072863e-7,1.1160976900637228e-7,4.646794774495829e-8,1.0021314105859954e-9,5.415485547855264e-10,0
43442,6.95234565203052e-10,1.672262132569789e-9,1.010818084247598e-8,1.3185668343862373e-7,1.1168991485934083e-7,4.644261930144982e-8,1.0038359346886382e-9,5.41866438496983e-10,0
43443,6.934590161311867e-10,1.6582709088509066e-9,9.993401448285146e-9,1.2829093652651883e-7,1.1177006071230937e-7,4.641729085794135e-8,1.0055404587912809e-9,5.421843222084398e-10,0
43444,6.916834670593215e-10,1.6442796851320242e-9,9.878622054094312e-9,1.247251896144139e-7,1.1185020656527791e-7,4.639196241443289e-8,1.0072449828939236e-9,5.425022059198965e-10,0
43445,6.899079179874562e-10,1.6302884614131416e-9,9.763842659903477e-9,1.21159442702309e-7,1.1193035241824646e-7,4.636663397092442e-8,1.0089495069965663e-9,5.428200896313533e-10,0
43446,6.88132368915591e-10,1.6162972376942593e-9,9.649063265712644e-9,1.175936957902041e-7,1.12010498271215e-7,4.634130552741595e-8,1.010654031099209e-9,5.4313797334281e-10,0
43447,6.863568198437257e-10,1.602306013975377e-9,9.53428387152181e-9,1.1402794887809918e-7,1.1209064412418354e-7,4.631597708390748e-8,1.0123585552018518e-9,5.434558570542668e-10,0
43448,6.845812707718605e-10,1.5883147902564945e-9,9.419504477330977e-9,1.1046220196599428e-7,1.1217078997715209e-7,4.6290648640399016e-8,1.0140630793044945e-9,5.437737407657236e-10,0
43449,6.828057216999952e-10,1.574323566537612e-9,9.304725083140141e-9,1.0689645505388936e-7,1.1225093583012063e-7,4.6265320196890546e-8,1.0157676034071373e-9,5.440916244771802e-10,0
43450,6.8103017262813e-10,1.5603323428187296e-9,9.189945688949308e-9,1.0333070814178446e-7,1.1233108168308918e-7,4.6239991753382076e-8,1.01747212750978e-9,5.44409508188637e-10,0
43451,6.792546235562647e-10,1.5463411190998473e-9,9.075166294758474e-9,9.976496122967955e-8,1.1241122753605772e-7,4.621466330987361e-8,1.0191766516124227e-9,5.447273919000937e-10,0
43452,6.774790744843995e-10,1.5323498953809647e-9,8.960386900567641e-9,9.619921431757463e-8,1.1249137338902626e-7,4.618933486636514e-8,1.0208811757150654e-9,5.450452756115505e-10,0
43453,6.757035254125343e-10,1.5183586716620823e-9,8.845607506376806e-9,9.263346740546973e-8,1.1257151924199481e-7,4.616400642285667e-8,1.0225856998177082e-9,5.453631593230072e-10,0
43454,6.73927976340669e-10,1.5043674479432e-9,8.730828112185972e-9,8.906772049336481e-8,1.1265166509496335e-7,4.613867797934821e-8,1.0242902239203509e-9,5.45681043034464e-10,0
43455,6.721524272688039e-10,1.4903762242243176e-9,8.616048717995139e-9,8.550197358125991e-8,1.1273181094793189e-7,4.611334953583974e-8,1.0259947480229936e-9,5.459989267459207e-10,0
43456,6.703768781969386e-10,1.476385000505435e-9,8.501269323804304e-9,8.1936226669155e-8,1.1281195680090044e-7,4.608802109233127e-8,1.0276992721256363e-9,5.463168104573774e-10,0
43457,6.686013291250734e-10,1.4623937767865527e-9,8.38648992961347e-9,7.837047975705009e-8,1.1289210265386898e-7,4.60626926488228e-8,1.029403796228279e-9,5.466346941688342e-10,0
43458,6.668257800532081e-10,1.4484025530676703e-9,8.271710535422637e-9,7.480473284494518e-8,1.1297224850683752e-7,4.6037364205314335e-8,1.0311083203309218e-9,5.469525778802909e-10,0
43459,6.650502309813429e-10,1.434411329348788e-9,8.156931141231803e-9,7.123898593284026e-8,1.1305239435980607e-7,4.6012035761805865e-8,1.0328128444335645e-9,5.472704615917477e-10,0
43460,6.632746819094776e-10,1.4204201056299054e-9,8.159070345661956e-9,7.046153421854553e-8,1.1296855043586065e-7,4.605383470778029e-8,1.0199905075692757e-9,5.441190010327774e-10,0
43461,6.614991328376124e-10,1.4134615188238645e-9,8.140191796104567e-9,7.044848721354447e-8,1.1250634485126879e-7,4.582783757733937e-8,1.0248327945582529e-9,5.441190010327774e-10,0
43462,6.597235837657471e-10,1.4065029320178234e-9,8.121313246547176e-9,7.043544020854342e-8,1.1204413926667692e-7,4.5601840446898437e-8,1.02967508154723e-9,5.441190010327774e-10,0
43463,6.579480346938819e-10,1.3995443452117826e-9,8.102434696989785e-9,7.042239320354235e-8,1.1158193368208505e-7,4.537584331645751e-8,1.0345173685362073e-9,5.441190010327774e-10,0
43464,6.561724856220166e-10,1.3925857584057417e-9,8.083556147432395e-9,7.04093461985413e-8,1.1111972809749319e-7,4.514984618601659e-8,1.0393596555251847e-9,5.441190010327774e-10,0
43465,6.43873215713605e-10,1.385927731231363e-9,8.041017940508475e-9,6.925639466011792e-8,1.1115025203628996e-7,4.522921602543251e-8,1.0410641796278274e-9,5.451055434921804e-10,0
43466,6.40406896580756e-10,1.3819877995656508e-9,8.02709960193658e-9,6.946084612187942e-8,1.1004142468483736e-7,4.4907860733734094e-8,1.0458701555710313e-9,5.462619915823228e-10,0
43467,6.36940577447907e-10,1.3780478678999386e-9,8.013181263364685e-9,6.966529758364093e-8,1.0893259733338478e-7,4.458650544203567e-8,1.0506761315142354e-9,5.474184396724651e-10,0
43468,6.334742583150579e-10,1.3741079362342264e-9,7.999262924792792e-9,6.986974904540244e-8,1.0782376998193218e-7,4.426515015033725e-8,1.0554821074574396e-9,5.485748877626074e-10,0
43469,6.305914713102974e-10,1.3703182843843454e-9,7.98018948873255e-9,6.986974904540244e-8,1.0662952533435882e-7,4.3853146329269066e-8,1.056869433671741e-9,5.497313358527498e-10,0
43470,6.277086843055368e-10,1.3665286325344644e-9,7.961116052672309e-9,6.986974904540244e-8,1.0543528068678548e-7,4.344114250820088e-8,1.0582567598860425e-9,5.508877839428921e-10,0
43471,6.242423651726879e-10,1.3614670512555941e-9,7.95006941519728e-9,7.004468884328567e-8,1.0422181476599372e-7,4.302728538638817e-8,1.0582204488402694e-9,5.510576895736314e-10,0
43472,6.207760460398389e-10,1.3564054699767237e-9,7.939022777722252e-9,7.02196286411689e-8,1.0300834884520198e-7,4.261342826457546e-8,1.0581841377944962e-9,5.512275952043707e-10,0
43473,6.173097269069899e-10,1.3513438886978535e-9,7.927976140247223e-9,7.039456843905213e-8,1.0179488292441023e-7,4.219957114276276e-8,1.0581478267487231e-9,5.5139750083511e-10,0
43474,6.155341778351246e-10,1.3362310153658129e-9,7.887982393450862e-9,7.050305152609041e-8,1.0159021744825733e-7,4.213364493958475e-8,1.0581478267487231e-9,5.490846046548254e-10,0
43475,6.155341778351246e-10,1.3370041916775952e-9,7.890737222772977e-9,7.051477171702356e-8,1.0153188621936753e-7,4.208980558528815e-8,1.0576853846772892e-9,5.434174509597983e-10,0
43476,6.155341778351246e-10,1.3377773679893774e-9,7.89349205209509e-9,7.052649190795672e-8,1.0147355499047772e-7,4.204596623099155e-8,1.0572229426058554e-9,5.377502972647713e-10,0
43477,6.155341778351246e-10,1.3385505443011597e-9,7.896246881417203e-9,7.053821209888989e-8,1.0141522376158793e-7,4.200212687669495e-8,1.0567605005344217e-9,5.320831435697442e-10,0
43478,6.155341778351246e-10,1.3393237206129422e-9,7.899001710739318e-9,7.054993228982304e-8,1.0135689253269812e-7,4.195828752239836e-8,1.0562980584629878e-9,5.264159898747171e-10,0
43479,6.155341778351246e-10,1.3400968969247245e-9,7.901756540061431e-9,7.05616524807562e-8,1.0129856130380832e-7,4.191444816810176e-8,1.055835616391554e-9,5.207488361796901e-10,0
43480,6.155341778351246e-10,1.3408700732365067e-9,7.904511369383544e-9,7.057337267168935e-8,1.0124023007491853e-7,4.187060881380516e-8,1.05537317432012e-9,5.150816824846631e-10,0
43481,6.155341778351246e-10,1.341643249548289e-9,7.907266198705659e-9,7.05850928626225e-8,1.0118189884602872e-7,4.182676945950856e-8,1.0549107322486863e-9,5.094145287896361e-10,0
43482,6.155341778351246e-10,1.3424164258600715e-9,7.910021028027772e-9,7.059681305355566e-8,1.0112356761713892e-7,4.178293010521197e-8,1.0544482901772524e-9,5.037473750946089e-10,0
43483,6.163371733601757e-10,1.3431896021718538e-9,7.90990415625302e-9,7.042777785448281e-8,1.0106330281801558e-7,4.175039766296015e-8,1.055591040594759e-9,4.980802213995819e-10,0
43484,6.171401688852269e-10,1.343962778483636e-9,7.909787284478268e-9,7.025874265540998e-8,1.0100303801889222e-7,4.1717865220708334e-8,1.0567337910122656e-9,4.924130677045549e-10,0
43485,6.189157179570921e-10,1.3500480024340074e-9,7.903732124006932e-9,7.009037086337108e-8,1.0094277321976887e-7,4.1833145284563165e-8,1.0783884398031876e-9,4.890588101898125e-10,0
43486,6.206912670289574e-10,1.3561332263843785e-9,7.897676963535597e-9,6.99219990713322e-8,1.0088250842064553e-7,4.1948425348417996e-8,1.1000430885941095e-9,4.857045526750701e-10,0
43487,6.224668161008226e-10,1.3622184503347497e-9,7.891621803064261e-9,6.97536272792933e-8,1.0082224362152217e-7,4.2063705412272827e-8,1.1216977373850317e-9,4.823502951603277e-10,0
43488,6.236588330445994e-10,1.3675304979733385e-9,7.887822718797834e-9,6.93741651637864e-8,1.0060089682275658e-7,4.190432586986904e-8,1.1422096357584471e-9,4.80525188322239e-10,0
43489,6.248508499883762e-10,1.3728425456119274e-9,7.884023634531405e-9,6.899470304827951e-8,1.0037955002399099e-7,4.174494632746526e-8,1.1627215341318626e-9,4.787000814841505e-10,0
43490,6.258234035351903e-10,1.3782547797944037e-9,7.884000260176455e-9,6.89322555278401e-8,9.912411894376509e-8,4.1169844111636534e-8,1.181955039428296e-9,4.811828832951745e-10,0
43491,6.267959570820044e-10,1.38366701397688e-9,7.883976885821503e-9,6.88698080074007e-8,9.78686878635392e-8,4.059474189580781e-8,1.2011885447247295e-9,4.836656851061985e-10,0
43492,6.277685106288184e-10,1.3890792481593564e-09,7.883953511466553e-9,6.880736048696129e-8,9.66132567833133e-8,4.001963967997909e-8,1.2204220500211628e-9,4.861484869172224e-10,0
43493,6.287410641756326e-10,1.3944914823418327e-9,7.883930137111603e-9,6.874491296652188e-8,9.53578257030874e-8,3.9444537464150366e-8,1.2396555553175962e-9,4.886312887282464e-10,0
43494,6.297136177224467e-10,1.399903716524309e-9,7.883906762756653e-9,6.868246544608248e-8,9.41023946228615e-8,3.8869435248321643e-8,1.2588890606140297e-9,4.911140905392704e-10,0
43495,6.306861712692608e-10,1.4053159507067853e-9,7.883883388401702e-9,6.862001792564307e-8,9.284696354263561e-8,3.829433303249292e-8,1.278122565910463e-9,4.935968923502944e-10,0
43496,6.316587248160749e-10,1.4107281848892616e-9,7.88386001404675e-9,6.855757040520366e-8,9.159153246240971e-8,3.77192308166642e-8,1.2973560712068964e-9,4.960796941613183e-10,0
43497,6.326312783628889e-10,1.416140419071738e-9,7.8838366396918e-9,6.849512288476425e-8,9.033610138218381e-8,3.7144128600835475e-8,1.31658957650333e-9,4.985624959723423e-10,0
43498,6.315240404299936e-10,1.4154173360318992e-9,7.88585502651558e-9,6.843173433985167e-8,8.908531247891456e-8,3.641548956701557e-8,1.316843753823742e-9,4.985624959723423e-10,0
43499,6.304168024970984e-10,1.4146942529920607e-9,7.887873413339358e-9,6.836834579493909e-8,8.783452357564531e-8,3.568685053319566e-8,1.3170979311441542e-9,4.985624959723423e-10,0
43500,6.293095645642031e-10,1.4139711699522221e-9,7.889891800163137e-9,6.83049572500265e-8,8.658373467237605e-8,3.4958211499375744e-8,1.3173521084645661e-9,4.985624959723423e-10,0
43501,6.282023266313078e-10,1.4132480869123834e-9,7.891910186986914e-9,6.824156870511392e-8,8.53329457691068e-8,3.4229572465555836e-8,1.3176062857849781e-9,4.985624959723423e-10,0
43502,6.270950886984125e-10,1.4125250038725448e-9,7.893928573810692e-9,6.817818016020133e-8,8.408215686583755e-8,3.350093343173592e-8,1.3178604631053903e-9,4.985624959723423e-10,0
43503,6.259878507655172e-10,1.411801920832706e-9,7.895946960634471e-9,6.811479161528875e-8,8.28313679625683e-8,3.277229439791601e-8,1.3181146404258023e-9,4.985624959723423e-10,0
43504,6.250751235419846e-10,1.4130237569897518e-9,7.895923586279521e-9,6.805140307037617e-8,8.159169739817157e-8,3.206681333715622e-8,1.315267365905653e-9,4.985624959723423e-10,0
43505,6.241623963184521e-10,1.4142455931467975e-9,7.895900211924571e-9,6.79880145254636e-8,8.035202683377485e-8,3.1361332276396425e-8,1.3124200913855036e-9,4.985624959723423e-10,0
43506,6.232496690949196e-10,1.415467429303843e-9,7.895876837569619e-9,6.792462598055101e-8,7.911235626937812e-8,3.065585121563663e-8,1.3095728168653544e-9,4.985624959723423e-10,0
43507,6.223369418713872e-10,1.4166892654608886e-9,7.895853463214669e-9,6.786123743563843e-8,7.78726857049814e-8,2.995037015487684e-8,1.3067255423452052e-9,4.985624959723423e-10,0
43508,6.214242146478547e-10,1.4179111016179341e-9,7.895830088859719e-9,6.779784889072585e-8,7.663301514058468e-8,2.9244889094117043e-8,1.3038782678250558e-9,4.985624959723423e-10,0
43509,6.205114874243222e-10,1.4191329377749798e-9,7.895806714504769e-9,6.773446034581326e-8,7.539334457618795e-8,2.853940803335725e-8,1.3010309933049065e-9,4.985624959723423e-10,0
43510,6.195987602007897e-10,1.4203547739320253e-9,7.895783340149817e-9,6.767107180090068e-8,7.415367401179124e-8,2.7833926972597455e-8,1.298183718784757e-9,4.985624959723423e-10,0
43511,5.902222316607774e-10,1.3412751786165166e-9,7.76383202494777e-9,6.765061813172821e-8,7.415367401179124e-8,2.7861409314061455e-8,1.2879640806438225e-9,4.776477563746818e-10,0
43512,5.89309504437245e-10,1.3412751786165166e-9,7.751932073199653e-9,6.762075421782401e-8,7.405362421915409e-8,2.7889770147962236e-8,1.2807006501603568e-9,4.774778507439425e-10,0
43513,5.870950285714544e-10,1.3276847010731839e-9,7.732075445931176e-9,6.761970022982835e-8,7.407116490631502e-8,2.7918130981863017e-8,1.28073696120613e-9,4.754718745001036e-10,0
43514,5.848805527056638e-10,1.3140942235298511e-9,7.712218818662699e-9,6.76186462418327e-8,7.408870559347596e-8,2.7946491815763798e-8,1.280773272251903e-9,4.734658982562648e-10,0
43515,5.826660768398731e-10,1.3005037459865184e-9,7.69236219139422e-9,6.761759225383705e-8,7.41062462806369e-8,2.7974852649664582e-8,1.2808095832976763e-9,4.714599220124259e-10,0
43516,5.804516009740825e-10,1.2869132684431856e-9,7.672505564125742e-9,6.76165382658414e-8,7.412378696779784e-8,2.8003213483565363e-8,1.2808458943434494e-9,4.69453945768587e-10,0
43517,5.782371251082919e-10,1.273322790899853e-9,7.652648936857265e-9,6.761548427784574e-8,7.414132765495879e-8,2.8031574317466144e-8,1.2808822053892226e-9,4.674479695247482e-10,0
43518,5.760226492425012e-10,1.2597323133565202e-9,7.632792309588788e-9,6.761443028985009e-8,7.415886834211972e-8,2.8059935151366925e-8,1.2809185164349957e-9,4.654419932809093e-10,0
43519,5.738081733767106e-10,1.2461418358131874e-9,7.612935682320311e-9,6.761337630185444e-8,7.417640902928066e-8,2.8088295985267706e-8,1.280954827480769e-9,4.6343601703707043e-10,0
43520,5.7159369751092e-10,1.2325513582698547e-9,7.593079055051834e-9,6.761232231385878e-8,7.41939497164416e-8,2.8116656819168487e-8,1.280991138526542e-9,4.6143004079323157e-10,0
43521,5.7159369751092e-10,1.2206814700007746e-9,7.573222427783356e-9,6.76274543526587e-8,7.419374250391235e-8,2.812316330761885e-8,1.280991138526542e-9,4.5959397018013204e-10,0
43522,5.733941992703852e-10,1.2051460732605576e-9,7.554102243013214e-9,6.784999204098762e-8,7.423978881820498e-8,2.8184538163126256e-8,1.2825963310154824e-9,4.5959397018013204e-10,0
43523,5.751947010298502e-10,1.1896106765203406e-9,7.534982058243071e-9,6.807252972931652e-8,7.428583513249761e-8,2.824591301863366e-8,1.2842015235044228e-9,4.5959397018013204e-10,0
43524,5.785164148285361e-10,1.1875154775076252e-9,7.520089587791713e-9,6.757046436830675e-8,7.39366083651784e-8,2.8307667613460635e-8,1.2858067159933631e-9,4.612710989375032e-10,0
43525,5.827259031631547e-10,1.1838499690364885e-9,7.512156286626303e-9,6.775154427477927e-8,7.397581790612412e-8,2.8276920378173328e-8,1.2868405332735503e-9,4.624385108026565e-10,0
43526,5.869353914977733e-10,1.1801844605653517e-9,7.504222985460892e-9,6.793262418125179e-8,7.401502744706982e-8,2.8246173142886017e-8,1.2878743505537374e-9,4.6360592266780977e-10,0
43527,5.911448798323918e-10,1.1765189520942148e-9,7.496289684295481e-9,6.81137040877243e-8,7.405423698801554e-8,2.821542590759871e-8,1.2889081678339245e-9,4.6477333453296303e-10,0
43528,5.953543681670104e-10,1.172853443623078e-9,7.48835638313007e-9,6.829478399419682e-8,7.409344652896124e-8,2.81846786723114e-8,1.2899419851141117e-9,4.659407463981163e-10,0
43529,5.995638565016289e-10,1.1691879351519413e-9,7.48042308196466e-9,6.847586390066934e-8,7.413265606990694e-8,2.815393143702409e-8,1.2909758023942988e-9,4.671081582632696e-10,0
43530,6.037733448362475e-10,1.1655224266808044e-9,7.472489780799248e-9,6.865694380714186e-8,7.417186561085266e-8,2.812318420173678e-8,1.292009619674486e-9,4.682755701284229e-10,0
43531,6.07982833170866e-10,1.1618569182096675e-9,7.464556479633839e-9,6.883802371361437e-8,7.421107515179836e-8,2.8092436966449473e-8,1.293043436954673e-9,4.694429819935761e-10,0
43532,6.121923215054846e-10,1.1581914097385309e-9,7.456623178468428e-9,6.901910362008689e-8,7.425028469274406e-8,2.8061689731162162e-8,1.29407725423486e-9,4.706103938587294e-10,0
43533,6.164018098401032e-10,1.1581914097385309e-9,7.455387982852886e-9,6.876114487770234e-8,7.426318320294836e-8,2.8079604971692543e-8,1.2908401597348232e-9,4.701335682915443e-10,0
43534,6.206112981747216e-10,1.1581914097385309e-9,7.454152787237343e-9,6.85031861353178e-8,7.427608171315265e-8,2.8097520212222924e-8,1.2876030652347864e-9,4.696567427243591e-10,0
43535,6.248207865093402e-10,1.1581914097385309e-9,7.452917591621801e-9,6.824522739293325e-8,7.428898022335695e-8,2.8115435452753302e-8,1.2843659707347496e-9,4.691799171571741e-10,0
43536,6.290302748439587e-10,1.1581914097385309e-9,7.451682396006259e-9,6.79872686505487e-8,7.430187873356126e-8,2.8133350693283683e-8,1.2811288762347128e-9,4.68703091589989e-10,0
43537,6.332397631785773e-10,1.1581914097385309e-9,7.450447200390716e-9,6.772930990816417e-8,7.431477724376555e-8,2.8151265933814064e-8,1.277891781734676e-9,4.682262660228038e-10,0
43538,6.374492515131959e-10,1.1581914097385309e-9,7.449212004775174e-9,6.747135116577962e-8,7.432767575396985e-8,2.816918117434444e-8,1.2746546872346392e-9,4.677494404556187e-10,0
43539,6.416587398478144e-10,1.1581914097385309e-9,7.447976809159632e-9,6.721339242339507e-8,7.434057426417414e-8,2.8187096414874822e-8,1.2714175927346024e-9,4.672726148884336e-10,0
43540,6.45868228182433e-10,1.1581914097385309e-9,7.44674161354409e-9,6.695543368101053e-8,7.435347277437844e-8,2.8205011655405203e-8,1.2681804982345654e-9,4.667957893212485e-10,0
43541,6.500777165170515e-10,1.1581914097385309e-9,7.4455064179285475e-9,6.669747493862599e-8,7.436637128458273e-8,2.8222926895935584e-8,1.2649434037345286e-9,4.663189637540634e-10,0
43542,6.502722272264143e-10,1.157967079815899e-9,7.4455064179285475e-9,6.637249089105955e-8,7.43310903263394e-8,2.8182556115532762e-8,1.2601011167455514e-9,4.641650094295071e-10,0
43543,6.511600017623469e-10,1.1580171730878428e-9,7.444317971022906e-9,6.59155957194046e-8,7.432087753703478e-8,2.8140570061980685e-8,1.2552951408023473e-9,4.620110551049508e-10,0
43544,6.511600017623469e-10,1.1601123721005582e-9,7.454409905141798e-9,6.549057863959057e-8,7.445306237031024e-8,2.8131076578991356e-8,1.25045285381337e-9,4.595282532939268e-10,0
43545,6.511600017623469e-10,1.1622075711132736e-9,7.464501839260691e-9,6.506556155977654e-8,7.45852472035857e-8,2.8121583096002024e-8,1.2456105668243929e-9,4.5704545148290285e-10,0
43546,6.511600017623469e-10,1.1643027701259888e-9,7.474593773379583e-9,6.464054447996251e-8,7.471743203686117e-8,2.8112089613012692e-8,1.2407682798354157e-9,4.5456264967187885e-10,0
43547,6.490802102826375e-10,1.1625320875797927e-9,7.437853609022543e-9,6.350784740258363e-8,7.472838893485127e-8,2.7800215553435896e-8,1.2378846942694932e-9,4.534062015817365e-10,0
43548,6.470004188029282e-10,1.1607614050335963e-9,7.4011134446655025e-9,6.237515032520475e-8,7.473934583284139e-8,2.7488341493859096e-8,1.2350011087035707e-9,4.522497534915942e-10,0
43549,6.427909304683096e-10,1.1609116848494275e-9,7.4094714300516455e-9,6.241926652656392e-8,7.456435214617198e-8,2.7519218791272586e-8,1.2349647976577977e-9,4.4857761226539507e-10,0
43550,6.385814421336911e-10,1.1610619646652585e-9,7.4178294154377884e-9,6.246338272792309e-8,7.438935845950258e-8,2.7550096088686076e-8,1.2349284866120244e-9,4.4490547103919595e-10,0
43551,6.343719537990725e-10,1.1612122444810897e-9,7.4261874008239314e-9,6.250749892928225e-8,7.421436477283317e-8,2.7580973386099563e-8,1.2348921755662514e-9,4.4123332981299683e-10,0
43552,6.301624654644539e-10,1.1613625242969209e-9,7.434545386210074e-9,6.255161513064142e-8,7.403937108616377e-8,2.7611850683513053e-8,1.2348558645204781e-9,4.375611885867977e-10,0
43553,6.259529771298354e-10,1.161512804112752e-9,7.4429033715962166e-9,6.259573133200059e-8,7.386437739949436e-8,2.764272798092654e-8,1.234819553474705e-9,4.338890473605986e-10,0
43554,6.217434887952168e-10,1.161663083928583e-9,7.45126135698236e-9,6.263984753335976e-8,7.368938371282496e-8,2.767360527834003e-8,1.2347832424289318e-9,4.302169061343995e-10,0
43555,6.175340004605983e-10,1.1618133637444142e-9,7.459619342368503e-9,6.268396373471894e-8,7.351439002615556e-8,2.770448257575352e-8,1.2347469313831588e-9,4.2654476490820036e-10,0
43556,6.135190228353425e-10,1.1599185378194737e-9,7.456696946730112e-9,6.267763980674502e-8,7.327077562184086e-8,2.7701014001859742e-8,1.2347469313831588e-9,4.232014711684689e-10,0
