time,channel1,channel2,channel3,channel4,channel5,channel6,channel7,channel8,class
57446,4.4675330177930064e-8,4.385698505765781e-9,1.6044714079548962e-9,1.0459987311656171e-8,1.2463185907025261e-7,1.1011697791601837e-7,3.798494580033351e-8,2.2020436707112457e-7,6
57447,4.4679443454230456e-8,4.38744977322779e-9,1.608491257723507e-9,1.0456196551589514e-8,1.2459956541344094e-7,1.0968087127565993e-7,3.805309263620384e-8,2.203033471382097e-7,6
57448,4.4683556730530854e-8,4.389201040689799e-9,1.6125111074921179e-9,1.0452405791522855e-8,1.245672717566293e-7,1.0924476463530149e-7,3.812123947207417e-8,2.2040232720529483e-7,6
57449,4.4687670006831245e-8,4.390952308151809e-9,1.6165309572607287e-9,1.0448615031456198e-8,1.2453497809981764e-7,1.0880865799494304e-7,3.81893863079445e-8,2.2050130727237996e-7,6
57450,4.4690285107891265e-8,4.390952308151809e-9,1.6205508070293395e-9,1.042715399211143e-8,1.2470517334837205e-7,1.0913876194434864e-7,3.816272178110163e-8,2.206024557440129e-7,6
57451,4.4692900208951285e-8,4.390952308151809e-9,1.6245706567979503e-9,1.0405692952766666e-8,1.2487536859692648e-7,1.0946886589375425e-7,3.813605725425877e-8,2.207036042156458e-7,6
57452,4.469551531001131e-8,4.390952308151809e-9,1.6285905065665611e-9,1.0384231913421899e-8,1.2504556384548091e-7,1.0979896984315986e-7,3.81093927274159e-8,2.2080475268727875e-7,6
57453,4.469813041107133e-8,4.390952308151809e-9,1.632610356335172e-9,1.0362770874077134e-8,1.2521575909403535e-7,1.1012907379256547e-7,3.808272820057304e-8,2.2090590115891166e-7,6
57454,4.470074551213135e-8,4.390952308151809e-9,1.6366302061037827e-9,1.0341309834732367e-8,1.2538595434258976e-7,1.1045917774197107e-7,3.805606367373017e-8,2.210070496305446e-7,6
57455,4.470336061319137e-8,4.390952308151809e-9,1.6406500558723935e-9,1.03198487953876e-8,1.255561495911442e-7,1.1078928169137668e-7,3.8029399146887306e-8,2.211081981021775e-7,6
57456,4.470597571425139e-8,4.390952308151809e-9,1.6446699056410043e-9,1.0298387756042835e-8,1.2572634483969862e-7,1.1111938564078229e-7,3.800273462004444e-8,2.2120934657381044e-7,6
57457,4.470447753901102e-8,4.390952308151809e-9,1.6456823242908959e-9,1.0275558809451967e-8,1.2566201297790885e-7,1.110637503878487e-7,3.7892553081291334e-8,2.2125228218812958e-7,6
57458,4.470297936377065e-8,4.387194765117402e-9,1.6456823242908959e-9,1.0257888530173859e-8,1.2578750838962484e-7,1.1100470110409873e-7,3.7800763199547704e-8,2.2132548977363908e-7,6
57459,4.470148118853028e-8,4.383437222082995e-9,1.6456823242908959e-9,1.024021825089575e-8,1.2591300380134082e-7,1.1094565182034876e-7,3.770897331780407e-8,2.2139869735914858e-7,6
57460,4.46999830132899e-8,4.379679679048588e-9,1.6456823242908959e-9,1.0222547971617641e-8,1.260384992130568e-7,1.1088660253659879e-7,3.761718343606044e-8,2.2147190494465808e-7,6
57461,4.469848483804953e-8,4.375922136014181e-9,1.6456823242908959e-9,1.0204877692339533e-8,1.2616399462477282e-7,1.1082755325284882e-7,3.7525393554316807e-8,2.2154511253016756e-7,6
57462,4.469698666280916e-8,4.372164592979774e-9,1.6456823242908959e-9,1.0187207413061425e-8,1.262894900364888e-7,1.1076850396909887e-7,3.743360367257317e-8,2.2161832011567706e-7,6
57463,4.4694743231726104e-8,4.371433357959318e-9,1.641662474522285e-9,1.0187207413061425e-8,1.2645207869247833e-7,1.0942561011451938e-7,3.74109870952006e-8,2.214337279045113e-7,6
57464,4.361703034258453e-8,4.369427082386921e-9,1.6327296556589919e-9,1.0146423354251105e-8,1.2653622809281967e-7,1.0941333438909942e-7,3.7345861740299835e-8,2.1860790655533166e-7,6
57465,4.2539317453442955e-8,4.367420806814523e-9,1.6237968367956985e-9,1.0105639295440786e-8,1.26620377493161e-7,1.0940105866367944e-7,3.7280736385399074e-8,2.15782085206152e-7,6
57466,4.1461604564301374e-8,4.365414531242125e-9,1.6148640179324053e-9,1.0064855236630466e-8,1.2670452689350234e-7,1.0938878293825949e-7,3.721561103049831e-8,2.1295626385697237e-7,6
57467,4.03838916751598e-8,4.363408255669728e-9,1.605931199069112e-9,1.0024071177820145e-8,1.2678867629384367e-7,1.0937650721283951e-7,3.715048567559754e-8,2.1013044250779274e-7,6
57468,3.9306178786018224e-8,4.36140198009733e-9,1.5969983802058189e-9,9.983287119009824e-9,1.26872825694185e-7,1.0936423148741954e-7,3.708536032069677e-8,2.0730462115861308e-7,6
57469,3.822846589687665e-8,4.359395704524932e-9,1.5880655613425255e-9,9.942503060199506e-9,1.2695697509452634e-7,1.0935195576199958e-7,3.7020234965796004e-8,2.0447879980943345e-7,6
57470,3.7150753007735075e-8,4.357389428952535e-9,1.5791327424792323e-9,9.901719001389185e-9,1.2704112449486768e-7,1.0933968003657961e-7,3.695510961089524e-8,2.0165297846025381e-7,6
57471,3.609398391773869e-8,4.3613907169937596e-9,1.570199923615939e-9,9.860934942578864e-9,1.2703843063502158e-7,1.1075036683500717e-7,3.694319746061492e-8,1.9877941806922175e-7,6
57472,3.50372148277423e-8,4.365392005034985e-9,1.5612671047526459e-9,9.820150883768544e-9,1.2703573677517546e-7,1.1216105363343473e-7,3.693128531033459e-8,1.9590585767818968e-7,6
57473,3.3980445737745914e-8,4.369393293076211e-9,1.5523342858893525e-9,9.779366824958223e-9,1.2703304291532936e-7,1.1357174043186229e-7,3.691937316005427e-8,1.930322972871576e-7,6
57474,3.292367664774953e-8,4.373394581117437e-9,1.5434014670260593e-9,9.738582766147904e-9,1.2703034905548327e-7,1.1498242723028987e-7,3.6907461009773945e-8,1.9015873689612555e-7,6
57475,3.186690755775315e-8,4.377395869158662e-9,1.534468648162766e-9,9.697798707337584e-9,1.2702765519563715e-7,1.1639311402871743e-7,3.6895548859493626e-8,1.8728517650509348e-7,6
57476,3.081013846775676e-8,4.381397157199888e-9,1.5255358292994729e-9,9.657014648527263e-9,1.2702496133579105e-7,1.1780380082714499e-7,3.68836367092133e-8,1.844116161140614e-7,6
57477,2.9753369377760373e-8,4.385398445241114e-9,1.5166030104361795e-9,9.616230589716943e-9,1.2702226747594495e-7,1.1921448762557255e-7,3.687172455893297e-8,1.8153805572302934e-7,6
57478,2.8680896270182596e-8,4.383392169668716e-9,1.5076701915728863e-9,9.573408734402622e-9,1.2697250530948118e-7,1.1929482218453558e-7,3.679950618162025e-8,1.7874017525997315e-7,6
57479,2.7608423162604823e-8,4.381385894096318e-9,1.498737372709593e-9,9.530586879088302e-9,1.269227431430174e-7,1.193751567434986e-7,3.6727287804307524e-8,1.7594229479691693e-7,6
57480,2.6535950055027046e-8,4.379379618523921e-9,1.4898045538462999e-9,9.487765023773981e-9,1.268729809765536e-7,1.1945549130246164e-7,3.66550694269948e-8,1.731444143338607e-7,6
57481,2.5463476947449273e-8,4.377373342951523e-9,1.4808717349830065e-9,9.44494316845966e-9,1.2682321881008984e-7,1.1953582586142467e-7,3.6582851049682075e-8,1.7034653387080451e-7,6
57482,2.4391003839871496e-8,4.375367067379125e-9,1.4719389161197133e-9,9.402121313145339e-9,1.2677345664362606e-7,1.196161604203877e-7,3.651063267236935e-8,1.675486534077483e-7,6
57483,2.331853073229372e-8,4.373360791806728e-9,1.46300609725642e-9,9.359299457831018e-9,1.267236944771623e-7,1.1969649497935072e-7,3.6438414295056626e-8,1.6475077294469207e-7,6
57484,2.2246057624715946e-8,4.37135451623433e-9,1.4540732783931269e-9,9.316477602516698e-9,1.2667393231069852e-7,1.1977682953831375e-7,3.6366195917743895e-8,1.6195289248163588e-7,6
57485,2.223670456685175e-8,4.3716095243447185e-9,1.4530608597432353e-9,9.266630419526306e-9,1.254703954017445e-7,1.195187678205702e-7,3.634879211288007e-8,1.6201335943597613e-7,6
57486,2.2227351508987558e-8,4.371864532455106e-9,1.4520484410933438e-9,9.216783236535915e-9,1.2426685849279048e-7,1.1926070610282664e-7,3.633138830801624e-8,1.620738263903164e-7,6
57487,2.21630066092016e-8,4.308369246391559e-9,1.448028591324733e-9,9.181557556659776e-9,1.2390162890441834e-7,1.1905929039788845e-7,3.631210962354342e-8,1.6211790076826942e-7,6
57488,2.2098661709415646e-8,4.244873960328012e-9,1.4440087415561222e-9,9.146331876783637e-9,1.235363993160462e-7,1.1885787469295024e-7,3.62928309390706e-8,1.6216197514622243e-7,6
57489,2.203431680962969e-8,4.181378674264464e-9,1.4399888917875114e-9,9.111106196907498e-9,1.2317116972767408e-7,1.1865645898801205e-7,3.627355225459778e-8,1.6220604952417544e-7,6
57490,2.1969971909843734e-8,4.117883388200917e-9,1.4359690420189006e-9,9.075880517031359e-9,1.2280594013930194e-7,1.1845504328307384e-7,3.625427357012496e-8,1.6225012390212845e-7,6
57491,2.190562701005778e-8,4.05438810213737e-9,1.4319491922502898e-9,9.04065483715522e-9,1.224407105509298e-7,1.1825362757813563e-7,3.623499488565214e-8,1.6229419828008146e-7,6
57492,2.1841282110271825e-8,3.990892816073822e-9,1.427929342481679e-9,9.00542915727908e-9,1.220754809625577e-7,1.1805221187319743e-7,3.621571620117932e-8,1.6233827265803447e-7,6
57493,2.1771697428922067e-8,3.9271425218998864e-9,1.4248920865320046e-9,8.968664434016148e-9,1.2164385942191356e-7,1.1820551886928085e-7,3.6183153523728935e-8,1.6231573236372163e-7,6
57494,2.170211274757231e-8,3.863392227725951e-9,1.4218548305823302e-9,8.931899710753215e-9,1.2121223788126946e-7,1.1835882586536427e-7,3.615059084627855e-8,1.6229319206940878e-7,6
57495,2.1643504466578612e-8,3.799885678558834e-9,1.4218548305823302e-9,8.893553160068316e-9,1.2080698517782396e-7,1.1809587373790873e-7,3.614502304548454e-8,1.6261170250322694e-7,6
57496,2.1584896185584913e-8,3.736379129391717e-9,1.4218548305823302e-9,8.855206609383416e-9,1.2040173247437845e-7,1.1783292161045319e-7,3.613945524469052e-8,1.6293021293704512e-7,6
57497,2.1526287904591214e-8,3.6728725802245997e-9,1.4218548305823302e-9,8.816860058698519e-9,1.1999647977093294e-7,1.1756996948299766e-7,3.613388744389651e-8,1.632487233708633e-7,6
57498,2.1467679623597515e-8,3.6093660310574824e-9,1.4218548305823302e-9,8.778513508013619e-9,1.1959122706748743e-7,1.1730701735554212e-7,3.612831964310249e-8,1.6356723380468146e-7,6
57499,2.1467679623597515e-8,3.57363197300398e-9,1.4236079227002935e-9,8.764890693013205e-9,1.1928354446141427e-7,1.1733809121740779e-7,3.603964241292193e-8,1.6382054883754496e-7,6
57500,2.1467679623597515e-8,3.5378979149504774e-9,1.4253610148182566e-9,8.751267878012791e-9,1.189758618553411e-7,1.1736916507927346e-7,3.595096518274138e-8,1.6407386387040849e-7,6
57501,2.1467679623597515e-8,3.5021638568969747e-9,1.4271141069362197e-9,8.737645063012377e-9,1.1866817924926794e-7,1.1740023894113912e-7,3.586228795256082e-8,1.64327178903272e-7,6
57502,2.1467679623597515e-8,3.466429798843472e-9,1.428867199054183e-9,8.724022248011965e-9,1.1836049664319478e-7,1.1743131280300478e-7,3.5773610722380265e-8,1.645804939361355e-7,6
57503,2.1467679623597515e-8,3.4306957407899693e-9,1.4306202911721462e-9,8.71039943301155e-9,1.1805281403712162e-7,1.1746238666487045e-7,3.568493349219971e-8,1.64833808968999e-7,6
57504,2.1467679623597515e-8,3.3949616827364666e-9,1.4323733832901093e-9,8.696776618011137e-9,1.1774513143104846e-7,1.1749346052673611e-7,3.559625626201915e-8,1.650871240018625e-7,6
57505,2.1467679623597515e-8,3.3592276246829643e-9,1.4341264754080726e-9,8.683153803010722e-9,1.174374488249753e-7,1.1752453438860178e-7,3.5507579031838596e-8,1.65340439034726e-7,6
57506,2.1467679623597515e-8,3.3234935666294616e-9,1.4358795675260357e-9,8.66953098801031e-9,1.1712976621890214e-7,1.1755560825046745e-7,3.541890180165804e-8,1.655937540675895e-7,6
57507,2.1478280522199103e-8,3.2936246951148912e-9,1.4376326596439988e-9,8.666709605447758e-9,1.1714210489080557e-7,1.1758752513655936e-7,3.5256418764219624e-8,1.6583576045927638e-7,6
57508,2.148888142080069e-8,3.263755823600321e-9,1.4393857517619621e-9,8.663888222885207e-9,1.17154443562709e-7,1.1761944202265127e-7,3.5093935726781214e-8,1.6607776685096324e-7,6
57509,2.1499482319402278e-8,3.233886952085751e-9,1.4411388438799253e-9,8.661066840322656e-9,1.1716678223461243e-7,1.1765135890874318e-7,3.49314526893428e-8,1.663197732426501e-7,6
57510,2.1510083218003866e-8,3.2040180805711806e-9,1.4428919359978884e-9,8.658245457760106e-9,1.1717912090651585e-7,1.176832757948351e-7,3.476896965190438e-8,1.6656177963433696e-7,6
57511,2.1520684116605454e-8,3.1741492090566107e-9,1.4446450281158517e-9,8.655424075197555e-9,1.1719145957841928e-7,1.1771519268092701e-7,3.4606486614465965e-8,1.6680378602602385e-7,6
57512,2.153128501520704e-8,3.1442803375420403e-9,1.4463981202338148e-9,8.652602692635004e-9,1.1720379825032272e-7,1.1774710956701892e-7,3.444400357702755e-8,1.670457924177107e-7,6
57513,2.154188591380863e-8,3.11441146602747e-9,1.448151212351778e-9,8.649781310072452e-9,1.1721613692222615e-7,1.1777902645311083e-7,3.428152053958913e-8,1.6728779880939757e-7,6
57514,2.1552486812410217e-8,3.0845425945129e-9,1.4499043044697412e-9,8.646959927509901e-9,1.1722847559412958e-7,1.1781094333920275e-7,3.411903750215072e-8,1.6752980520108446e-7,6
57515,2.1563087711011805e-8,3.0546737229983297e-9,1.4516573965877043e-9,8.64413854494735e-9,1.1724081426603301e-7,1.1784286022529466e-7,3.3956554464712306e-8,1.6777181159277132e-7,6
57516,2.156682548555773e-8,3.024816114587329e-9,1.4504030575869482e-9,8.64413854494735e-9,1.1729524343382194e-7,1.1785655828247149e-7,3.380570578197913e-8,1.676445652785245e-7,6
57517,2.176506548048187e-8,3.0037148434863754e-9,1.464156049348834e-9,8.651491489599938e-9,1.1744450077189357e-7,1.187364966961861e-7,3.3648790545334725e-8,1.6856990227278119e-7,6
57518,2.1963305475406007e-8,2.9826135723854217e-9,1.4779090411107195e-9,8.658844434252523e-9,1.175937581099652e-7,1.1961643510990072e-7,3.349187530869033e-8,1.6949523926703787e-7,6
57519,2.2161545470330146e-8,2.9615123012844675e-9,1.4916620328726053e-9,8.66619737890511e-9,1.1774301544803683e-7,1.2049637352361533e-7,3.333496007204593e-8,1.7042057626129456e-7,6
57520,2.2359785465254284e-8,2.9404110301835138e-9,1.505415024634491e-9,8.673550323557696e-9,1.1789227278610848e-7,1.2137631193732995e-7,3.3178044835401526e-8,1.7134591325555125e-7,6
57521,2.2558025460178423e-8,2.91930975908256e-9,1.5191680163963768e-9,8.680903268210283e-9,1.1804153012418011e-7,1.2225625035104456e-7,3.302112959875713e-8,1.7227125024980794e-7,6
57522,2.217648890495884e-8,2.922058532778983e-9,1.5262549469456169e-9,8.691120379460594e-9,1.1790630295140364e-7,1.2312947656463256e-7,3.3047055106763115e-8,1.7326804819010313e-7,6
57523,2.2370991125337053e-8,2.9248073064754063e-9,1.5420327760072855e-9,8.632779738172818e-9,1.1772172109101346e-7,1.2395816258219032e-7,3.292089416008185e-8,1.7425670340000388e-7,6
57524,2.256549334571527e-8,2.92755608017183e-9,1.5578106050689541e-9,8.574439096885042e-9,1.1753713923062328e-7,1.2478684859974805e-7,3.2794733213400575e-8,1.7524535860990462e-7,6
57525,2.275999556609348e-8,2.930304853868253e-9,1.5735884341306227e-9,8.516098455597266e-9,1.173525573702331e-7,1.2561553461730581e-7,3.26685722667193e-8,1.7623401381980537e-7,6
57526,2.2954497786471697e-8,2.9330536275646762e-9,1.5893662631922911e-9,8.457757814309491e-9,1.1716797550984292e-7,1.2644422063486358e-7,3.254241132003803e-8,1.7722266902970612e-7,6
57527,2.314900000684991e-8,2.9358024012610998e-9,1.6051440922539598e-9,8.399417173021715e-9,1.1698339364945272e-7,1.272729066524213e-7,3.2416250373356755e-8,1.7821132423960687e-7,6
57528,2.3343502227228123e-8,2.938551174957523e-9,1.6209219213156284e-9,8.341076531733938e-9,1.1679881178906254e-7,1.2810159266997907e-7,3.229008942667548e-8,1.7919997944950762e-7,6
57529,2.3362710927851222e-8,2.9445474754675764e-9,1.622902021368979e-9,8.273103100383405e-9,1.1656440268419522e-7,1.2806403833099904e-7,3.215329163152339e-8,1.7950530405683854e-7,6
57530,2.338191962847432e-8,2.95054377597763e-9,1.6248821214223294e-9,8.205129669032872e-9,1.1632999357932789e-7,1.2802648399201904e-7,3.201649383637129e-8,1.798106286641695e-7,6
57531,2.340112832909742e-8,2.9565400764876837e-9,1.6268622214756797e-9,8.137156237682337e-9,1.1609558447446055e-7,1.27988929653039e-7,3.18796960412192e-8,1.801159532715004e-7,6
57532,2.3420337029720522e-8,2.962536376997737e-9,1.6288423215290303e-9,8.069182806331804e-9,1.1586117536959323e-7,1.2795137531405897e-7,3.17428982460671e-8,1.8042127787883133e-7,6
57533,2.343954573034362e-8,2.9685326775077907e-9,1.6308224215823808e-9,8.001209374981271e-9,1.1562676626472589e-7,1.2791382097507897e-7,3.1606100450915e-8,1.8072660248616225e-7,6
57534,2.345875443096672e-8,2.974528978017844e-9,1.632802521635731e-9,7.933235943630736e-9,1.1539235715985856e-7,1.2787626663609894e-7,3.146930265576291e-8,1.810319270934932e-7,6
57535,2.347796313158982e-8,2.9805252785278976e-9,1.6347826216890816e-9,7.865262512280203e-9,1.1515794805499122e-7,1.278387122971189e-7,3.133250486061081e-8,1.8133725170082412e-7,6
57536,2.3492557886906565e-8,2.974262706803886e-9,1.6355531199881083e-9,7.798329371199256e-9,1.1523650045589633e-7,1.2800500012788706e-7,3.1185842481885635e-8,1.8126665570805887e-7,6
57537,2.350715264222331e-8,2.9680001350798746e-9,1.636323618287135e-9,7.73139623011831e-9,1.1531505285680145e-7,1.2817128795865519e-7,3.1039180103160456e-8,1.8119605971529365e-7,6
57538,2.352174739754006e-8,2.9617375633558627e-9,1.6370941165861616e-9,7.664463089037362e-9,1.1539360525770656e-7,1.2833757578942334e-7,3.0892517724435283e-8,1.811254637225284e-7,6
57539,2.3536342152856806e-8,2.955474991631851e-9,1.6378646148851883e-9,7.597529947956415e-9,1.1547215765861168e-7,1.2850386362019147e-7,3.074585534571011e-8,1.8105486772976316e-7,6
57540,2.3550936908173552e-8,2.9492124199078393e-9,1.638635113184215e-9,7.53059680687547e-9,1.1555071005951679e-7,1.286701514509596e-7,3.059919296698493e-8,1.8098427173699792e-7,6
57541,2.3565531663490298e-8,2.9429498481838278e-9,1.6394056114832417e-9,7.463663665794522e-9,1.156292624604219e-7,1.2883643928172774e-7,3.045253058825976e-8,1.8091367574423267e-7,6
57542,2.3580126418807047e-8,2.9366872764598163e-9,1.6401761097822685e-9,7.396730524713575e-9,1.15707814861327e-7,1.2900272711249587e-7,3.030586820953458e-8,1.8084307975146746e-7,6
57543,2.3594721174123793e-8,2.9304247047358044e-9,1.6409466080812952e-9,7.329797383632628e-9,1.1578636726223212e-7,1.2916901494326402e-7,3.015920583080941e-8,1.807724837587022e-7,6
57544,2.3559556205527573e-8,2.9281972103637275e-9,1.6397370063269714e-9,7.330837673902215e-9,1.1608559969167652e-7,1.2938229811514638e-7,3.014934124723633e-8,1.7892063887187545e-7,6
57545,2.3524391236931353e-8,2.925969715991651e-9,1.6385274045726475e-9,7.331877964171802e-9,1.163848321211209e-7,1.2959558128702877e-7,3.0139476663663254e-8,1.770687939850487e-7,6
57546,2.3032895904422018e-8,2.9099645638267482e-9,1.6392829904561968e-9,7.3232854643786304e-09,1.1653395687305581e-7,1.295490813856224e-7,3.0112908677708126e-8,1.7696063953953366e-7,6
57547,2.2541400571912684e-8,2.893959411661846e-9,1.640038576339746e-9,7.314692964585459e-9,1.1668308162499073e-7,1.2950258148421603e-7,3.0086340691753e-8,1.768524850940186e-7,6
57548,2.204990523940335e-8,2.8779542594969434e-9,1.6407941622232952e-9,7.306100464792288e-9,1.1683220637692564e-7,1.2945608158280964e-7,3.005977270579787e-8,1.7674433064850356e-7,6
57549,2.155840990689401e-8,2.861949107332041e-9,1.6415497481068445e-9,7.297507964999117e-9,1.1698133112886056e-07,1.2940958168140329e-7,3.003320471984275e-8,1.766361762029885e-7,6
57550,2.1048582044522005e-8,2.870825295509639e-9,1.6502257342037956e-9,7.355848606286893e-9,1.1856404570269869e-7,1.296404690675774e-7,3.0003226978571916e-8,1.7657811330751247e-7,6
57551,2.053875418215e-8,2.879701483687237e-9,1.6589017203007465e-9,7.4141892475746686e-9,1.201467602765368e-7,1.2987135645375153e-7,2.997324923730108e-8,1.7652005041203644e-7,6
57552,2.0043143657451517e-8,2.9356704205784005e-9,1.6608669079386196e-9,7.407135791168291e-9,1.1987912508663677e-7,1.2962883663705482e-7,2.997324923730108e-8,1.775709085041886e-7,6
57553,1.9547533132753036e-8,2.991639357469564e-9,1.6628320955764924e-9,7.4000823347619135e-9,1.1961148989673673e-7,1.2938631682035808e-7,2.997324923730108e-8,1.7862176659634078e-7,6
57554,1.9051922608054555e-8,3.047608294360728e-9,1.6647972832143655e-9,7.393028878355536e-9,1.193438547068367e-7,1.2914379700366137e-7,2.997324923730108e-8,1.7967262468849298e-7,6
57555,1.8556312083356073e-8,3.1035772312518916e-9,1.6667624708522384e-9,7.385975421949159e-9,1.1907621951693668e-7,1.2890127718696465e-7,2.997324923730108e-8,1.8072348278064515e-7,6
57556,1.8060701558657592e-8,3.159546168143055e-9,1.6687276584901115e-9,7.378921965542782e-9,1.1880858432703664e-7,1.286587573702679e-7,2.997324923730108e-8,1.8177434087279732e-7,6
57557,1.7765834373913045e-8,3.2252576854751094e-9,1.6709496788943266e-9,7.378921965542782e-9,1.1879680219593387e-7,1.286731406562535e-7,2.99793157912123e-8,1.8242446455751585e-7,6
57558,1.7470967189168494e-8,3.290969202807164e-9,1.6731716992985418e-9,7.378921965542782e-9,1.187850200648311e-7,1.286875239422391e-7,2.9985382345123524e-8,1.8307458824223438e-7,6
57559,1.7176100004423947e-8,3.356680720139218e-9,1.675393719702757e-9,7.378921965542782e-9,1.1877323793372832e-7,1.2870190722822468e-7,2.9991448899034746e-8,1.837247119269529e-7,6
57560,1.6881232819679397e-8,3.4223922374712727e-9,1.6776157401069721e-9,7.378921965542782e-9,1.1876145580262555e-7,1.2871629051421027e-7,2.999751545294597e-8,1.8437483561167141e-7,6
57561,1.6586365634934846e-8,3.488103754803327e-9,1.6798377605111875e-9,7.378921965542782e-9,1.1874967367152278e-7,1.2873067380019586e-7,3.000358200685719e-8,1.8502495929638994e-7,6
57562,1.62914984501903e-8,3.5538152721353815e-9,1.6820597809154027e-9,7.378921965542782e-9,1.1873789154042e-7,1.2874505708618142e-7,3.000964856076841e-8,1.8567508298110848e-7,6
57563,1.599663126544575e-8,3.619526789467436e-9,1.6842818013196178e-9,7.378921965542782e-9,1.1872610940931722e-7,1.28759440372167e-7,3.001571511467964e-8,1.86325206665827e-7,6
57564,1.5701764080701198e-8,3.6852383067994903e-9,1.686503821723833e-9,7.378921965542782e-9,1.1871432727821445e-7,1.287738236581526e-7,3.002178166859086e-8,1.8697533035054554e-7,6
57565,1.540689689595665e-8,3.750949824131545e-9,1.6887258421280482e-9,7.378921965542782e-9,1.1870254514711168e-7,1.287882069441382e-7,3.002784822250208e-8,1.8762545403526407e-7,6
57566,1.541837013354116e-8,3.822668905077222e-9,1.6909478625322633e-9,7.382085620386714e-9,1.1865933427929494e-7,1.287047540647378e-7,3.001658283396544e-8,1.8794053545949926e-7,6
57567,1.5429843371125675e-8,3.8943879860229005e-9,1.6931698829364787e-9,7.385249275230647e-9,1.186161234114782e-7,1.2862130118533738e-7,3.00053174454288e-8,1.8825561688373446e-7,6
57568,1.5441316608710186e-8,3.966107066968578e-9,1.6953919033406939e-9,7.3884129300745804e-9,1.1857291254366146e-7,1.2853784830593699e-7,2.999405205689216e-8,1.8857069830796968e-7,6
57569,1.54527898462947e-8,4.037826147914255e-9,1.697613923744909e-9,7.391576584918513e-9,1.1852970167584472e-7,1.284543954265366e-7,2.998278666835552e-8,1.8888577973220488e-7,6
57570,1.546426308387921e-8,4.1095452288599336e-9,1.6998359441491242e-9,7.394740239762446e-9,1.1848649080802798e-7,1.2837094254713617e-7,2.997152127981888e-8,1.8920086115644008e-7,6
57571,1.547573632146372e-8,4.181264309805611e-9,1.7020579645533394e-9,7.397903894606378e-9,1.1844327994021125e-7,1.2828748966773578e-7,2.9960255891282236e-8,1.895159425806753e-7,6
57572,1.5487209559048236e-8,4.252983390751289e-9,1.7042799849575547e-9,7.401067549450312e-9,1.184000690723945e-7,1.282040367883354e-7,2.9948990502745595e-8,1.898310240049105e-7,6
57573,1.5489329738768554e-8,4.253714625771745e-9,1.705292403607446e-9,7.403931716048035e-9,1.1839825228319596e-7,1.2850904859987246e-7,3.110795758989179e-8,1.8907547060438421e-7,6
57574,1.548583655105935e-8,4.253459617661356e-9,1.705292403607446e-9,7.405556327505174e-9,1.1835847003929628e-7,1.2841424357369177e-7,3.106139120880451e-8,1.8823518273173193e-7,6
57575,1.548234336335015e-8,4.253204609550968e-9,1.705292403607446e-9,7.407180938962313e-9,1.1831868779539659e-7,1.2831943854751106e-7,3.101482482771724e-8,1.8739489485907964e-7,6
57576,1.547885017564095e-8,4.2529496014405795e-9,1.705292403607446e-9,7.408805550419452e-9,1.182789055514969e-7,1.2822463352133037e-7,3.0968258446629964e-8,1.8655460698642735e-7,6
57577,1.5475356987931752e-8,4.252694593330191e-9,1.705292403607446e-9,7.410430161876592e-9,1.1823912330759722e-7,1.2812982849514966e-7,3.0921692065542686e-8,1.8571431911377506e-7,6
57578,1.5471863800222552e-8,4.252439585219803e-9,1.705292403607446e-9,7.412054773333731e-9,1.1819934106369753e-7,1.2803502346896895e-7,3.0875125684455416e-8,1.8487403124112278e-7,6
57579,1.546837061251335e-8,4.252184577109414e-9,1.705292403607446e-9,7.41367938479087e-9,1.1815955881979784e-7,1.2794021844278826e-7,3.082855930336814e-8,1.840337433684705e-7,6
57580,1.546487742480415e-8,4.2519295689990264e-9,1.705292403607446e-9,7.415303996248009e-9,1.1811977657589816e-7,1.2784541341660755e-7,3.078199292228086e-8,1.831934554958182e-7,6
57581,1.546138423709495e-8,4.24298580220001e-9,1.6990207086036652e-9,7.365158506890833e-9,1.1807245038733696e-7,1.2777156596157755e-7,3.0702834901476884e-8,1.8255289180568377e-7,6
57582,1.541424536190826e-8,4.234042035400993e-9,1.6928235756772716e-9,7.3273241827485825e-9,1.1805917199688256e-7,1.2719763023881576e-7,3.068578612489833e-8,1.8180693923885937e-7,6
57583,1.5367106486721568e-8,4.2250982686019764e-9,1.686626442750878e-9,7.289489858606331e-9,1.1804589360642818e-7,1.26623694516054e-7,3.066873734831978e-8,1.8106098667203497e-7,6
57584,1.531996761153488e-8,4.21615450180296e-9,1.6804293098244843e-9,7.25165553446408e-9,1.1803261521597378e-7,1.2604975879329222e-7,3.065168857174123e-8,1.803150341052106e-7,6
57585,1.527282873634819e-8,4.207210735003944e-9,1.6742321768980908e-9,7.2138212103218295e-9,1.1801933682551938e-7,1.2547582307053045e-7,3.063463979516268e-8,1.795690815383862e-7,6
57586,1.5225689861161497e-8,4.198266968204927e-9,1.6680350439716972e-9,7.175986886179578e-9,1.1800605843506499e-7,1.2490188734776868e-7,3.061759101858413e-8,1.788231289715618e-7,6
57587,1.5301981845095403e-8,4.198334546826346e-9,1.6641046686959512e-9,7.141344345611567e-9,1.1797987754157658e-7,1.2450681751839268e-7,3.0698988601371157e-8,1.790687705755422e-7,6
57588,1.5378273829029306e-8,4.198402125447765e-9,1.6601742934202053e-9,7.1067018050435556e-9,1.1795369664808818e-7,1.2411174768901665e-7,3.0780386184158183e-8,1.793144121795226e-7,6
57589,1.545456581296321e-8,4.198469704069183e-9,1.6562439181444593e-9,7.072059264475544e-9,1.1792751575459977e-7,1.2371667785964065e-7,3.0861783766945204e-8,1.79560053783503e-7,6
57590,1.5530857796897116e-8,4.198537282690602e-9,1.6523135428687133e-9,7.037416723907533e-9,1.1790133486111137e-7,1.2332160803026465e-7,3.094318134973223e-8,1.7980569538748342e-7,6
57591,1.560714978083102e-8,4.19860486131202e-9,1.6483831675929674e-9,7.002774183339522e-9,1.1787515396762296e-7,1.2292653820088862e-7,3.102457893251926e-8,1.8005133699146382e-7,6
57592,1.5565624273073848e-8,4.195923666237015e-9,1.6444080550707891e-9,6.971053248709273e-9,1.1784878513042437e-7,1.2259047572135122e-7,3.10174859101073e-8,1.7943166737445288e-7,6
57593,1.5524098765316673e-8,4.193242471162011e-9,1.6404329425486106e-9,6.939332314079024e-9,1.1782241629322577e-7,1.222544132418138e-7,3.1010392887695337e-8,1.7881199775744194e-7,6
57594,1.5482573257559502e-8,4.190561276087006e-9,1.6364578300264324e-9,6.9076113794487745e-9,1.1779604745602718e-7,1.219183507622764e-7,3.100329986528338e-8,1.78192328140431e-7,6
57595,1.544104774980233e-8,4.187880081012001e-9,1.6324827175042539e-9,6.875890444818526e-9,1.1776967861882857e-7,1.2158228828273898e-7,3.099620684287142e-8,1.7757265852342007e-7,6
57596,1.539952224204516e-8,4.185198885936996e-9,1.6285076049820756e-9,6.844169510188277e-9,1.1774330978162998e-7,1.2124622580320155e-7,3.098911382045946e-8,1.7695298890640913e-7,6
57597,1.5357996734287985e-8,4.182517690861991e-9,1.6245324924598971e-9,6.812448575558028e-9,1.1771694094443138e-7,1.2091016332366415e-7,3.09820207980475e-8,1.763333192893982e-7,6
57598,1.5316471226530813e-8,4.179836495786986e-9,1.6205573799377188e-9,6.780727640927779e-9,1.1769057210723278e-7,1.2057410084412672e-7,3.0974927775635545e-8,1.7571364967238725e-7,6
57599,1.5274945718773642e-8,4.177155300711982e-9,1.6165822674155403e-9,6.74900670629753e-9,1.1766420327003419e-7,1.2023803836458932e-7,3.096783475322359e-8,1.7509398005537634e-7,6
57600,1.5233420211016467e-8,4.174474105636977e-9,1.612607154893362e-9,6.717285771667281e-9,1.1763783443283559e-7,1.199019758850519e-7,3.0960741730811625e-8,1.744743104383654e-7,6
57601,1.5191894703259296e-8,4.1717929105619725e-9,1.6086320423711836e-9,6.6855648370370315e-9,1.17611465595637e-7,1.1956591340551448e-7,3.095364870839967e-8,1.7385464082135446e-7,6
57602,1.5182541645395103e-8,4.1621404349496394e-9,1.6085873051247513e-9,6.675689998068103e-9,1.1752542460764385e-7,1.1870920009193304e-7,3.095096294753783e-8,1.7333151708500645e-7,6
57603,1.5173188587530908e-8,4.152487959337307e-9,1.6085425678783187e-9,6.665815159099175e-9,1.1743938361965071e-7,1.178524867783516e-7,3.0948277186675996e-8,1.7280839334865847e-7,6
57604,1.5165713038439056e-8,4.158750531061319e-9,1.6084978306318864e-9,6.655940320130247e-9,1.1722098268177755e-7,1.1656745822559614e-7,3.0945591425814166e-8,1.7286477588114409e-7,6
57605,1.5158237489347208e-8,4.16501310278533e-9,1.6084530933854539e-9,6.646065481161318e-9,1.1700258174390439e-7,1.1528242967284067e-7,3.094290566495233e-8,1.729211584136297e-7,6
57606,1.5150761940255356e-8,4.171275674509342e-9,1.6084083561390215e-9,6.63619064219239e-9,1.1678418080603123e-7,1.139974011200852e-7,3.0940219904090494e-8,1.7297754094611532e-7,6
57607,1.5143286391163508e-8,4.177538246233353e-9,1.608363618892589e-9,6.6263158032234615e-9,1.1656577986815806e-7,1.1271237256732973e-7,3.093753414322866e-8,1.7303392347860093e-7,6
57608,1.515389303743135e-8,4.17976574060543e-9,1.6060968612419413e-9,6.630761797243151e-9,1.1652369666260248e-7,1.1192149911903892e-7,3.146321455847059e-8,1.7448434909411646e-7,6
57609,1.5164499683699193e-8,4.181993234977507e-9,1.6038301035912938e-9,6.6352077912628415e-9,1.164816134570469e-7,1.1113062567074813e-7,3.1988894973712523e-8,1.7593477470963202e-7,6
57610,1.5154903954887023e-8,4.184220729349584e-9,1.650336764518588e-9,7.091297897750177e-9,1.1877521486551543e-7,1.0966419221170014e-7,3.224870244762772e-8,1.7594046852780132e-7,6
57611,1.5145308226074857e-8,4.186448223721661e-9,1.6968434254458824e-9,7.547388004237513e-9,1.2106881627398396e-7,1.0819775875265216e-7,3.250850992154291e-8,1.7594616234597062e-7,6
57612,1.513571249726269e-8,4.1886757180937375e-9,1.7433500863731765e-9,8.00347811072485e-9,1.2336241768245245e-7,1.0673132529360418e-7,3.276831739545811e-8,1.7595185616413992e-7,6
57613,1.512611676845052e-8,4.190903212465814e-9,1.789856747300471e-9,8.459568217212187e-9,1.2565601909092098e-7,1.0526489183455619e-7,3.3028124869373305e-8,1.7595754998230922e-7,6
57614,1.5116521039638354e-8,4.193130706837891e-9,1.8363634082277653e-9,8.915658323699522e-9,1.279496204993895e-7,1.0379845837550822e-7,3.32879323432885e-8,1.7596324380047851e-7,6
57615,1.5106925310826185e-8,4.195358201209968e-9,1.8828700691550596e-9,9.371748430186858e-9,1.30243221907858e-7,1.0233202491646023e-7,3.354773981720369e-8,1.7596893761864784e-7,6
57616,1.5040460231319912e-8,4.197330687471656e-9,1.919371842907259e-9,9.807062041892193e-9,1.326596443090762e-7,1.0227390252475926e-7,3.368523801483757e-8,1.7589014734481052e-7,6
57617,1.497399515181364e-8,4.1993031737333445e-9,1.955873616659459e-9,1.0242375653597526e-8,1.3507606671029442e-7,1.022157801330583e-7,3.382273621247145e-8,1.758113570709732e-7,6
57618,1.4907530072307367e-8,4.2012756599950335e-9,1.9923753904116585e-9,1.067768926530286e-8,1.3749248911151263e-7,1.0215765774135734e-7,3.396023441010533e-8,1.757325667971359e-7,6
57619,1.4841064992801095e-8,4.203248146256722e-9,2.0288771641638583e-9,1.1113002877008193e-8,1.3990891151273083e-7,1.0209953534965637e-7,3.4097732607739204e-8,1.7565377652329857e-7,6
57620,1.477459991329482e-8,4.20522063251841e-9,2.065378937916058e-9,1.1548316488713528e-8,1.4232533391394904e-7,1.020414129579554e-7,3.4235230805373083e-08,1.7557498624946125e-7,6
57621,1.4708134833788548e-8,4.207193118780098e-9,2.1018807116682577e-9,1.198363010041886e-8,1.4474175631516725e-7,1.0198329056625443e-7,3.437272900300696e-8,1.7549619597562392e-7,6
57622,1.4641669754282275e-8,4.209165605041787e-9,2.138382485420457e-9,1.2418943712124195e-8,1.4715817871638546e-7,1.0192516817455346e-7,3.4510227200640836e-8,1.7541740570178662e-7,6
57623,1.4575204674776003e-8,4.211138091303475e-9,2.174884259172657e-9,1.285425732382953e-8,1.4957460111760367e-7,1.0186704578285249e-7,3.4647725398274715e-8,1.753386154279493e-7,6
57624,1.4508739595269729e-8,4.2131105775651635e-9,2.2113860329248565e-9,1.3289570935534863e-8,1.5199102351882187e-7,1.0180892339115152e-7,3.4785223595908595e-8,1.7525982515411198e-7,6
57625,1.4480691917009654e-8,4.211325520792445e-9,2.259176857683862e-9,1.376164927050313e-8,1.543895656062739e-7,1.0166029827563318e-7,3.5003706423511576e-8,1.7528897108034987e-7,6
57626,1.445264423874958e-8,4.209540464019726e-9,2.3069676824428678e-9,1.4233727605471396e-8,1.5678810769372592e-7,1.0151167316011483e-7,3.522218925111455e-8,1.7531811700658773e-7,6
57627,1.4424596560489505e-8,4.207755407247008e-9,2.354758507201873e-9,1.4705805940439663e-8,1.5918664978117797e-7,1.0136304804459649e-7,3.544067207871753e-8,1.753472629328256e-7,6
57628,1.439654888222943e-8,4.205970350474289e-9,2.4025493319608786e-9,1.517788427540793e-8,1.6158519186863e-7,1.0121442292907814e-7,3.5659154906320513e-8,1.7537640885906345e-7,6
57629,1.4368501203969356e-8,4.204185293701571e-9,2.450340156719884e-9,1.5649962610376196e-8,1.63983733956082e-7,1.010657978135598e-7,3.5877637733923495e-8,1.7540555478530132e-7,6
57630,1.4340453525709283e-8,4.202400236928853e-9,2.4981309814788895e-9,1.612204094534446e-8,1.6638227604353404e-7,1.0091717269804144e-7,3.6096120561526476e-8,1.754347007115392e-7,6
57631,1.4337720920952777e-8,4.247186649545353e-9,2.4973903080108177e-9,1.612204094534446e-8,1.6632168847528827e-7,1.0123871066322245e-7,3.6773739422829194e-8,1.7543227322243375e-7,6
57632,1.4329875617772713e-8,4.245435382083343e-9,2.4964077141918813e-9,1.6195998232222054e-8,1.6668236906781213e-7,1.0102770610096053e-7,3.675507425403919e-8,1.7538251774499282e-7,6
57633,1.432203031459265e-8,4.243684114621334e-9,2.495425120372945e-9,1.6269955519099647e-8,1.6704304966033597e-7,1.008167015386986e-7,3.673640908524918e-8,1.7533276226755188e-7,6
57634,1.4314185011412586e-8,4.241932847159325e-9,2.4944425265540084e-9,1.634391280597724e-8,1.674037302528598e-7,1.0060569697643668e-7,3.6717743916459175e-8,1.7528300679011095e-7,6
57635,1.430633970823252e-8,4.240181579697315e-9,2.4934599327350715e-9,1.6417870092854832e-8,1.6776441084538367e-7,1.0039469241417475e-7,3.669907874766917e-8,1.7523325131267004e-7,6
57636,1.4298494405052456e-8,4.238430312235306e-9,2.492477338916135e-9,1.6491827379732425e-8,1.681250914379075e-7,1.0018368785191282e-7,3.668041357887916e-8,1.751834958352291e-7,6
57637,1.4290649101872392e-8,4.236679044773297e-9,2.4914947450971987e-9,1.6565784666610018e-8,1.6848577203043136e-7,9.997268328965089e-8,3.6661748410089155e-8,1.7513374035778817e-7,6
57638,1.4282803798692328e-8,4.2349277773112875e-9,2.4905121512782622e-9,1.663974195348761e-8,1.688464526229552e-7,9.976167872738897e-8,3.664308324129915e-8,1.7508398488034723e-7,6
57639,1.4218834400660841e-8,4.233221562263557e-9,2.4843150183518688e-9,1.6701016492259166e-8,1.6931572880889343e-7,9.969929928064539e-8,3.6681712472660754e-8,1.7502951166785176e-7,6
57640,1.4154865002629354e-8,4.231515347215827e-9,2.478117885425475e-9,1.676229103103072e-8,1.697850049948317e-7,9.963691983390181e-8,3.672034170402236e-8,1.7497503845535625e-7,6
57641,1.4090895604597869e-8,4.229809132168097e-9,2.4719207524990815e-9,1.6823565569802276e-8,1.7025428118076993e-7,9.957454038715824e-8,3.6758970935383965e-8,1.7492056524286078e-7,6
57642,1.4026926206566381e-8,4.228102917120367e-9,2.465723619572688e-9,1.688484010857383e-8,1.707235573667082e-7,9.951216094041465e-8,3.679760016674557e-8,1.7486609203036527e-7,6
57643,1.3962956808534894e-8,4.226396702072636e-9,2.459526486646294e-9,1.6946114647345385e-8,1.7119283355264643e-7,9.944978149367107e-8,3.6836229398107176e-8,1.7481161881786977e-7,6
57644,1.3875665433579915e-8,4.22242920334212e-9,2.4533293537199007e-9,1.693239160896976e-8,1.711879688871712e-7,9.939028201753394e-8,3.6844880888197946e-8,1.7494989326561587e-7,6
57645,1.3788374058624935e-8,4.218461704611603e-9,2.4471322207935073e-9,1.6918668570594134e-8,1.7118310422169593e-7,9.933078254139681e-8,3.685353237828872e-8,1.75088167713362e-7,6
57646,1.3786875883384563e-8,4.182619058794119e-9,2.4471322207935073e-9,1.689224931068703e-8,1.7111464488861182e-7,9.920172797236499e-8,3.6863099858109166e-8,1.7503891299615983e-7,6
57647,1.378537770814419e-8,4.146776412976635e-9,2.4471322207935073e-9,1.6865830050779925e-8,1.7104618555552774e-7,9.907267340333318e-8,3.687266733792961e-8,1.7498965827895763e-7,6
57648,1.3783879532903818e-8,4.11093376715915e-9,2.4471322207935073e-9,1.683941079087282e-8,1.7097772622244363e-7,9.894361883430137e-8,3.688223481775005e-8,1.7494040356175546e-7,6
57649,1.3782381357663445e-8,4.075091121341666e-9,2.4471322207935073e-9,1.6812991530965717e-8,1.7090926688935953e-7,9.881456426526955e-8,3.68918022975705e-8,1.748911488445533e-7,6
57650,1.3780883182423072e-8,4.039248475524182e-9,2.4471322207935073e-9,1.6786572271058612e-8,1.7084080755627542e-7,9.868550969623774e-8,3.6901369777390946e-8,1.7484189412735112e-7,6
57651,1.3964160583831003e-8,4.028399801084896e-9,2.453403915797288e-9,1.6764385084995337e-8,1.7081162928386383e-7,9.913342198917299e-8,3.704862207982684e-8,1.7572481568352556e-7,6
57652,1.4147437985238932e-8,4.017551126645609e-9,2.459675610801069e-9,1.6742197898932057e-8,1.7078245101145222e-7,9.958133428210822e-8,3.719587438226274e-8,1.7660773723969996e-7,6
57653,1.4330715386646861e-8,4.006702452206323e-9,2.46594730580485e-9,1.6720010712868778e-8,1.7075327273904064e-7,1.0002924657504346e-7,3.734312668469863e-8,1.7749065879587437e-7,6
57654,1.451399278805479e-8,3.9958537777670366e-9,2.472219000808631e-9,1.6697823526805502e-8,1.7072409446662903e-7,1.0047715886797871e-07,3.749037898713453e-8,1.783735803520488e-7,6
57655,1.469727018946272e-8,3.985005103327751e-9,2.4784906958124122e-9,1.6675636340742223e-8,1.7069491619421745e-7,1.0092507116091395e-7,3.763763128957042e-8,1.792565019082232e-7,6
57656,1.488054759087065e-8,3.974156428888464e-9,2.484762390816193e-9,1.6653449154678948e-08,1.7066573792180584e-7,1.013729834538492e-7,3.778488359200632e-8,1.8013942346439764e-7,6
57657,1.506382499227858e-8,3.963307754449178e-9,2.491034085819974e-9,1.663126196861567e-8,1.7063655964939426e-7,1.0182089574678444e-7,3.7932135894442214e-8,1.8102234502057205e-7,6
57658,1.5247102393686508e-8,3.952459080009891e-9,2.497305780823755e-9,1.660907478255239e-8,1.7060738137698265e-7,1.0226880803971968e-7,3.807938819687811e-8,1.8190526657674648e-7,6
57659,1.5430379795094437e-8,3.941610405570605e-9,2.503577475827536e-9,1.6586887596489113e-8,1.7057820310457106e-7,1.0271672033265493e-7,3.8226640499314004e-8,1.8278818813292089e-7,6
57660,1.5613657196502366e-8,3.930761731131319e-9,2.509849170831317e-9,1.6564700410425834e-8,1.7054902483215945e-7,1.0316463262559017e-7,3.83738928017499e-8,1.8367110968909532e-7,6
57661,1.577972474153353e-8,3.955500694399128e-9,2.513898845430883e-9,1.656431535410928e-8,1.7057521544608777e-7,1.0372145626035874e-7,3.852148082429352e-8,1.844581809400442e-7,6
57662,1.594579228656469e-8,3.980239657666938e-9,2.5179485200304485e-9,1.6563930297792726e-8,1.7060140606001607e-7,1.0427827989512731e-7,3.8669068846837146e-8,1.8524525219099304e-7,6
57663,1.6129069687972618e-8,4.0012661303146195e-9,2.5242202150342296e-9,1.651697659200979e-8,1.6753385728416323e-7,1.0485524675709437e-7,3.88021211665658e-8,1.8618637589292141e-7,6
57664,1.6312347089380547e-8,4.022292602962301e-9,2.5304919100380102e-9,1.6470022886226854e-8,1.6446630850831042e-7,1.0543221361906142e-7,3.893517348629446e-8,1.8712749959484976e-7,6
57665,1.649562449078848e-8,4.043319075609983e-9,2.5367636050417913e-9,1.6423069180443918e-8,1.6139875973245758e-7,1.0600918048102849e-7,3.906822580602312e-8,1.880686232967781e-7,6
57666,1.6678901892196408e-8,4.064345548257664e-9,2.5430353000455724e-9,1.6376115474660982e-8,1.5833121095660474e-7,1.0658614734299554e-7,3.920127812575177e-8,1.8900974699870645e-7,6
57667,1.6862179293604337e-8,4.085372020905346e-9,2.5493069950493534e-9,1.6329161768878046e-8,1.552636621807519e-7,1.0716311420496259e-7,3.933433044548043e-8,1.899508707006348e-7,6
57668,1.6865920899927764e-8,4.093663394408895e-9,2.5533268448179642e-9,1.6291057267099318e-8,1.525479295865701e-7,1.081270715519709e-7,3.9370941072401114e-8,1.9003544449936323e-7,6
57669,1.6868536000987787e-8,4.0919571793611645e-9,2.5543392634678556e-9,1.6244103561316382e-8,1.4944066364483095e-7,1.0828245742834589e-7,3.9366308569514324e-8,1.8985976557494815e-7,6
57670,1.6871151102047808e-8,4.0902509643134335e-9,2.555351682117747e-9,1.6197149855533446e-8,1.463333977030918e-7,1.0843784330472089e-7,3.936167606662753e-8,1.8968408665053307e-7,6
57671,1.6873766203107828e-8,4.088544749265703e-9,2.5563641007676386e-9,1.615019614975051e-8,1.4322613176135267e-7,1.0859322918109589e-7,3.9357043563740737e-8,1.89508407726118e-7,6
57672,1.687638130416785e-8,4.086838534217973e-9,2.55737651941753e-9,1.6103242443967574e-8,1.401188658196135e-7,1.0874861505747089e-7,3.9352411060853946e-8,1.893327288017029e-7,6
57673,1.687899640522787e-8,4.085132319170243e-9,2.5583889380674213e-9,1.605628873818464e-8,1.3701159987787435e-7,1.0890400093384589e-7,3.934777855796715e-8,1.8915704987728782e-7,6
57674,1.688161150628789e-8,4.083426104122513e-9,2.559401356717313e-9,1.60093350324017e-8,1.339043339361352e-7,1.0905938681022089e-7,3.934314605508036e-8,1.8898137095287277e-7,6
57675,1.6757034983016378e-8,4.073507357296222e-9,2.5564535752605033e-9,1.5953616508805477e-8,1.3277237174466535e-7,1.0921224361391714e-7,3.934981218679108e-8,1.8815595395989333e-7,6
57676,1.663245845974486e-8,4.063588610469931e-9,2.553505793803694e-9,1.5897897985209255e-8,1.316404095531955e-7,1.093651004176134e-7,3.935647831850179e-8,1.873305369669139e-7,6
57677,1.6507881936473343e-8,4.05366986364364e-9,2.5505580123468846e-9,1.5842179461613032e-8,1.3050844736172563e-7,1.0951795722130965e-7,3.936314445021251e-8,1.8650511997393447e-7,6
57678,1.6383305413201826e-8,4.043751116817349e-9,2.547610230890075e-9,1.578646093801681e-8,1.2937648517025579e-7,1.0967081402500591e-7,3.936981058192323e-8,1.8567970298095503e-7,6
57679,1.625872888993031e-8,4.033832369991058e-9,2.5446624494332656e-9,1.5730742414420588e-8,1.282445229787859e-7,1.0982367082870216e-7,3.937647671363394e-8,1.848542859879756e-7,6
57680,1.613415236665879e-8,4.023913623164767e-9,2.541714667976456e-9,1.5675023890824366e-8,1.2711256078731607e-7,1.0997652763239842e-7,3.938314284534466e-8,1.840288689949962e-7,6
57681,1.6009575843387274e-8,4.013994876338477e-9,2.5387668865196466e-9,1.561930536722814e-8,1.259805985958462e-7,1.1012938443609467e-7,3.938980897705538e-8,1.8320345200201676e-7,6
57682,1.5884999320115756e-8,4.0040761295121856e-9,2.5358191050628373e-9,1.5563586843631918e-8,1.2484863640437635e-7,1.1028224123979093e-7,3.939647510876609e-8,1.8237803500903733e-7,6
57683,1.5760422796844242e-8,3.9941573826858944e-9,2.5328713236060275e-9,1.5507868320035696e-8,1.237166742129065e-7,1.1043509804348718e-7,3.940314124047681e-8,1.815526180160579e-7,6
57684,1.5745828041527493e-8,3.987407320948246e-9,2.5328713236060275e-9,1.551222874598504e-8,1.2370950615566538e-7,1.1026741770164618e-7,3.9319911678230437e-8,1.8152994717590543e-7,6
57685,1.5731233286210747e-8,3.980657259210597e-9,2.5328713236060275e-9,1.5516589171934385e-8,1.2370233809842426e-7,1.1009973735980518e-7,3.9236682115984056e-8,1.8150727633575296e-7,6
57686,1.5716638530894e-8,3.973907197472948e-9,2.5328713236060275e-9,1.552094959788373e-8,1.2369517004118314e-7,1.0993205701796418e-7,3.915345255373768e-8,1.814846054956005e-7,6
57687,1.5702043775577252e-8,3.967157135735299e-9,2.5328713236060275e-9,1.5525310023833076e-8,1.2368800198394202e-07,1.0976437667612318e-7,3.907022299149131e-8,1.8146193465544803e-7,6
57688,1.5687449020260506e-8,3.9604070739976505e-9,2.5328713236060275e-9,1.552967044978242e-8,1.236808339267009e-7,1.0959669633428218e-7,3.8986993429244936e-8,1.8143926381529556e-7,6
57689,1.567285426494376e-8,3.957658300301227e-9,2.5318589049561362e-9,1.5529798801887937e-8,1.236808339267009e-7,1.0954444311848158e-7,3.889551995943148e-8,1.8147058885764107e-7,6
57690,1.565938601489042e-8,3.94889069988761e-9,2.5310884066571096e-9,1.5529342832805903e-8,1.2368457822024491e-7,1.0921412401311039e-7,3.881335011174671e-8,1.8151869811389262e-7,6
57691,1.564591776483708e-8,3.940123099473995e-9,2.530317908358083e-9,1.552888686372387e-8,1.2368832251378895e-7,1.088838049077392e-7,3.873118026406194e-8,1.815668073701442e-7,6
57692,1.563244951478374e-8,3.931355499060378e-9,2.5295474100590562e-09,1.5528430894641834e-8,1.2369206680733296e-7,1.0855348580236802e-7,3.864901041637717e-8,1.8161491662639578e-7,6
57693,1.56189812647304e-8,3.9225878986467614e-9,2.5287769117600295e-9,1.55279749255598e-8,1.2369581110087697e-7,1.0822316669699683e-7,3.85668405686924e-8,1.8166302588264734e-7,6
57694,1.560551301467706e-8,3.913820298233146e-9,2.528006413461003e-9,1.5527518956477767e-8,1.2369955539442097e-7,1.0789284759162565e-7,3.8484670721007624e-8,1.8171113513889892e-7,6
57695,1.5592044764623718e-8,3.905052697819529e-9,2.527235915161976e-9,1.5527062987395734e-8,1.23703299687965e-7,1.0756252848625446e-7,3.8402500873322854e-8,1.817592443951505e-7,6
57696,1.557857651457038e-8,3.8962850974059125e-9,2.5264654168629495e-9,1.5526607018313697e-8,1.2370704398150902e-7,1.0723220938088327e-7,3.8320331025638084e-8,1.8180735365140205e-7,6
57697,1.556510826451704e-8,3.887517496992297e-9,2.525694918563923e-9,1.5526151049231664e-8,1.2371078827505303e-7,1.0690189027551209e-7,3.8238161177953314e-8,1.8185546290765363e-7,6
57698,1.55638661714459e-8,3.883748690854319e-9,2.5219766388080864e-9,1.5486692113632275e-8,1.2313817405936584e-7,1.0536264103435126e-7,3.820924315124408e-8,1.8191528114703895e-7,6
57699,1.5562624078374762e-8,3.879979884716343e-9,2.5182583590522505e-9,1.5447233178032883e-8,1.2256555984367865e-7,1.0382339179319042e-7,3.818032512453485e-8,1.819750993864243e-7,6
57700,1.5561381985303623e-8,3.876211078578366e-9,2.5145400792964145e-9,1.5407774242433494e-8,1.2199294562799146e-7,1.0228414255202957e-7,3.8151407097825624e-8,1.820349176258096e-7,6
57701,1.5560139892232484e-8,3.8724422724403895e-9,2.510821799540578e-9,1.5368315306834102e-8,1.2142033141230427e-7,1.0074489331086874e-7,3.812248907111639e-8,1.8209473586519493e-7,6
57702,1.5558897799161346e-8,3.868673466302413e-9,2.507103519784742e-9,1.5328856371234713e-8,1.2084771719661708e-7,9.92056440697079e-8,3.809357104440716e-8,1.8215455410458025e-7,6
57703,1.5610015203953183e-8,3.91361756236889e-9,2.512165613034199e-9,1.5289397435635324e-8,1.2037024439072957e-7,9.993657996270178e-8,3.852192382587745e-8,1.8244365551335978e-7,6
57704,1.566113260874502e-8,3.958561658435367e-9,2.5172277062836565e-9,1.5249938500035932e-8,1.1989277158484207e-7,1.0066751585569567e-7,3.895027660734773e-8,1.8273275692213932e-7,6
57705,1.5712250013536856e-8,4.003505754501844e-9,2.5222897995331135e-9,1.5210479564436543e-8,1.1941529877895456e-7,1.0139845174868955e-7,3.937862938881802e-8,1.8302185833091888e-7,6
57706,1.5763367418328693e-8,4.0484498505683214e-9,2.527351892782571e-9,1.517102062883715e-8,1.1893782597306707e-7,1.0212938764168343e-7,3.9806982170288306e-8,1.8331095973969842e-7,6
57707,1.581448482312053e-8,4.093393946634798e-9,2.532413986032028e-9,1.5131561693237762e-8,1.1846035316717957e-7,1.0286032353467731e-7,4.0235334951758595e-8,1.8360006114847795e-7,6
57708,1.5865602227912366e-8,4.138338042701276e-9,2.5374760792814854e-9,1.5092102757638374e-8,1.1798288036129208e-7,1.0359125942767119e-7,4.0663687733228885e-8,1.838891625572575e-7,6
57709,1.5916719632704203e-8,4.183282138767753e-9,2.5425381725309424e-9,1.505264382203898e-8,1.1750540755540457e-7,1.0432219532066507e-7,4.109204051469917e-8,1.8417826396603702e-7,6
57710,1.5909864172203546e-8,4.183282138767753e-9,2.5388198927751064e-9,1.5023401997689904e-8,1.1693197891697322e-7,1.028103421938579e-7,4.105249529360789e-8,1.8431253767728564e-7,6
57711,1.590300871170289e-8,4.183282138767753e-9,2.53510161301927e-9,1.4994160173340822e-8,1.1635855027854185e-7,1.0129848906705076e-7,4.101295007251661e-8,1.8444681138853424e-7,6
57712,1.5896153251202233e-8,4.183282138767753e-9,2.531383333263434e-9,1.496491834899174e-8,1.1578512164011049e-7,9.97866359402436e-8,4.0973404851425325e-8,1.8458108509978286e-7,6
57713,1.5889297790701577e-8,4.183282138767753e-9,2.527665053507598e-9,1.4935676524642663e-8,1.1521169300167913e-7,9.827478281343643e-8,4.0933859630334046e-8,1.8471535881103148e-7,6
57714,1.588244233020092e-8,4.183282138767753e-9,2.5239467737517617e-9,1.4906434700293582e-8,1.1463826436324777e-7,9.676292968662927e-8,4.089431440924277e-8,1.8484963252228007e-7,6
57715,1.5875586869700263e-8,4.183282138767753e-9,2.5202284939959257e-9,1.4877192875944503e-8,1.1406483572481641e-7,9.525107655982211e-8,4.085476918815148e-8,1.849839062335287e-7,6
57716,1.5868731409199607e-8,4.183282138767753e-9,2.5165102142400893e-9,1.4847951051595423e-8,1.1349140708638505e-7,9.373922343301495e-8,4.08152239670602e-8,1.8511817994477728e-7,6
57717,1.586187594869895e-8,4.183282138767753e-9,2.5127919344842533e-9,1.4818709227246344e-8,1.129179784479537e-7,9.222737030620779e-8,4.0775678745968924e-8,1.852524536560259e-7,6
57718,1.5855020488198294e-8,4.183282138767753e-9,2.5090736547284173e-9,1.4789467402897262e-8,1.1234454980952233e-7,9.071551717940062e-8,4.073613352487764e-8,1.8538672736727452e-7,6
57719,1.5850533626032186e-8,4.1833271911820315e-9,2.5090587423129395e-9,1.4791946513178432e-8,1.1215390811327239e-7,9.069848895923017e-8,4.073323217676791e-8,1.854830101491367e-7,6
57720,1.5846046763866074e-8,4.183372243596311e-9,2.509043829897462e-9,1.4794425623459602e-8,1.1196326641702245e-7,9.068146073905972e-8,4.073033082865818e-8,1.8557929293099887e-7,6
57721,1.5753661849375047e-8,4.151406991680785e-9,2.5052659004797163e-9,1.4772195653361151e-8,1.1196550716088493e-7,9.039371218411466e-8,4.021078882974344e-8,1.8319785190481236e-7,6
57722,1.5661276934884024e-8,4.119441739765259e-9,2.50148797106197e-9,1.47499656832627e-8,1.119677479047474e-7,9.010596362916961e-8,3.969124683082869e-8,1.8081641087862585e-7,6
57723,1.5568892020393e-8,4.0874764878497336e-9,2.497710041644224e-9,1.472773571316425e-8,1.1196998864860987e-7,8.981821507422455e-8,3.917170483191395e-8,1.7843496985243934e-7,6
57724,1.5476507105901977e-8,4.055511235934207e-9,2.4939321122264778e-9,1.47055057430658e-8,1.1197222939247233e-7,8.95304665192795e-8,3.8652162832999206e-8,1.7605352882625282e-7,6
57725,1.5384122191410953e-8,4.023545984018681e-9,2.490154182808732e-9,1.4683275772967349e-8,1.119744701363348e-7,8.924271796433444e-8,3.813262083408446e-8,1.7367208780006631e-7,6
57726,1.5308691051127464e-8,3.988576950296344e-9,2.4871467516900125e-9,1.4677832272713244e-8,1.1221599923119971e-7,8.904317478354027e-8,3.7627278817876954e-8,1.7114129063483524e-7,6
57727,1.5233259910843977e-8,3.953607916574006e-9,2.484139320571293e-9,1.467238877245914e-8,1.124575283260646e-7,8.88436316027461e-8,3.712193680166945e-8,1.6861049346960413e-7,6
57728,1.514274675745904e-8,3.923836369719848e-9,2.4811318894525736e-9,1.4650158802360689e-8,1.1246819008523614e-7,8.854632949757003e-8,3.674158982260509e-8,1.6607653039359083e-7,6
57729,1.505223360407411e-8,3.89406482286569e-9,2.4781244583338545e-9,1.4627928832262238e-8,1.1247885184440769e-7,8.824902739239396e-8,3.636124284354074e-8,1.6354256731757752e-7,6
57730,1.4961720450689173e-8,3.864293276011531e-9,2.475117027215135e-9,1.4605698862163788e-8,1.1248951360357922e-7,8.795172528721789e-8,3.5980895864476386e-8,1.6100860424156422e-7,6
57731,1.4871207297304241e-8,3.834521729157373e-9,2.4721095960964155e-9,1.4583468892065337e-8,1.1250017536275076e-7,8.765442318204182e-8,3.5600548885412034e-8,1.5847464116555094e-7,6
57732,1.4780694143919307e-8,3.804750182303215e-9,2.469102164977696e-9,1.4561238921966887e-8,1.125108371219223e-7,8.735712107686575e-8,3.522020190634768e-8,1.5594067808953763e-7,6
57733,1.4690180990534373e-8,3.7749786354490564e-9,2.466094733858977e-9,1.4539008951868436e-8,1.1252149888109383e-7,8.705981897168966e-8,3.483985492728332e-8,1.5340671501352433e-7,6
57734,1.4599667837149439e-8,3.745207088594898e-9,2.4630873027402575e-9,1.4516778981769986e-8,1.1253216064026538e-7,8.676251686651359e-8,3.445950794821897e-8,1.5087275193751102e-7,6
57735,1.4509154683764505e-8,3.7154355417407397e-9,2.460079871621538e-9,1.4494549011671535e-8,1.1254282239943692e-7,8.646521476133752e-8,3.407916096915462e-8,1.4833878886149772e-7,6
57736,1.4418641530379573e-8,3.6856639948865815e-9,2.457072440502819e-9,1.4472319041573085e-8,1.1255348415860847e-7,8.616791265616145e-8,3.369881399009027e-8,1.458048257854844e-7,6
57737,1.4328128376994639e-8,3.655892448032423e-9,2.4540650093840994e-9,1.4450089071474634e-8,1.1256414591778e-7,8.587061055098538e-8,3.331846701102591e-8,1.4327086270947113e-7,6
57738,1.4237615223609705e-8,3.6261209011782648e-9,2.45105757826538e-9,1.4427859101376184e-8,1.1257480767695154e-7,8.557330844580931e-8,3.2938120031961556e-8,1.4073689963345783e-7,6
57739,1.414710207022477e-8,3.596349354324106e-9,2.4480501471466604e-9,1.4405629131277733e-8,1.1258546943612308e-7,8.527600634063324e-8,3.2557773052897204e-8,1.3820293655744452e-7,6
57740,1.4056588916839837e-8,3.566577807469948e-9,2.4450427160279413e-9,1.4383399161179283e-8,1.1259613119529463e-7,8.497870423545717e-8,3.217742607383285e-8,1.3566897348143122e-7,6
57741,1.3966075763454903e-8,3.5368062606157894e-9,2.442035284909222e-9,1.4361169191080832e-8,1.1260679295446616e-7,8.46814021302811e-8,3.1797079094768493e-8,1.331350104054179e-7,6
57742,1.3946630139550086e-8,3.5430125168219524e-9,2.4408256831548982e-9,1.436852213573342e-8,1.1148489223938763e-7,8.449829243549005e-8,3.193627411461889e-8,1.3212028346621815e-7,6
57743,1.3940269600389133e-8,3.545251274297599e-9,2.4378779016980885e-9,1.4325728409149405e-8,1.1115510571376687e-7,8.448954991580191e-8,3.2075886371081745e-8,1.319757327618284e-7,6
57744,1.393390906122818e-8,3.5474900317732457e-9,2.434930120241279e-9,1.4282934682565392e-8,1.1082531918814612e-7,8.448080739611377e-8,3.22154986275446e-8,1.318311820574386e-7,6
57745,1.3927548522067227e-8,3.549728789248892e-9,2.43198233878447e-9,1.4240140955981378e-8,1.1049553266252536e-7,8.447206487642562e-8,3.235511088400746e-8,1.3168663135304883e-7,6
57746,1.3934282647093897e-8,3.5457612905183756e-9,2.4302888963284165e-9,1.420079571718264e-8,1.1094680809911058e-7,8.523886688694767e-8,3.257451398513467e-8,1.3272220951913276e-7,6
57747,1.3926050346826855e-8,3.542048799898248e-9,2.4263286962217155e-9,1.4150948534192249e-8,1.106056706873809e-7,8.521700230420398e-8,3.2602842088133176e-8,1.3284519801944594e-7,6
57748,1.3917818046559812e-8,3.53833630927812e-9,2.422368496115015e-9,1.4101101351201857e-8,1.1026453327565122e-7,8.51951377214603e-8,3.2631170191131685e-8,1.3296818651975915e-7,6
57749,1.390958574629277e-8,3.5346238186579917e-9,2.418408296008314e-9,1.4051254168211465e-8,1.0992339586392154e-7,8.51732731387166e-8,3.26594982941302e-8,1.3309117502007236e-7,6
57750,1.3901353446025727e-8,3.530911328037864e-9,2.4144480959016128e-9,1.4001406985221075e-8,1.0958225845219187e-7,8.515140855597291e-8,3.268782639712871e-8,1.3321416352038554e-7,6
57751,1.3893121145758685e-8,3.527198837417736e-9,2.410487895794912e-9,1.3951559802230683e-8,1.0924112104046219e-7,8.512954397322923e-8,3.271615450012722e-8,1.3333715202069875e-7,6
57752,1.3884888845491642e-8,3.5234863467976078e-9,2.406527695688211e-9,1.3901712619240291e-8,1.0889998362873251e-7,8.510767939048553e-8,3.2744482603125734e-8,1.3346014052101193e-7,6
57753,1.38766565452246e-8,3.5197738561774797e-9,2.40256749558151e-9,1.38518654362499e-8,1.0855884621700284e-7,8.508581480774184e-8,3.277281070612424e-8,1.3358312902132514e-7,6
57754,1.3868424244957558e-8,3.516061365557352e-9,2.3986072954748094e-9,1.3802018253259509e-8,1.0821770880527316e-7,8.506395022499816e-8,3.280113880912275e-8,1.3370611752163835e-7,6
57755,1.3860191944690515e-8,3.512348874937224e-9,2.3946470953681084e-9,1.3752171070269118e-8,1.0787657139354348e-7,8.504208564225447e-8,3.282946691212127e-8,1.3382910602195153e-7,6
57756,1.3850469132738105e-8,3.508591331902817e-9,2.3696348774303717e-9,1.3703564624298735e-8,1.0778772340044732e-7,8.446258639419933e-8,3.2849824619333236e-8,1.3404040595868988e-7,6
57757,1.3826773569948895e-8,3.5066188456411284e-9,2.3686224587804804e-9,1.3689115439204599e-8,1.0766726601725693e-7,8.439928005540675e-8,3.287681949598961e-8,1.3415542311356607e-7,6
57758,1.3803078007159685e-8,3.5046463593794402e-9,2.367610040130589e-9,1.3674666254110463e-8,1.0754680863406653e-7,8.433597371661418e-8,3.290381437264597e-8,1.3427044026844224e-7,6
57759,1.3779382444370474e-8,3.5026738731177516e-9,2.3665976214806974e-9,1.3660217069016325e-8,1.0742635125087613e-7,8.427266737782159e-8,3.293080924930234e-8,1.343854574233184e-7,6
57760,1.3760173743747375e-8,3.5026738731177516e-9,2.365585202830806e-9,1.364306019816029e-8,1.0730589386768573e-7,8.428118480131615e-8,3.301631161959263e-8,1.3435055541667375e-7,6
57761,1.3740965043124276e-8,3.5026738731177516e-9,2.3645727841809147e-9,1.3625903327304256e-8,1.0718543648449533e-7,8.428970222481071e-8,3.3101813989882914e-8,1.3431565341002912e-7,6
57762,1.3721756342501176e-8,3.5026738731177516e-9,2.363560365531023e-9,1.360874645644822e-8,1.0706497910130493e-7,8.429821964830527e-8,3.3187316360173205e-8,1.3428075140338447e-7,6
57763,1.3702547641878077e-8,3.5026738731177516e-9,2.3625479468811317e-9,1.3591589585592185e-8,1.0694452171811454e-7,8.430673707179983e-8,3.3272818730463497e-8,1.342458493967398e-7,6
57764,1.3683338941254978e-8,3.5026738731177516e-9,2.3615355282312404e-9,1.3574432714736148e-8,1.0682406433492413e-7,8.43152544952944e-8,3.335832110075378e-8,1.3421094739009515e-7,6
57765,1.3664130240631879e-8,3.5026738731177516e-9,2.3605231095813486e-9,1.3557275843880114e-8,1.0670360695173374e-7,8.432377191878896e-8,3.344382347104407e-8,1.3417604538345052e-7,6
57766,1.3640434677842668e-8,3.50945772416611e-9,2.3657823859352384e-9,1.3544479398973424e-8,1.0666245860450918e-7,8.510641154073682e-8,3.448519530130047e-8,1.3405157334246707e-7,6
57767,1.368669738226893e-8,3.5373428463154218e-9,2.3687301673920477e-9,1.3526909343070527e-8,1.0655228709306992e-7,8.528410887883334e-8,3.4597362198433626e-8,1.351137568087204e-7,6
57768,1.3732960086695194e-8,3.5652279684647337e-9,2.3716779488488574e-9,1.350933928716763e-8,1.0644211558163069e-7,8.546180621692986e-8,3.470952909556678e-8,1.361759402749737e-7,6
57769,1.3779222791121456e-8,3.5931130906140457e-9,2.3746257303056667e-9,1.3491769231264732e-8,1.0633194407019143e-7,8.563950355502637e-8,3.4821695992699934e-8,1.37238123741227e-7,6
57770,1.382548549554772e-8,3.6209982127633576e-9,2.377573511762476e-9,1.3474199175361836e-8,1.062217725587522e-7,8.581720089312289e-8,3.4933862889833095e-8,1.3830030720748029e-7,6
57771,1.3871748199973983e-8,3.64888333491267e-9,2.3805212932192857e-9,1.345662911945894e-8,1.0611160104731294e-7,8.59948982312194e-8,3.504602978696625e-8,1.3936249067373358e-7,6
57772,1.3918010904400245e-8,3.676768457061982e-9,2.383469074676095e-9,1.3439059063556043e-8,1.060014295358737e-7,8.617259556931591e-8,3.51581966840994e-8,1.4042467413998688e-7,6
57773,1.3964273608826508e-8,3.704653579211294e-9,2.3864168561329048e-9,1.3421489007653146e-8,1.0589125802443445e-7,8.635029290741244e-8,3.5270363581232557e-8,1.4148685760624018e-7,6
57774,1.401053631325277e-8,3.732538701360606e-9,2.389364637589714e-9,1.3403918951750248e-8,1.0578108651299521e-7,8.652799024550895e-8,3.538253047836571e-8,1.4254904107249348e-7,6
57775,1.4056799017679034e-8,3.760423823509918e-9,2.3923124190465234e-9,1.3386348895847352e-8,1.0567091500155596e-7,8.670568758360546e-8,3.5494697375498865e-8,1.4361122453874678e-7,6
57776,1.4103061722105297e-8,3.78830894565923e-9,2.395260200503333e-9,1.3368778839944455e-8,1.0556074349011672e-7,8.688338492170197e-8,3.560686427263202e-8,1.4467340800500007e-7,6
57777,1.4149324426531559e-8,3.816194067808542e-9,2.3982079819601424e-9,1.3351208784041559e-8,1.0545057197867747e-7,8.706108225979849e-8,3.571903116976517e-8,1.4573559147125337e-7,6
57778,1.4215789506037833e-8,3.8422941331851354e-9,2.4011855882479066e-9,1.3348087913232798e-8,1.0531683377492271e-7,8.724799550383565e-8,3.575760784688836e-8,1.4677201316749087e-7,6
57779,1.4220528618595674e-8,3.838525327047159e-9,2.4024250148331856e-9,1.33783553725466e-8,1.0517573957021663e-7,8.737833448966284e-8,3.571470542471979e-8,1.4661197768622645e-7,6
57780,1.4221774543444316e-8,3.832562815847814e-9,2.393492195969892e-9,1.33783553725466e-8,1.0602384615998235e-7,8.770118555191326e-8,3.565085537162852e-8,1.4674602244047535e-7,6
57781,1.4223020468292959e-8,3.82660030464847e-9,2.384559377106599e-9,1.33783553725466e-8,1.0687195274974805e-7,8.802403661416368e-8,3.558700531853725e-8,1.4688006719472428e-7,6
57782,1.42242663931416e-8,3.820637793449126e-9,2.3756265582433058e-9,1.33783553725466e-8,1.0772005933951377e-7,8.83468876764141e-8,3.5523155265445984e-8,1.4701411194897318e-7,6
57783,1.4225512317990241e-8,3.8146752822497815e-9,2.3666937393800123e-9,1.33783553725466e-8,1.0856816592927948e-7,8.866973873866452e-8,3.5459305212354715e-8,1.4714815670322208e-7,6
57784,1.4226758242838883e-8,3.808712771050437e-9,2.3577609205167194e-9,1.33783553725466e-8,1.0941627251904519e-7,8.899258980091493e-8,3.5395455159263446e-8,1.47282201457471e-7,6
57785,1.4228004167687524e-8,3.802750259851093e-9,2.348828101653426e-9,1.33783553725466e-8,1.1026437910881091e-7,8.931544086316535e-8,3.5331605106172183e-8,1.474162462117199e-7,6
57786,1.4229250092536166e-8,3.796787748651749e-9,2.339895282790133e-9,1.33783553725466e-8,1.1111248569857661e-7,8.963829192541577e-8,3.5267755053080914e-8,1.4755029096596883e-7,6
57787,1.4230496017384809e-8,3.790825237452404e-9,2.3309624639268396e-9,1.33783553725466e-8,1.1196059228834233e-7,8.996114298766619e-8,3.5203904999989645e-8,1.4768433572021773e-7,6
57788,1.423174194223345e-8,3.78486272625306e-9,2.322029645063546e-9,1.33783553725466e-8,1.1280869887810804e-7,9.028399404991661e-8,3.5140054946898376e-8,1.4781838047446663e-7,6
57789,1.4232987867082091e-8,3.778900215053716e-9,2.313096826200253e-9,1.33783553725466e-8,1.1365680546787375e-7,9.060684511216703e-8,3.507620489380711e-8,1.4795242522871555e-7,6
57790,1.4234233791930733e-8,3.772937703854371e-9,2.3041640073369598e-9,1.33783553725466e-8,1.1450491205763947e-7,9.092969617441744e-8,3.501235484071584e-8,1.4808646998296445e-7,6
57791,1.4235479716779374e-8,3.766975192655027e-9,2.2952311884736663e-9,1.33783553725466e-8,1.1535301864740517e-7,9.125254723666786e-8,3.4948504787624576e-8,1.4822051473721335e-7,6
57792,1.4236725641628017e-8,3.761012681455683e-9,2.2862983696103734e-9,1.33783553725466e-8,1.1620112523717089e-7,9.157539829891828e-8,3.488465473453331e-8,1.4835455949146228e-7,6
57793,1.4237971566476658e-8,3.755050170256339e-9,2.27736555074708e-9,1.33783553725466e-8,1.1704923182693661e-7,9.18982493611687e-8,3.482080468144204e-8,1.4848860424571118e-7,6
57794,1.42392174913253e-8,3.749087659056994e-9,2.268432731883787e-9,1.33783553725466e-8,1.1789733841670231e-7,9.222110042341913e-8,3.475695462835077e-8,1.4862264899996007e-7,6
57795,1.4240463416173941e-8,3.74312514785765e-9,2.2594999130204936e-9,1.33783553725466e-8,1.1874544500646803e-7,9.254395148566955e-8,3.46931045752595e-8,1.48756693754209e-7,6
57796,1.4241709341022583e-8,3.737162636658306e-9,2.2505670941572e-9,1.33783553725466e-8,1.1959355159623374e-7,9.286680254791995e-8,3.462925452216824e-8,1.488907385084579e-7,6
57797,1.4242955265871226e-8,3.731200125458961e-9,2.241634275293907e-9,1.33783553725466e-8,1.2044165818599945e-7,9.318965361017038e-8,3.456540446907697e-8,1.490247832627068e-7,6
57798,1.4244201190719867e-8,3.725237614259617e-9,2.2327014564306138e-9,1.33783553725466e-8,1.2128976477576517e-7,9.35125046724208e-8,3.45015544159857e-8,1.4915882801695572e-7,6
57799,1.4245447115568508e-8,3.719275103060273e-9,2.2237686375673203e-9,1.33783553725466e-8,1.221378713655309e-7,9.383535573467122e-8,3.443770436289443e-8,1.4929287277120462e-7,6
57800,1.4040569424537916e-8,3.6774474198363047e-9,2.222756218917429e-9,1.3411330517622298e-8,1.2303236442530682e-7,9.43734463607708e-8,3.444660040249942e-8,1.4931898132537834e-7,6
57801,1.3967633965729213e-8,3.6754636704710467e-9,2.202623823540195e-9,1.3417758050685375e-8,1.2269747425819113e-7,9.490670062429715e-8,3.420118490656726e-8,1.477923582887237e-7,6
57802,1.3940591457258558e-8,3.6772036748294862e-9,2.182491428162961e-9,1.3390754469590718e-8,1.215051167674497e-7,9.497599200049622e-8,3.387661138983112e-8,1.4628881044842175e-7,6
57803,1.3870896935767325e-8,3.6772374641401956e-9,2.168630727789508e-9,1.3402140223216134e-8,1.2085087068315103e-7,9.498197372449337e-8,3.357570451094038e-8,1.4513299863928988e-7,6
57804,1.3801202414276092e-8,3.677271253450905e-9,2.1547700274160544e-9,1.341352597684155e-8,1.2019662459885233e-7,9.498795544849051e-8,3.3274797632049636e-8,1.4397718683015802e-7,6
57805,1.3731507892784858e-8,3.677305042761614e-9,2.1409093270426013e-9,1.3424911730466964e-8,1.1954237851455364e-7,9.499393717248767e-8,3.29738907531589e-8,1.4282137502102615e-7,6
57806,1.3661813371293625e-8,3.677338832072323e-9,2.1270486266691483e-9,1.343629748409238e-8,1.1888813243025495e-7,9.499991889648482e-8,3.2672983874268155e-8,1.416655632118943e-7,6
57807,1.3592118849802392e-8,3.6773726213830325e-9,2.113187926295695e-9,1.3447683237717794e-8,1.1823388634595626e-7,9.500590062048196e-8,3.237207699537741e-8,1.4050975140276242e-7,6
57808,1.352242432831116e-8,3.677406410693742e-9,2.099327225922242e-9,1.345906899134321e-8,1.1757964026165757e-7,9.501188234447911e-8,3.207117011648667e-8,1.3935393959363056e-7,6
57809,1.3452729806819925e-8,3.677440200004451e-9,2.085466525548789e-9,1.3470454744968625e-8,1.1692539417735888e-7,9.501786406847627e-8,3.177026323759593e-8,1.381981277844987e-7,6
57810,1.3383035285328692e-8,3.67747398931516e-9,2.0716058251753354e-9,1.348184049859404e-8,1.1627114809306019e-7,9.502384579247341e-8,3.146935635870519e-8,1.3704231597536682e-7,6
57811,1.331334076383746e-8,3.6775077786258695e-9,2.0577451248018823e-9,1.3493226252219455e-8,1.156169020087615e-7,9.502982751647056e-8,3.1168449479814445e-8,1.3588650416623496e-7,6
57812,1.3243646242346227e-8,3.677541567936579e-9,2.0438844244284293e-9,1.3504612005844871e-8,1.1496265592446281e-7,9.503580924046772e-8,3.08675426009237e-8,1.347306923571031e-7,6
57813,1.3173951720854992e-8,3.677575357247288e-9,2.030023724054976e-9,1.3515997759470285e-8,1.1430840984016411e-7,9.504179096446486e-8,3.056663572203296e-8,1.3357488054797123e-7,6
57814,1.310425719936376e-8,3.6776091465579975e-9,2.016163023681523e-9,1.3527383513095701e-8,1.1365416375586543e-7,9.504777268846201e-8,3.026572884314222e-8,1.3241906873883936e-7,6
57815,1.3103130694100353e-8,3.679615422130395e-9,2.0221778859189614e-9,1.3558034846846632e-8,1.1423024061700931e-7,9.505417923798162e-8,3.0279439726821026e-8,1.329370656937374e-7,6
57816,1.2938155168335071e-08,3.709851932791051e-9,2.0159061909151807e-9,1.3576375015382637e-8,1.1453334992613445e-7,9.51853998685371e-8,3.026616538793223e-8,1.327663655960561e-7,6
57817,1.2773179642569787e-8,3.740088443451707e-9,2.0096344959113997e-9,1.3594715183918643e-8,1.1483645923525957e-7,9.531662049909258e-8,3.025289104904345e-8,1.3259566549837482e-7,6
57818,1.2608204116804505e-8,3.770324954112363e-9,2.0033628009076186e-9,1.361305535245465e-8,1.1513956854438469e-7,9.544784112964807e-8,3.023961671015466e-8,1.3242496540069352e-7,6
57819,1.2443228591039223e-8,3.800561464773019e-9,1.9970911059038375e-9,1.3631395520990654e-8,1.1544267785350981e-7,9.557906176020354e-8,3.022634237126587e-8,1.3225426530301222e-7,6
57820,1.2278253065273941e-8,3.830797975433675e-9,1.9908194109000565e-9,1.3649735689526661e-8,1.1574578716263495e-7,9.571028239075903e-8,3.021306803237708e-8,1.3208356520533091e-7,6
57821,1.2113277539508657e-8,3.861034486094331e-9,1.984547715896276e-9,1.3668075858062667e-8,1.1604889647176007e-7,9.58415030213145e-8,3.019979369348829e-8,1.3191286510764961e-7,6
57822,1.1948302013743375e-8,3.891270996754987e-9,1.9782760208924948e-9,1.3686416026598674e-8,1.1635200578088519e-7,9.597272365186999e-8,3.0186519354599504e-8,1.317421650099683e-7,6
57823,1.1783326487978093e-8,3.921507507415644e-9,1.9720043258887137e-9,1.3704756195134678e-8,1.1665511509001032e-7,9.610394428242547e-8,3.017324501571072e-8,1.31571464912287e-7,6
57824,1.1626209676614135e-8,3.921762515526032e-9,1.965989463651275e-9,1.3704756195134678e-8,1.1664682909094794e-7,9.635450482295492e-8,3.0314200152604493e-8,1.3108664675480387e-7,6
57825,1.1469092865250179e-8,3.9220175236364206e-9,1.959974601413836e-9,1.3704756195134678e-8,1.1663854309188556e-7,9.660506536348436e-8,3.045515528949827e-8,1.306018285973207e-7,6
57826,1.131197605388622e-8,3.9222725317468084e-9,1.9539597391763976e-9,1.3704756195134678e-8,1.1663025709282319e-7,9.68556259040138e-8,3.0596110426392045e-8,1.3011701043983756e-7,6
57827,1.1154859242522264e-8,3.922527539857197e-9,1.9479448769389586e-9,1.3704756195134678e-8,1.1662197109376081e-7,9.710618644454324e-8,3.073706556328582e-8,1.296321922823544e-7,6
57828,1.0997742431158306e-8,3.922782547967586e-9,1.94193001470152e-9,1.3704756195134678e-8,1.1661368509469844e-7,9.73567469850727e-8,3.0878020700179596e-8,1.2914737412487126e-7,6
57829,1.084062561979435e-8,3.923037556077974e-9,1.935915152464081e-9,1.3704756195134678e-8,1.1660539909563606e-7,9.760730752560214e-8,3.101897583707337e-8,1.2866255596738812e-7,6
57830,1.0683508808430392e-8,3.923292564188362e-9,1.9299002902266425e-9,1.3704756195134678e-8,1.1659711309657369e-7,9.785786806613158e-8,3.115993097396715e-8,1.2817773780990495e-7,6
57831,1.0526391997066434e-8,3.923547572298751e-9,1.923885427989204e-9,1.3704756195134678e-8,1.1658882709751131e-7,9.810842860666102e-8,3.130088611086092e-8,1.276929196524218e-7,6
57832,1.0369275185702478e-8,3.923802580409139e-9,1.917870565751765e-9,1.3704756195134678e-8,1.1658054109844894e-7,9.835898914719046e-8,3.14418412477547e-8,1.2720810149493864e-7,6
57833,1.021215837433852e-8,3.9240575885195275e-9,1.9118557035143264e-9,1.3704756195134678e-8,1.1657225509938656e-7,9.860954968771992e-8,3.1582796384648474e-8,1.267232833374555e-7,6
57834,1.0055041562974563e-8,3.924312596629916e-9,1.9058408412768874e-9,1.3704756195134678e-8,1.1656396910032419e-7,9.886011022824936e-8,3.172375152154225e-8,1.2623846517997233e-7,6
57835,9.897924751610605e-9,3.924567604740304e-9,1.899825979039449e-9,1.3704756195134678e-8,1.1655568310126181e-7,9.91106707687788e-8,3.186470665843603e-8,1.257536470224892e-7,6
57836,9.848184186585154e-9,3.888844809790371e-9,1.89612261169909e-9,1.3704756195134678e-8,1.1655568310126181e-7,9.925741673333444e-8,3.1990996305566226e-8,1.2569848024167786e-7,6
57837,9.819019582505431e-9,3.855094501102127e-9,1.894429169243037e-9,1.3715529498842234e-8,1.1654726208595274e-7,9.958223744118899e-8,3.219792629496871e-8,1.2563589643346744e-7,6
57838,9.82425553229173e-9,3.85133695806772e-9,1.8926760771250734e-9,1.3731731647499029e-8,1.1696642694921655e-7,9.928569449241642e-8,3.212107541476919e-8,1.2559182205551443e-7,6
57839,9.829491482078026e-9,3.847579415033313e-9,1.8909229850071103e-9,1.3747933796155823e-8,1.1738559181248036e-7,9.898915154364384e-8,3.204422453456968e-8,1.2554774767756142e-7,6
57840,9.834727431864323e-9,3.8438218719989054e-9,1.8891698928891472e-9,1.3764135944812618e-8,1.1780475667574416e-7,9.869260859487126e-8,3.1967373654370156e-8,1.255036732996084e-7,6
57841,9.839963381650622e-9,3.840064328964499e-9,1.887416800771184e-9,1.3780338093469411e-8,1.1822392153900798e-7,9.839606564609868e-8,3.189052277417064e-8,1.254595989216554e-7,6
57842,9.845199331436919e-9,3.836306785930092e-9,1.885663708653221e-9,1.3796540242126204e-8,1.1864308640227178e-7,9.80995226973261e-8,3.181367189397112e-8,1.2541552454370236e-7,6
57843,9.850435281223217e-9,3.832549242895685e-9,1.883910616535258e-9,1.3812742390783e-8,1.1906225126553559e-7,9.780297974855353e-8,3.1736821013771605e-8,1.2537145016574935e-7,6
57844,9.855671231009514e-9,3.828791699861277e-9,1.8821575244172944e-9,1.3828944539439793e-8,1.194814161287994e-7,9.750643679978096e-8,3.1659970133572084e-8,1.2532737578779634e-7,6
57845,9.860907180795811e-9,3.825034156826871e-9,1.8804044322993312e-9,1.3845146688096588e-8,1.199005809920632e-7,9.720989385100838e-8,3.158311925337257e-8,1.2528330140984333e-7,6
57846,9.86614313058211e-9,3.821276613792464e-9,1.878651340181368e-9,1.3861348836753381e-8,1.2031974585532702e-7,9.691335090223579e-8,3.150626837317305e-8,1.2523922703189032e-7,6
57847,9.871379080368406e-9,3.8175190707580565e-9,1.876898248063405e-9,1.3877550985410175e-8,1.2073891071859083e-7,9.661680795346322e-8,3.142941749297353e-8,1.251951526539373e-7,6
57848,9.876615030154705e-9,3.81376152772365e-9,1.875145155945442e-9,1.389375313406697e-8,1.2115807558185463e-7,9.632026500469064e-8,3.135256661277401e-8,1.251510782759843e-7,6
57849,9.881850979941002e-9,3.810003984689243e-9,1.873392063827479e-9,1.3909955282723763e-8,1.2157724044511844e-7,9.602372205591807e-8,3.12757157325745e-8,1.2510700389803126e-7,6
57850,9.887086929727299e-9,3.806246441654836e-9,1.8716389717095157e-9,1.3926157431380558e-8,1.2199640530838224e-7,9.57271791071455e-8,3.1198864852374976e-8,1.2506292952007825e-7,6
57851,9.892322879513597e-9,3.802488898620428e-9,1.869885879591552e-9,1.3942359580037351e-8,1.2241557017164604e-7,9.543063615837292e-8,3.112201397217546e-8,1.2501885514212524e-7,6
57852,9.897558829299894e-9,3.798731355586022e-9,1.868132787473589e-9,1.3958561728694145e-8,1.2283473503490985e-7,9.513409320960034e-8,3.104516309197594e-8,1.2497478076417223e-7,6
57853,9.902794779086193e-9,3.794973812551615e-9,1.866379695355626e-9,1.397476387735094e-8,1.2325389989817368e-7,9.483755026082776e-8,3.0968312211776425e-8,1.2493070638621922e-7,6
57854,9.90803072887249e-9,3.7912162695172076e-9,1.864626603237663e-9,1.3990966026007733e-8,1.2367306476143748e-7,9.454100731205518e-8,3.089146133157691e-8,1.248866320082662e-7,6
57855,9.913266678658786e-9,3.787458726482801e-9,1.8628735111196997e-9,1.4007168174664527e-8,1.2409222962470128e-7,9.42444643632826e-8,3.081461045137739e-8,1.248425576303132e-7,6
57856,9.918502628445085e-9,3.783701183448394e-9,1.8611204190017364e-9,1.4023370323321322e-8,1.245113944879651e-7,9.394792141451003e-8,3.0737759571177874e-8,1.247984832523602e-7,6
57857,9.923738578231382e-9,3.779943640413987e-9,1.8593673268837733e-9,1.4039572471978115e-8,1.249305593512289e-7,9.365137846573746e-8,3.066090869097835e-8,1.2475440887440715e-7,6
57858,9.933087804318073e-9,3.7761860973795795e-9,1.8606216658845295e-9,1.4057142527881011e-8,1.255842513248369e-7,9.374057471930409e-8,3.066757482268907e-8,1.247685473537679e-7,6
57859,9.942437030404765e-9,3.7761860973795795e-9,1.862888423535177e-9,1.4069553916471148e-8,1.2604811602493915e-7,9.383318500368708e-8,3.065584929739032e-8,1.2475241386193834e-7,6
57860,9.959017218746582e-9,3.77617483427601e-9,1.862888423535177e-9,1.4064808434205249e-8,1.2588709356653456e-7,9.384941213354267e-8,3.069276668215241e-8,1.246955238718972e-7,6
57861,9.959017218746582e-9,3.776928595503605e-9,1.8639008421850685e-9,1.4059649766892489e-8,1.2570082021275266e-7,9.390726418172934e-8,3.0672797249286585e-8,1.2462198021378966e-7,6
57862,9.959017218746582e-9,3.777682356731201e-9,1.86491326083496e-9,1.4054491099579727e-8,1.2551454685897073e-7,9.396511622991602e-8,3.065282781642076e-8,1.2454843655568207e-7,6
57863,9.959017218746582e-9,3.778436117958796e-9,1.8659256794848515e-9,1.4049332432266966e-8,1.253282735051888e-7,9.40229682781027e-8,3.063285838355493e-8,1.244748928975745e-7,6
57864,9.959017218746582e-9,3.779189879186392e-9,1.866938098134743e-9,1.4044173764954206e-8,1.2514200015140687e-7,9.408082032628936e-8,3.06128889506891e-8,1.244013492394669e-7,6
57865,9.959017218746582e-9,3.779943640413987e-9,1.867950516784634e-9,1.4039015097641446e-8,1.2495572679762497e-7,9.413867237447604e-8,3.0592919517823274e-8,1.2432780558135932e-7,6
57866,9.959017218746582e-9,3.7806974016415825e-9,1.868962935434526e-9,1.4033856430328684e-8,1.2476945344384304e-7,9.419652442266272e-8,3.057295008495745e-8,1.2425426192325174e-7,6
57867,9.959017218746582e-9,3.7814511628691775e-9,1.8699753540844172e-9,1.4028697763015923e-8,1.245831800900611e-7,9.42543764708494e-8,3.055298065209162e-8,1.2418071826514418e-7,6
57868,9.959017218746582e-9,3.7822049240967725e-9,1.8709877727343085e-9,1.4023539095703163e-8,1.243969067362792e-7,9.431222851903607e-8,3.053301121922579e-8,1.241071746070366e-7,6
57869,9.959017218746582e-9,3.782958685324368e-9,1.8720001913842e-9,1.4018380428390403e-8,1.2421063338249728e-7,9.437008056722275e-8,3.0513041786359964e-8,1.2403363094892902e-7,6
57870,9.959017218746582e-9,3.783712446551963e-9,1.8730126100340916e-9,1.401322176107764e-8,1.2402436002871535e-7,9.442793261540943e-8,3.0493072353494136e-8,1.2396008729082143e-7,6
57871,9.959017218746582e-9,3.784466207779559e-9,1.874025028683983e-9,1.400806309376488e-8,1.2383808667493345e-7,9.448578466359609e-8,3.047310292062831e-8,1.2388654363271385e-7,6
57872,9.938073419601393e-9,3.779212405393531e-9,1.8750374473338742e-9,1.400290442645212e-8,1.2373865658133895e-7,9.312067418793525e-8,3.039992028314204e-8,1.238607390164587e-7,6
57873,9.917129620456202e-9,3.773958603007503e-9,1.876049865983766e-9,1.399774575913936e-8,1.2363922648774448e-7,9.17555637122744e-8,3.0326737645655764e-8,1.2383493440020355e-7,6
57874,9.896185821311011e-9,3.767696031283491e-9,1.876306698750108e-9,1.39939549990727e-8,1.2354384906699103e-7,9.186482812503479e-8,3.02531474256458e-8,1.2411765042961948e-7,6
57875,9.875242022165822e-9,3.76143345955948e-9,1.87656353151645e-9,1.3990164239006044e-8,1.2344847164623762e-7,9.19740925377952e-8,3.0179557205635834e-8,1.2440036645903543e-7,6
57876,9.854298223020631e-9,3.755170887835468e-9,1.8768203642827926e-9,1.3986373478939385e-8,1.2335309422548417e-7,9.208335695055559e-8,3.010596698562587e-8,1.2468308248845138e-7,6
57877,9.833354423875442e-9,3.748908316111457e-9,1.8770771970491347e-9,1.3982582718872727e-8,1.2325771680473075e-7,9.219262136331599e-8,3.0032376765615903e-8,1.249657985178673e-7,6
57878,9.812410624730251e-9,3.742645744387444e-9,1.877334029815477e-9,1.3978791958806069e-8,1.2316233938397733e-7,9.23018857760764e-8,2.995878654560594e-8,1.2524851454728326e-7,6
57879,9.80717084316645e-9,3.7423907362770564e-9,1.8775908625818193e-9,1.3977038995243411e-8,1.2311403026984157e-7,9.374150242830132e-8,2.994550255262838e-8,1.2545555064872333e-7,6
57880,9.801557475736932e-9,3.7423907362770564e-9,1.8798128829860343e-9,1.397387534039948e-8,1.230934658166692e-7,9.365062012628219e-8,2.9931547119435355e-8,1.2535770934527208e-7,6
57881,9.795944108307414e-9,3.7423907362770564e-9,1.8820349033902497e-9,1.3970711685555546e-8,1.230729013634968e-7,9.355973782426307e-8,2.991759168624233e-8,1.252598680418208e-7,6
57882,9.790330740877896e-9,3.7423907362770564e-9,1.884256923794465e-9,1.3967548030711613e-8,1.2305233691032442e-7,9.346885552224394e-8,2.990363625304931e-8,1.2516202673836953e-7,6
57883,9.784717373448378e-9,3.7423907362770564e-9,1.88647894419868e-9,1.3964384375867681e-8,1.2303177245715205e-7,9.33779732202248e-8,2.9889680819856294e-8,1.2506418543491825e-7,6
57884,9.77910400601886e-9,3.7423907362770564e-9,1.8887009646028954e-9,1.3961220721023747e-8,1.2301120800397965e-7,9.328709091820569e-8,2.987572538666327e-8,1.2496634413146696e-7,6
57885,9.773490638589342e-9,3.7423907362770564e-9,1.8909229850071103e-9,1.3958057066179816e-8,1.2299064355080728e-7,9.319620861618655e-8,2.986176995347025e-8,1.248685028280157e-7,6
57886,9.767877271159824e-9,3.7423907362770564e-9,1.8931450054113257e-9,1.3954893411335882e-8,1.2297007909763488e-7,9.310532631416744e-8,2.984781452027723e-8,1.2477066152456442e-7,6
57887,9.762263903730306e-9,3.7423907362770564e-9,1.8953670258155407e-9,1.3951729756491949e-8,1.229495146444625e-7,9.30144440121483e-8,2.9833859087084204e-8,1.2467282022111316e-7,6
57888,9.756650536300788e-9,3.7423907362770564e-9,1.897589046219756e-9,1.3948566101648017e-8,1.2292895019129014e-7,9.292356171012917e-8,2.981990365389118e-8,1.2457497891766188e-7,6
57889,9.75103716887127e-9,3.7423907362770564e-9,1.8998110666239714e-9,1.3945402446804084e-8,1.2290838573811774e-7,9.283267940811005e-8,2.9805948220698166e-8,1.244771376142106e-7,6
57890,9.745423801441753e-9,3.7423907362770564e-9,1.9020330870281864e-9,1.394223879196015e-8,1.2288782128494537e-7,9.274179710609092e-8,2.979199278750514e-8,1.2437929631075934e-7,6
57891,9.739810434012235e-9,3.7423907362770564e-9,1.9042551074324017e-9,1.3939075137116219e-8,1.2286725683177297e-7,9.26509148040718e-8,2.977803735431212e-8,1.2428145500730805e-7,6
57892,9.734197066582717e-9,3.7423907362770564e-9,1.9064771278366167e-9,1.3935911482272285e-8,1.228466923786006e-7,9.256003250205267e-8,2.9764081921119098e-8,1.2418361370385677e-7,6
57893,9.728583699153199e-9,3.7423907362770564e-9,1.908699148240832e-9,1.3932747827428352e-8,1.2282612792542823e-7,9.246915020003355e-8,2.9750126487926075e-8,1.240857724004055e-7,6
57894,9.72821011328748e-9,3.742645744387444e-9,1.909938574826111e-9,1.3931123215971214e-8,1.2287195542452782e-7,9.202354519699279e-8,2.974945504771062e-8,1.240545457692201e-7,6
57895,9.729708288527853e-9,3.742889489394264e-9,1.9152276760109552e-9,1.3961945685862835e-8,1.2332458724399802e-7,9.158906724453876e-8,2.9748539057980943e-8,1.2414960208784816e-7,6
57896,9.718731888171797e-9,3.743631987518289e-9,1.9134298466465598e-9,1.3989804947660946e-8,1.2349852192587652e-7,9.175798675585444e-8,2.980403044093953e-8,1.2384722514585958e-7,6
57897,9.70775548781574e-9,3.744374485642315e-9,1.911632017282164e-9,1.4017664209459057e-8,1.23672456607755e-7,9.19269062671701e-8,2.985952182389811e-8,1.2354484820387097e-7,6
57898,9.696779087459684e-9,3.7451169837663405e-9,1.9098341879177685e-9,1.4045523471257169e-8,1.238463912896335e-7,9.209582577848577e-8,2.9915013206856696e-8,1.232424712618824e-7,6
57899,9.685802687103627e-9,3.745859481890366e-9,1.9080363585533727e-9,1.407338273305528e-8,1.24020325971512e-7,9.226474528980143e-8,2.997050458981528e-8,1.229400943198938e-7,6
57900,9.67482628674757e-9,3.746601980014392e-9,1.9062385291889772e-9,1.4101241994853392e-8,1.2419426065339047e-7,9.24336648011171e-8,3.0025995972773865e-8,1.2263771737790523e-7,6
57901,9.663849886391512e-9,3.7473444781384165e-9,1.9044406998245818e-9,1.4129101256651504e-8,1.2436819533526897e-7,9.260258431243276e-8,3.0081487355732447e-8,1.2233534043591662e-7,6
57902,9.652873486035456e-9,3.748086976262442e-9,1.902642870460186e-9,1.4156960518449615e-8,1.2454213001714747e-7,9.277150382374842e-8,3.0136978738691034e-8,1.2203296349392804e-7,6
57903,9.641897085679399e-9,3.748829474386468e-9,1.9008450410957905e-9,1.4184819780247726e-8,1.2471606469902594e-7,9.29404233350641e-8,3.0192470121649615e-8,1.2173058655193945e-7,6
57904,9.630920685323343e-9,3.749571972510493e-9,1.8990472117313946e-9,1.4212679042045837e-8,1.2488999938090444e-7,9.310934284637977e-8,3.02479615046082e-8,1.2142820960995087e-7,6
57905,9.619944284967286e-9,3.750314470634519e-9,1.8972493823669992e-9,1.4240538303843948e-8,1.2506393406278294e-7,9.327826235769543e-8,3.0303452887566784e-8,1.2112583266796226e-7,6
57906,9.60896788461123e-9,3.751056968758545e-9,1.8954515530026034e-9,1.4268397565642059e-8,1.2523786874466142e-7,9.34471818690111e-8,3.035894427052537e-8,1.2082345572597368e-7,6
57907,9.597991484255173e-9,3.75179946688257e-9,1.893653723638208e-9,1.4296256827440172e-8,1.2541180342653992e-7,9.361610138032676e-8,3.0414435653483953e-8,1.205210787839851e-7,6
57908,9.587015083899116e-9,3.752541965006596e-9,1.8918558942738125e-9,1.4324116089238283e-8,1.255857381084184e-7,9.378502089164242e-8,3.046992703644254e-8,1.2021870184199652e-7,6
57909,9.57603868354306e-9,3.7532844631306215e-9,1.8900580649094166e-9,1.4351975351036394e-8,1.257596727902969e-7,9.395394040295809e-8,3.052541841940112e-8,1.199163249000079e-7,6
57910,9.565062283187003e-9,3.754026961254647e-9,1.888260235545021e-9,1.4379834612834505e-8,1.259336074721754e-7,9.412285991427376e-8,3.058090980235971e-8,1.1961394795801932e-7,6
57911,9.554085882830947e-9,3.754769459378673e-9,1.8864624061806254e-9,1.4407693874632616e-8,1.2610754215405387e-7,9.429177942558943e-8,3.063640118531829e-8,1.1931157101603074e-7,6
57912,9.543109482474888e-9,3.755511957502698e-9,1.88466457681623e-9,1.4435553136430727e-8,1.2628147683593237e-7,9.446069893690509e-8,3.069189256827687e-8,1.1900919407404215e-7,6
57913,9.532133082118832e-9,3.756254455626724e-9,1.882866747451834e-9,1.446341239822884e-8,1.2645541151781087e-7,9.462961844822076e-8,3.074738395123546e-8,1.1870681713205356e-7,6
57914,9.521156681762775e-9,3.7569969537507496e-9,1.8810689180874386e-9,1.4491271660026951e-8,1.2662934619968934e-7,9.479853795953642e-8,3.080287533419404e-8,1.1840444019006497e-7,6
57915,9.510180281406719e-9,3.757739451874775e-9,1.879271088723043e-9,1.4519130921825062e-8,1.2680328088156784e-7,9.496745747085209e-8,3.085836671715263e-8,1.1810206324807639e-7,6
57916,9.499203881050662e-9,3.758481949998801e-9,1.8774732593586473e-9,1.4546990183623174e-8,1.2697721556344634e-7,9.513637698216775e-8,3.091385810011121e-8,1.1779968630608779e-7,6
57917,9.495090604750267e-9,3.759213185019257e-9,1.878682861112971e-9,1.4572028062858734e-8,1.2710905974943933e-7,9.532351532239849e-8,3.095771512836456e-8,1.1786656207003287e-7,6
57918,9.3029569827066e-9,3.750201839598822e-9,1.864885132104653e-9,1.457547655064401e-8,1.2780239895070031e-7,9.48335731660657e-8,3.092713780929423e-8,1.1699144717165481e-7,6
57919,9.332133082118832e-9,3.7474530659023984e-9,1.849122215458462e-9,1.4565259439393699e-8,1.276901673487789e-7,9.403907933081099e-8,3.093756872460593e-8,1.1778404085581557e-7,6
57920,9.361309181531065e-9,3.744704292205975e-9,1.8333592988122707e-9,1.455504232814339e-8,1.2757793574685744e-7,9.324458549555627e-8,3.094799963991764e-8,1.1857663453997634e-7,6
57921,9.390485280943298e-9,3.741955518509552e-9,1.8175963821660796e-9,1.4544825216893079e-8,1.27465704144936e-7,9.245009166030155e-8,3.095843055522934e-8,1.1936922822413712e-7,6
57922,9.41966138035553e-9,3.7392067448131286e-9,1.8018334655198886e-9,1.453460810564277e-8,1.2735347254301454e-7,9.165559782504683e-8,3.0968861470541046e-8,1.2016182190829786e-7,6
57923,9.448837479767763e-9,3.736457971116705e-9,1.7860705488736974e-9,1.4524390994392459e-8,1.272412409410931e-7,9.086110398979212e-8,3.097929238585275e-8,1.2095441559245863e-7,6
57924,9.478013579179996e-9,3.733709197420282e-9,1.7703076322275062e-9,1.4514173883142148e-8,1.2712900933917167e-7,9.006661015453741e-8,3.098972330116445e-8,1.2174700927661938e-7,6
57925,9.507189678592228e-9,3.730960423723859e-9,1.754544715581315e-9,1.4503956771891838e-8,1.2701677773725021e-7,8.92721163192827e-8,3.100015421647616e-8,1.2253960296078015e-7,6
57926,9.536365778004461e-9,3.728211650027436e-9,1.738781798935124e-9,1.4493739660641528e-8,1.2690454613532876e-7,8.847762248402798e-8,3.101058513178786e-8,1.2333219664494092e-7,6
57927,9.565541877416694e-9,3.725462876331012e-9,1.723018882288933e-9,1.4483522549391218e-8,1.2679231453340731e-7,8.768312864877326e-8,3.102101604709957e-8,1.2412479032910167e-7,6
57928,9.594717976828926e-9,3.7227141026345888e-9,1.7072559656427417e-9,1.4473305438140907e-8,1.2668008293148586e-7,8.688863481351854e-8,3.103144696241127e-8,1.2491738401326244e-7,6
57929,9.62389407624116e-9,3.7199653289381656e-9,1.6914930489965506e-9,1.4463088326890598e-8,1.2656785132956441e-7,8.609414097826382e-8,3.1041877877722974e-8,1.257099776974232e-7,6
57930,9.828363695408506e-9,3.713969028428112e-9,1.6895278613586777e-9,1.4462504005703046e-8,1.2650544697212014e-7,8.616588749954688e-8,3.10629456415055e-8,1.271859019841538e-7,6
57931,9.805417220239481e-9,3.7027189255320305e-09,1.6895278613586777e-9,1.4461919684515493e-8,1.264134306671604e-7,8.617865866467472e-8,3.1086214350915976e-8,1.268143181931532e-7,6
57932,9.782470745070458e-9,3.691468822635949e-9,1.6895278613586777e-9,1.446133536332794e-8,1.263214143622007e-7,8.619142982980255e-8,3.110948306032646e-8,1.264427344021526e-7,6
57933,9.759524269901434e-9,3.680218719739868e-9,1.6895278613586777e-9,1.4460751042140387e-8,1.2622939805724095e-7,8.62042009949304e-8,3.113275176973693e-8,1.26071150611152e-7,6
57934,9.736577794732409e-9,3.668968616843786e-9,1.6895278613586777e-9,1.4460166720952834e-8,1.2613738175228121e-7,8.621697216005823e-8,3.115602047914741e-8,1.2569956682015144e-7,6
57935,9.713631319563386e-9,3.657718513947705e-9,1.6895278613586777e-9,1.4459582399765282e-8,1.260453654473215e-7,8.622974332518608e-8,3.1179289188557886e-8,1.2532798302915084e-7,6
57936,9.690684844394361e-9,3.646468411051623e-9,1.6895278613586777e-9,1.445899807857773e-8,1.2595334914236177e-7,8.624251449031391e-8,3.120255789796836e-8,1.2495639923815026e-7,6
57937,9.67235231453169e-9,3.6474771803896068e-9,1.6907374631130013e-9,1.4457373467120591e-8,1.255483713316296e-7,8.605144348569359e-8,3.123569119095192e-8,1.2496073604724583e-7,6
57938,9.654019784669018e-9,3.6484859497275904e-9,1.6919470648673252e-9,1.4455748855663452e-8,1.2514339352089744e-7,8.586037248107328e-8,3.126882448393547e-8,1.2496507285634142e-7,6
57939,9.74752162497969e-9,3.6644911018924933e-9,1.6949544959860445e-9,1.4456988410804037e-8,1.2480301274422848e-7,8.572684787403264e-8,3.142837292720329e-8,1.2505345056924713e-07,6
57940,9.841023465290363e-9,3.6804962540573957e-9,1.697961927104764e-9,1.4458227965944621e-8,1.2446263196755952e-7,8.5593323266992e-8,3.1587921370471104e-8,1.2514182828215288e-7,6
57941,9.934525305601035e-9,3.696501406222298e-9,1.7009693582234832e-9,1.4459467521085205e-8,1.2412225119089056e-7,8.545979865995134e-8,3.174746981373893e-8,1.252302059950586e-7,6
57942,1.0028027145911708e-8,3.7125065583872005e-9,1.7039767893422027e-9,1.446070707622579e-8,1.237818704142216e-7,8.53262740529107e-8,3.1907018257006745e-8,1.2531858370796433e-7,6
57943,1.012152898622238e-8,3.728511710552103e-9,1.706984220460922e-9,1.4461946631366375e-8,1.2344148963755267e-7,8.519274944587006e-8,3.206656670027456e-8,1.2540696142087005e-7,6
57944,1.0215030826533053e-8,3.744516862717006e-9,1.7099916515796415e-9,1.4463186186506959e-8,1.2310110886088372e-7,8.505922483882942e-8,3.222611514354238e-8,1.254953391337758e-7,6
57945,1.0308532666843726e-8,3.760522014881908e-9,1.7129990826983608e-9,1.4464425741647544e-8,1.2276072808421476e-7,8.492570023178878e-8,3.2385663586810196e-8,1.255837168466815e-7,6
57946,1.0402034507154398e-8,3.7765271670468105e-9,1.7160065138170803e-9,1.4465665296788128e-8,1.224203473075458e-7,8.479217562474814e-8,3.2545212030078014e-8,1.2567209455958725e-7,6
57947,1.049553634746507e-8,3.7925323192117125e-9,1.7190139449357996e-9,1.4466904851928712e-8,1.2207996653087684e-7,8.46586510177075e-8,3.270476047334583e-8,1.2576047227249296e-7,6
57948,1.0589038187775743e-8,3.808537471376615e-9,1.7220213760545188e-9,1.4468144407069298e-8,1.2173958575420788e-7,8.452512641066686e-8,3.286430891661365e-8,1.258488499853987e-7,6
57949,1.0682540028086414e-8,3.824542623541517e-9,1.7250288071732383e-9,1.4469383962209882e-8,1.2139920497753895e-7,8.439160180362622e-8,3.3023857359881465e-8,1.2593722769830444e-7,6
57950,1.0776041868397087e-8,3.84054777570642e-9,1.7280362382919576e-9,1.4470623517350466e-8,1.2105882420087e-7,8.425807719658556e-8,3.318340580314929e-8,1.2602560541121016e-7,6
57951,1.0887876238570433e-8,3.8316715875288224e-9,1.7231232691972752e-9,1.4404929931410104e-8,1.1928485360229783e-7,8.384716530196443e-8,3.3346364001732814e-8,1.2606389157407688e-7,6
57952,1.0999710608743777e-8,3.822795399351224e-9,1.7182103001025928e-9,1.4339236345469742e-8,1.1751088300372566e-7,8.343625340734328e-8,3.350932220031634e-8,1.261021777369436e-7,6
57953,1.1097327641243595e-8,3.766826462460061e-9,1.7200081294669885e-9,1.4338936857223532e-8,1.1758726216889165e-7,8.349874871559299e-8,3.3642302657629036e-8,1.250315429121821e-7,6
57954,1.1122891133361392e-8,3.6958386165348387e-9,1.7177861090627733e-9,1.43357732023796e-8,1.1760023461015898e-7,8.353592347637126e-8,3.361695741924499e-8,1.2459503083327071e-7,6
57955,1.1108049875319169e-8,3.6241195355891612e-9,1.7158060090094228e-9,1.4334234158992807e-8,1.1770403304622148e-7,8.359083156658474e-8,3.3586979677974156e-8,1.2419515066755047e-7,6
57956,1.1112165067508314e-8,3.5523891915399136e-9,1.7176038383738184e-9,1.4341287615399183e-8,1.1774019872249393e-7,8.37174343039419e-8,3.354767900639709e-8,1.2317769832269135e-7,6
57957,1.111628025969746e-8,3.480658847490666e-9,1.719401667738214e-9,1.434834107180556e-8,1.1777636439876636e-7,8.384403704129904e-8,3.350837833482003e-8,1.221602459778322e-7,6
57958,1.1120395451886605e-8,3.4089285034414184e-9,1.7211994971026095e-9,1.4355394528211938e-8,1.1781253007503881e-7,8.39706397786562e-8,3.346907766324296e-8,1.2114279363297304e-7,6
57959,1.1124510644075751e-8,3.3371981593921712e-9,1.7229973264670051e-9,1.4362447984618315e-8,1.1784869575131125e-7,8.409724251601336e-8,3.34297769916659e-8,1.201253412881139e-7,6
57960,1.1128625836264896e-8,3.2654678153429236e-9,1.7247951558314008e-9,1.4369501441024693e-8,1.178848614275837e-7,8.422384525337052e-8,3.339047632008883e-8,1.1910788894325475e-7,6
57961,1.1132741028454042e-8,3.193737471293676e-9,1.7265929851957964e-9,1.437655489743107e-8,1.1792102710385615e-7,8.435044799072767e-8,3.335117564851177e-8,1.1809043659839561e-7,6
57962,1.1136856220643187e-8,3.122007127244429e-9,1.728390814560192e-9,1.4383608353837448e-8,1.1795719278012859e-7,8.447705072808483e-8,3.33118749769347e-8,1.1707298425353646e-7,6
57963,1.1140971412832332e-8,3.0502767831951812e-9,1.7301886439245877e-9,1.4390661810243826e-8,1.1799335845640102e-7,8.460365346544199e-8,3.327257430535764e-8,1.1605553190867731e-7,6
57964,1.1145086605021479e-8,2.9785464391459336e-9,1.7319864732889834e-9,1.4397715266650203e-8,1.1802952413267347e-7,8.473025620279914e-8,3.323327363378057e-8,1.1503807956381817e-7,6
57965,1.1149201797210624e-8,2.9068160950966864e-9,1.7337843026533788e-9,1.440476872305658e-8,1.1806568980894592e-7,8.48568589401563e-8,3.319397296220351e-8,1.1402062721895902e-7,6
57966,1.1153316989399769e-8,2.835085751047439e-9,1.7355821320177744e-9,1.4411822179462958e-8,1.1810185548521836e-7,8.498346167751346e-8,3.3154672290626443e-8,1.1300317487409988e-7,6
57967,1.1157432181588914e-8,2.7633554069981912e-9,1.73737996138217e-9,1.4418875635869336e-8,1.1813802116149081e-7,8.511006441487062e-8,3.311537161904938e-8,1.1198572252924074e-7,6
57968,1.1161547373778061e-8,2.691625062948944e-9,1.7391777907465657e-9,1.4425929092275713e-8,1.1817418683776324e-7,8.523666715222776e-8,3.3076070947472315e-8,1.1096827018438158e-7,6
57969,1.1165662565967206e-8,2.6198947188996964e-9,1.7409756201109614e-9,1.443298254868209e-8,1.1821035251403569e-7,8.536326988958492e-8,3.303677027589525e-8,1.0995081783952244e-7,6
57970,1.1169777758156351e-8,2.548164374850449e-9,1.742773449475357e-9,1.4440036005088468e-8,1.1824651819030813e-7,8.548987262694208e-8,3.2997469604318186e-8,1.089333654946633e-7,6
57971,1.1228992716519983e-8,2.4802028369391782e-9,1.7608180361876731e-9,1.4463875931339192e-8,1.1844073081705175e-7,8.578063906745508e-8,3.2997469604318186e-8,1.084531753655129e-7,6
57972,1.1288207674883615e-8,2.4122412990279076e-9,1.7788626228999894e-9,1.4487715857589915e-8,1.1863494344379535e-7,8.607140550796808e-8,3.2997469604318186e-8,1.0797298523636251e-7,6
57973,1.1347422633247247e-8,2.344279761116637e-9,1.7969072096123058e-9,1.451155578384064e-8,1.1882915607053897e-7,8.636217194848108e-8,3.2997469604318186e-8,1.0749279510721212e-7,6
57974,1.1415990649475073e-8,2.347306069130588e-9,1.8161613980789457e-9,1.4535695198337573e-8,1.1898197461866437e-7,8.626447369805659e-8,3.182723712863536e-8,1.0808323980282322e-7,6
57975,1.1490172033132418e-8,2.3513186202753835e-9,1.8364280051954772e-9,1.456107416797509e-8,1.1917275862149092e-7,8.65665922853499e-8,3.186253812118599e-8,1.0875841897056031e-7,6
57976,1.1564353416789763e-8,2.3553311714201785e-9,1.8566946123120087e-9,1.4586453137612607e-8,1.1936354262431748e-7,8.68687108726432e-8,3.189783911373662e-8,1.0943359813829741e-7,6
57977,1.1638534800447107e-8,2.359343722564974e-9,1.87696121942854e-9,1.4611832107250125e-8,1.1955432662714405e-7,8.71708294599365e-8,3.193314010628726e-8,1.1010877730603451e-7,6
57978,1.1712716184104452e-8,2.3633562737097695e-9,1.8972278265450714e-9,1.4637211076887642e-8,1.197451106299706e-7,8.74729480472298e-8,3.1968441098837896e-8,1.1078395647377161e-7,6
57979,1.1786897567761796e-8,2.367368824854565e-9,1.917494433661603e-9,1.4662590046525161e-8,1.1993589463279715e-7,8.77750666345231e-8,3.2003742091388526e-8,1.114591356415087e-7,6
57980,1.1861078951419141e-8,2.37138137599936e-9,1.9377610407781344e-9,1.4687969016162678e-8,1.201266786356237e-7,8.807718522181641e-8,3.203904308393916e-8,1.1213431480924579e-7,6
57981,1.1935260335076486e-8,2.3753939271441556e-9,1.958027647894666e-9,1.4713347985800195e-8,1.2031746263845028e-7,8.837930380910972e-8,3.20743440764898e-8,1.1280949397698289e-7,6
57982,1.200944171873383e-8,2.379406478288951e-9,1.9782942550111974e-9,1.4738726955437714e-8,1.2050824664127684e-7,8.868142239640302e-8,3.2109645069040435e-8,1.1348467314471999e-7,6
57983,1.2083623102391174e-8,2.383419029433746e-9,1.998560862127729e-9,1.476410592507523e-8,1.2069903064410338e-7,8.898354098369632e-8,3.2144946061591065e-8,1.1415985231245709e-7,6
57984,1.215780448604852e-8,2.3874315805785416e-9,2.0188274692442603e-9,1.4789484894712748e-8,1.2088981464692994e-7,8.928565957098962e-8,3.21802470541417e-8,1.1483503148019419e-7,6
57985,1.2231985869705864e-8,2.391444131723337e-9,2.0390940763607914e-9,1.4814863864350266e-8,1.210805986497565e-7,8.958777815828293e-8,3.221554804669234e-8,1.1551021064793128e-7,6
57986,1.2306167253363208e-8,2.3954566828681326e-9,2.059360683477323e-9,1.4840242833987783e-8,1.2127138265258307e-7,8.988989674557623e-8,3.2250849039242974e-8,1.1618538981566838e-7,6
57987,1.2380348637020552e-8,2.3994692340129276e-9,2.0796272905938544e-9,1.48656218036253e-8,1.214621666554096e-7,9.019201533286954e-8,3.2286150031793604e-8,1.1686056898340547e-7,6
57988,1.2331099161557302e-8,2.394470439737288e-9,2.097627140059738e-9,1.488780898968858e-8,1.216658531612702e-7,9.031526802677707e-8,3.2223004664978665e-8,1.1654415398033778e-7,6
57989,1.2281849686094052e-8,2.3894716454616485e-9,2.115626989525622e-9,1.4909996175751857e-8,1.2186953966713076e-7,9.04385207206846e-8,3.2159859298163726e-8,1.1622773897727008e-7,6
57990,1.2232600210630802e-8,2.384472851186009e-9,2.1336268389915057e-9,1.4932183361815136e-8,1.2207322617299132e-7,9.056177341459215e-8,3.209671393134878e-8,1.1591132397420236e-7,6
57991,1.2183350735167552e-8,2.3794740569103693e-9,2.1516266884573895e-9,1.4954370547878412e-8,1.2227691267885188e-7,9.068502610849968e-8,3.203356856453384e-8,1.1559490897113466e-7,6
57992,1.2134101259704302e-8,2.3744752626347297e-9,2.1696265379232737e-9,1.497655773394169e-8,1.2248059918471245e-7,9.080827880240722e-8,3.1970423197718904e-8,1.1527849396806696e-7,6
57993,1.2130359653380874e-8,2.3691989340415623e-9,2.1683871113379948e-9,1.496886251700772e-8,1.2251383256007508e-7,9.298293620148042e-8,3.197751622013086e-8,1.1515436871124145e-7,6
57994,1.2242711935558941e-8,2.3718801291165672e-9,2.175097909797073e-9,1.4989026561871865e-8,1.228999806180502e-7,9.314487979597386e-8,3.1968294114506916e-8,1.1513259696616331e-7,6
57995,1.2355064217737008e-8,2.374561324191572e-9,2.181808708256151e-9,1.5009190606736006e-8,1.2328612867602533e-7,9.330682339046728e-8,3.195907200888298e-8,1.1511082522108516e-7,6
57996,1.2467416499915076e-8,2.3772425192665766e-9,2.188519506715229e-9,1.502935465160015e-8,1.2367227673400044e-7,9.346876698496072e-8,3.1949849903259034e-8,1.1508905347600701e-7,6
57997,1.2579768782093141e-8,2.3799237143415815e-9,2.195230305174307e-9,1.5049518696464292e-8,1.2405842479197558e-7,9.363071057945416e-8,3.1940627797635096e-8,1.1506728173092886e-7,6
57998,1.2692121064271208e-8,2.3826049094165864e-9,2.201941103633385e-9,1.5069682741328437e-8,1.244445728499507e-7,9.37926541739476e-8,3.193140569201115e-8,1.1504550998585072e-7,6
57999,1.2804473346449275e-8,2.385286104491591e-9,2.208651902092463e-9,1.5089846786192578e-8,1.2483072090792583e-7,9.395459776844104e-8,3.1922183586387206e-8,1.1502373824077257e-7,6
58000,1.2916825628627343e-8,2.3879672995665958e-9,2.215362700551541e-9,1.5110010831056722e-8,1.2521686896590095e-7,9.411654136293448e-8,3.191296148076327e-8,1.1500196649569442e-7,6
58001,1.302917791080541e-8,2.3906484946416007e-9,2.222073499010619e-9,1.5130174875920867e-8,1.2560301702387608e-7,9.427848495742792e-8,3.1903739375139324e-8,1.1498019475061629e-7,6
58002,1.3141530192983477e-8,2.393329689716605e-9,2.228784297469697e-9,1.5150338920785008e-8,1.259891650818512e-7,9.444042855192134e-8,3.189451726951538e-8,1.1495842300553814e-7,6
58003,1.3253882475161543e-8,2.39601088479161e-9,2.235495095928775e-9,1.5170502965649152e-8,1.2637531313982634e-7,9.460237214641478e-8,3.188529516389144e-8,1.1493665126046e-7,6
58004,1.336623475733961e-8,2.398692079866615e-9,2.242205894387853e-9,1.5190667010513293e-8,1.2676146119780145e-7,9.476431574090822e-8,3.1876073058267496e-8,1.1491487951538185e-7,6
58005,1.3478587039517677e-8,2.40137327494162e-9,2.2489166928469316e-9,1.5210831055377438e-8,1.2714760925577659e-7,9.492625933540166e-8,3.186685095264356e-8,1.148931077703037e-7,6
58006,1.3590939321695744e-8,2.4040544700166243e-9,2.2556274913060096e-9,1.523099510024158e-8,1.275337573137517e-7,9.50882029298951e-8,3.1857628847019613e-8,1.1487133602522555e-7,6
58007,1.3595048766218635e-8,2.4099719288016897e-9,2.255672228552442e-9,1.522612126587016e-8,1.2756554978733618e-7,9.487802482481275e-8,3.1854056058694427e-8,1.1482376836833055e-7,6
58008,1.3608517016271976e-8,2.407676855808194e-9,2.2574104082549276e-9,1.5221546919744955e-8,1.2758256761111463e-7,9.628893340602456e-8,3.184218680856374e-8,1.1496255228075369e-7,6
58009,1.3603903070965622e-8,2.409416860166634e-9,2.2613706083616286e-9,1.520265174063113e-8,1.2742326770257553e-7,9.720568688277169e-8,3.13019513823293e-8,1.1370729311014691e-7,6
58010,1.3599289125659271e-8,2.4111568645250736e-9,2.2653308084683293e-9,1.5183756561517302e-8,1.272639677940364e-7,9.812244035951884e-8,3.076171595609485e-8,1.1245203393954012e-7,6
58011,1.3614877555432929e-8,2.412896868883513e-9,2.2205175899970882e-9,1.4713217269935828e-8,1.2476898327147317e-7,9.971475384702316e-8,3.048735347118714e-8,1.1264150656627958e-7,6
58012,1.3630465985206586e-8,2.4146368732419526e-9,2.1757043715258472e-9,1.4242677978354355e-8,1.2227399874890997e-7,1.0130706733452748e-7,3.021299098627943e-8,1.1283097919301905e-7,6
58013,1.3646054414980244e-8,2.416376877600392e-9,2.130891153054606e-9,1.3772138686772883e-8,1.1977901422634674e-7,1.028993808220318e-7,2.993862850137172e-8,1.1302045181975851e-7,6
58014,1.3661642844753901e-8,2.4181168819588316e-9,2.086077934583365e-9,1.3301599395191409e-8,1.1728402970378354e-7,1.0449169430953613e-7,2.9664266016464007e-8,1.1320992444649797e-7,6
58015,1.3677231274527559e-8,2.419856886317271e-9,2.041264716112124e-9,1.2831060103609937e-8,1.147890451812203e-7,1.0608400779704044e-7,2.9389903531556296e-8,1.1339939707323744e-7,6
58016,1.3692819704301216e-8,2.421596890675711e-9,1.996451497640883e-9,1.2360520812028464e-8,1.1229406065865709e-7,1.0767632128454476e-7,2.9115541046648586e-8,1.135888696999769e-7,6
58017,1.3708408134074874e-8,2.4233368950341505e-9,1.951638279169642e-9,1.1889981520446992e-8,1.0979907613609387e-7,1.0926863477204908e-7,2.8841178561740876e-8,1.1377834232671636e-7,6
58018,1.3723996563848531e-8,2.42507689939259e-9,1.906825060698401e-9,1.1419442228865518e-8,1.0730409161353065e-7,1.1086094825955341e-7,2.8566816076833165e-8,1.1396781495345583e-7,6
58019,1.3739584993622189e-8,2.4268169037510295e-9,1.86201184222716e-9,1.0948902937284046e-8,1.0480910709096743e-7,1.1245326174705773e-7,2.8292453591925452e-8,1.1415728758019528e-7,6
58020,1.3755173423395846e-8,2.428556908109469e-9,1.817198623755919e-9,1.0478363645702572e-8,1.0231412256840422e-7,1.1404557523456205e-7,2.801809110701774e-8,1.1434676020693474e-7,6
58021,1.3770761853169504e-8,2.4302969124679085e-9,1.772385405284678e-9,1.0007824354121099e-8,9.9819138045841e-8,1.1563788872206636e-7,2.774372862211003e-8,1.145362328336742e-7,6
58022,1.3786350282943163e-8,2.4320369168263484e-9,1.727572186813437e-9,9.537285062539627e-9,9.732415352327778e-8,1.1723020220957068e-7,2.746936613720232e-8,1.1472570546041367e-7,6
58023,1.380193871271682e-8,2.433776921184788e-9,1.6827589683421959e-9,9.066745770958153e-9,9.482916900071456e-8,1.1882251569707501e-7,2.719500365229461e-8,1.1491517808715313e-7,6
58024,1.3817527142490478e-8,2.4355169255432274e-9,1.6379457498709549e-9,8.596206479376681e-9,9.233418447815135e-8,1.2041482918457933e-7,2.69206411673869e-8,1.1510465071389259e-7,6
58025,1.3833115572264135e-8,2.437256929901667e-9,1.5931325313997138e-9,8.125667187795207e-9,8.983919995558813e-8,1.2200714267208364e-7,2.664627868247919e-8,1.1529412334063206e-7,6
58026,1.3848704002037793e-8,2.4389969342601064e-9,1.5483193129284728e-9,7.655127896213735e-9,8.734421543302491e-8,1.2359945615958798e-7,2.6371916197571476e-8,1.1548359596737152e-7,6
58027,1.386429243181145e-8,2.440736938618546e-9,1.5035060944572318e-9,7.1845886046322626e-9,8.48492309104617e-8,1.2519176964709229e-7,2.6097553712663766e-8,1.1567306859411098e-7,6
58028,1.3879880861585108e-8,2.4424769429769854e-9,1.4586928759859908e-9,6.71404931305079e-9,8.235424638789848e-8,1.2678408313459662e-7,2.5823191227756056e-8,1.1586254122085045e-7,6
58029,1.3876387673875908e-8,2.440249448604909e-9,1.4121862150586964e-9,6.2403463666253835e-9,7.984654487590146e-8,1.2710439187053095e-7,2.5599672598537137e-8,1.1579995741264004e-7,6
58030,1.388112678643375e-8,2.438021954232832e-9,1.3636547168316194e-9,5.766686204235151e-9,7.733734953466281e-8,1.270756186717411e-7,2.5337179363760104e-8,1.1579131592912839e-7,6
58031,1.3885865898991592e-8,2.4357944598607552e-9,1.3151232186045421e-9,5.293026041844918e-9,7.482815419342415e-8,1.2704684547295128e-7,2.5074686128983074e-8,1.1578267444561675e-7,6
58032,1.3865289938045865e-8,2.386995496099459e-9,1.3151232186045421e-9,5.291444214422951e-9,7.477808850788328e-8,1.2654790919346208e-7,2.4353056860506308e-8,1.1580560637744843e-7,6
58033,1.3849826675523697e-8,2.3847342124166733e-9,1.3153651389554068e-9,5.215905100123392e-9,7.43067546615728e-8,1.2658151544141582e-7,2.4327711622122266e-8,1.1587586629761559e-7,6
58034,1.3834363413001529e-8,2.382472928733887e-9,1.3156070593062716e-9,5.140365985823833e-9,7.383542081526234e-8,1.2661512168936956e-7,2.430236638373822e-8,1.1594612621778274e-7,6
58035,1.3818900150479361e-8,2.380211645051101e-9,1.3158489796571363e-9,5.064826871524274e-9,7.336408696895187e-8,1.2664872793732332e-7,2.427702114535418e-8,1.160163861379499e-7,6
58036,1.3803436887957192e-8,2.377950361368315e-9,1.3160909000080011e-9,4.9892877572247145e-9,7.289275312264139e-8,1.2668233418527706e-7,2.4251675906970137e-8,1.1608664605811705e-7,6
58037,1.3787973625435024e-8,2.375689077685529e-9,1.3163328203588658e-9,4.913748642925155e-9,7.242141927633092e-8,1.267159404332308e-7,2.422633066858609e-8,1.1615690597828421e-7,6
58038,1.3772510362912856e-8,2.3734277940027427e-9,1.3165747407097306e-9,4.8382095286255966e-9,7.195008543002045e-8,1.2674954668118455e-7,2.420098543020205e-8,1.1622716589845136e-7,6
58039,1.3757047100390688e-8,2.371166510319957e-9,1.3168166610605953e-9,4.762670414326037e-9,7.147875158370998e-8,1.2678315292913829e-7,2.4175640191818005e-8,1.1629742581861852e-7,6
58040,1.374158383786852e-8,2.3689052266371707e-9,1.3170585814114601e-9,4.687131300026478e-9,7.10074177373995e-8,1.2681675917709203e-7,2.4150294953433963e-8,1.1636768573878567e-7,6
58041,1.3726120575346352e-8,2.366643942954385e-9,1.3173005017623248e-9,4.611592185726918e-9,7.053608389108902e-8,1.2685036542504577e-7,2.412494971504992e-8,1.1643794565895283e-7,6
58042,1.3710657312824184e-8,2.3643826592715987e-9,1.3175424221131896e-9,4.53605307142736e-9,7.006475004477855e-8,1.268839716729995e-7,2.4099604476665876e-8,1.1650820557911998e-7,6
58043,1.369381721053563e-8,2.363130144926796e-9,1.317799254879532e-9,4.460927142174662e-9,6.968374587025602e-8,1.268893807162847e-7,2.406097524530427e-8,1.169103398418667e-7,6
58044,1.3676977108247077e-8,2.361877630581994e-9,1.318056087645874e-9,4.385801212921964e-9,6.930274169573348e-8,1.268947897595699e-7,2.4022346013942665e-8,1.1731247410461342e-7,6
58045,1.3683458982882015e-8,2.3628863999199777e-9,1.3183129204122163e-9,4.3856728608164464e-9,6.939587837262445e-8,1.2689731883224864e-7,2.4013694523851895e-8,1.1752186070711856e-7,6
58046,1.3689940857516955e-8,2.3638951692579614e-9,1.3185697531785586e-9,4.385544508710928e-9,6.94890150495154e-8,1.2689984790492736e-7,2.4005043033761125e-8,1.1773124730962369e-7,6
58047,1.3696422732151893e-8,2.364903938595945e-9,1.3188265859449007e-9,4.38541615660541e-9,6.958215172640636e-8,1.2690237697760611e-7,2.3996391543670355e-8,1.1794063391212882e-7,6
58048,1.3702904606786833e-8,2.365912707933929e-9,1.319083418711243e-9,4.3852878044998915e-9,6.967528840329733e-8,1.2690490605028487e-7,2.398774005357958e-8,1.1815002051463394e-7,6
58049,1.3709386481421773e-8,2.3669214772719127e-9,1.3193402514775853e-9,4.385159452394373e-9,6.976842508018828e-8,1.269074351229636e-7,2.397908856348881e-8,1.1835940711713907e-7,6
58050,1.3715868356056711e-8,2.3679302466098964e-9,1.3195970842439276e-9,4.385031100288855e-9,6.986156175707924e-8,1.2690996419564234e-7,2.397043707339804e-8,1.185687937196442e-7,6
58051,1.3762633645377684e-8,2.3689164897407405e-9,1.3218191046481427e-9,4.384446779101302e-9,6.987964459521547e-8,1.2691652522717013e-7,2.3963770941687326e-8,1.1897021499807696e-7,6
58052,1.3624623358050356e-8,2.344908761493387e-9,1.3177694300485768e-9,4.379630384069924e-9,6.985844637267918e-8,1.2634611939673082e-7,2.3819419987361158e-8,1.1843946000313312e-7,6
58053,1.3486613070723027e-8,2.3209010332460333e-9,1.3137197554490111e-9,4.374813989038545e-9,6.98372481501429e-8,1.2577571356629155e-7,2.3675069033034994e-8,1.1790870500818928e-7,6
58054,1.3348602783395698e-8,2.2968933049986795e-9,1.3096700808494455e-9,4.369997594007166e-9,6.981604992760661e-8,1.2520530773585227e-7,2.3530718078708826e-8,1.1737795001324544e-7,6
58055,1.3210592496068368e-8,2.272885576751326e-9,1.3056204062498796e-9,4.365181198975787e-9,6.979485170507033e-8,1.24634901905413e-7,2.3386367124382662e-8,1.1684719501830161e-7,6
58056,1.3072582208741039e-8,2.2488778485039722e-9,1.3015707316503139e-9,4.360364803944408e-9,6.977365348253405e-8,1.240644960749737e-7,2.3242016170056494e-8,1.1631644002335777e-7,6
58057,1.2934571921413711e-8,2.2248701202566184e-9,1.297521057050748e-9,4.355548408913029e-9,6.975245525999775e-8,1.234940902445344e-7,2.309766521573033e-8,1.1578568502841393e-7,6
58058,1.2796561634086382e-8,2.200862392009265e-9,1.2934713824511823e-9,4.35073201388165e-9,6.973125703746147e-8,1.2292368441409513e-7,2.2953314261404163e-8,1.1525493003347009e-7,6
58059,1.2658551346759053e-8,2.176854663761911e-9,1.2894217078516166e-9,4.345915618850272e-9,6.971005881492519e-8,1.2235327858365585e-7,2.2808963307078e-8,1.1472417503852626e-7,6
58060,1.2520541059431724e-8,2.1528469355145574e-9,1.2853720332520507e-9,4.341099223818892e-9,6.968886059238891e-8,1.2178287275321657e-7,2.266461235275183e-8,1.1419342004358242e-7,6
58061,1.2382530772104394e-8,2.128839207267204e-9,1.281322358652485e-9,4.336282828787514e-9,6.966766236985263e-8,1.212124669227773e-7,2.2520261398425667e-8,1.1366266504863858e-7,6
58062,1.2244520484777065e-8,2.10483147901985e-9,1.277272684052919e-9,4.331466433756135e-9,6.964646414731634e-8,1.2064206109233799e-7,2.23759104440995e-8,1.1313191005369474e-7,6
58063,1.2106510197449738e-8,2.0808237507724963e-9,1.2732230094533534e-9,4.326650038724756e-9,6.962526592478005e-8,1.200716552618987e-7,2.2231559489773335e-8,1.126011550587509e-7,6
58064,1.1942678419946625e-8,2.056838548732282e-9,1.26921807210022e-9,4.322289612775411e-9,6.958554875889374e-8,1.1981775461814765e-7,2.2084551736851654e-8,1.1218098869574431e-7,6
58065,1.1776610874915464e-8,2.034072071726161e-9,1.2631882974473038e-9,4.322674669091966e-9,6.95632855219997e-8,1.1939420398695147e-7,2.1990474022681106e-8,1.1153470708124726e-7,6
58066,1.1610543329884302e-8,2.01130559472004e-9,1.2571585227943876e-9,4.32305972540852e-9,6.954102228510565e-8,1.1897065335575528e-7,2.189639630851056e-8,1.108884254667502e-7,6
58067,1.1444475784853141e-8,1.988539117713919e-9,1.2511287481414714e-9,4.323444781725075e-9,6.951875904821161e-8,1.185471027245591e-7,2.180231859434001e-8,1.1024214385225315e-7,6
58068,1.127840823982198e-8,1.965772640707798e-9,1.2450989734885552e-9,4.323829838041629e-9,6.949649581131756e-8,1.1812355209336292e-7,2.1708240880169464e-8,1.0959586223775609e-7,6
58069,1.129187648987532e-8,1.9557412628458094e-9,1.241321044070809e-9,4.3153656903539764e-9,6.912241639275246e-8,1.1731301097712549e-7,2.1710604858806892e-08,1.0980613052645896e-7,6
58070,1.1306471245192067e-8,1.9557074735351e-9,1.2405505457717823e-9,4.315750746670531e-9,6.913987032174474e-8,1.1731104133152136e-7,2.1754211967251793e-8,1.1027665153830533e-7,6
58071,1.1321066000508814e-8,1.955673684224391e-9,1.2397800474727557e-9,4.3161358029870855e-9,6.915732425073701e-8,1.1730907168591724e-7,2.1797819075696694e-8,1.107471725501517e-7,6
58072,1.1335660755825562e-8,1.9556398949136818e-9,1.239009549173729e-9,4.3165208593036405e-9,6.917477817972929e-8,1.1730710204031311e-7,2.1841426184141595e-8,1.1121769356199807e-7,6
58073,1.1350255511142308e-8,1.9556061056029724e-9,1.2382390508747023e-9,4.316905915620195e-9,6.919223210872155e-8,1.17305132394709e-7,2.1885033292586496e-8,1.1168821457384444e-7,6
58074,1.1364850266459055e-8,1.955572316292263e-9,1.2374685525756756e-9,4.31729097193675e-9,6.920968603771382e-8,1.1730316274910487e-7,2.19286404010314e-8,1.1215873558569081e-7,6
58075,1.1379445021775801e-8,1.9555385269815538e-9,1.236698054276649e-9,4.317676028253304e-9,6.922713996670609e-8,1.1730119310350074e-7,2.19722475094763e-8,1.1262925659753718e-7,6
58076,1.1394039777092549e-8,1.955504737670845e-9,1.2359275559776223e-9,4.318061084569859e-9,6.924459389569835e-8,1.1729922345789661e-7,2.2015854617921202e-8,1.1309977760938356e-7,6
58077,1.1408634532409294e-8,1.9554709483601355e-9,1.2351570576785956e-9,4.318446140886414e-9,6.926204782469063e-8,1.172972538122925e-7,2.2059461726366103e-8,1.1357029862122992e-7,6
58078,1.1423229287726042e-8,1.955437159049426e-9,1.234386559379569e-9,4.318831197202968e-9,6.92795017536829e-8,1.1729528416668837e-7,2.2103068834811004e-8,1.140408196330763e-7,6
58079,1.1437824043042788e-8,1.955403369738717e-9,1.2336160610805423e-9,4.319216253519523e-9,6.929695568267516e-8,1.1729331452108424e-7,2.214667594325591e-8,1.1451134064492267e-7,6
58080,1.1452418798359535e-8,1.9553695804280075e-9,1.2328455627815154e-9,4.319601309836077e-9,6.931440961166743e-8,1.1729134487548012e-7,2.219028305170081e-8,1.1498186165676905e-7,6
58081,1.1467013553676281e-8,1.9553357911172986e-9,1.2320750644824887e-9,4.319986366152632e-9,6.933186354065971e-8,1.17289375229876e-7,2.223389016014571e-8,1.1545238266861541e-7,6
58082,1.1481608308993029e-8,1.9553020018065892e-9,1.231304566183462e-9,4.320371422469186e-9,6.934931746965197e-8,1.1728740558427188e-7,2.2277497268590612e-8,1.1592290368046178e-7,6
58083,1.1496203064309776e-8,1.95526821249588e-9,1.2305340678844354e-9,4.320756478785741e-9,6.936677139864424e-8,1.1728543593866775e-7,2.2321104377035513e-8,1.1639342469230816e-7,6
58084,1.1510797819626522e-8,1.9552344231851705e-9,1.2297635695854087e-9,4.321141535102295e-9,6.938422532763652e-8,1.1728346629306363e-7,2.2364711485480417e-8,1.1686394570415452e-7,6
58085,1.152539257494327e-8,1.955200633874461e-9,1.228993071286382e-9,4.32152659141885e-9,6.940167925662878e-8,1.1728149664745951e-7,2.2408318593925318e-8,1.173344667160009e-7,6
58086,1.1539987330260016e-8,1.955166844563752e-9,1.2282225729873553e-9,4.321911647735404e-9,6.941913318562105e-8,1.1727952700185538e-7,2.245192570237022e-8,1.1780498772784727e-7,6
58087,1.1539987330260016e-8,1.9531605689913543e-9,1.2272101543374638e-9,4.31755122178606e-9,6.942630124286217e-8,1.1721196360802018e-7,2.244327421227945e-8,1.1780814292706964e-7,6
58088,1.1538117485042679e-8,1.9518855284394126e-9,1.2264396560384371e-9,4.3131907958367155e-9,6.944482018621219e-8,1.1712586910784425e-7,2.246531052003007e-8,1.1780402235629237e-7,6
58089,1.153624763982534e-8,1.9506104878874705e-9,1.2256691577394105e-9,4.30883036988737e-9,6.946333912956223e-8,1.1703977460766831e-7,2.2487346827780688e-8,1.1779990178551511e-7,6
58090,1.1534377794608e-8,1.945334159294303e-9,1.2259110780902753e-9,4.308702017781852e-9,6.947469001567115e-8,1.16838252981452e-7,2.2517627043098387e-8,1.1774178533223988e-7,6
58091,1.1531381444127257e-8,1.9460766574183288e-9,1.2259110780902753e-9,4.309157986863887e-9,6.948229660823604e-8,1.1691479724480625e-7,2.25386036362874e-8,1.1766688466505858e-7,6
58092,1.1528385093646511e-8,1.9468191555423544e-9,1.2259110780902753e-9,4.309613955945921e-9,6.948990320080094e-8,1.169913415081605e-7,2.2559580229476416e-8,1.1759198399787728e-7,6
58093,1.1525388743165766e-8,1.94756165366638e-9,1.2259110780902753e-9,4.310069925027955e-9,6.949750979336585e-8,1.1706788577151475e-7,2.2580556822665434e-8,1.1751708333069597e-7,6
58094,1.1522392392685022e-8,1.9483041517904056e-9,1.2259110780902753e-9,4.310525894109989e-9,6.950511638593075e-8,1.17144430034869e-7,2.2601533415854448e-8,1.1744218266351467e-7,6
58095,1.1519396042204276e-8,1.9490466499144312e-9,1.2259110780902753e-9,4.310981863192023e-9,6.951272297849564e-8,1.1722097429822325e-7,2.2622510009043463e-8,1.1736728199633337e-7,6
58096,1.151639969172353e-8,1.949789148038457e-9,1.2259110780902753e-9,4.311437832274058e-9,6.952032957106054e-8,1.172975185615775e-7,2.2643486602232477e-8,1.1729238132915206e-7,6
58097,1.1513403341242787e-8,1.9505316461624825e-9,1.2259110780902753e-9,4.311893801356092e-9,6.952793616362545e-8,1.1737406282493176e-7,2.2664463195421495e-8,1.1721748066197076e-7,6
58098,1.1510406990762041e-8,1.951274144286508e-9,1.2259110780902753e-9,4.3123497704381265e-9,6.953554275619035e-8,1.1745060708828602e-7,2.268543978861051e-8,1.1714257999478945e-7,6
58099,1.1507410640281296e-8,1.9520166424105337e-9,1.2259110780902753e-9,4.3128057395201606e-9,6.954314934875524e-8,1.1752715135164027e-7,2.2706416381799524e-8,1.1706767932760815e-7,6
58100,1.1504414289800552e-8,1.9527591405345594e-9,1.2259110780902753e-9,4.313261708602195e-9,6.955075594132015e-8,1.1760369561499452e-7,2.272739297498854e-8,1.1699277866042685e-7,6
58101,1.1501417939319806e-8,1.953501638658585e-9,1.2259110780902753e-9,4.3137176776842296e-9,6.955836253388505e-8,1.1768023987834877e-7,2.2748369568177556e-8,1.1691787799324556e-7,6
58102,1.1542943447076979e-8,1.965437924160843e-9,1.2259110780902753e-9,4.347148791841963e-9,7.015535300441197e-8,1.1768749276550396e-7,2.2840432961701727e-8,1.1776128223312395e-7,6
58103,1.158446895483415e-8,1.9773742096631014e-9,1.2259110780902753e-9,4.380579905999696e-9,7.075234347493891e-8,1.1769474565265915e-7,2.29324963552259e-8,1.1860468647300234e-7,6
58104,1.1573634964728348e-8,1.9405975929609057e-9,1.217130705084982e-9,4.41401102015743e-9,7.125419253566616e-8,1.1543181340565962e-7,2.2567288940570553e-8,1.192188075434865e-7,6
58105,1.1562800974622544e-8,1.90382097625871e-9,1.2083503320796885e-9,4.447442134315164e-9,7.175604159639341e-8,1.1316888115866009e-7,2.2202081525915205e-8,1.198329286139707e-7,6
58106,1.1551966984516742e-8,1.8670443595565147e-9,1.199569959074395e-9,4.480873248472897e-9,7.225789065712065e-8,1.1090594891166057e-7,2.183687411125986e-8,1.2044704968445488e-7,6
58107,1.1541132994410939e-8,1.830267742854319e-9,1.1907895860691019e-9,4.514304362630631e-9,7.275973971784789e-8,1.0864301666466103e-7,2.1471666696604513e-8,1.2106117075493906e-7,6
58108,1.1530299004305135e-8,1.7934911261521233e-9,1.1820092130638085e-9,4.5477354767883645e-9,7.326158877857515e-8,1.0638008441766151e-7,2.110645928194917e-8,1.2167529182542324e-7,6
58109,1.1472451306264131e-8,1.7567145094499276e-9,1.1752089401118656e-9,4.547778260823538e-9,7.31936859862917e-8,1.0414193203110482e-7,2.0666472145773642e-8,1.213679420780655e-7,6
58110,1.1414603608223128e-8,1.7199378927477321e-9,1.1684086671599227e-9,4.54782104485871e-9,7.312578319400825e-8,1.0190377964454814e-7,2.022648500959812e-8,1.210605923307078e-7,6
58111,1.1414728775474617e-8,1.7281053721120138e-9,1.170388767213273e-9,4.537646717643573e-9,7.315383623426866e-8,1.019084162777925e-7,2.025439587598416e-8,1.20908070280881e-7,6
