"time" "channel1" "channel2" "channel3" "channel4" "channel5" "channel6" "channel7" "channel8"
"1" 20561 4.18377247976073e-07 3.67391112489902e-08 8.43407277993006e-09 6.07425482054008e-08 3.41870395302387e-07 2.235899477232e-07 1.16233031564123e-07 2.23736298054298e-07
"2" 20562 4.16390122288612e-07 3.65832005993673e-08 8.39837410398987e-09 6.07063543620994e-08 3.41970646555084e-07 2.24786148381658e-07 1.15810203664922e-07 2.22958504740712e-07
"3" 20563 4.1440299660115e-07 3.64272899497443e-08 8.36267542804968e-09 6.06701605187979e-08 3.42070897807781e-07 2.25982349040116e-07 1.1538737576572e-07 2.22180711427125e-07
"4" 20564 4.12415870913688e-07 3.62713793001213e-08 8.32697675210948e-09 6.06339666754964e-08 3.42171149060478e-07 2.27178549698574e-07 1.14964547866518e-07 2.21402918113539e-07
"5" 20565 4.1209681161622e-07 3.61507816467488e-08 8.34323030102261e-09 6.06263526613631e-08 3.41085415784213e-07 2.28242439426698e-07 1.14970276311449e-07 2.21412896445249e-07
"6" 20566 4.11777752318751e-07 3.60301839933763e-08 8.35948384993573e-09 6.06187386472298e-08 3.39999682507949e-07 2.29306329154823e-07 1.14976004756379e-07 2.21422874776958e-07
"7" 20567 4.11458693021283e-07 3.59095863400038e-08 8.37573739884885e-09 6.06111246330965e-08 3.38913949231684e-07 2.30370218882948e-07 1.1498173320131e-07 2.21432853108668e-07
"8" 20568 4.11202709746226e-07 3.57657171528208e-08 8.37573739884885e-09 6.06142750194228e-08 3.37653336656904e-07 2.30176990732899e-07 1.15166307756641e-07 2.21670076507979e-07
"9" 20569 4.11821112722692e-07 3.57118226027979e-08 8.39199094776198e-09 6.09438571950408e-08 3.36909876928635e-07 2.30342112684403e-07 1.15115786564796e-07 2.22186060398055e-07
"10" 20570 4.12439515699158e-07 3.56579280527751e-08 8.4082444966751e-09 6.12734393706588e-08 3.36166417200365e-07 2.30507234635906e-07 1.15065265372951e-07 2.22702044288131e-07
"11" 20571 4.13057918675624e-07 3.56040335027522e-08 8.42449804558823e-09 6.16030215462768e-08 3.35422957472095e-07 2.3067235658741e-07 1.15014744181105e-07 2.23218028178206e-07
"12" 20572 4.13659269401021e-07 3.55619153689683e-08 8.35458446397146e-09 6.11641118369989e-08 3.34211913882236e-07 2.28383353179443e-07 1.14971519497472e-07 2.22975281071747e-07
"13" 20573 4.14260620126417e-07 3.55197972351844e-08 8.28467088235468e-09 6.0725202127721e-08 3.33000870292377e-07 2.26094349771477e-07 1.14928294813838e-07 2.22732533965289e-07
"14" 20574 4.14861970851814e-07 3.54776791014005e-08 8.21475730073791e-09 6.02862924184431e-08 3.31789826702518e-07 2.2380534636351e-07 1.14885070130205e-07 2.2248978685883e-07
"15" 20575 4.15463321577211e-07 3.54355609676166e-08 8.14484371912114e-09 5.98473827091652e-08 3.30578783112659e-07 2.21516342955543e-07 1.14841845446572e-07 2.22247039752371e-07
"16" 20576 4.16064672302608e-07 3.53934428338327e-08 8.07493013750436e-09 5.94084729998873e-08 3.293677395228e-07 2.19227339547576e-07 1.14798620762938e-07 2.22004292645913e-07
"17" 20577 4.16666023028005e-07 3.53513247000488e-08 8.00501655588759e-09 5.89695632906094e-08 3.28156695932941e-07 2.16938336139609e-07 1.14755396079305e-07 2.21761545539454e-07
"18" 20578 4.17267373753401e-07 3.5309206566265e-08 7.93510297427082e-09 5.85306535813315e-08 3.26945652343082e-07 2.14649332731642e-07 1.14712171395672e-07 2.21518798432995e-07
"19" 20579 4.17868724478798e-07 3.52670884324811e-08 7.86518939265405e-09 5.80917438720536e-08 3.25734608753223e-07 2.12360329323676e-07 1.14668946712038e-07 2.21276051326536e-07
"20" 20580 4.18470075204195e-07 3.52249702986972e-08 7.79527581103727e-09 5.76528341627757e-08 3.24523565163364e-07 2.10071325915709e-07 1.14625722028405e-07 2.21033304220078e-07
"21" 20581 4.18082213420987e-07 3.51828521649133e-08 7.7050833974866e-09 5.6878432691217e-08 3.22759830222221e-07 2.07420498469223e-07 1.14612625271333e-07 2.20815491500114e-07
"22" 20582 4.18560028793079e-07 3.51482867155146e-08 7.62381565292098e-09 5.6118204475059e-08 3.21217534160563e-07 2.05023022946864e-07 1.14579320037522e-07 2.19972386223263e-07
"23" 20583 4.1903784416517e-07 3.51137212661158e-08 7.54254790835535e-09 5.5357976258901e-08 3.19675238098906e-07 2.02625547424505e-07 1.14546014803712e-07 2.19129280946412e-07
"24" 20584 4.19515659537261e-07 3.50791558167171e-08 7.46128016378973e-09 5.45977480427429e-08 3.18132942037248e-07 2.00228071902146e-07 1.14512709569901e-07 2.18286175669562e-07
"25" 20585 4.19993474909352e-07 3.50445903673183e-08 7.38001241922411e-09 5.38375198265849e-08 3.1659064597559e-07 1.97830596379787e-07 1.14479404336091e-07 2.17443070392711e-07
"26" 20586 4.20471290281444e-07 3.50100249179196e-08 7.29874467465849e-09 5.30772916104269e-08 3.15048349913933e-07 1.95433120857428e-07 1.1444609910228e-07 2.16599965115861e-07
"27" 20587 4.20949105653535e-07 3.49754594685209e-08 7.21747693009286e-09 5.23170633942689e-08 3.13506053852275e-07 1.93035645335069e-07 1.1441279386847e-07 2.1575685983901e-07
"28" 20588 4.21713503432209e-07 3.50375168920154e-08 7.21037098316105e-09 5.23185275372368e-08 3.13627613198728e-07 1.93289299978038e-07 1.14126044968467e-07 2.15764331327671e-07
"29" 20589 4.22477901210883e-07 3.50995743155098e-08 7.20326503622924e-09 5.23199916802048e-08 3.13749172545181e-07 1.93542954621006e-07 1.13839296068465e-07 2.15771802816332e-07
"30" 20590 4.23242298989557e-07 3.51616317390043e-08 7.19615908929743e-09 5.23214558231728e-08 3.13870731891635e-07 1.93796609263974e-07 1.13552547168462e-07 2.15779274304993e-07
"31" 20591 4.2128676856328e-07 3.52447536468796e-08 7.10550942525667e-09 5.22463843869771e-08 3.12067711230853e-07 1.93853259101086e-07 1.13299584304404e-07 2.15203351767979e-07
"32" 20592 4.19331238137003e-07 3.53278755547549e-08 7.01485976121591e-09 5.21713129507814e-08 3.10264690570071e-07 1.93909908938198e-07 1.13046621440347e-07 2.14627429230964e-07
"33" 20593 4.17375707710726e-07 3.54109974626301e-08 6.92421009717516e-09 5.20962415145856e-08 3.0846166990929e-07 1.9396655877531e-07 1.12793658576289e-07 2.1405150669395e-07
"34" 20594 4.15420177284449e-07 3.54941193705054e-08 6.8335604331344e-09 5.20211700783899e-08 3.06658649248508e-07 1.94023208612421e-07 1.12540695712231e-07 2.13475584156935e-07
"35" 20595 4.13464646858172e-07 3.55772412783807e-08 6.74291076909364e-09 5.19460986421942e-08 3.04855628587727e-07 1.94079858449533e-07 1.12287732848174e-07 2.12899661619921e-07
"36" 20596 4.11509116431895e-07 3.56603631862559e-08 6.65226110505288e-09 5.18710272059985e-08 3.03052607926945e-07 1.94136508286645e-07 1.12034769984116e-07 2.12323739082906e-07
"37" 20597 4.09553586005618e-07 3.57434850941312e-08 6.56161144101213e-09 5.17959557698028e-08 3.01249587266164e-07 1.94193158123757e-07 1.11781807120058e-07 2.11747816545892e-07
"38" 20598 4.07598055579341e-07 3.58266070020065e-08 6.47096177697137e-09 5.1720884333607e-08 2.99446566605382e-07 1.94249807960869e-07 1.11528844256001e-07 2.11171894008877e-07
"39" 20599 4.05642525153064e-07 3.59097289098817e-08 6.38031211293061e-09 5.16458128974113e-08 2.97643545944601e-07 1.9430645779798e-07 1.11275881391943e-07 2.10595971471863e-07
"40" 20600 4.03686994726787e-07 3.5992850817757e-08 6.28966244888986e-09 5.15707414612156e-08 2.95840525283819e-07 1.94363107635092e-07 1.11022918527886e-07 2.10020048934848e-07
"41" 20601 4.02726951537856e-07 3.6110538175031e-08 6.20224586559016e-09 5.15030004202906e-08 2.93903779023177e-07 1.94404100091294e-07 1.10816285850781e-07 2.09571406523693e-07
"42" 20602 4.0003088577265e-07 3.60952174777314e-08 6.12279170312423e-09 5.16236162577753e-08 2.94621002618983e-07 1.94401112923472e-07 1.10832929492195e-07 2.09044932471327e-07
"43" 20603 3.97244393109878e-07 3.60839160187339e-08 6.05348889341802e-09 5.15528757320113e-08 2.93744282273476e-07 1.94401112923472e-07 1.10583108033422e-07 2.08460061802494e-07
"44" 20604 3.94457900447106e-07 3.60726145597364e-08 5.98418608371181e-09 5.14821352062474e-08 2.92867561927969e-07 1.94401112923472e-07 1.10333286574648e-07 2.07875191133662e-07
"45" 20605 3.91671407784334e-07 3.6061313100739e-08 5.9148832740056e-09 5.14113946804834e-08 2.91990841582462e-07 1.94401112923472e-07 1.10083465115875e-07 2.07290320464829e-07
"46" 20606 3.88884915121563e-07 3.60500116417415e-08 5.84558046429939e-09 5.13406541547194e-08 2.91114121236955e-07 1.94401112923472e-07 1.09833643657102e-07 2.06705449795996e-07
"47" 20607 3.86098422458791e-07 3.60387101827441e-08 5.77627765459318e-09 5.12699136289555e-08 2.90237400891448e-07 1.94401112923472e-07 1.09583822198329e-07 2.06120579127163e-07
"48" 20608 3.83311929796019e-07 3.60274087237466e-08 5.70697484488697e-09 5.11991731031915e-08 2.89360680545941e-07 1.94401112923472e-07 1.09334000739555e-07 2.0553570845833e-07
"49" 20609 3.80525437133247e-07 3.60161072647491e-08 5.63767203518077e-09 5.11284325774276e-08 2.88483960200434e-07 1.94401112923472e-07 1.09084179280782e-07 2.04950837789497e-07
"50" 20610 3.77738944470475e-07 3.60048058057517e-08 5.56836922547456e-09 5.10576920516636e-08 2.87607239854927e-07 1.94401112923472e-07 1.08834357822009e-07 2.04365967120665e-07
"51" 20611 3.74952451807704e-07 3.59935043467542e-08 5.49906641576835e-09 5.09869515258996e-08 2.8673051950942e-07 1.94401112923472e-07 1.08584536363236e-07 2.03781096451832e-07
"52" 20612 3.72165959144932e-07 3.59822028877567e-08 5.42976360606214e-09 5.09162110001357e-08 2.85853799163913e-07 1.94401112923472e-07 1.08334714904463e-07 2.03196225782999e-07
"53" 20613 3.6937946648216e-07 3.59709014287593e-08 5.36046079635593e-09 5.08454704743717e-08 2.84977078818406e-07 1.94401112923472e-07 1.08084893445689e-07 2.02611355114166e-07
"54" 20614 3.67854603011482e-07 3.59750851122709e-08 5.26981113231518e-09 5.07652857557645e-08 2.83001250521274e-07 1.94562180861501e-07 1.07913912640974e-07 2.0309501959243e-07
"55" 20615 3.66425950839966e-07 3.59451252943851e-08 5.26680098457037e-09 5.06580468694292e-08 2.82972819717455e-07 1.94500315464673e-07 1.07494592205001e-07 2.04613493978726e-07
"56" 20616 3.68976093923284e-07 3.59627460986968e-08 5.26755792876696e-09 5.06580468694292e-08 2.82966649758285e-07 1.94408795605386e-07 1.07472517891819e-07 2.06097574016129e-07
"57" 20617 3.70704198600936e-07 3.57090343722702e-08 5.21233112054546e-09 5.03903100803449e-08 2.81811709327627e-07 1.94128000275839e-07 1.07485390439233e-07 2.06018278809224e-07
"58" 20618 3.72432303278588e-07 3.54553226458437e-08 5.15710431232395e-09 5.01225732912605e-08 2.80656768896969e-07 1.93847204946291e-07 1.07498262986647e-07 2.0593898360232e-07
"59" 20619 3.7416040795624e-07 3.52016109194171e-08 5.10187750410245e-09 4.98548365021762e-08 2.79501828466311e-07 1.93566409616744e-07 1.0751113553406e-07 2.05859688395415e-07
"60" 20620 3.75888512633892e-07 3.49478991929905e-08 5.04665069588094e-09 4.95870997130919e-08 2.78346888035652e-07 1.93285614287197e-07 1.07524008081474e-07 2.05780393188511e-07
"61" 20621 3.7708716053192e-07 3.42434239586577e-08 5.04740764007753e-09 4.9533177109802e-08 2.7829227175511e-07 1.91734338754436e-07 1.07110629742648e-07 2.04488017782289e-07
"62" 20622 3.7948903829128e-07 3.40217438677016e-08 5.03614162233648e-09 4.95224127093423e-08 2.77830915741001e-07 1.9138150960688e-07 1.06379312305389e-07 2.05171244165549e-07
"63" 20623 3.8189091605064e-07 3.38000637767456e-08 5.02487560459542e-09 4.95116483088826e-08 2.77369559726892e-07 1.91028680459325e-07 1.0564799486813e-07 2.05854470548808e-07
"64" 20624 3.8429279381e-07 3.35783836857895e-08 5.01360958685437e-09 4.9500883908423e-08 2.76908203712783e-07 1.9067585131177e-07 1.04916677430871e-07 2.06537696932068e-07
"65" 20625 3.8669467156936e-07 3.33567035948334e-08 5.00234356911331e-09 4.94901195079633e-08 2.76446847698674e-07 1.90323022164214e-07 1.04185359993612e-07 2.07220923315327e-07
"66" 20626 3.89096549328719e-07 3.31350235038773e-08 4.99107755137226e-09 4.94793551075036e-08 2.75985491684564e-07 1.89970193016659e-07 1.03454042556353e-07 2.07904149698587e-07
"67" 20627 3.90532962519261e-07 3.29244328349579e-08 4.98782684158963e-09 4.94887993003469e-08 2.75521703545457e-07 1.89612269653366e-07 1.02615125381375e-07 2.07480536485531e-07
"68" 20628 3.91148802529492e-07 3.27138421660384e-08 4.98770343829872e-09 4.94797393273578e-08 2.7511496381189e-07 1.89458321655598e-07 1.01781066561545e-07 2.06874639720999e-07
"69" 20629 3.91764642539723e-07 3.2503251497119e-08 4.98758003500781e-09 4.94706793543686e-08 2.74708224078322e-07 1.89304373657829e-07 1.00947007741715e-07 2.06268742956466e-07
"70" 20630 3.92380482549954e-07 3.22926608281995e-08 4.98745663171689e-09 4.94616193813795e-08 2.74301484344755e-07 1.8915042566006e-07 1.00112948921885e-07 2.05662846191934e-07
"71" 20631 3.92996322560185e-07 3.20820701592801e-08 4.98733322842598e-09 4.94525594083903e-08 2.73894744611188e-07 1.88996477662291e-07 9.92788901020553e-08 2.05056949427401e-07
"72" 20632 3.93612162570417e-07 3.18714794903607e-08 4.98720982513507e-09 4.94434994354012e-08 2.73488004877621e-07 1.88842529664522e-07 9.84448312822252e-08 2.04451052662869e-07
"73" 20633 3.94228002580648e-07 3.16608888214412e-08 4.98708642184415e-09 4.9434439462412e-08 2.73081265144053e-07 1.88688581666753e-07 9.76107724623952e-08 2.03845155898336e-07
"74" 20634 3.94843842590879e-07 3.14502981525218e-08 4.98696301855324e-09 4.94253794894228e-08 2.72674525410486e-07 1.88534633668985e-07 9.67767136425652e-08 2.03239259133804e-07
"75" 20635 3.97137123522589e-07 3.13283924808828e-08 4.9768998110013e-09 4.94290286288664e-08 2.72422277738216e-07 1.88215344999701e-07 9.59989386019021e-08 2.02561232790487e-07
"76" 20636 3.96938917899247e-07 3.13866113637511e-08 4.99430952752287e-09 4.94445402759956e-08 2.71517801155062e-07 1.88410280102792e-07 9.61397323483882e-08 2.02428502343362e-07
"77" 20637 3.9897333607732e-07 3.14416916610935e-08 4.9863999938138e-09 4.92948207059777e-08 2.71447041729145e-07 1.89218302848696e-07 9.61874637610589e-08 2.02856576370017e-07
"78" 20638 4.01007754255393e-07 3.14967719584359e-08 4.97849046010472e-09 4.91451011359598e-08 2.71376282303228e-07 1.900263255946e-07 9.62351951737296e-08 2.03284650396671e-07
"79" 20639 4.03042172433466e-07 3.15518522557784e-08 4.97058092639565e-09 4.89953815659419e-08 2.71305522877311e-07 1.90834348340505e-07 9.62829265864003e-08 2.03712724423326e-07
"80" 20640 4.05076590611539e-07 3.16069325531208e-08 4.96267139268657e-09 4.8845661995924e-08 2.71234763451393e-07 1.91642371086409e-07 9.6330657999071e-08 2.0414079844998e-07
"81" 20641 4.07111008789612e-07 3.16620128504632e-08 4.9547618589775e-09 4.86959424259061e-08 2.71164004025476e-07 1.92450393832313e-07 9.63783894117417e-08 2.04568872476635e-07
"82" 20642 4.09145426967685e-07 3.17170931478056e-08 4.94685232526842e-09 4.85462228558882e-08 2.71093244599559e-07 1.93258416578217e-07 9.64261208244125e-08 2.0499694650329e-07
"83" 20643 4.11179845145758e-07 3.17721734451481e-08 4.93894279155935e-09 4.83965032858702e-08 2.71022485173642e-07 1.94066439324121e-07 9.64738522370832e-08 2.05425020529944e-07
"84" 20644 4.1321426332383e-07 3.18272537424905e-08 4.93103325785027e-09 4.82467837158523e-08 2.70951725747725e-07 1.94874462070026e-07 9.65215836497539e-08 2.05853094556599e-07
"85" 20645 4.1272293494169e-07 3.18706982729277e-08 4.92809362627171e-09 4.82240310564676e-08 2.71087814327442e-07 1.95739091957013e-07 9.65283814048486e-08 2.06279675593267e-07
"86" 20646 4.12231606559549e-07 3.19141428033649e-08 4.92515399469314e-09 4.82012783970828e-08 2.71223902907159e-07 1.96603721844e-07 9.65351791599434e-08 2.06706256629936e-07
"87" 20647 4.11540878708267e-07 3.19064678480328e-08 4.90604895940925e-09 4.80254406470991e-08 2.68542438112538e-07 1.970516394884e-07 9.65554971021502e-08 2.06785072699918e-07
"88" 20648 4.10850150856984e-07 3.18987928927007e-08 4.88694392412535e-09 4.78496028971155e-08 2.65860973317917e-07 1.974995571328e-07 9.65758150443571e-08 2.06863888769899e-07
"89" 20649 4.10159423005702e-07 3.18911179373687e-08 4.86783888884146e-09 4.76737651471318e-08 2.63179508523296e-07 1.97947474777201e-07 9.65961329865639e-08 2.06942704839881e-07
"90" 20650 4.09468695154419e-07 3.18834429820366e-08 4.84873385355757e-09 4.74979273971481e-08 2.60498043728676e-07 1.98395392421601e-07 9.66164509287707e-08 2.07021520909862e-07
"91" 20651 4.08777967303137e-07 3.18757680267045e-08 4.82962881827367e-09 4.73220896471645e-08 2.57816578934055e-07 1.98843310066001e-07 9.66367688709775e-08 2.07100336979844e-07
"92" 20652 4.08087239451855e-07 3.18680930713724e-08 4.81052378298978e-09 4.71462518971808e-08 2.55135114139434e-07 1.99291227710402e-07 9.66570868131844e-08 2.07179153049825e-07
"93" 20653 4.07396511600572e-07 3.18604181160403e-08 4.79141874770588e-09 4.69704141471971e-08 2.52453649344813e-07 1.99739145354802e-07 9.66774047553912e-08 2.07257969119807e-07
"94" 20654 4.0670578374929e-07 3.18527431607083e-08 4.77231371242199e-09 4.67945763972135e-08 2.49772184550192e-07 2.00187062999203e-07 9.6697722697598e-08 2.07336785189788e-07
"95" 20655 4.06015055898007e-07 3.18450682053762e-08 4.7532086771381e-09 4.66187386472298e-08 2.47090719755571e-07 2.00634980643603e-07 9.67180406398049e-08 2.0741560125977e-07
"96" 20656 4.05324328046725e-07 3.18373932500441e-08 4.7341036418542e-09 4.64429008972461e-08 2.44409254960951e-07 2.01082898288003e-07 9.67383585820117e-08 2.07494417329751e-07
"97" 20657 4.04633600195443e-07 3.1829718294712e-08 4.71499860657031e-09 4.62670631472625e-08 2.4172779016633e-07 2.01530815932404e-07 9.67586765242185e-08 2.07573233399733e-07
"98" 20658 4.0394287234416e-07 3.18220433393799e-08 4.69589357128641e-09 4.60912253972788e-08 2.39046325371709e-07 2.01978733576804e-07 9.67789944664254e-08 2.07652049469714e-07
"99" 20659 4.02040420269925e-07 3.19262243141471e-08 4.6846980697116e-09 4.59571180753817e-08 2.36254957474094e-07 2.02157857960738e-07 9.68123373617745e-08 2.07651804267287e-07
"100" 20660 3.99322642497205e-07 3.19851994529245e-08 4.69484942247133e-09 4.5902667316886e-08 2.3363285743339e-07 2.01747344124688e-07 9.6789430620348e-08 2.0734000183489e-07
"101" 20661 3.96604864724484e-07 3.20441745917018e-08 4.70500077523106e-09 4.58482165583904e-08 2.31010757392687e-07 2.01336830288638e-07 9.67665238789214e-08 2.07028199402493e-07
"102" 20662 3.93887086951764e-07 3.21031497304792e-08 4.71515212799079e-09 4.57937657998948e-08 2.28388657351984e-07 2.00926316452588e-07 9.67436171374949e-08 2.06716396970096e-07
"103" 20663 3.91169309179044e-07 3.21621248692566e-08 4.72530348075052e-09 4.57393150413992e-08 2.2576655731128e-07 2.00515802616538e-07 9.67207103960684e-08 2.06404594537699e-07
"104" 20664 3.88451531406323e-07 3.22211000080339e-08 4.73545483351025e-09 4.56848642829036e-08 2.23144457270577e-07 2.00105288780488e-07 9.66978036546418e-08 2.06092792105302e-07
"105" 20665 3.87884983195418e-07 3.23392569050606e-08 4.76350841136475e-09 4.57713455223229e-08 2.23190667645546e-07 2.00040626899233e-07 9.64818597463e-08 2.05417845093727e-07
"106" 20666 3.85941634742147e-07 3.239644906833e-08 4.78474949144995e-09 4.58387847602731e-08 2.2334597791973e-07 1.99707705180337e-07 9.64517318197389e-08 2.05239734651667e-07
"107" 20667 3.83998286288877e-07 3.24536412315993e-08 4.80599057153514e-09 4.59062239982234e-08 2.23501288193914e-07 1.99374783461441e-07 9.64216038931779e-08 2.05061624209607e-07
"108" 20668 3.82054937835606e-07 3.25108333948687e-08 4.82723165162034e-09 4.59736632361737e-08 2.23656598468099e-07 1.99041861742545e-07 9.63914759666168e-08 2.04883513767547e-07
"109" 20669 3.80111589382335e-07 3.2568025558138e-08 4.84847273170553e-09 4.60411024741239e-08 2.23811908742283e-07 1.98708940023649e-07 9.63613480400558e-08 2.04705403325487e-07
"110" 20670 3.78168240929064e-07 3.26252177214074e-08 4.86971381179072e-09 4.61085417120742e-08 2.23967219016467e-07 1.98376018304753e-07 9.63312201134947e-08 2.04527292883427e-07
"111" 20671 3.76224892475793e-07 3.26824098846767e-08 4.89095489187592e-09 4.61759809500245e-08 2.24122529290652e-07 1.98043096585857e-07 9.63010921869337e-08 2.04349182441367e-07
"112" 20672 3.74281544022522e-07 3.27396020479461e-08 4.91219597196111e-09 4.62434201879747e-08 2.24277839564836e-07 1.97710174866961e-07 9.62709642603726e-08 2.04171071999308e-07
"113" 20673 3.72338195569251e-07 3.27967942112154e-08 4.93343705204631e-09 4.6310859425925e-08 2.2443314983902e-07 1.97377253148065e-07 9.62408363338116e-08 2.03992961557248e-07
"114" 20674 3.70394847115981e-07 3.28539863744847e-08 4.9546781321315e-09 4.63782986638753e-08 2.24588460113204e-07 1.97044331429169e-07 9.62107084072505e-08 2.03814851115188e-07
"115" 20675 3.6845149866271e-07 3.29111785377541e-08 4.9759192122167e-09 4.64457379018255e-08 2.24743770387389e-07 1.96711409710273e-07 9.61805804806894e-08 2.03636740673128e-07
"116" 20676 3.66508150209439e-07 3.29683707010234e-08 4.99716029230189e-09 4.65131771397758e-08 2.24899080661573e-07 1.96378487991377e-07 9.61504525541284e-08 2.03458630231068e-07
"117" 20677 3.64564801756168e-07 3.30255628642928e-08 5.01840137238709e-09 4.6580616377726e-08 2.25054390935757e-07 1.96045566272482e-07 9.61203246275673e-08 2.03280519789008e-07
"118" 20678 3.63766371512415e-07 3.29437911489465e-08 4.97118987212401e-09 4.61981342553005e-08 2.22708962188974e-07 1.9588313412084e-07 9.62967881974249e-08 2.04180136368456e-07
"119" 20679 3.62891600924472e-07 3.27151793976694e-08 4.97402997399722e-09 4.61851415240052e-08 2.23572107656265e-07 1.95908530509229e-07 9.64828033995869e-08 2.04885281733947e-07
"120" 20680 3.61668765648383e-07 3.25124973909983e-08 5.09955709815935e-09 4.68125841634279e-08 2.23640373316596e-07 1.95830456973812e-07 9.64726632592529e-08 2.04668513751172e-07
"121" 20681 3.60445930372293e-07 3.23098153843271e-08 5.22508422232148e-09 4.74400268028507e-08 2.23708638976927e-07 1.95752383438394e-07 9.64625231189188e-08 2.04451745768398e-07
"122" 20682 3.59223095096204e-07 3.21071333776559e-08 5.35061134648361e-09 4.80674694422735e-08 2.23776904637258e-07 1.95674309902977e-07 9.64523829785848e-08 2.04234977785624e-07
"123" 20683 3.58000259820114e-07 3.19044513709847e-08 5.47613847064573e-09 4.86949120816962e-08 2.23845170297589e-07 1.9559623636756e-07 9.64422428382507e-08 2.0401820980285e-07
"124" 20684 3.56777424544024e-07 3.17017693643136e-08 5.60166559480786e-09 4.9322354721119e-08 2.23913435957921e-07 1.95518162832143e-07 9.64321026979166e-08 2.03801441820076e-07
"125" 20685 3.55554589267935e-07 3.14990873576424e-08 5.72719271896999e-09 4.99497973605418e-08 2.23981701618252e-07 1.95440089296726e-07 9.64219625575826e-08 2.03584673837302e-07
"126" 20686 3.54331753991845e-07 3.12964053509712e-08 5.85271984313212e-09 5.05772399999646e-08 2.24049967278583e-07 1.95362015761309e-07 9.64118224172485e-08 2.03367905854527e-07
"127" 20687 3.54134195491986e-07 3.13020852938345e-08 5.98216647606567e-09 5.12238434259601e-08 2.23871023181572e-07 1.95162162466462e-07 9.64029740371637e-08 2.03219740215694e-07
"128" 20688 3.53657879215657e-07 3.13373269024579e-08 6.11388394158898e-09 5.17544273596531e-08 2.23422524600305e-07 1.95094758780783e-07 9.64141690558272e-08 2.03249675210824e-07
"129" 20689 3.53181562939328e-07 3.13725685110813e-08 6.2456014071123e-09 5.22850112933462e-08 2.22974026019038e-07 1.95027355095103e-07 9.64253640744906e-08 2.03279610205953e-07
"130" 20690 3.52705246662999e-07 3.14078101197047e-08 6.37731887263562e-09 5.28155952270392e-08 2.2252552743777e-07 1.94959951409423e-07 9.6436559093154e-08 2.03309545201083e-07
"131" 20691 3.5222893038667e-07 3.14430517283281e-08 6.50903633815894e-09 5.33461791607323e-08 2.22077028856503e-07 1.94892547723744e-07 9.64477541118174e-08 2.03339480196212e-07
"132" 20692 3.51752614110341e-07 3.14782933369515e-08 6.64075380368225e-09 5.38767630944253e-08 2.21628530275236e-07 1.94825144038064e-07 9.64589491304808e-08 2.03369415191342e-07
"133" 20693 3.51302540999219e-07 3.149899430006e-08 6.64978424691666e-09 5.38621050181789e-08 2.22149069873776e-07 1.94989620531297e-07 9.64555690837028e-08 2.03291567203303e-07
"134" 20694 3.50852467888098e-07 3.15196952631685e-08 6.65881469015106e-09 5.38474469419325e-08 2.22669609472317e-07 1.95154097024529e-07 9.64521890369248e-08 2.03213719215265e-07
"135" 20695 3.50402394776977e-07 3.1540396226277e-08 6.66784513338546e-09 5.38327888656861e-08 2.23190149070858e-07 1.95318573517762e-07 9.64488089901468e-08 2.03135871227227e-07
"136" 20696 3.49952321665856e-07 3.15610971893855e-08 6.67687557661987e-09 5.38181307894398e-08 2.23710688669399e-07 1.95483050010995e-07 9.64454289433687e-08 2.03058023239188e-07
"137" 20697 3.49502248554735e-07 3.1581798152494e-08 6.68590601985427e-09 5.38034727131934e-08 2.2423122826794e-07 1.95647526504228e-07 9.64420488965907e-08 2.0298017525115e-07
"138" 20698 3.49052175443613e-07 3.16024991156026e-08 6.69493646308867e-09 5.3788814636947e-08 2.2475176786648e-07 1.95812002997461e-07 9.64386688498127e-08 2.02902327263111e-07
"139" 20699 3.48809975015066e-07 3.16755161467776e-08 6.69715440855376e-09 5.3678963199922e-08 2.24096167212674e-07 1.9570523248523e-07 9.64347344373963e-08 2.0345305532421e-07
"140" 20700 3.48567774586518e-07 3.17485331779526e-08 6.69937235401886e-09 5.3569111762897e-08 2.23440566558867e-07 1.95598461972999e-07 9.64308000249798e-08 2.04003783385309e-07
"141" 20701 3.48763829777629e-07 3.16670828096161e-08 6.70159029948395e-09 5.35114576032841e-08 2.22878458662805e-07 1.94543463126713e-07 9.51336955728531e-08 2.03871960362014e-07
"142" 20702 3.48959884968741e-07 3.15856324412796e-08 6.70380824494904e-09 5.34538034436713e-08 2.22316350766743e-07 1.93488464280428e-07 9.38365911207263e-08 2.03740137338719e-07
"143" 20703 3.49155940159853e-07 3.15041820729431e-08 6.70602619041414e-09 5.33961492840584e-08 2.21754242870681e-07 1.92433465434142e-07 9.25394866685996e-08 2.03608314315424e-07
"144" 20704 3.49351995350964e-07 3.14227317046066e-08 6.70824413587923e-09 5.33384951244455e-08 2.21192134974619e-07 1.91378466587856e-07 9.12423822164728e-08 2.03476491292129e-07
"145" 20705 3.49548050542076e-07 3.13412813362701e-08 6.71046208134432e-09 5.32808409648326e-08 2.20630027078556e-07 1.9032346774157e-07 8.99452777643461e-08 2.03344668268834e-07
"146" 20706 3.49744105733188e-07 3.12598309679336e-08 6.71268002680941e-09 5.32231868052198e-08 2.20067919182494e-07 1.89268468895284e-07 8.86481733122194e-08 2.03212845245538e-07
"147" 20707 3.49940160924299e-07 3.11783805995971e-08 6.71489797227451e-09 5.31655326456069e-08 2.19505811286432e-07 1.88213470048999e-07 8.73510688600926e-08 2.03081022222243e-07
"148" 20708 3.50136216115411e-07 3.10969302312606e-08 6.7171159177396e-09 5.3107878485994e-08 2.1894370339037e-07 1.87158471202713e-07 8.60539644079659e-08 2.02949199198948e-07
"149" 20709 3.50332271306523e-07 3.1015479862924e-08 6.71933386320469e-09 5.30502243263811e-08 2.18381595494308e-07 1.86103472356427e-07 8.47568599558391e-08 2.02817376175653e-07
"150" 20710 3.50528326497634e-07 3.09340294945875e-08 6.72155180866979e-09 5.29925701667683e-08 2.17819487598246e-07 1.85048473510141e-07 8.34597555037124e-08 2.02685553152358e-07
"151" 20711 3.50724381688746e-07 3.0852579126251e-08 6.72376975413488e-09 5.29349160071554e-08 2.17257379702184e-07 1.83993474663855e-07 8.21626510515856e-08 2.02553730129063e-07
"152" 20712 3.50920436879857e-07 3.07711287579145e-08 6.72598769959997e-09 5.28772618475425e-08 2.16695271806121e-07 1.8293847581757e-07 8.08655465994589e-08 2.02421907105768e-07
"153" 20713 3.51116492070969e-07 3.0689678389578e-08 6.72820564506506e-09 5.28196076879296e-08 2.16133163910059e-07 1.81883476971284e-07 7.95684421473321e-08 2.02290084082472e-07
"154" 20714 3.51312547262081e-07 3.06082280212415e-08 6.73042359053016e-09 5.27619535283168e-08 2.15571056013997e-07 1.80828478124998e-07 7.82713376952054e-08 2.02158261059177e-07
"155" 20715 3.51508602453192e-07 3.0526777652905e-08 6.73264153599525e-09 5.27042993687039e-08 2.15008948117935e-07 1.79773479278712e-07 7.69742332430787e-08 2.02026438035882e-07
"156" 20716 3.51407022122851e-07 3.03920082927787e-08 6.83221586902106e-09 5.28762728449893e-08 2.14848017021455e-07 1.79175199608955e-07 7.57656125917999e-08 2.01384797784562e-07
"157" 20717 3.5130544179251e-07 3.02572389326524e-08 6.93179020204686e-09 5.30482463212748e-08 2.14687085924974e-07 1.78576919939197e-07 7.45569919405212e-08 2.00743157533241e-07
"158" 20718 3.51200690915678e-07 3.0103657603406e-08 6.956816003115e-09 5.30186871699844e-08 2.14840079850782e-07 1.77522241146607e-07 7.32803543171824e-08 2.00254950157541e-07
"159" 20719 3.51095940038847e-07 2.99500762741596e-08 6.98184180418315e-09 5.2989128018694e-08 2.14993073776589e-07 1.76467562354016e-07 7.20037166938437e-08 1.99766742781841e-07
"160" 20720 3.50991189162016e-07 2.97964949449132e-08 7.00686760525129e-09 5.29595688674035e-08 2.15146067702396e-07 1.75412883561426e-07 7.07270790705049e-08 1.99278535406141e-07
"161" 20721 3.50886438285185e-07 2.96429136156669e-08 7.03189340631944e-09 5.29300097161131e-08 2.15299061628203e-07 1.74358204768835e-07 6.94504414471661e-08 1.98790328030441e-07
"162" 20722 3.50084468717152e-07 2.9554833389984e-08 7.05072886602639e-09 5.2954272567121e-08 2.15974451874736e-07 1.74356832528903e-07 6.94282379579592e-08 1.98619783888647e-07
"163" 20723 3.4778852441804e-07 2.95431099829853e-08 7.07348383450477e-09 5.29952275893635e-08 2.16202841675492e-07 1.73607806680543e-07 6.93185840761036e-08 1.98761742173206e-07
"164" 20724 3.4540335987264e-07 2.95025757486466e-08 7.04975523337754e-09 5.29444190041757e-08 2.16287966050434e-07 1.73038207934958e-07 6.92409060062705e-08 1.98611871035616e-07
"165" 20725 3.43018195327241e-07 2.94620415143079e-08 7.02602663225032e-09 5.28936104189879e-08 2.16373090425376e-07 1.72468609189373e-07 6.91632279364374e-08 1.98461999898026e-07
"166" 20726 3.40633030781841e-07 2.94215072799692e-08 7.00229803112309e-09 5.28428018338001e-08 2.16458214800318e-07 1.71899010443788e-07 6.90855498666043e-08 1.98312128760436e-07
"167" 20727 3.38247866236441e-07 2.93809730456305e-08 6.97856942999586e-09 5.27919932486122e-08 2.1654333917526e-07 1.71329411698203e-07 6.90078717967712e-08 1.98162257622846e-07
"168" 20728 3.35862701691042e-07 2.93404388112918e-08 6.95484082886864e-09 5.27411846634244e-08 2.16628463550202e-07 1.70759812952618e-07 6.89301937269381e-08 1.98012386485256e-07
"169" 20729 3.33477537145642e-07 2.92999045769531e-08 6.93111222774141e-09 5.26903760782366e-08 2.16713587925143e-07 1.70190214207033e-07 6.8852515657105e-08 1.97862515347666e-07
"170" 20730 3.31092372600242e-07 2.92593703426144e-08 6.90738362661418e-09 5.26395674930488e-08 2.16798712300085e-07 1.69620615461448e-07 6.87748375872719e-08 1.97712644210076e-07
"171" 20731 3.28707208054842e-07 2.92188361082757e-08 6.88365502548696e-09 5.2588758907861e-08 2.16883836675027e-07 1.69051016715864e-07 6.86971595174388e-08 1.97562773072487e-07
"172" 20732 3.26322043509443e-07 2.9178301873937e-08 6.85992642435973e-09 5.25379503226731e-08 2.16968961049969e-07 1.68481417970279e-07 6.86194814476057e-08 1.97412901934897e-07
"173" 20733 3.23936878964043e-07 2.91377676395983e-08 6.83619782323251e-09 5.24871417374853e-08 2.17054085424911e-07 1.67911819224694e-07 6.85418033777727e-08 1.97263030797307e-07
"174" 20734 3.21551714418643e-07 2.90972334052596e-08 6.81246922210528e-09 5.24363331522975e-08 2.17139209799853e-07 1.67342220479109e-07 6.84641253079395e-08 1.97113159659717e-07
"175" 20735 3.21334481303377e-07 2.90981194755247e-08 6.82857035418838e-09 5.21508018329119e-08 2.17866031381908e-07 1.67187430988793e-07 6.80884871280315e-08 1.95816530869771e-07
"176" 20736 3.21152847573026e-07 2.91136338313984e-08 6.909838098754e-09 5.20611295871014e-08 2.18284059391546e-07 1.67038894585016e-07 6.77128489481235e-08 1.9487628643223e-07
"177" 20737 3.20971213842674e-07 2.9129148187272e-08 6.99110584331962e-09 5.19714573412908e-08 2.18702087401185e-07 1.6689035818124e-07 6.73372107682155e-08 1.9393604199469e-07
"178" 20738 3.21300639588302e-07 2.91384600512895e-08 6.9824217363724e-09 5.16565498884858e-08 2.19252161705708e-07 1.67758024565172e-07 6.69905738326091e-08 1.92464393362359e-07
"179" 20739 3.2163006533393e-07 2.91477719153069e-08 6.97373762942517e-09 5.13416424356809e-08 2.1980223601023e-07 1.68625690949104e-07 6.66439368970028e-08 1.90992744730028e-07
"180" 20740 3.21959491079557e-07 2.91570837793244e-08 6.96505352247795e-09 5.10267349828759e-08 2.20352310314753e-07 1.69493357333037e-07 6.62972999613965e-08 1.89521096097697e-07
"181" 20741 3.22288916825185e-07 2.91663956433419e-08 6.95636941553072e-09 5.07118275300709e-08 2.20902384619276e-07 1.70361023716969e-07 6.59506630257902e-08 1.88049447465366e-07
"182" 20742 3.22618342570813e-07 2.91757075073594e-08 6.9476853085835e-09 5.03969200772659e-08 2.21452458923799e-07 1.71228690100901e-07 6.56040260901839e-08 1.86577798833035e-07
"183" 20743 3.22270954663569e-07 2.91790635473349e-08 6.94570792515623e-09 5.04081580805949e-08 2.21569000992848e-07 1.72099023598961e-07 6.55828362986201e-08 1.86210791734181e-07
"184" 20744 3.22782014139548e-07 2.91818624074642e-08 6.94594848719405e-09 5.02857120644003e-08 2.21801875819382e-07 1.73088613772036e-07 6.51954307834277e-08 1.8631046062348e-07
"185" 20745 3.23293073615527e-07 2.91846612675934e-08 6.94618904923188e-09 5.01632660482056e-08 2.22034750645915e-07 1.74078203945111e-07 6.48080252682354e-08 1.86410129512779e-07
"186" 20746 3.23804133091506e-07 2.91874601277227e-08 6.9464296112697e-09 5.0040820032011e-08 2.22267625472449e-07 1.75067794118185e-07 6.4420619753043e-08 1.86509798402078e-07
"187" 20747 3.24315192567485e-07 2.91902589878519e-08 6.94667017330753e-09 4.99183740158164e-08 2.22500500298982e-07 1.7605738429126e-07 6.40332142378506e-08 1.86609467291377e-07
"188" 20748 3.24826252043464e-07 2.91930578479812e-08 6.94691073534535e-09 4.97959279996217e-08 2.22733375125516e-07 1.77046974464335e-07 6.36458087226583e-08 1.86709136180675e-07
"189" 20749 3.26147323288605e-07 2.92161065098531e-08 6.95919188836238e-09 4.96676799638916e-08 2.2247727759473e-07 1.7709346251336e-07 6.32395062015332e-08 1.86704627786426e-07
"190" 20750 3.26731067907959e-07 2.9631079938347e-08 6.96822233159678e-09 4.95394319281615e-08 2.22310634289134e-07 1.77397615240586e-07 6.28819540694433e-08 1.86707088858355e-07
"191" 20751 3.27314812527313e-07 3.00460533668409e-08 6.97725277483118e-09 4.94111838924314e-08 2.22143990983538e-07 1.77701767967811e-07 6.25244019373534e-08 1.86709549930284e-07
"192" 20752 3.27898557146667e-07 3.04610267953348e-08 6.98628321806559e-09 4.92829358567013e-08 2.21977347677942e-07 1.78005920695037e-07 6.21668498052635e-08 1.86712011002213e-07
"193" 20753 3.2848230176602e-07 3.08760002238287e-08 6.99531366129999e-09 4.91546878209712e-08 2.21810704372345e-07 1.78310073422262e-07 6.18092976731735e-08 1.86714472074142e-07
"194" 20754 3.29066046385374e-07 3.12909736523226e-08 7.00434410453439e-09 4.9026439785241e-08 2.21644061066749e-07 1.78614226149488e-07 6.14517455410836e-08 1.86716933146071e-07
"195" 20755 3.29649791004728e-07 3.17059470808165e-08 7.0133745477688e-09 4.88981917495109e-08 2.21477417761153e-07 1.78918378876713e-07 6.10941934089937e-08 1.86719394218e-07
"196" 20756 3.30211956428305e-07 3.19441336163918e-08 6.98638899231494e-09 4.88944420090758e-08 2.21627973933546e-07 1.79222531603939e-07 6.08529619782554e-08 1.85986030973764e-07
"197" 20757 3.30774121851882e-07 3.21823201519671e-08 6.95940343686109e-09 4.88906922686407e-08 2.21778530105939e-07 1.79526684331164e-07 6.06117305475172e-08 1.85252667729527e-07
"198" 20758 3.29471753160349e-07 3.26038065843492e-08 6.95240326417863e-09 4.88724465714229e-08 2.21926278681392e-07 1.79672089537404e-07 6.06619018728264e-08 1.85144848783336e-07
"199" 20759 3.28169384468817e-07 3.30252930167313e-08 6.94540309149617e-09 4.88542008742051e-08 2.22074027256845e-07 1.79817494743645e-07 6.07120731981357e-08 1.85037029837146e-07
"200" 20760 3.26867015777284e-07 3.34467794491134e-08 6.93840291881372e-09 4.88359551769874e-08 2.22221775832298e-07 1.79962899949885e-07 6.0762244523445e-08 1.84929210890955e-07
"201" 20761 3.25564647085751e-07 3.38682658814955e-08 6.93140274613126e-09 4.88177094797696e-08 2.22369524407751e-07 1.80108305156125e-07 6.08124158487542e-08 1.84821391944764e-07
"202" 20762 3.24262278394219e-07 3.42897523138776e-08 6.9244025734488e-09 4.87994637825518e-08 2.22517272983204e-07 1.80253710362365e-07 6.08625871740635e-08 1.84713572998573e-07
"203" 20763 3.22959909702686e-07 3.47112387462597e-08 6.91740240076635e-09 4.87812180853341e-08 2.22665021558657e-07 1.80399115568605e-07 6.09127584993728e-08 1.84605754052383e-07
"204" 20764 3.21657541011153e-07 3.51327251786418e-08 6.91040222808389e-09 4.87629723881163e-08 2.2281277013411e-07 1.80544520774845e-07 6.09629298246821e-08 1.84497935106192e-07
"205" 20765 3.21243964473276e-07 3.51808229323433e-08 6.91465044410093e-09 4.88013260776455e-08 2.23014133731594e-07 1.8038126446551e-07 6.0988606634727e-08 1.84733398887365e-07
"206" 20766 3.19388941997636e-07 3.5197228775971e-08 6.90765027141847e-09 4.88347858708584e-08 2.23219126891181e-07 1.82257188256984e-07 6.15610604690907e-08 1.85111736725188e-07
"207" 20767 3.17533919521996e-07 3.52136346195986e-08 6.90065009873601e-09 4.88682456640712e-08 2.23424120050769e-07 1.84133112048458e-07 6.21335143034544e-08 1.85490074563012e-07
"208" 20768 3.15678897046355e-07 3.52300404632262e-08 6.89364992605356e-09 4.89017054572841e-08 2.23629113210357e-07 1.86009035839932e-07 6.27059681378181e-08 1.85868412400836e-07
"209" 20769 3.13823874570715e-07 3.52464463068538e-08 6.8866497533711e-09 4.8935165250497e-08 2.23834106369945e-07 1.87884959631406e-07 6.32784219721819e-08 1.86246750238659e-07
"210" 20770 3.11968852095075e-07 3.52628521504815e-08 6.87964958068864e-09 4.89686250437099e-08 2.24039099529532e-07 1.8976088342288e-07 6.38508758065456e-08 1.86625088076483e-07
"211" 20771 3.10113829619434e-07 3.52792579941091e-08 6.87264940800619e-09 4.90020848369228e-08 2.2424409268912e-07 1.91636807214354e-07 6.44233296409093e-08 1.87003425914306e-07
"212" 20772 3.08258807143794e-07 3.52956638377367e-08 6.86564923532373e-09 4.90355446301357e-08 2.24449085848708e-07 1.93512731005828e-07 6.4995783475273e-08 1.8738176375213e-07
"213" 20773 3.06403784668154e-07 3.53120696813643e-08 6.85864906264127e-09 4.90690044233486e-08 2.24654079008295e-07 1.95388654797302e-07 6.55682373096367e-08 1.87760101589954e-07
"214" 20774 3.04548762192513e-07 3.5328475524992e-08 6.85164888995882e-09 4.91024642165615e-08 2.24859072167883e-07 1.97264578588776e-07 6.61406911440004e-08 1.88138439427777e-07
"215" 20775 3.02693739716873e-07 3.53448813686196e-08 6.84464871727636e-09 4.91359240097744e-08 2.25064065327471e-07 1.9914050238025e-07 6.67131449783642e-08 1.88516777265601e-07
"216" 20776 3.00838717241233e-07 3.53612872122472e-08 6.8376485445939e-09 4.91693838029873e-08 2.25269058487059e-07 2.01016426171724e-07 6.72855988127279e-08 1.88895115103424e-07
"217" 20777 3.00881700441411e-07 3.5087519342652e-08 6.82165318676016e-09 4.89900520668881e-08 2.25379596757315e-07 2.02985550132139e-07 6.77890578793534e-08 1.88752659875278e-07
"218" 20778 3.00941939364881e-07 3.50731377248577e-08 6.78168242121737e-09 4.88404624999503e-08 2.2510559074579e-07 2.04454124672595e-07 6.8028421714074e-08 1.89243276013056e-07
"219" 20779 3.0100217828835e-07 3.50587561070634e-08 6.74171165567457e-09 4.86908729330124e-08 2.24831584734265e-07 2.05922699213051e-07 6.82677855487947e-08 1.89733892150834e-07
"220" 20780 3.0106241721182e-07 3.50443744892691e-08 6.70174089013178e-09 4.85412833660746e-08 2.24557578722739e-07 2.07391273753506e-07 6.85071493835153e-08 1.90224508288612e-07
"221" 20781 3.01122656135289e-07 3.50299928714749e-08 6.66177012458898e-09 4.83916937991368e-08 2.24283572711214e-07 2.08859848293962e-07 6.87465132182359e-08 1.9071512442639e-07
"222" 20782 3.01182895058759e-07 3.50156112536806e-08 6.62179935904619e-09 4.8242104232199e-08 2.24009566699689e-07 2.10328422834418e-07 6.89858770529565e-08 1.91205740564168e-07
"223" 20783 3.01243133982228e-07 3.50012296358863e-08 6.58182859350339e-09 4.80925146652611e-08 2.23735560688163e-07 2.11796997374873e-07 6.92252408876772e-08 1.91696356701945e-07
"224" 20784 3.01303372905697e-07 3.4986848018092e-08 6.5418578279606e-09 4.79429250983233e-08 2.23461554676638e-07 2.13265571915329e-07 6.94646047223978e-08 1.92186972839723e-07
"225" 20785 3.01363611829167e-07 3.49724664002978e-08 6.5018870624178e-09 4.77933355313855e-08 2.23187548665113e-07 2.14734146455785e-07 6.97039685571184e-08 1.92677588977501e-07
"226" 20786 3.01691079269143e-07 3.50214740201401e-08 6.4551037991057e-09 4.75898875939251e-08 2.22718462915756e-07 2.14133883757532e-07 6.94062882692233e-08 1.92954495038522e-07
"227" 20787 3.02040164071549e-07 3.5081770138082e-08 6.42199217391289e-09 4.74564411446089e-08 2.22590638199051e-07 2.13580647882011e-07 6.90788693424156e-08 1.93248361974894e-07
"228" 20788 3.02389248873956e-07 3.51420662560238e-08 6.38888054872008e-09 4.73229946952927e-08 2.22462813482347e-07 2.13027412006489e-07 6.8751450415608e-08 1.93542228911266e-07
"229" 20789 3.01600350041286e-07 3.51979082267642e-08 6.39849164573548e-09 4.73532859180671e-08 2.22799772534846e-07 2.13055823599316e-07 6.87806741099946e-08 1.93837611723183e-07
"230" 20790 3.00811451208616e-07 3.52537501975045e-08 6.40810274275088e-09 4.73835771408415e-08 2.23136731587345e-07 2.13084235192143e-07 6.88098978043811e-08 1.94132994535101e-07
"231" 20791 3.00022552375946e-07 3.53095921682448e-08 6.41771383976628e-09 4.74138683636159e-08 2.23473690639844e-07 2.13112646784969e-07 6.88391214987677e-08 1.94428377347018e-07
"232" 20792 2.99233653543276e-07 3.53654341389852e-08 6.42732493678168e-09 4.74441595863903e-08 2.23810649692343e-07 2.13141058377796e-07 6.88683451931543e-08 1.94723760158936e-07
"233" 20793 2.98321624841909e-07 3.53782902840633e-08 6.42202632740555e-09 4.75024061339762e-08 2.23888386033485e-07 2.13145743190127e-07 6.88689910732789e-08 1.9554689896427e-07
"234" 20794 2.97191698966589e-07 3.53495616793281e-08 6.47198978433405e-09 4.77970825575255e-08 2.24494193653683e-07 2.13309259522274e-07 6.89128616370369e-08 1.95660552557045e-07
"235" 20795 2.98255569023012e-07 3.54349198499976e-08 6.51180188850281e-09 4.77970825575255e-08 2.2415792390448e-07 2.12784923290935e-07 6.92511239563982e-08 1.9568151326543e-07
"236" 20796 2.99319439079436e-07 3.55358032115183e-08 6.55359137609884e-09 4.77298193713105e-08 2.22925430178304e-07 2.12615848659642e-07 6.95827930197671e-08 1.95687576767614e-07
"237" 20797 3.00383309135859e-07 3.5636686573039e-08 6.59538086369488e-09 4.76625561850955e-08 2.21692936452128e-07 2.1244677402835e-07 6.9914462083136e-08 1.95693640269797e-07
"238" 20798 3.01447179192283e-07 3.57375699345598e-08 6.63717035129091e-09 4.75952929988804e-08 2.20460442725952e-07 2.12277699397057e-07 7.02461311465049e-08 1.9569970377198e-07
"239" 20799 3.02511049248706e-07 3.58384532960805e-08 6.67895983888694e-09 4.75280298126654e-08 2.19227948999776e-07 2.12108624765764e-07 7.05778002098738e-08 1.95705767274164e-07
"240" 20800 3.03574919305129e-07 3.59393366576013e-08 6.72074932648297e-09 4.74607666264504e-08 2.179954552736e-07 2.11939550134471e-07 7.09094692732428e-08 1.95711830776347e-07
"241" 20801 3.04638789361553e-07 3.6040220019122e-08 6.762538814079e-09 4.73935034402354e-08 2.16762961547424e-07 2.11770475503178e-07 7.12411383366117e-08 1.95717894278531e-07
"242" 20802 3.05702659417976e-07 3.61411033806428e-08 6.80432830167504e-09 4.73262402540204e-08 2.15530467821248e-07 2.11601400871885e-07 7.15728073999806e-08 1.95723957780714e-07
"243" 20803 3.067665294744e-07 3.62419867421635e-08 6.84611778927107e-09 4.72589770678053e-08 2.14297974095072e-07 2.11432326240592e-07 7.19044764633495e-08 1.95730021282897e-07
"244" 20804 3.07830399530823e-07 3.63428701036842e-08 6.8879072768671e-09 4.71917138815903e-08 2.13065480368896e-07 2.11263251609299e-07 7.22361455267184e-08 1.95736084785081e-07
"245" 20805 3.08894269587247e-07 3.6443753465205e-08 6.92969676446313e-09 4.71244506953753e-08 2.1183298664272e-07 2.11094176978006e-07 7.25678145900873e-08 1.95742148287264e-07
"246" 20806 3.0995813964367e-07 3.65446368267257e-08 6.97148625205916e-09 4.70571875091603e-08 2.10600492916543e-07 2.10925102346713e-07 7.28994836534562e-08 1.95748211789448e-07
"247" 20807 3.11022009700094e-07 3.66455201882465e-08 7.0132757396552e-09 4.69899243229452e-08 2.09367999190367e-07 2.1075602771542e-07 7.32311527168251e-08 1.95754275291631e-07
"248" 20808 3.11897584207856e-07 3.67712297696583e-08 7.02519292734349e-09 4.7094587026815e-08 2.08038743607176e-07 2.11134427993133e-07 7.3200267685097e-08 1.95728858498848e-07
"249" 20809 3.12773158715618e-07 3.68969393510701e-08 7.03711011503178e-09 4.71992497306848e-08 2.06709488023985e-07 2.11512828270846e-07 7.31693826533689e-08 1.95703441706064e-07
"250" 20810 3.13092154401998e-07 3.70071237416307e-08 7.04900967367851e-09 4.73728227816086e-08 2.06317229016064e-07 2.12049347946127e-07 7.29430061102519e-08 1.9534145483204e-07
"251" 20811 3.13411150088378e-07 3.71173081321912e-08 7.06090923232524e-09 4.75463958325324e-08 2.05924970008142e-07 2.12585867621408e-07 7.27166295671349e-08 1.94979467958016e-07
"252" 20812 3.14036285543639e-07 3.71421343520823e-08 7.06090923232524e-09 4.77391869366605e-08 2.05421406776972e-07 2.13109829119049e-07 7.271419141407e-08 1.94964456324014e-07
"253" 20813 3.146614209989e-07 3.71669605719734e-08 7.06090923232524e-09 4.79319780407885e-08 2.04917843545802e-07 2.13633790616689e-07 7.27117532610052e-08 1.94949444690013e-07
"254" 20814 3.15722896231068e-07 3.72217282313635e-08 7.05102231518889e-09 4.79321610586595e-08 2.04552178985055e-07 2.13638974182137e-07 7.29626098875516e-08 1.9539893240705e-07
"255" 20815 3.16049456596908e-07 3.70794245652389e-08 7.0391051275006e-09 4.81029609769754e-08 2.04142874464621e-07 2.13645331277802e-07 7.31304295764267e-08 1.95639692849302e-07
"256" 20816 3.16376016962748e-07 3.69371208991143e-08 7.02718793981231e-09 4.82737608952912e-08 2.03733569944187e-07 2.13651688373466e-07 7.32982492653019e-08 1.95880453291553e-07
"257" 20817 3.16702577328589e-07 3.67948172329897e-08 7.01527075212402e-09 4.8444560813607e-08 2.03324265423753e-07 2.1365804546913e-07 7.34660689541771e-08 1.96121213733804e-07
"258" 20818 3.17029137694429e-07 3.66525135668651e-08 7.00335356443573e-09 4.86153607319228e-08 2.0291496090332e-07 2.13664402564794e-07 7.36338886430522e-08 1.96361974176056e-07
"259" 20819 3.17355698060269e-07 3.65102099007404e-08 6.99143637674744e-09 4.87861606502386e-08 2.02505656382886e-07 2.13670759660459e-07 7.38017083319274e-08 1.96602734618307e-07
"260" 20820 3.1768225842611e-07 3.63679062346158e-08 6.97951918905915e-09 4.89569605685544e-08 2.02096351862452e-07 2.13677116756123e-07 7.39695280208026e-08 1.96843495060558e-07
"261" 20821 3.1800881879195e-07 3.62256025684912e-08 6.96760200137086e-09 4.91277604868702e-08 2.01687047342019e-07 2.13683473851787e-07 7.41373477096778e-08 1.9708425550281e-07
"262" 20822 3.1833537915779e-07 3.60832989023666e-08 6.95568481368257e-09 4.92985604051861e-08 2.01277742821585e-07 2.13689830947451e-07 7.43051673985529e-08 1.97325015945061e-07
"263" 20823 3.18661939523631e-07 3.5940995236242e-08 6.94376762599428e-09 4.94693603235019e-08 2.00868438301151e-07 2.13696188043116e-07 7.44729870874281e-08 1.97565776387313e-07
"264" 20824 3.18988499889471e-07 3.57986915701174e-08 6.93185043830599e-09 4.96401602418177e-08 2.00459133780717e-07 2.1370254513878e-07 7.46408067763033e-08 1.97806536829564e-07
"265" 20825 3.19315060255312e-07 3.56563879039928e-08 6.9199332506177e-09 4.98109601601335e-08 2.00049829260284e-07 2.13708902234444e-07 7.48086264651784e-08 1.98047297271815e-07
"266" 20826 3.19641620621152e-07 3.55140842378682e-08 6.90801606292941e-09 4.99817600784493e-08 1.9964052473985e-07 2.13715259330108e-07 7.49764461540536e-08 1.98288057714067e-07
"267" 20827 3.19968180986992e-07 3.53717805717436e-08 6.89609887524112e-09 5.01525599967651e-08 1.99231220219416e-07 2.13721616425773e-07 7.51442658429288e-08 1.98528818156318e-07
"268" 20828 3.20294741352833e-07 3.5229476905619e-08 6.88418168755283e-09 5.03233599150809e-08 1.98821915698982e-07 2.13727973521437e-07 7.5312085531804e-08 1.98769578598569e-07
"269" 20829 3.20155479029419e-07 3.50895847824757e-08 6.8782142791879e-09 5.03968275247977e-08 1.99497075996427e-07 2.14184015245426e-07 7.53724543695422e-08 1.98832329949098e-07
"270" 20830 3.2015804345549e-07 3.49474747749251e-08 6.89108233052994e-09 5.06037415838307e-08 1.99200812892529e-07 2.14292758084391e-07 7.58556511064821e-08 1.98820307564433e-07
"271" 20831 3.20160607881561e-07 3.48053647673745e-08 6.90395038187197e-09 5.08106556428637e-08 1.98904549788631e-07 2.14401500923356e-07 7.6338847843422e-08 1.98808285179769e-07
"272" 20832 3.20163172307631e-07 3.46632547598239e-08 6.916818433214e-09 5.10175697018966e-08 1.98608286684733e-07 2.14510243762321e-07 7.68220445803619e-08 1.98796262795105e-07
"273" 20833 3.16418765656709e-07 3.46081744624814e-08 6.93565389292095e-09 5.10788045163452e-08 1.98476115232534e-07 2.14617919755635e-07 7.73065527881073e-08 1.98799252044443e-07
"274" 20834 3.12674359005787e-07 3.4553094165139e-08 6.95448935262791e-09 5.11400393307937e-08 1.98343943780336e-07 2.14725595748949e-07 7.77910609958527e-08 1.9880224129378e-07
"275" 20835 3.12945084466935e-07 3.45495206707138e-08 6.97332481233486e-09 5.13467703719556e-08 1.9851415313131e-07 2.14776984654876e-07 7.81462612106428e-08 1.97073767499744e-07
"276" 20836 3.13215809928084e-07 3.45459471762886e-08 6.99216027204182e-09 5.15535014131176e-08 1.98684362482285e-07 2.14828373560802e-07 7.85014614254329e-08 1.95345293705709e-07
"277" 20837 3.13486535389232e-07 3.45423736818635e-08 7.01099573174877e-09 5.17602324542796e-08 1.98854571833259e-07 2.14879762466729e-07 7.8856661640223e-08 1.93616819911673e-07
"278" 20838 3.13757260850381e-07 3.45388001874383e-08 7.02983119145573e-09 5.19669634954416e-08 1.99024781184233e-07 2.14931151372655e-07 7.92118618550131e-08 1.91888346117638e-07
"279" 20839 3.14027986311529e-07 3.45352266930131e-08 7.04866665116268e-09 5.21736945366036e-08 1.99194990535207e-07 2.14982540278582e-07 7.95670620698032e-08 1.90159872323602e-07
"280" 20840 3.14298711772677e-07 3.45316531985879e-08 7.06750211086964e-09 5.23804255777655e-08 1.99365199886182e-07 2.15033929184508e-07 7.99222622845933e-08 1.88431398529566e-07
"281" 20841 3.14569437233826e-07 3.45280797041628e-08 7.08633757057659e-09 5.25871566189275e-08 1.99535409237156e-07 2.15085318090435e-07 8.02774624993834e-08 1.86702924735531e-07
"282" 20842 3.14840162694974e-07 3.45245062097376e-08 7.10517303028354e-09 5.27938876600895e-08 1.9970561858813e-07 2.15136706996361e-07 8.06326627141735e-08 1.84974450941495e-07
"283" 20843 3.15110888156123e-07 3.45209327153124e-08 7.1240084899905e-09 5.30006187012515e-08 1.99875827939105e-07 2.15188095902288e-07 8.09878629289637e-08 1.83245977147459e-07
"284" 20844 3.15381613617271e-07 3.45173592208872e-08 7.14284394969746e-09 5.32073497424135e-08 2.00046037290079e-07 2.15239484808214e-07 8.13430631437538e-08 1.81517503353424e-07
"285" 20845 3.1565233907842e-07 3.45137857264621e-08 7.16167940940441e-09 5.34140807835754e-08 2.00216246641053e-07 2.15290873714141e-07 8.16982633585439e-08 1.79789029559388e-07
"286" 20846 3.15923064539568e-07 3.45102122320369e-08 7.18051486911137e-09 5.36208118247374e-08 2.00386455992027e-07 2.15342262620067e-07 8.2053463573334e-08 1.78060555765353e-07
"287" 20847 3.16193790000717e-07 3.45066387376117e-08 7.19935032881832e-09 5.38275428658994e-08 2.00556665343002e-07 2.15393651525994e-07 8.24086637881241e-08 1.76332081971317e-07
"288" 20848 3.16464515461865e-07 3.45030652431865e-08 7.21818578852527e-09 5.40342739070614e-08 2.00726874693976e-07 2.1544504043192e-07 8.27638640029142e-08 1.74603608177281e-07
"289" 20849 3.16735240923014e-07 3.44994917487613e-08 7.23702124823223e-09 5.42410049482234e-08 2.0089708404495e-07 2.15496429337847e-07 8.31190642177043e-08 1.72875134383246e-07
"290" 20850 3.17005966384162e-07 3.44959182543362e-08 7.25585670793918e-09 5.44477359893853e-08 2.01067293395925e-07 2.15547818243773e-07 8.34742644324944e-08 1.7114666058921e-07
"291" 20851 3.17276691845311e-07 3.4492344759911e-08 7.27469216764614e-09 5.46544670305473e-08 2.01237502746899e-07 2.155992071497e-07 8.38294646472846e-08 1.69418186795174e-07
"292" 20852 3.18003844232777e-07 3.45011870841758e-08 7.26850182628495e-09 5.46657050338763e-08 2.01797991102434e-07 2.17633079665641e-07 8.3787827737489e-08 1.67783931569171e-07
"293" 20853 3.17970693397399e-07 3.44865587985673e-08 7.26776251112992e-09 5.46506851737286e-08 2.0313463444744e-07 2.17871841054509e-07 8.39697631598009e-08 1.67766429438949e-07
"294" 20854 3.17937542562021e-07 3.44719305129589e-08 7.26702319597489e-09 5.46356653135808e-08 2.04471277792447e-07 2.18110602443378e-07 8.41516985821127e-08 1.67748927308727e-07
"295" 20855 3.17918369536142e-07 3.43741803194751e-08 7.2551060082866e-09 5.43313322772287e-08 2.03394288642911e-07 2.18015055214005e-07 8.42566035742898e-08 1.67490452227483e-07
"296" 20856 3.17899196510263e-07 3.42764301259914e-08 7.24318882059831e-09 5.40269992408767e-08 2.02317299493375e-07 2.17919507984631e-07 8.43615085664669e-08 1.67231977146238e-07
"297" 20857 3.17880023484384e-07 3.41786799325077e-08 7.23127163291002e-09 5.37226662045246e-08 2.01240310343839e-07 2.17823960755258e-07 8.4466413558644e-08 1.66973502064994e-07
"298" 20858 3.17860850458505e-07 3.4080929739024e-08 7.21935444522173e-09 5.34183331681725e-08 2.00163321194303e-07 2.17728413525884e-07 8.45713185508212e-08 1.6671502698375e-07
"299" 20859 3.17841677432626e-07 3.39831795455402e-08 7.20743725753344e-09 5.31140001318205e-08 1.99086332044767e-07 2.17632866296511e-07 8.46762235429983e-08 1.66456551902505e-07
"300" 20860 3.17822504406747e-07 3.38854293520565e-08 7.19552006984515e-09 5.28096670954684e-08 1.98009342895232e-07 2.17537319067137e-07 8.47811285351754e-08 1.66198076821261e-07
"301" 20861 3.17803331380868e-07 3.37876791585728e-08 7.18360288215686e-09 5.25053340591163e-08 1.96932353745696e-07 2.17441771837763e-07 8.48860335273525e-08 1.65939601740017e-07
"302" 20862 3.17784158354989e-07 3.36899289650891e-08 7.17168569446857e-09 5.22010010227642e-08 1.9585536459616e-07 2.1734622460839e-07 8.49909385195296e-08 1.65681126658773e-07
"303" 20863 3.1776498532911e-07 3.35921787716053e-08 7.15976850678028e-09 5.18966679864122e-08 1.94778375446624e-07 2.17250677379016e-07 8.50958435117067e-08 1.65422651577528e-07
"304" 20864 3.17745812303231e-07 3.34944285781216e-08 7.14785131909198e-09 5.15923349500601e-08 1.93701386297088e-07 2.17155130149643e-07 8.52007485038838e-08 1.65164176496284e-07
"305" 20865 3.18194870972914e-07 3.34121981580003e-08 7.14785131909198e-09 5.14546036389673e-08 1.91566737964551e-07 2.16931224669725e-07 8.51315689475995e-08 1.64933683899455e-07
"306" 20866 3.18643929642597e-07 3.33299677378791e-08 7.14785131909198e-09 5.13168723278745e-08 1.89432089632013e-07 2.16707319189808e-07 8.50623893913151e-08 1.64703191302625e-07
"307" 20867 3.19092988312281e-07 3.32477373177578e-08 7.14785131909198e-09 5.11791410167817e-08 1.87297441299476e-07 2.1648341370989e-07 8.49932098350308e-08 1.64472698705796e-07
"308" 20868 3.1907739415391e-07 3.31492947125829e-08 7.13670870464184e-09 5.08963046649653e-08 1.84907498639932e-07 2.15917949018956e-07 8.50130307836942e-08 1.64397869391386e-07
"309" 20869 3.19132713370282e-07 3.3063267926098e-08 7.15482247823533e-09 5.07538148892266e-08 1.82851296589357e-07 2.15388213177599e-07 8.49793739237739e-08 1.64156834322416e-07
"310" 20870 3.19188032586653e-07 3.2977241139613e-08 7.17293625182881e-09 5.06113251134879e-08 1.80795094538782e-07 2.14858477336243e-07 8.49457170638537e-08 1.63915799253445e-07
"311" 20871 3.19243351803024e-07 3.28912143531281e-08 7.19105002542229e-09 5.04688353377491e-08 1.78738892488207e-07 2.14328741494886e-07 8.49120602039335e-08 1.63674764184474e-07
"312" 20872 3.19298671019396e-07 3.28051875666431e-08 7.20916379901578e-09 5.03263455620104e-08 1.76682690437632e-07 2.13799005653529e-07 8.48784033440133e-08 1.63433729115504e-07
"313" 20873 3.19353990235767e-07 3.27191607801582e-08 7.22727757260926e-09 5.01838557862717e-08 1.74626488387057e-07 2.13269269812172e-07 8.4844746484093e-08 1.63192694046533e-07
"314" 20874 3.19409309452138e-07 3.26331339936732e-08 7.24539134620274e-09 5.0041366010533e-08 1.72570286336482e-07 2.12739533970815e-07 8.48110896241728e-08 1.62951658977563e-07
"315" 20875 3.1946462866851e-07 3.25471072071883e-08 7.26350511979623e-09 4.98988762347943e-08 1.70514084285906e-07 2.12209798129458e-07 8.47774327642526e-08 1.62710623908592e-07
"316" 20876 3.19507058013715e-07 3.25353362084382e-08 7.28982187626128e-09 4.99859247119387e-08 1.70854495483301e-07 2.12245526979035e-07 8.48239836417165e-08 1.623034746273e-07
"317" 20877 3.19549487358919e-07 3.2523565209688e-08 7.31613863272634e-09 5.00729731890831e-08 1.71194906680695e-07 2.12281255828612e-07 8.48705345191804e-08 1.61896325346008e-07
"318" 20878 3.19591916704124e-07 3.25117942109379e-08 7.3424553891914e-09 5.01600216662276e-08 1.7153531787809e-07 2.12316984678189e-07 8.49170853966443e-08 1.61489176064717e-07
"319" 20879 3.19634346049329e-07 3.25000232121877e-08 7.36877214565646e-09 5.0247070143372e-08 1.71875729075484e-07 2.12352713527766e-07 8.49636362741082e-08 1.61082026783425e-07
"320" 20880 3.19676775394534e-07 3.24882522134376e-08 7.39508890212152e-09 5.03341186205165e-08 1.72216140272878e-07 2.12388442377343e-07 8.50101871515721e-08 1.60674877502133e-07
"321" 20881 3.19719204739739e-07 3.24764812146874e-08 7.42140565858658e-09 5.04211670976609e-08 1.72556551470273e-07 2.12424171226919e-07 8.5056738029036e-08 1.60267728220841e-07
"322" 20882 3.16897043408142e-07 3.21816542782002e-08 7.42140565858658e-09 5.02307440078794e-08 1.71173436178839e-07 2.09760232169672e-07 8.4648004393141e-08 1.58063517338871e-07
"323" 20883 3.14074882076546e-07 3.1886827341713e-08 7.42140565858658e-09 5.00403209180979e-08 1.69790320887405e-07 2.07096293112425e-07 8.42392707572461e-08 1.55859306456901e-07
"324" 20884 3.11252720744949e-07 3.15920004052258e-08 7.42140565858658e-09 4.98498978283164e-08 1.68407205595971e-07 2.04432354055178e-07 8.38305371213512e-08 1.53655095574931e-07
"325" 20885 3.08701372470189e-07 3.1321142831729e-08 7.40016457850139e-09 4.9504854306065e-08 1.66651701019331e-07 2.01757214400809e-07 8.33703942528453e-08 1.51431452937584e-07
"326" 20886 3.06460741714628e-07 3.10618041716794e-08 7.37608339654298e-09 4.93018045207302e-08 1.65172995042047e-07 2.00327270596709e-07 8.33437072643047e-08 1.49257150895818e-07
"327" 20887 3.04220110959066e-07 3.08024655116298e-08 7.35200221458457e-09 4.90987547353954e-08 1.63694289064764e-07 1.98897326792609e-07 8.33170202757641e-08 1.47082848854052e-07
"328" 20888 3.01979480203505e-07 3.05431268515801e-08 7.32792103262617e-09 4.88957049500606e-08 1.62215583087481e-07 1.9746738298851e-07 8.32903332872234e-08 1.44908546812286e-07
"329" 20889 2.99738849447943e-07 3.02837881915305e-08 7.30383985066776e-09 4.86926551647259e-08 1.60736877110198e-07 1.9603743918441e-07 8.32636462986828e-08 1.4273424477052e-07
"330" 20890 2.97498218692382e-07 3.00244495314809e-08 7.27975866870935e-09 4.84896053793911e-08 1.59258171132915e-07 1.9460749538031e-07 8.32369593101422e-08 1.40559942728754e-07
"331" 20891 2.9525758793682e-07 2.97651108714312e-08 7.25567748675094e-09 4.82865555940563e-08 1.57779465155632e-07 1.93177551576211e-07 8.32102723216016e-08 1.38385640686988e-07
"332" 20892 2.93016957181259e-07 2.95057722113816e-08 7.23159630479253e-09 4.80835058087215e-08 1.56300759178349e-07 1.91747607772111e-07 8.31835853330609e-08 1.36211338645222e-07
"333" 20893 2.90776326425697e-07 2.9246433551332e-08 7.20751512283413e-09 4.78804560233867e-08 1.54822053201066e-07 1.90317663968012e-07 8.31568983445203e-08 1.34037036603456e-07
"334" 20894 2.88535695670135e-07 2.89870948912823e-08 7.18343394087572e-09 4.7677406238052e-08 1.53343347223783e-07 1.88887720163912e-07 8.31302113559797e-08 1.3186273456169e-07
"335" 20895 2.86295064914574e-07 2.87277562312327e-08 7.15935275891731e-09 4.74743564527172e-08 1.518646412465e-07 1.87457776359812e-07 8.31035243674391e-08 1.29688432519924e-07
"336" 20896 2.84054434159012e-07 2.84684175711831e-08 7.1352715769589e-09 4.72713066673824e-08 1.50385935269217e-07 1.86027832555713e-07 8.30768373788984e-08 1.27514130478158e-07
"337" 20897 2.81813803403451e-07 2.82090789111334e-08 7.11119039500049e-09 4.70682568820476e-08 1.48907229291934e-07 1.84597888751613e-07 8.30501503903578e-08 1.25339828436392e-07
"338" 20898 2.79573172647889e-07 2.79497402510838e-08 7.08710921304209e-09 4.68652070967129e-08 1.47428523314651e-07 1.83167944947514e-07 8.30234634018172e-08 1.23165526394626e-07
"339" 20899 2.77332541892328e-07 2.76904015910342e-08 7.06302803108368e-09 4.66621573113781e-08 1.45949817337368e-07 1.81738001143414e-07 8.29967764132766e-08 1.2099122435286e-07
"340" 20900 2.75091911136766e-07 2.74310629309845e-08 7.03894684912527e-09 4.64591075260433e-08 1.44471111360084e-07 1.80308057339314e-07 8.29700894247359e-08 1.18816922311093e-07
"341" 20901 2.72851280381205e-07 2.71717242709349e-08 7.01486566716686e-09 4.62560577407085e-08 1.42992405382801e-07 1.78878113535215e-07 8.29434024361953e-08 1.16642620269327e-07
"342" 20902 2.70610649625643e-07 2.69123856108853e-08 6.99078448520846e-09 4.60530079553737e-08 1.41513699405518e-07 1.77448169731115e-07 8.29167154476547e-08 1.14468318227561e-07
"343" 20903 2.68370018870082e-07 2.66530469508356e-08 6.96670330325005e-09 4.58499581700389e-08 1.40034993428235e-07 1.76018225927016e-07 8.28900284591141e-08 1.12294016185795e-07
"344" 20904 2.6612938811452e-07 2.6393708290786e-08 6.94262212129164e-09 4.56469083847042e-08 1.38556287450952e-07 1.74588282122916e-07 8.28633414705735e-08 1.10119714144029e-07
"345" 20905 2.66021812860965e-07 2.64380388914884e-08 6.94881246265283e-09 4.57794579287775e-08 1.38700300068373e-07 1.75865184803557e-07 8.29567427582373e-08 1.10112236116637e-07
"346" 20906 2.6532921713613e-07 2.64922039052011e-08 6.97864950447745e-09 4.56211562404804e-08 1.38942204710911e-07 1.75999880139471e-07 8.31225153412699e-08 1.10370245138421e-07
"347" 20907 2.67254356116089e-07 2.66074634670273e-08 6.97426025612794e-09 4.55716651486138e-08 1.38215261723819e-07 1.7539881596926e-07 8.27301293332004e-08 1.10697561227303e-07
"348" 20908 2.69179495096048e-07 2.67227230288535e-08 6.96987100777843e-09 4.55221740567473e-08 1.37488318736728e-07 1.7479775179905e-07 8.23377433251309e-08 1.11024877316184e-07
"349" 20909 2.71104634076007e-07 2.68379825906796e-08 6.96548175942892e-09 4.54726829648807e-08 1.36761375749637e-07 1.74196687628839e-07 8.19453573170614e-08 1.11352193405066e-07
"350" 20910 2.73029773055966e-07 2.69532421525058e-08 6.96109251107941e-09 4.54231918730141e-08 1.36034432762546e-07 1.73595623458628e-07 8.15529713089919e-08 1.11679509493948e-07
"351" 20911 2.72603996150044e-07 2.70086621752448e-08 6.98035620773733e-09 4.54369809085607e-08 1.36137467222382e-07 1.7386397264598e-07 8.17327089793062e-08 1.11843152826243e-07
"352" 20912 2.72178219244122e-07 2.70640821979838e-08 6.99961990439526e-09 4.54507699441072e-08 1.36240501682218e-07 1.74132321833331e-07 8.19124466496206e-08 1.12006796158538e-07
"353" 20913 2.71752442338199e-07 2.71195022207229e-08 7.01888360105318e-09 4.54645589796538e-08 1.36343536142054e-07 1.74400671020683e-07 8.2092184319935e-08 1.12170439490833e-07
"354" 20914 2.71326665432277e-07 2.71749222434619e-08 7.03814729771111e-09 4.54783480152003e-08 1.3644657060189e-07 1.74669020208035e-07 8.22719219902494e-08 1.12334082823128e-07
"355" 20915 2.70900888526355e-07 2.72303422662009e-08 7.05741099436904e-09 4.54921370507469e-08 1.36549605061726e-07 1.74937369395386e-07 8.24516596605638e-08 1.12497726155423e-07
"356" 20916 2.70475111620433e-07 2.72857622889399e-08 7.07667469102696e-09 4.55059260862935e-08 1.36652639521563e-07 1.75205718582738e-07 8.26313973308782e-08 1.12661369487719e-07
"357" 20917 2.7004933471451e-07 2.7341182311679e-08 7.09593838768489e-09 4.551971512184e-08 1.36755673981399e-07 1.7547406777009e-07 8.28111350011926e-08 1.12825012820014e-07
"358" 20918 2.7069478623584e-07 2.73342819906428e-08 7.11520208434281e-09 4.55139200684403e-08 1.36375237377314e-07 1.75455184491052e-07 8.28678995824942e-08 1.12787573642566e-07
"359" 20919 2.71340237757169e-07 2.73273816696066e-08 7.13446578100074e-09 4.55081250150405e-08 1.35994800773229e-07 1.75436301212015e-07 8.29246641637959e-08 1.12750134465119e-07
"360" 20920 2.71985689278498e-07 2.73204813485704e-08 7.15372947765866e-09 4.55023299616408e-08 1.35614364169144e-07 1.75417417932978e-07 8.29814287450975e-08 1.12712695287671e-07
"361" 20921 2.72631140799827e-07 2.73135810275343e-08 7.17299317431659e-09 4.54965349082411e-08 1.35233927565059e-07 1.75398534653941e-07 8.30381933263992e-08 1.12675256110224e-07
"362" 20922 2.73276592321156e-07 2.73066807064981e-08 7.19225687097452e-09 4.54907398548413e-08 1.34853490960974e-07 1.75379651374903e-07 8.30949579077009e-08 1.12637816932776e-07
"363" 20923 2.73922043842485e-07 2.72997803854619e-08 7.21152056763244e-09 4.54849448014416e-08 1.34473054356889e-07 1.75360768095866e-07 8.31517224890025e-08 1.12600377755328e-07
"364" 20924 2.74779341136122e-07 2.7355200408201e-08 7.21050543235647e-09 4.54658915819962e-08 1.34493815189911e-07 1.75706880073473e-07 8.33777850675485e-08 1.13301904343736e-07
"365" 20925 2.74966456937777e-07 2.73614029000571e-08 7.20949029708049e-09 4.55567652503194e-08 1.34596849649747e-07 1.75804757028425e-07 8.33901426704362e-08 1.13400539763778e-07
"366" 20926 2.75153572739432e-07 2.73676053919132e-08 7.20847516180452e-09 4.56476389186427e-08 1.34699884109583e-07 1.75902633983377e-07 8.3402500273324e-08 1.1349917518382e-07
"367" 20927 2.75584533599351e-07 2.72408160816623e-08 7.12783581819102e-09 4.57428434973977e-08 1.34041722421187e-07 1.75555335098352e-07 8.28437084743585e-08 1.13560387773242e-07
"368" 20928 2.74695741445696e-07 2.72082326838344e-08 7.11194623460663e-09 4.58177319157224e-08 1.34518522896682e-07 1.7509234282499e-07 8.28307965058324e-08 1.13571855825572e-07
"369" 20929 2.72773310965927e-07 2.70009796765036e-08 7.11170567256881e-09 4.59167686517919e-08 1.35030667574496e-07 1.74955679119995e-07 8.14079777597446e-08 1.12469802869286e-07
"370" 20930 2.70850880486158e-07 2.67937266691728e-08 7.11146511053099e-09 4.60158053878615e-08 1.3554281225231e-07 1.74819015415e-07 7.99851590136568e-08 1.11367749912999e-07
"371" 20931 2.68928450006388e-07 2.65864736618421e-08 7.11122454849316e-09 4.6114842123931e-08 1.36054956930125e-07 1.74682351710005e-07 7.8562340267569e-08 1.10265696956713e-07
"372" 20932 2.67006019526619e-07 2.63792206545113e-08 7.11098398645534e-09 4.62138788600006e-08 1.36567101607938e-07 1.7454568800501e-07 7.71395215214812e-08 1.09163644000426e-07
"373" 20933 2.6508358904685e-07 2.61719676471805e-08 7.11074342441751e-09 4.63129155960701e-08 1.37079246285752e-07 1.74409024300015e-07 7.57167027753934e-08 1.0806159104414e-07
"374" 20934 2.63161158567081e-07 2.59647146398498e-08 7.11050286237969e-09 4.64119523321397e-08 1.37591390963566e-07 1.7427236059502e-07 7.42938840293056e-08 1.06959538087853e-07
"375" 20935 2.61238728087312e-07 2.5757461632519e-08 7.11026230034187e-09 4.65109890682092e-08 1.38103535641381e-07 1.74135696890025e-07 7.28710652832178e-08 1.05857485131567e-07
"376" 20936 2.59316297607543e-07 2.55502086251883e-08 7.11002173830404e-09 4.66100258042787e-08 1.38615680319194e-07 1.7399903318503e-07 7.144824653713e-08 1.0475543217528e-07
"377" 20937 2.57393867127774e-07 2.53429556178575e-08 7.10978117626622e-09 4.67090625403483e-08 1.39127824997008e-07 1.73862369480035e-07 7.00254277910422e-08 1.03653379218994e-07
"378" 20938 2.55471436648004e-07 2.51357026105267e-08 7.10954061422840e-09 4.68080992764178e-08 1.39639969674823e-07 1.73725705775039e-07 6.86026090449544e-08 1.02551326262708e-07
"379" 20939 2.53549006168235e-07 2.4928449603196e-08 7.10930005219057e-09 4.69071360124874e-08 1.40152114352637e-07 1.73589042070044e-07 6.71797902988666e-08 1.01449273306421e-07
"380" 20940 2.51626575688466e-07 2.47211965958652e-08 7.10905949015275e-09 4.70061727485569e-08 1.4066425903045e-07 1.73452378365049e-07 6.57569715527788e-08 1.00347220350135e-07
"381" 20941 2.49751054822725e-07 2.45005064677344e-08 7.12470851169931e-09 4.70948935367882e-08 1.40889312462932e-07 1.73362922857647e-07 6.44917390811722e-08 9.94042336752144e-08
"382" 20942 2.47875533956983e-07 2.42798163396036e-08 7.14035753324587e-09 4.71836143250195e-08 1.41114365895414e-07 1.73273467350245e-07 6.32265066095656e-08 9.84612470002942e-08
"383" 20943 2.45331864778382e-07 2.40572426349732e-08 7.14233491667314e-09 4.71743783002951e-08 1.42994683908669e-07 1.74486317544967e-07 6.2172836974141e-08 9.72490121068591e-08
"384" 20944 2.4278819559978e-07 2.38346689303427e-08 7.14431230010041e-09 4.71651422755707e-08 1.44875001921925e-07 1.75699167739688e-07 6.11191673387163e-08 9.60367772134241e-08
"385" 20945 2.40244526421179e-07 2.36120952257123e-08 7.14628968352768e-09 4.71559062508463e-08 1.46755319935181e-07 1.7691201793441e-07 6.00654977032917e-08 9.4824542319989e-08
"386" 20946 2.37700857242577e-07 2.33895215210819e-08 7.14826706695495e-09 4.71466702261219e-08 1.48635637948437e-07 1.78124868129132e-07 5.9011828067867e-08 9.3612307426554e-08
"387" 20947 2.37562294308092e-07 2.33876379445824e-08 7.14156034343499e-09 4.714451734603e-08 1.49627103133272e-07 1.79506711631756e-07 5.91403539663778e-08 9.36217216178325e-08
"388" 20948 2.36410680409858e-07 2.33840644501572e-08 7.12774767298323e-09 4.69688165652622e-08 1.51322815224158e-07 1.7986634729897e-07 5.92805215432955e-08 9.32986178707564e-08
"389" 20949 2.36343416563109e-07 2.33346002514601e-08 7.12601085159378e-09 4.62403170270532e-08 1.52518608655087e-07 1.80095688340828e-07 5.93414753699159e-08 9.31375761931155e-08
"390" 20950 2.3627615271636e-07 2.32851360527631e-08 7.12427403020434e-09 4.55118174888441e-08 1.53714402086015e-07 1.80325029382685e-07 5.94024291965364e-08 9.29765345154747e-08
"391" 20951 2.36208888869611e-07 2.3235671854066e-08 7.12253720881489e-09 4.47833179506351e-08 1.54910195516944e-07 1.80554370424543e-07 5.94633830231569e-08 9.28154928378338e-08
"392" 20952 2.36141625022862e-07 2.31862076553689e-08 7.12080038742545e-09 4.40548184124261e-08 1.56105988947872e-07 1.807837114664e-07 5.95243368497774e-08 9.26544511601929e-08
"393" 20953 2.36074361176113e-07 2.31367434566719e-08 7.119063566036e-09 4.3326318874217e-08 1.57301782378801e-07 1.81013052508258e-07 5.95852906763979e-08 9.2493409482552e-08
"394" 20954 2.36007097329364e-07 2.30872792579748e-08 7.11732674464656e-09 4.2597819336008e-08 1.58497575809729e-07 1.81242393550115e-07 5.96462445030184e-08 9.23323678049112e-08
"395" 20955 2.35939833482615e-07 2.30378150592778e-08 7.11558992325711e-09 4.1869319797799e-08 1.59693369240657e-07 1.81471734591973e-07 5.97071983296389e-08 9.21713261272703e-08
"396" 20956 2.35872569635866e-07 2.29883508605807e-08 7.11385310186767e-09 4.11408202595899e-08 1.60889162671586e-07 1.8170107563383e-07 5.97681521562593e-08 9.20102844496294e-08
"397" 20957 2.35805305789117e-07 2.29388866618836e-08 7.11211628047822e-09 4.04123207213809e-08 1.62084956102514e-07 1.81930416675688e-07 5.98291059828798e-08 9.18492427719885e-08
"398" 20958 2.35738041942367e-07 2.28894224631866e-08 7.11037945908878e-09 3.96838211831719e-08 1.63280749533443e-07 1.82159757717545e-07 5.98900598095003e-08 9.16882010943477e-08
"399" 20959 2.35670778095618e-07 2.28399582644895e-08 7.10864263769933e-09 3.89553216449628e-08 1.64476542964371e-07 1.82389098759403e-07 5.99510136361208e-08 9.15271594167068e-08
"400" 20960 2.35603514248869e-07 2.27904940657925e-08 7.10690581630989e-09 3.82268221067538e-08 1.656723363953e-07 1.8261843980126e-07 6.00119674627413e-08 9.13661177390659e-08
"401" 20961 2.35620990379586e-07 2.2908417255903e-08 7.08686754641381e-09 3.8229631607586e-08 1.65533929591067e-07 1.81364046392657e-07 6.01292121068236e-08 9.14783666147288e-08
"402" 20962 2.36065386456413e-07 2.28842304384628e-08 7.10861876411377e-09 3.82355090778652e-08 1.65342025417563e-07 1.80107355252743e-07 6.00665899045667e-08 9.14334624873517e-08
"403" 20963 2.36151457387661e-07 2.28684932106507e-08 7.09726460116492e-09 3.82658757513833e-08 1.65310590838209e-07 1.78909447641243e-07 6.00046512439731e-08 9.15038062930721e-08
"404" 20964 2.3623752831891e-07 2.28527559828386e-08 7.08591043821607e-09 3.82962424249014e-08 1.65279156258855e-07 1.77711540029744e-07 5.99427125833795e-08 9.15741500987925e-08
"405" 20965 2.36323599250158e-07 2.28370187550265e-08 7.07455627526722e-09 3.83266090984195e-08 1.65247721679502e-07 1.76513632418244e-07 5.98807739227859e-08 9.16444939045129e-08
"406" 20966 2.36409670181406e-07 2.28212815272144e-08 7.06320211231837e-09 3.83569757719376e-08 1.65216287100148e-07 1.75315724806744e-07 5.98188352621923e-08 9.17148377102333e-08
"407" 20967 2.36495741112654e-07 2.28055442994022e-08 7.05184794936952e-09 3.83873424454556e-08 1.65184852520794e-07 1.74117817195245e-07 5.97568966015987e-08 9.17851815159537e-08
"408" 20968 2.36581812043902e-07 2.27898070715901e-08 7.04049378642067e-09 3.84177091189737e-08 1.6515341794144e-07 1.72919909583745e-07 5.96949579410051e-08 9.18555253216742e-08
"409" 20969 2.36604806952739e-07 2.27973413775884e-08 7.04539317238494e-09 3.84373113920322e-08 1.65296862660601e-07 1.72979119850419e-07 5.94541731700103e-08 9.16986240597934e-08
"410" 20970 2.35753415610052e-07 2.27149010464267e-08 7.03403900943609e-09 3.81304818757989e-08 1.64923154533252e-07 1.72679980015541e-07 5.94484841461924e-08 9.1262962307148e-08
"411" 20971 2.34902024267366e-07 2.26324607152649e-08 7.02268484648724e-09 3.78236523595657e-08 1.64549446405903e-07 1.72380840180662e-07 5.94427951223745e-08 9.08273005545027e-08
"412" 20972 2.3405063292468e-07 2.25500203841031e-08 7.01133068353839e-09 3.75168228433325e-08 1.64175738278554e-07 1.72081700345783e-07 5.94371060985565e-08 9.03916388018573e-08
"413" 20973 2.33199241581993e-07 2.24675800529414e-08 6.99997652058954e-09 3.72099933270992e-08 1.63802030151205e-07 1.71782560510904e-07 5.94314170747386e-08 8.9955977049212e-08
"414" 20974 2.32347850239307e-07 2.23851397217796e-08 6.98862235764069e-09 3.6903163810866e-08 1.63428322023856e-07 1.71483420676026e-07 5.94257280509207e-08 8.95203152965666e-08
"415" 20975 2.31496458896621e-07 2.23026993906178e-08 6.97726819469184e-09 3.65963342946328e-08 1.63054613896507e-07 1.71184280841147e-07 5.94200390271028e-08 8.90846535439213e-08
"416" 20976 2.30502048335226e-07 2.22209276752716e-08 6.96326784932693e-09 3.6424522937811e-08 1.62634159390286e-07 1.70824558499662e-07 5.95047337829681e-08 8.8519185206174e-08
"417" 20977 2.29507637773832e-07 2.21391559599253e-08 6.94926750396202e-09 3.62527115809893e-08 1.62213704884065e-07 1.70464836158176e-07 5.95894285388333e-08 8.79537168684266e-08
"418" 20978 2.28513227212437e-07 2.2057384244579e-08 6.9352671585971e-09 3.60809002241675e-08 1.61793250377844e-07 1.70105113816691e-07 5.96741232946986e-08 8.73882485306793e-08
"419" 20979 2.27518816651043e-07 2.19756125292328e-08 6.92126681323219e-09 3.59090888673458e-08 1.61372795871623e-07 1.69745391475206e-07 5.97588180505638e-08 8.68227801929319e-08
"420" 20980 2.26524406089648e-07 2.18938408138865e-08 6.90726646786727e-09 3.57372775105241e-08 1.60952341365402e-07 1.6938566913372e-07 5.98435128064291e-08 8.62573118551846e-08
"421" 20981 2.25529995528254e-07 2.18120690985402e-08 6.89326612250236e-09 3.55654661537023e-08 1.6053188685918e-07 1.69025946792235e-07 5.99282075622943e-08 8.56918435174372e-08
"422" 20982 2.25504393813707e-07 2.17274985230647e-08 6.9182919235705e-09 3.57700191645245e-08 1.62295621800324e-07 1.69046323655184e-07 6.0085225039302e-08 8.50576028287323e-08
"423" 20983 2.24613114943862e-07 2.1635375263204e-08 6.9343930556536e-09 3.5960398919946e-08 1.63837917861981e-07 1.68813348594005e-07 6.02624509930479e-08 8.50486546969139e-08
"424" 20984 2.23721836074017e-07 2.15432520033434e-08 6.9504941877367e-09 3.61507786753674e-08 1.65380213923639e-07 1.68580373532827e-07 6.04396769467938e-08 8.50397065650955e-08
"425" 20985 2.22830557204172e-07 2.14511287434827e-08 6.96659531981979e-09 3.63411584307889e-08 1.66922509985297e-07 1.68347398471648e-07 6.06169029005396e-08 8.50307584332771e-08
"426" 20986 2.21939278334327e-07 2.1359005483622e-08 6.98269645190289e-09 3.65315381862104e-08 1.68464806046954e-07 1.6811442341047e-07 6.07941288542855e-08 8.50218103014588e-08
"427" 20987 2.21047999464481e-07 2.12668822237613e-08 6.99879758398599e-09 3.67219179416318e-08 1.70007102108612e-07 1.67881448349291e-07 6.09713548080313e-08 8.50128621696404e-08
"428" 20988 2.20156720594636e-07 2.11747589639007e-08 7.01489871606908e-09 3.69122976970533e-08 1.7154939817027e-07 1.67648473288113e-07 6.11485807617772e-08 8.5003914037822e-08
"429" 20989 2.19265441724791e-07 2.108263570404e-08 7.03099984815218e-09 3.71026774524748e-08 1.73091694231928e-07 1.67415498226934e-07 6.1325806715523e-08 8.49949659060036e-08
"430" 20990 2.18374162854946e-07 2.09905124441793e-08 7.04710098023527e-09 3.72930572078963e-08 1.74633990293585e-07 1.67182523165756e-07 6.15030326692689e-08 8.49860177741852e-08
"431" 20991 2.174828839851e-07 2.08983891843186e-08 7.06320211231837e-09 3.74834369633177e-08 1.76176286355243e-07 1.66949548104577e-07 6.16802586230148e-08 8.49770696423668e-08
"432" 20992 2.16591605115255e-07 2.08062659244579e-08 7.07930324440147e-09 3.76738167187392e-08 1.77718582416901e-07 1.66716573043399e-07 6.18574845767606e-08 8.49681215105485e-08
"433" 20993 2.1570032624541e-07 2.07141426645973e-08 7.09540437648456e-09 3.78641964741607e-08 1.79260878478558e-07 1.6648359798222e-07 6.20347105305065e-08 8.49591733787301e-08
"434" 20994 2.14809047375565e-07 2.06220194047366e-08 7.11150550856766e-09 3.80545762295821e-08 1.80803174540216e-07 1.66250622921042e-07 6.22119364842523e-08 8.49502252469117e-08
"435" 20995 2.1391776850572e-07 2.05298961448759e-08 7.12760664065075e-09 3.82449559850036e-08 1.82345470601874e-07 1.66017647859863e-07 6.23891624379982e-08 8.49412771150933e-08
"436" 20996 2.13026489635874e-07 2.04377728850152e-08 7.14370777273385e-09 3.84353357404251e-08 1.83887766663531e-07 1.65784672798685e-07 6.2566388391744e-08 8.49323289832749e-08
"437" 20997 2.12135210766029e-07 2.03456496251546e-08 7.15980890481695e-09 3.86257154958466e-08 1.85430062725189e-07 1.65551697737506e-07 6.27436143454899e-08 8.49233808514566e-08
"438" 20998 2.11243931896184e-07 2.02535263652939e-08 7.17591003690004e-09 3.8816095251268e-08 1.86972358786847e-07 1.65318722676328e-07 6.29208402992358e-08 8.49144327196382e-08
"439" 20999 2.12650492020014e-07 2.01559990437487e-08 7.20278981810454e-09 4.00987598031898e-08 1.90891599908784e-07 1.66147831731988e-07 6.29523370686972e-08 8.4998679494692e-08
"440" 21000 2.14057052143843e-07 2.00584717222034e-08 7.22966959930904e-09 4.13814243551116e-08 1.94810841030722e-07 1.66976940787648e-07 6.29838338381587e-08 8.50829262697458e-08
"441" 21001 2.13174119265253e-07 1.99609444006582e-08 7.24559444097655e-09 4.13705090531646e-08 1.94638033394372e-07 1.66729253847232e-07 6.29828004299593e-08 8.5177278881772e-08
"442" 21002 2.11295699149318e-07 1.98288516297142e-08 7.25828620190299e-09 4.13522633559468e-08 1.94598951357882e-07 1.66497224287726e-07 6.29354368348071e-08 8.51443513679392e-08
"443" 21003 2.11153301609657e-07 1.98297669133439e-08 7.26301554199567e-09 4.11456607803194e-08 1.91905899464944e-07 1.66309174352244e-07 6.26647969211362e-08 8.51892554953163e-08
"444" 21004 2.11101330967562e-07 1.98266629586714e-08 7.25759352932863e-09 4.11304145679406e-08 1.90806791513319e-07 1.6611813724894e-07 6.26606221076524e-08 8.52925562391609e-08
"445" 21005 2.11049360325467e-07 1.98235590039989e-08 7.25217151666159e-09 4.11151683555619e-08 1.89707683561695e-07 1.65927100145636e-07 6.26564472941686e-08 8.53958569830054e-08
"446" 21006 2.10997389683372e-07 1.98204550493265e-08 7.24674950399454e-09 4.10999221431831e-08 1.8860857561007e-07 1.65736063042332e-07 6.26522724806848e-08 8.54991577268499e-08
"447" 21007 2.10945419041277e-07 1.9817351094654e-08 7.2413274913275e-09 4.10846759308043e-08 1.87509467658445e-07 1.65545025939027e-07 6.2648097667201e-08 8.56024584706945e-08
"448" 21008 2.10893448399182e-07 1.98142471399815e-08 7.23590547866045e-09 4.10694297184255e-08 1.86410359706821e-07 1.65353988835723e-07 6.26439228537172e-08 8.5705759214539e-08
"449" 21009 2.10841477757087e-07 1.9811143185309e-08 7.23048346599341e-09 4.10541835060468e-08 1.85311251755196e-07 1.65162951732419e-07 6.26397480402334e-08 8.58090599583835e-08
"450" 21010 2.10789507114991e-07 1.98080392306365e-08 7.22506145332637e-09 4.1038937293668e-08 1.84212143803571e-07 1.64971914629115e-07 6.26355732267496e-08 8.59123607022281e-08
"451" 21011 2.10737536472896e-07 1.9804935275964e-08 7.21963944065932e-09 4.10236910812892e-08 1.83113035851947e-07 1.6478087752581e-07 6.26313984132658e-08 8.60156614460726e-08
"452" 21012 2.10685565830801e-07 1.98018313212915e-08 7.21421742799228e-09 4.10084448689104e-08 1.82013927900322e-07 1.64589840422506e-07 6.2627223599782e-08 8.61189621899171e-08
"453" 21013 2.10633595188706e-07 1.9798727366619e-08 7.20879541532524e-09 4.09931986565317e-08 1.80914819948697e-07 1.64398803319202e-07 6.26230487862982e-08 8.62222629337616e-08
"454" 21014 2.10581624546611e-07 1.97956234119465e-08 7.20337340265819e-09 4.09779524441529e-08 1.79815711997072e-07 1.64207766215898e-07 6.26188739728144e-08 8.63255636776062e-08
"455" 21015 2.09268024712422e-07 1.97770343147649e-08 7.2192982443257e-09 4.09721504246174e-08 1.79815711997072e-07 1.63855661174563e-07 6.25358585052732e-08 8.53603292743539e-08
"456" 21016 2.06682039228738e-07 1.97584452175833e-08 7.24313261970228e-09 4.09771128055416e-08 1.79863033778758e-07 1.63852331267311e-07 6.24399704903182e-08 8.39287327420575e-08
"457" 21017 2.04096053745055e-07 1.97398561204017e-08 7.26696699507886e-09 4.09820751864658e-08 1.79910355560443e-07 1.63849001360058e-07 6.23440824753633e-08 8.2497136209761e-08
"458" 21018 2.01510068261372e-07 1.97212670232202e-08 7.29080137045544e-09 4.09870375673899e-08 1.79957677342129e-07 1.63845671452805e-07 6.22481944604084e-08 8.10655396774645e-08
"459" 21019 1.98924082777689e-07 1.97026779260386e-08 7.31463574583202e-09 4.09919999483141e-08 1.80004999123814e-07 1.63842341545553e-07 6.21523064454534e-08 7.9633943145168e-08
"460" 21020 1.9632589408955e-07 1.96831735452273e-08 7.33389944248995e-09 4.12436187700247e-08 1.81028018416902e-07 1.65058723032683e-07 6.23847613000369e-08 7.8099045869027e-08
"461" 21021 1.93727705401411e-07 1.9663669164416e-08 7.35316313914787e-09 4.14952375917353e-08 1.8205103770999e-07 1.66275104519814e-07 6.26172161546203e-08 7.6564148592886e-08
"462" 21022 1.91129516713272e-07 1.96441647836047e-08 7.3724268358058e-09 4.17468564134459e-08 1.83074057003077e-07 1.67491486006945e-07 6.28496710092038e-08 7.5029251316745e-08
"463" 21023 1.88531328025133e-07 1.96246604027935e-08 7.39169053246372e-09 4.19984752351566e-08 1.84097076296165e-07 1.68707867494075e-07 6.30821258637872e-08 7.3494354040604e-08
"464" 21024 1.85933139336994e-07 1.96051560219822e-08 7.41095422912165e-09 4.22500940568672e-08 1.85120095589253e-07 1.69924248981206e-07 6.33145807183707e-08 7.1959456764463e-08
"465" 21025 1.83334950648855e-07 1.95856516411709e-08 7.43021792577958e-09 4.25017128785778e-08 1.8614311488234e-07 1.71140630468337e-07 6.35470355729541e-08 7.0424559488322e-08
"466" 21026 1.82212035514761e-07 1.9601195210409e-08 7.49290215717362e-09 4.26024791923657e-08 1.86175842037897e-07 1.71470755702805e-07 6.41865159114384e-08 6.98624269526769e-08
"467" 21027 1.81089120380668e-07 1.96167387796472e-08 7.55558638856767e-09 4.27032455061537e-08 1.86208569193454e-07 1.71800880937274e-07 6.48259962499226e-08 6.93002944170318e-08
"468" 21028 1.80931669815392e-07 1.96211929268487e-08 7.61025531200329e-09 4.27838032266387e-08 1.86243728474009e-07 1.7213610038748e-07 6.55730763261249e-08 6.98450014777016e-08
"469" 21029 1.81594792430427e-07 1.96256470740502e-08 7.6617969289472e-09 4.28828651129561e-08 1.86221839349024e-07 1.72267344472162e-07 6.63152980471801e-08 7.05719920898484e-08
"470" 21030 1.82257915045462e-07 1.96301012212517e-08 7.7133385458911e-09 4.29819269992735e-08 1.86199950224039e-07 1.72398588556845e-07 6.70575197682353e-08 7.12989827019952e-08
"471" 21031 1.82921037660498e-07 1.96345553684532e-08 7.76488016283501e-09 4.3080988885591e-08 1.86178061099054e-07 1.72529832641527e-07 6.77997414892904e-08 7.20259733141421e-08
"472" 21032 1.83584160275533e-07 1.96390095156547e-08 7.81642177977892e-09 4.31800507719084e-08 1.86156171974069e-07 1.72661076726209e-07 6.85419632103456e-08 7.27529639262889e-08
"473" 21033 1.84247282890568e-07 1.96434636628562e-08 7.86796339672282e-09 4.32791126582259e-08 1.86134282849084e-07 1.72792320810891e-07 6.92841849314008e-08 7.34799545384357e-08
"474" 21034 1.84910405505603e-07 1.96479178100577e-08 7.91950501366673e-09 4.33781745445433e-08 1.86112393724099e-07 1.72923564895573e-07 7.00264066524559e-08 7.42069451505825e-08
"475" 21035 1.85573528120638e-07 1.96523719572592e-08 7.97104663061064e-09 4.34772364308607e-08 1.86090504599114e-07 1.73054808980256e-07 7.07686283735111e-08 7.49339357627293e-08
"476" 21036 1.84559209814194e-07 1.95681411071802e-08 8.03252805181557e-09 4.35635892047455e-08 1.85914123412832e-07 1.73351393736452e-07 7.14545663153993e-08 7.57330559536603e-08
"477" 21037 1.85992121847108e-07 1.95386508290471e-08 8.05396819131146e-09 4.36484778356622e-08 1.85929646400053e-07 1.73328689823366e-07 7.20351202225494e-08 7.67023228836043e-08
"478" 21038 1.85360535095156e-07 1.95186184817541e-08 8.11665242270551e-09 4.37416301353168e-08 1.85797854172073e-07 1.72803180061811e-07 7.27361499339788e-08 7.72470299442742e-08
"479" 21039 1.84728948343203e-07 1.94985861344611e-08 8.17933665409956e-09 4.38347824349715e-08 1.85666061944094e-07 1.72277670300257e-07 7.34371796454081e-08 7.7791737004944e-08
"480" 21040 1.8409736159125e-07 1.94785537871681e-08 8.24202088549361e-09 4.39279347346261e-08 1.85534269716114e-07 1.71752160538702e-07 7.41382093568375e-08 7.83364440656138e-08
"481" 21041 1.83465774839297e-07 1.94585214398751e-08 8.30470511688766e-09 4.40210870342807e-08 1.85402477488135e-07 1.71226650777148e-07 7.48392390682668e-08 7.88811511262836e-08
"482" 21042 1.82834188087344e-07 1.94384890925821e-08 8.3673893482817e-09 4.41142393339354e-08 1.85270685260155e-07 1.70701141015593e-07 7.55402687796962e-08 7.94258581869535e-08
"483" 21043 1.82202601335391e-07 1.94184567452891e-08 8.43007357967575e-09 4.420739163359e-08 1.85138893032176e-07 1.70175631254039e-07 7.62412984911255e-08 7.99705652476233e-08
"484" 21044 1.81571014583438e-07 1.93984243979961e-08 8.4927578110698e-09 4.43005439332446e-08 1.85007100804196e-07 1.69650121492485e-07 7.69423282025549e-08 8.05152723082931e-08
"485" 21045 1.80939427831485e-07 1.93783920507031e-08 8.55544204246385e-09 4.43936962328992e-08 1.84875308576217e-07 1.6912461173093e-07 7.76433579139843e-08 8.10599793689629e-08
"486" 21046 1.80307841079532e-07 1.93583597034101e-08 8.61812627385790e-09 4.44868485325539e-08 1.84743516348237e-07 1.68599101969376e-07 7.83443876254136e-08 8.16046864296328e-08
"487" 21047 1.7967625432758e-07 1.93383273561171e-08 8.68081050525194e-09 4.45800008322085e-08 1.84611724120258e-07 1.68073592207821e-07 7.9045417336843e-08 8.21493934903026e-08
"488" 21048 1.77625798339875e-07 1.93918583848677e-08 8.68005356105535e-09 4.48629629352644e-08 1.85251430067179e-07 1.67221252449342e-07 7.9001546773085e-08 8.18459423556356e-08
"489" 21049 1.75638493248052e-07 1.97535019865941e-08 8.69119617550549e-09 4.4873910353595e-08 1.85206553543461e-07 1.66646412782867e-07 7.90249325570725e-08 8.1484264611518e-08
"490" 21050 1.73620631404341e-07 1.9700639573659e-08 8.70621165614638e-09 4.4973535225797e-08 1.85482130587896e-07 1.65854456821278e-07 7.89959313127708e-08 8.10651975652644e-08
"491" 21051 1.71602769560631e-07 1.96477771607239e-08 8.72122713678727e-09 4.50731600979989e-08 1.8575770763233e-07 1.6506250085969e-07 7.89669300684691e-08 8.06461305190109e-08
"492" 21052 1.69584907716921e-07 1.95949147477888e-08 8.73624261742816e-09 4.51727849702008e-08 1.86033284676765e-07 1.64270544898101e-07 7.89379288241673e-08 8.02270634727574e-08
"493" 21053 1.67567045873211e-07 1.95420523348537e-08 8.75125809806904e-09 4.52724098424028e-08 1.863088617212e-07 1.63478588936513e-07 7.89089275798656e-08 7.98079964265038e-08
"494" 21054 1.65549184029501e-07 1.94891899219186e-08 8.76627357870993e-09 4.53720347146047e-08 1.86584438765634e-07 1.62686632974924e-07 7.88799263355639e-08 7.93889293802503e-08
"495" 21055 1.6353132218579e-07 1.94363275089835e-08 8.78128905935081e-09 4.54716595868066e-08 1.86860015810069e-07 1.61894677013336e-07 7.88509250912622e-08 7.89698623339968e-08
"496" 21056 1.6151346034208e-07 1.93834650960484e-08 8.7963045399917e-09 4.55712844590086e-08 1.87135592854503e-07 1.61102721051747e-07 7.88219238469605e-08 7.85507952877432e-08
"497" 21057 1.5949559849837e-07 1.93306026831133e-08 8.81132002063259e-09 4.56709093312105e-08 1.87411169898938e-07 1.60310765090159e-07 7.87929226026588e-08 7.81317282414897e-08
"498" 21058 1.5747773665466e-07 1.92777402701782e-08 8.82633550127348e-09 4.57705342034125e-08 1.87686746943372e-07 1.59518809128571e-07 7.87639213583571e-08 7.77126611952362e-08
"499" 21059 1.55459874810949e-07 1.92248778572431e-08 8.84135098191436e-09 4.58701590756144e-08 1.87962323987807e-07 1.58726853166982e-07 7.87349201140553e-08 7.72935941489826e-08
"500" 21060 1.54653737190192e-07 1.90601595142087e-08 8.84845692884617e-09 4.59280535197298e-08 1.88347804135236e-07 1.5820369046586e-07 7.86928939166113e-08 7.69535883751385e-08
"501" 21061 1.55276196639094e-07 1.8942448361059e-08 8.82214017238111e-09 4.57983958933681e-08 1.88347804135236e-07 1.58221593573517e-07 7.87414774680827e-08 7.6928585331964e-08
"502" 21062 1.55197173239151e-07 1.88247372079093e-08 8.79284852625437e-09 4.56896034810497e-08 1.88127409393464e-07 1.58245853776838e-07 7.87997939212572e-08 7.70780804924979e-08
"503" 21063 1.55129566059046e-07 1.87052247008648e-08 8.84353366929634e-09 4.5560128872559e-08 1.87944051291956e-07 1.58328364085748e-07 7.88188201032148e-08 7.76748820037553e-08
"504" 21064 1.55061958878942e-07 1.85857121938203e-08 8.8942188123383e-09 4.54306542640684e-08 1.87760693190449e-07 1.58410874394657e-07 7.88378462851724e-08 7.82716835150127e-08
"505" 21065 1.54994351698837e-07 1.84661996867757e-08 8.94490395538027e-09 4.53011796555777e-08 1.87577335088941e-07 1.58493384703567e-07 7.885687246713e-08 7.886848502627e-08
"506" 21066 1.54926744518733e-07 1.83466871797312e-08 8.99558909842223e-09 4.5171705047087e-08 1.87393976987433e-07 1.58575895012476e-07 7.88758986490875e-08 7.94652865375274e-08
"507" 21067 1.54859137338629e-07 1.82271746726866e-08 9.0462742414642e-09 4.50422304385963e-08 1.87210618885926e-07 1.58658405321386e-07 7.88949248310451e-08 8.00620880487848e-08
"508" 21068 1.54791530158524e-07 1.81076621656421e-08 9.09695938450616e-09 4.49127558301056e-08 1.87027260784418e-07 1.58740915630295e-07 7.89139510130027e-08 8.06588895600421e-08
"509" 21069 1.5472392297842e-07 1.79881496585976e-08 9.14764452754813e-09 4.47832812216149e-08 1.8684390268291e-07 1.58823425939205e-07 7.89329771949603e-08 8.12556910712995e-08
"510" 21070 1.54656315798316e-07 1.7868637151553e-08 9.19832967059009e-09 4.46538066131243e-08 1.86660544581403e-07 1.58905936248114e-07 7.89520033769178e-08 8.18524925825568e-08
"511" 21071 1.54588708618211e-07 1.77491246445085e-08 9.24901481363206e-09 4.45243320046336e-08 1.86477186479895e-07 1.58988446557024e-07 7.89710295588754e-08 8.24492940938142e-08
"512" 21072 1.54521101438107e-07 1.76296121374639e-08 9.29969995667403e-09 4.43948573961429e-08 1.86293828378387e-07 1.59070956865934e-07 7.8990055740833e-08 8.30460956050715e-08
"513" 21073 1.54453494258003e-07 1.75100996304194e-08 9.35038509971599e-09 4.42653827876522e-08 1.8611047027688e-07 1.59153467174843e-07 7.90090819227906e-08 8.36428971163289e-08
"514" 21074 1.54385887077898e-07 1.73905871233749e-08 9.40107024275796e-09 4.41359081791615e-08 1.85927112175372e-07 1.59235977483753e-07 7.90281081047481e-08 8.42396986275863e-08
"515" 21075 1.54378518821263e-07 1.72710746163303e-08 9.3747534862929e-09 4.43083761567236e-08 1.86927121556065e-07 1.59270927547106e-07 7.90458425264565e-08 8.54050165745112e-08
"516" 21076 1.54409211221298e-07 1.71493442248785e-08 9.35340663195835e-09 4.47104508717767e-08 1.88851843333876e-07 1.59431618075997e-07 7.91102570016536e-08 8.53885479135462e-08
"517" 21077 1.54345383544513e-07 1.70438260184802e-08 9.32932544999994e-09 4.46381177375102e-08 1.88848088614458e-07 1.59431084653172e-07 7.91233178567609e-08 8.54173807827388e-08
"518" 21078 1.54281555867728e-07 1.6938307812082e-08 9.30524426804153e-09 4.45657846032437e-08 1.8884433389504e-07 1.59430551230346e-07 7.91363787118682e-08 8.54462136519314e-08
"519" 21079 1.53877031759431e-07 1.69454017916922e-08 9.30240416616832e-09 4.46104069490419e-08 1.8804945408808e-07 1.59291597820362e-07 7.8944398182856e-08 8.44767945216348e-08
"520" 21080 1.53472507651134e-07 1.69524957713023e-08 9.29956406429511e-09 4.46550292948401e-08 1.8725457428112e-07 1.59152644410377e-07 7.87524176538438e-08 8.35073753913383e-08
"521" 21081 1.53416048230984e-07 1.69336600063065e-08 9.17403694013298e-09 4.40592162699202e-08 1.8725457428112e-07 1.59117160924199e-07 7.87565924673276e-08 8.34598696093068e-08
"522" 21082 1.53359588810834e-07 1.69148242413108e-08 9.04850981597085e-09 4.34634032450004e-08 1.8725457428112e-07 1.5908167743802e-07 7.87607672808114e-08 8.34123638272754e-08
"523" 21083 1.53303129390684e-07 1.6895988476315e-08 8.92298269180872e-09 4.28675902200806e-08 1.8725457428112e-07 1.59046193951842e-07 7.87649420942952e-08 8.3364858045244e-08
"524" 21084 1.53246669970534e-07 1.68771527113192e-08 8.79745556764659e-09 4.22717771951607e-08 1.8725457428112e-07 1.59010710465663e-07 7.8769116907779e-08 8.33173522632125e-08
"525" 21085 1.53190210550384e-07 1.68583169463235e-08 8.67192844348447e-09 4.16759641702409e-08 1.8725457428112e-07 1.58975226979485e-07 7.87732917212628e-08 8.32698464811811e-08
"526" 21086 1.53133751130234e-07 1.68394811813277e-08 8.54640131932234e-09 4.1080151145321e-08 1.8725457428112e-07 1.58939743493306e-07 7.87774665347466e-08 8.32223406991496e-08
"527" 21087 1.53077291710084e-07 1.68206454163319e-08 8.42087419516021e-09 4.04843381204012e-08 1.8725457428112e-07 1.58904260007128e-07 7.87816413482303e-08 8.31748349171182e-08
"528" 21088 1.53020832289934e-07 1.68018096513361e-08 8.29534707099808e-09 3.98885250954814e-08 1.8725457428112e-07 1.58868776520949e-07 7.87858161617141e-08 8.31273291350867e-08
"529" 21089 1.52964372869784e-07 1.67829738863404e-08 8.16981994683596e-09 3.92927120705615e-08 1.8725457428112e-07 1.58833293034771e-07 7.87899909751979e-08 8.30798233530553e-08
"530" 21090 1.52907913449634e-07 1.68696563277428e-08 8.04032042677773e-09 3.86402311742868e-08 1.87089061143626e-07 1.58863004852673e-07 7.87811049335744e-08 8.34150541044982e-08
"531" 21091 1.52851454029485e-07 1.69563387691453e-08 7.9108209067195e-09 3.79877502780122e-08 1.86923548006133e-07 1.58892716670575e-07 7.87722188919509e-08 8.37502848559411e-08
"532" 21092 1.52794994609335e-07 1.70430212105477e-08 7.78132138666128e-09 3.73352693817375e-08 1.86758034868639e-07 1.58922428488478e-07 7.87633328503274e-08 8.4085515607384e-08
"533" 21093 1.52738535189185e-07 1.71297036519502e-08 7.65182186660306e-09 3.66827884854628e-08 1.86592521731145e-07 1.5895214030638e-07 7.87544468087039e-08 8.44207463588269e-08
"534" 21094 1.52655832603827e-07 1.72309267388675e-08 7.64500936883375e-09 3.65755495991275e-08 1.85457970413843e-07 1.58749971945369e-07 7.87601358325218e-08 8.48637600934377e-08
"535" 21095 1.52573130018469e-07 1.73321498257848e-08 7.63819687106444e-09 3.64683107127923e-08 1.84323419096542e-07 1.58547803584359e-07 7.87658248563397e-08 8.53067738280486e-08
"536" 21096 1.53120803320801e-07 1.73123349329415e-08 7.70138610011969e-09 3.63718362269167e-08 1.83132942037248e-07 1.58428999008779e-07 7.87767238614145e-08 8.53007626357165e-08
"537" 21097 1.53022040317787e-07 1.73282128100874e-08 7.69259621892311e-09 3.62704748108606e-08 1.83023496412322e-07 1.58513740385022e-07 7.87795872040928e-08 8.54818819433081e-08
"538" 21098 1.52923277314773e-07 1.73440906872333e-08 7.68380633772654e-09 3.61691133948045e-08 1.82914050787397e-07 1.58598481761265e-07 7.87824505467712e-08 8.56630012508998e-08
"539" 21099 1.52824514311759e-07 1.73599685643792e-08 7.67501645652996e-09 3.60677519787484e-08 1.82804605162472e-07 1.58683223137508e-07 7.87853138894495e-08 8.58441205584914e-08
"540" 21100 1.52517878626172e-07 1.73235303734585e-08 7.67303907310269e-09 3.60615839234709e-08 1.83871299789894e-07 1.59039211519215e-07 7.87887315977662e-08 8.53966638169455e-08
"541" 21101 1.52211242940584e-07 1.72870921825379e-08 7.67106168967542e-09 3.60554158681935e-08 1.84937994417316e-07 1.59395199900922e-07 7.87921493060829e-08 8.49492070753997e-08
"542" 21102 1.51904607254997e-07 1.72506539916173e-08 7.66908430624815e-09 3.6049247812916e-08 1.86004689044737e-07 1.59751188282629e-07 7.87955670143997e-08 8.45017503338538e-08
"543" 21103 1.51597971569409e-07 1.72142158006966e-08 7.66710692282088e-09 3.60430797576385e-08 1.87071383672159e-07 1.60107176664335e-07 7.87989847227164e-08 8.40542935923079e-08
"544" 21104 1.51291335883822e-07 1.7177777609776e-08 7.66512953939361e-09 3.6036911702361e-08 1.88138078299581e-07 1.60463165046042e-07 7.88024024310332e-08 8.3606836850762e-08
"545" 21105 1.50984700198235e-07 1.71413394188554e-08 7.66315215596634e-09 3.60307436470835e-08 1.89204772927003e-07 1.60819153427749e-07 7.88058201393499e-08 8.31593801092162e-08
"546" 21106 1.50678064512647e-07 1.71049012279347e-08 7.66117477253908e-09 3.60245755918061e-08 1.90271467554425e-07 1.61175141809455e-07 7.88092378476666e-08 8.27119233676703e-08
"547" 21107 1.5037142882706e-07 1.70684630370141e-08 7.65919738911181e-09 3.60184075365286e-08 1.91338162181847e-07 1.61531130191162e-07 7.88126555559834e-08 8.22644666261244e-08
"548" 21108 1.50064793141473e-07 1.70320248460935e-08 7.65722000568454e-09 3.60122394812511e-08 1.92404856809269e-07 1.61887118572869e-07 7.88160732643001e-08 8.18170098845785e-08
"549" 21109 1.49758157455885e-07 1.69955866551728e-08 7.65524262225727e-09 3.60060714259736e-08 1.93471551436691e-07 1.62243106954576e-07 7.88194909726169e-08 8.13695531430327e-08
"550" 21110 1.49451521770298e-07 1.69591484642522e-08 7.65326523883e-09 3.59999033706961e-08 1.94538246064113e-07 1.62599095336282e-07 7.88229086809336e-08 8.09220964014868e-08
"551" 21111 1.4914488608471e-07 1.69227102733316e-08 7.65128785540273e-09 3.59937353154186e-08 1.95604940691535e-07 1.62955083717989e-07 7.88263263892503e-08 8.04746396599409e-08
"552" 21112 1.48902501955555e-07 1.68993510994276e-08 7.65309519295841e-09 3.60432515575331e-08 1.95690483417621e-07 1.63074871140389e-07 7.89481316153175e-08 7.9933263672172e-08
"553" 21113 1.4895723198671e-07 1.68272201385177e-08 7.65706758885451e-09 3.65394969768825e-08 1.95978319978421e-07 1.6311423796694e-07 7.89957912240583e-08 7.93046516600118e-08
"554" 21114 1.49011962017866e-07 1.67550891776078e-08 7.6610399847506e-09 3.7035742396232e-08 1.96266156539222e-07 1.63153604793492e-07 7.9043450832799e-08 7.86760396478515e-08
"555" 21115 1.49066692049022e-07 1.66829582166979e-08 7.6650123806467e-09 3.75319878155814e-08 1.96553993100022e-07 1.63192971620043e-07 7.90911104415398e-08 7.80474276356912e-08
"556" 21116 1.49121422080177e-07 1.66108272557881e-08 7.6689847765428e-09 3.80282332349309e-08 1.96841829660822e-07 1.63232338446594e-07 7.91387700502805e-08 7.7418815623531e-08
"557" 21117 1.49473787632786e-07 1.6592015286668e-08 7.57560078487818e-09 3.8294851018382e-08 1.96728489422041e-07 1.62814986096616e-07 7.90979458581732e-08 7.7300020839396e-08
"558" 21118 1.49826153185394e-07 1.65732033175479e-08 7.48221679321357e-09 3.8561468801833e-08 1.9661514918326e-07 1.62397633746639e-07 7.9057121666066e-08 7.7181226055261e-08
"559" 21119 1.50181689284493e-07 1.65732033175479e-08 7.46338133350661e-09 3.902961921286e-08 1.96187883922191e-07 1.62436680519495e-07 7.90843144460187e-08 7.69089983955057e-08
"560" 21120 1.50537225383591e-07 1.65732033175479e-08 7.44454587379966e-09 3.9497769623887e-08 1.95760618661122e-07 1.6247572729235e-07 7.91115072259715e-08 7.66367707357504e-08
"561" 21121 1.50892761482689e-07 1.65732033175479e-08 7.4257104140927e-09 3.9965920034914e-08 1.95333353400053e-07 1.62514774065206e-07 7.91387000059243e-08 7.63645430759951e-08
"562" 21122 1.51248297581787e-07 1.65732033175479e-08 7.40687495438575e-09 4.0434070445941e-08 1.94906088138984e-07 1.62553820838062e-07 7.9165892785877e-08 7.60923154162399e-08
"563" 21123 1.51603833680886e-07 1.65732033175479e-08 7.38803949467879e-09 4.0902220856968e-08 1.94478822877916e-07 1.62592867610918e-07 7.91930855658298e-08 7.58200877564846e-08
"564" 21124 1.51959369779984e-07 1.65732033175479e-08 7.36920403497184e-09 4.1370371267995e-08 1.94051557616847e-07 1.62631914383773e-07 7.92202783457825e-08 7.55478600967293e-08
"565" 21125 1.52314905879082e-07 1.65732033175479e-08 7.35036857526488e-09 4.1838521679022e-08 1.93624292355778e-07 1.62670961156629e-07 7.92474711257353e-08 7.5275632436974e-08
"566" 21126 1.52670441978181e-07 1.65732033175479e-08 7.33153311555793e-09 4.2306672090049e-08 1.93197027094709e-07 1.62710007929485e-07 7.92746639056881e-08 7.50034047772187e-08
"567" 21127 1.53025978077279e-07 1.65732033175479e-08 7.31269765585097e-09 4.27748225010759e-08 1.9276976183364e-07 1.62749054702341e-07 7.93018566856408e-08 7.47311771174635e-08
"568" 21128 1.53381514176377e-07 1.65732033175479e-08 7.29386219614402e-09 4.32429729121029e-08 1.92342496572571e-07 1.62788101475196e-07 7.93290494655936e-08 7.44589494577082e-08
"569" 21129 1.53737050275476e-07 1.65732033175479e-08 7.27502673643706e-09 4.37111233231299e-08 1.91915231311503e-07 1.62827148248052e-07 7.93562422455463e-08 7.41867217979529e-08
"570" 21130 1.54092586374574e-07 1.65732033175479e-08 7.25619127673011e-09 4.41792737341569e-08 1.91487966050434e-07 1.62866195020908e-07 7.93834350254991e-08 7.39144941381976e-08
"571" 21131 1.54448122473672e-07 1.65732033175479e-08 7.23735581702315e-09 4.46474241451839e-08 1.91060700789365e-07 1.62905241793764e-07 7.94106278054519e-08 7.36422664784423e-08
"572" 21132 1.5480365857277e-07 1.65732033175479e-08 7.2185203573162e-09 4.51155745562109e-08 1.90633435528296e-07 1.62944288566619e-07 7.94378205854046e-08 7.33700388186871e-08
"573" 21133 1.55159194671869e-07 1.65732033175479e-08 7.19968489760924e-09 4.55837249672379e-08 1.90206170267227e-07 1.62983335339475e-07 7.94650133653574e-08 7.30978111589318e-08
"574" 21134 1.55514730770967e-07 1.65732033175479e-08 7.18084943790229e-09 4.60518753782649e-08 1.89778905006158e-07 1.63022382112331e-07 7.94922061453101e-08 7.28255834991765e-08
"575" 21135 1.55508690631704e-07 1.65978120829893e-08 7.18084943790229e-09 4.60518753782649e-08 1.89274659976246e-07 1.63646086207092e-07 7.94807904361356e-08 7.3108641335255e-08
"576" 21136 1.5567223927451e-07 1.66095354899881e-08 7.15582363683414e-09 4.61771196773153e-08 1.88727583818842e-07 1.64128821869106e-07 7.94601944313227e-08 7.28742927574818e-08
"577" 21137 1.558001885324e-07 1.66066306113784e-08 7.06563122328347e-09 4.61065049027908e-08 1.88489301233854e-07 1.6460530444458e-07 7.94395984265098e-08 7.22835598273036e-08
"578" 21138 1.5592813779029e-07 1.66037257327688e-08 6.9754388097328e-09 4.60358901282663e-08 1.88251018648866e-07 1.65081787020054e-07 7.94190024216969e-08 7.16928268971254e-08
"579" 21139 1.55545027572201e-07 1.66070233460152e-08 6.97519824769498e-09 4.61905105607363e-08 1.87880689768994e-07 1.64542066807819e-07 7.93694051725822e-08 7.16334981617377e-08
"580" 21140 1.55161917354112e-07 1.66103209592617e-08 6.97495768565715e-09 4.63451309932062e-08 1.87510360889121e-07 1.64002346595585e-07 7.93198079234676e-08 7.157416942635e-08
"581" 21141 1.54778807136023e-07 1.66136185725082e-08 6.97471712361933e-09 4.64997514256761e-08 1.87140032009248e-07 1.6346262638335e-07 7.9270210674353e-08 7.15148406909623e-08
"582" 21142 1.54395696917934e-07 1.66169161857546e-08 6.9744765615815e-09 4.6654371858146e-08 1.86769703129376e-07 1.62922906171116e-07 7.92206134252384e-08 7.14555119555746e-08
"583" 21143 1.54012586699845e-07 1.66202137990011e-08 6.97423599954368e-09 4.68089922906159e-08 1.86399374249503e-07 1.62383185958881e-07 7.91710161761238e-08 7.13961832201869e-08
"584" 21144 1.53629476481756e-07 1.66235114122476e-08 6.97399543750586e-09 4.69636127230859e-08 1.86029045369631e-07 1.61843465746647e-07 7.91214189270092e-08 7.13368544847992e-08
"585" 21145 1.53246366263667e-07 1.66268090254941e-08 6.97375487546803e-09 4.71182331555558e-08 1.85658716489758e-07 1.61303745534412e-07 7.90718216778945e-08 7.12775257494115e-08
"586" 21146 1.52863256045579e-07 1.66301066387405e-08 6.97351431343021e-09 4.72728535880257e-08 1.85288387609886e-07 1.60764025322177e-07 7.90222244287799e-08 7.12181970140238e-08
"587" 21147 1.52519155937934e-07 1.66363091305967e-08 6.97549169685748e-09 4.76842285605705e-08 1.8528250521613e-07 1.59819002875956e-07 7.9037316198321e-08 7.11734269306406e-08
"588" 21148 1.5251550357353e-07 1.66335102704674e-08 6.97623101201251e-09 4.77913347295306e-08 1.85276622822375e-07 1.58865305592466e-07 7.9037316198321e-08 7.12309339299418e-08
"589" 21149 1.52511851209126e-07 1.66307114103381e-08 6.97697032716754e-09 4.78984408984906e-08 1.8527074042862e-07 1.57911608308976e-07 7.9037316198321e-08 7.1288440929243e-08
"590" 21150 1.51698187075561e-07 1.66076627484662e-08 6.96566905134337e-09 4.80113490869861e-08 1.85753830392184e-07 1.57901013149535e-07 7.90562132042537e-08 7.14501252120921e-08
"591" 21151 1.51621849567783e-07 1.61926893199723e-08 6.95761848530182e-09 4.81242572754817e-08 1.86147466130558e-07 1.57632753311894e-07 7.90263598211512e-08 7.16048400287631e-08
"592" 21152 1.51545512060004e-07 1.57777158914784e-08 6.94956791926027e-09 4.82371654639772e-08 1.86541101868933e-07 1.57364493474254e-07 7.89965064380488e-08 7.17595548454341e-08
"593" 21153 1.51469174552226e-07 1.53627424629845e-08 6.94151735321872e-09 4.83500736524727e-08 1.86934737607307e-07 1.57096233636613e-07 7.89666530549464e-08 7.19142696621052e-08
"594" 21154 1.50952949517288e-07 1.4943333265676e-08 6.93272747202214e-09 4.83527252856819e-08 1.87358009091161e-07 1.56847849233363e-07 7.89221528024725e-08 7.20688177411252e-08
"595" 21155 1.5043672448235e-07 1.45239240683674e-08 6.92393759082556e-09 4.8355376918891e-08 1.87781280575015e-07 1.56599464830114e-07 7.88776525499987e-08 7.22233658201453e-08
"596" 21156 1.49920499447413e-07 1.41045148710589e-08 6.91514770962899e-09 4.83580285521001e-08 1.8820455205887e-07 1.56351080426865e-07 7.88331522975248e-08 7.23779138991654e-08
"597" 21157 1.49404274412475e-07 1.36851056737503e-08 6.90635782843241e-09 4.83606801853093e-08 1.88627823542724e-07 1.56102696023615e-07 7.8788652045051e-08 7.25324619781854e-08
"598" 21158 1.48888049377538e-07 1.32656964764418e-08 6.89756794723583e-09 4.83633318185184e-08 1.89051095026578e-07 1.55854311620366e-07 7.87441517925771e-08 7.26870100572055e-08
"599" 21159 1.483718243426e-07 1.28462872791332e-08 6.88877806603925e-09 4.83659834517276e-08 1.89474366510432e-07 1.55605927217116e-07 7.86996515401033e-08 7.28415581362256e-08
"600" 21160 1.47855599307663e-07 1.24268780818247e-08 6.87998818484267e-09 4.83686350849367e-08 1.89897637994286e-07 1.55357542813867e-07 7.86551512876294e-08 7.29961062152456e-08
"601" 21161 1.47339374272725e-07 1.20074688845161e-08 6.87119830364609e-09 4.83712867181458e-08 1.9032090947814e-07 1.55109158410617e-07 7.86106510351556e-08 7.31506542942657e-08
"602" 21162 1.46823149237788e-07 1.15880596872076e-08 6.86240842244951e-09 4.8373938351355e-08 1.90744180961994e-07 1.54860774007368e-07 7.85661507826817e-08 7.33052023732858e-08
"603" 21163 1.4630692420285e-07 1.1168650489899e-08 6.85361854125293e-09 4.83765899845641e-08 1.91167452445848e-07 1.54612389604118e-07 7.85216505302078e-08 7.34597504523058e-08
"604" 21164 1.45790699167913e-07 1.07492412925905e-08 6.84482866005635e-09 4.83792416177733e-08 1.91590723929702e-07 1.54364005200869e-07 7.8477150277734e-08 7.36142985313259e-08
"605" 21165 1.45274474132975e-07 1.03298320952819e-08 6.83603877885978e-09 4.83818932509824e-08 1.92013995413556e-07 1.54115620797619e-07 7.84326500252601e-08 7.3768846610346e-08
"606" 21166 1.43869456944382e-07 1.02838115766539e-08 6.8160005089637e-09 4.83279454974446e-08 1.9238365187538e-07 1.54175897909945e-07 7.84126442880506e-08 7.35801119620024e-08
"607" 21167 1.43905885693552e-07 1.02694829680999e-08 6.80721062776712e-09 4.82788916402231e-08 1.92749678775099e-07 1.52196994921461e-07 7.78458615265223e-08 7.32485032570081e-08
"608" 21168 1.43942314442722e-07 1.02551543595458e-08 6.79842074657054e-09 4.82298377830016e-08 1.93115705674819e-07 1.50218091932978e-07 7.7279078764994e-08 7.29168945520138e-08
"609" 21169 1.43878794769051e-07 1.02389421744922e-08 6.79037018052899e-09 4.81852154372034e-08 1.93739438389019e-07 1.48302677295534e-07 7.67756196983685e-08 7.26707589839072e-08
"610" 21170 1.43814808836093e-07 1.0231848194882e-08 6.79362089031162e-09 4.84191236830377e-08 1.94030069413789e-07 1.46236512521834e-07 7.62031658640048e-08 7.22160824948596e-08
"611" 21171 1.46495534804021e-07 1.02213981752963e-08 6.78854521393175e-09 4.84534049307497e-08 1.96207408707397e-07 1.45679617376831e-07 7.57022903178778e-08 7.26349828034621e-08
"612" 21172 1.49176260771949e-07 1.02109481557107e-08 6.78346953755189e-09 4.84876861784618e-08 1.98384748001004e-07 1.45122722231827e-07 7.52014147717508e-08 7.30538831120647e-08
"613" 21173 1.51856986739877e-07 1.0200498136125e-08 6.77839386117202e-09 4.85219674261739e-08 2.00562087294611e-07 1.44565827086824e-07 7.47005392256238e-08 7.34727834206673e-08
"614" 21174 1.54537712707805e-07 1.01900481165393e-08 6.77331818479216e-09 4.85562486738859e-08 2.02739426588218e-07 1.44008931941821e-07 7.41996636794968e-08 7.38916837292699e-08
"615" 21175 1.57218438675733e-07 1.01795980969537e-08 6.76824250841229e-09 4.8590529921598e-08 2.04916765881825e-07 1.43452036796818e-07 7.36987881333698e-08 7.43105840378725e-08
"616" 21176 1.59899164643661e-07 1.0169148077368e-08 6.76316683203243e-09 4.86248111693101e-08 2.07094105175433e-07 1.42895141651815e-07 7.31979125872428e-08 7.47294843464751e-08
"617" 21177 1.62579890611589e-07 1.01586980577823e-08 6.75809115565256e-09 4.86590924170222e-08 2.0927144446904e-07 1.42338246506812e-07 7.26970370411158e-08 7.51483846550777e-08
"618" 21178 1.65260616579516e-07 1.01482480381967e-08 6.7530154792727e-09 4.86933736647342e-08 2.11448783762647e-07 1.41781351361809e-07 7.21961614949888e-08 7.55672849636803e-08
"619" 21179 1.67941342547444e-07 1.0137798018611e-08 6.74793980289283e-09 4.87276549124463e-08 2.13626123056254e-07 1.41224456216806e-07 7.16952859488618e-08 7.59861852722829e-08
"620" 21180 1.70622068515372e-07 1.01273479990254e-08 6.74286412651297e-09 4.87619361601584e-08 2.15803462349861e-07 1.40667561071803e-07 7.11944104027348e-08 7.64050855808854e-08
"621" 21181 1.733027944833e-07 1.01168979794397e-08 6.7377884501331e-09 4.87962174078704e-08 2.17980801643469e-07 1.401106659268e-07 7.06935348566078e-08 7.6823985889488e-08
"622" 21182 1.75983520451228e-07 1.0106447959854e-08 6.73271277375324e-09 4.88304986555825e-08 2.20158140937076e-07 1.39553770781797e-07 7.01926593104808e-08 7.72428861980906e-08
"623" 21183 1.78664246419156e-07 1.00959979402684e-08 6.72763709737337e-09 4.88647799032946e-08 2.22335480230683e-07 1.38996875636794e-07 6.96917837643538e-08 7.76617865066932e-08
"624" 21184 1.81344972387084e-07 1.00855479206827e-08 6.72256142099351e-09 4.88990611510066e-08 2.2451281952429e-07 1.38439980491791e-07 6.91909082182268e-08 7.80806868152958e-08
"625" 21185 1.84025698355012e-07 1.0075097901097e-08 6.71748574461364e-09 4.89333423987187e-08 2.26690158817897e-07 1.37883085346788e-07 6.86900326720998e-08 7.84995871238984e-08
"626" 21186 1.8670642432294e-07 1.00646478815114e-08 6.71241006823378e-09 4.89676236464308e-08 2.28867498111505e-07 1.37326190201785e-07 6.81891571259728e-08 7.8918487432501e-08
"627" 21187 1.89119921774361e-07 9.99080862428904e-09 6.71414688962322e-09 4.90557632646654e-08 2.31239917142943e-07 1.3883813229549e-07 6.82253257024615e-08 7.95510978178604e-08
"628" 21188 1.91511801863352e-07 9.90568086896726e-09 6.70221207289337e-09 4.90739013947559e-08 2.33271075141729e-07 1.40303047566464e-07 6.82912329178628e-08 8.01667473278691e-08
"629" 21189 1.93903681952343e-07 9.82055311364548e-09 6.69027725616352e-09 4.90920395248463e-08 2.35302233140516e-07 1.41767962837438e-07 6.83571401332641e-08 8.07823968378777e-08
"630" 21190 1.96295562041334e-07 9.7354253583237e-09 6.67834243943367e-09 4.91101776549368e-08 2.37333391139302e-07 1.43232878108412e-07 6.84230473486654e-08 8.13980463478864e-08
"631" 21191 1.98687442130325e-07 9.65029760300192e-09 6.66640762270382e-09 4.91283157850272e-08 2.39364549138088e-07 1.44697793379386e-07 6.84889545640667e-08 8.20136958578951e-08
"632" 21192 2.01079322219317e-07 9.56516984768014e-09 6.65447280597397e-09 4.91464539151177e-08 2.41395707136874e-07 1.46162708650361e-07 6.8554861779468e-08 8.26293453679038e-08
"633" 21193 2.03471202308308e-07 9.48004209235836e-09 6.64253798924412e-09 4.91645920452081e-08 2.43426865135661e-07 1.47627623921335e-07 6.86207689948693e-08 8.32449948779124e-08
"634" 21194 2.05986212265996e-07 9.43790016269879e-09 6.64551287890581e-09 4.91547748504871e-08 2.45717245845804e-07 1.49116265972804e-07 6.87152540245325e-08 8.33328883945049e-08
"635" 21195 2.08719119397638e-07 9.43734298285254e-09 6.59322570226287e-09 4.89085277798027e-08 2.47479555276891e-07 1.50446076504458e-07 6.87665143705624e-08 8.41302671236564e-08
"636" 21196 2.10388855861784e-07 9.30099514076989e-09 6.55515041948355e-09 4.89792683055667e-08 2.49767432840755e-07 1.51958231967294e-07 6.85050026591561e-08 8.50038439213066e-08
"637" 21197 2.1205859232593e-07 9.16464729868725e-09 6.51707513670423e-09 4.90500088313306e-08 2.52055310404619e-07 1.53470387430129e-07 6.82434909477497e-08 8.58774207189568e-08
"638" 21198 2.11023206299043e-07 9.20263475819971e-09 6.49516525763024e-09 4.96822811343023e-08 2.5379331547097e-07 1.54305305499214e-07 6.7882063534912e-08 8.58399815415092e-08
"639" 21199 2.10012216795261e-07 9.26844095630651e-09 6.45708997485092e-09 4.97731548026256e-08 2.53872419161873e-07 1.54763218216253e-07 6.76107615497076e-08 8.60807289062977e-08
"640" 21200 2.09001227291479e-07 9.33424715441331e-09 6.4190146920716e-09 4.98640284709488e-08 2.53951522852776e-07 1.55221130933291e-07 6.73394595645033e-08 8.63214762710863e-08
"641" 21201 2.07990237787698e-07 9.4000533525201e-09 6.38093940929229e-09 4.99549021392721e-08 2.54030626543679e-07 1.5567904365033e-07 6.70681575792989e-08 8.65622236358749e-08
"642" 21202 2.06979248283916e-07 9.4658595506269e-09 6.34286412651297e-09 5.00457758075953e-08 2.54109730234582e-07 1.56136956367369e-07 6.67968555940945e-08 8.68029710006634e-08
"643" 21203 2.05968258780134e-07 9.5316657487337e-09 6.30478884373365e-09 5.01366494759185e-08 2.54188833925485e-07 1.56594869084408e-07 6.65255536088902e-08 8.7043718365452e-08
"644" 21204 2.04888684361627e-07 9.39357497948526e-09 6.26301698517918e-09 5.01272052830752e-08 2.54818393021269e-07 1.56600479388117e-07 6.61633134783642e-08 8.72365952390858e-08
"645" 21205 2.0380910994312e-07 9.25548421023681e-09 6.2212451266247e-09 5.0117761090232e-08 2.55447952117052e-07 1.56606089691825e-07 6.58010733478382e-08 8.74294721127196e-08
"646" 21206 2.02729535524614e-07 9.11739344098836e-09 6.17947326807023e-09 5.01083168973887e-08 2.56077511212835e-07 1.56611699995534e-07 6.54388332173123e-08 8.76223489863534e-08
"647" 21207 2.01649961106107e-07 8.97930267173992e-09 6.13770140951576e-09 5.00988727045454e-08 2.56707070308619e-07 1.56617310299242e-07 6.50765930867863e-08 8.78152258599872e-08
"648" 21208 2.005703866876e-07 8.84121190249147e-09 6.09592955096128e-09 5.00894285117021e-08 2.57336629404402e-07 1.56622920602951e-07 6.47143529562604e-08 8.80081027336209e-08
"649" 21209 1.99679107817755e-07 8.67829491335193e-09 6.08402999231455e-09 4.9908058428774e-08 2.58062950357201e-07 1.56081055997653e-07 6.47146669208314e-08 8.82324599022215e-08
"650" 21210 1.9878782894791e-07 8.51537792421238e-09 6.07213043366782e-09 4.97266883458459e-08 2.58789271309999e-07 1.55539191392356e-07 6.47149808854025e-08 8.8456817070822e-08
"651" 21211 1.97896550078065e-07 8.35246093507284e-09 6.06023087502109e-09 4.95453182629178e-08 2.59515592262798e-07 1.54997326787059e-07 6.47152948499736e-08 8.86811742394225e-08
"652" 21212 1.9700527120822e-07 8.18954394593329e-09 6.04833131637436e-09 4.93639481799897e-08 2.60241913215597e-07 1.54455462181761e-07 6.47156088145446e-08 8.8905531408023e-08
"653" 21213 1.97097174593523e-07 8.02662695679375e-09 6.03844439923801e-09 4.91950217747439e-08 2.60563117727632e-07 1.54288478545741e-07 6.48858666564846e-08 9.00344483759589e-08
"654" 21214 1.97189077978826e-07 7.8637099676542e-09 6.02855748210167e-09 4.90260953694981e-08 2.60884322239668e-07 1.54121494909722e-07 6.50561244984246e-08 9.11633653438947e-08
"655" 21215 1.96844641587222e-07 7.67085153901571e-09 6.02855748210167e-09 4.90497770505093e-08 2.6106762808128e-07 1.54473289205894e-07 6.49730875607534e-08 9.18277829607913e-08
"656" 21216 1.97235120061946e-07 7.67506443589187e-09 6.03058775265362e-09 4.89028418310758e-08 2.61294573882579e-07 1.5482390997185e-07 6.49730875607534e-08 9.27009278524741e-08
"657" 21217 1.9762559853667e-07 7.67927733276803e-09 6.03261802320556e-09 4.87559066116422e-08 2.61521519683878e-07 1.55174530737807e-07 6.49730875607534e-08 9.35740727441567e-08
"658" 21218 1.98016077011394e-07 7.68349022964419e-09 6.03464829375751e-09 4.86089713922087e-08 2.61748465485178e-07 1.55525151503763e-07 6.49730875607534e-08 9.44472176358394e-08
"659" 21219 1.98406555486117e-07 7.68770312652034e-09 6.03667856430946e-09 4.84620361727751e-08 2.61975411286477e-07 1.55875772269719e-07 6.49730875607534e-08 9.53203625275221e-08
"660" 21220 1.98797033960841e-07 7.6919160233965e-09 6.0387088348614e-09 4.83151009533416e-08 2.62202357087776e-07 1.56226393035676e-07 6.49730875607534e-08 9.61935074192048e-08
"661" 21221 1.99187512435565e-07 7.69612892027266e-09 6.04073910541335e-09 4.8168165733908e-08 2.62429302889075e-07 1.56577013801632e-07 6.49730875607534e-08 9.70666523108875e-08
"662" 21222 1.99577990910289e-07 7.70034181714881e-09 6.04276937596529e-09 4.80212305144745e-08 2.62656248690374e-07 1.56927634567588e-07 6.49730875607534e-08 9.79397972025702e-08
"663" 21223 1.99968469385012e-07 7.70455471402497e-09 6.04479964651724e-09 4.78742952950409e-08 2.62883194491673e-07 1.57278255333545e-07 6.49730875607534e-08 9.88129420942529e-08
"664" 21224 2.00358947859736e-07 7.70876761090113e-09 6.04682991706919e-09 4.77273600756073e-08 2.63110140292972e-07 1.57628876099501e-07 6.49730875607534e-08 9.96860869859356e-08
"665" 21225 2.0074942633446e-07 7.71298050777729e-09 6.04886018762113e-09 4.75804248561738e-08 2.63337086094271e-07 1.57979496865457e-07 6.49730875607534e-08 1.00559231877618e-07
"666" 21226 2.01139904809184e-07 7.71719340465344e-09 6.05089045817308e-09 4.74334896367402e-08 2.6356403189557e-07 1.58330117631414e-07 6.49730875607534e-08 1.01432376769301e-07
"667" 21227 2.01530383283908e-07 7.7214063015296e-09 6.05292072872502e-09 4.72865544173067e-08 2.63790977696869e-07 1.5868073839737e-07 6.49730875607534e-08 1.02305521660984e-07
"668" 21228 2.00968978023937e-07 7.72517345452876e-09 6.07752967733975e-09 4.71589308859332e-08 2.64172518203117e-07 1.59066992030099e-07 6.50889130281353e-08 1.02064699100784e-07
"669" 21229 2.00380873225279e-07 7.72725068960231e-09 6.07754730638131e-09 4.70762593678757e-08 2.64196094137632e-07 1.59093140561324e-07 6.51603082873997e-08 1.02133513953496e-07
"670" 21230 2.00360637705503e-07 7.89486636783722e-09 6.16154937857079e-09 4.70084107598234e-08 2.63196615404412e-07 1.58694452770373e-07 6.5104058650624e-08 1.03150813383044e-07
