"time" "channel1" "channel2" "channel3" "channel4" "channel5" "channel6" "channel7" "channel8"
"1" 11905 3.51566843873824e-08 2.35061564423371e-08 3.16615038627834e-08 3.29650973405228e-07 3.75919737274542e-07 1.52079785263478e-07 3.27683010261884e-08 3.77670092268199e-08
"2" 11906 3.51607521222009e-08 2.35276320397416e-08 3.16154132720456e-08 3.27979521706387e-07 3.76241352633168e-07 1.52210755948147e-07 3.26584803067692e-08 3.77285594656751e-08
"3" 11907 3.51648198570195e-08 2.3549107637146e-08 3.15693226813079e-08 3.26308070007546e-07 3.76562967991793e-07 1.52341726632816e-07 3.254865958735e-08 3.76901097045303e-08
"4" 11908 3.51688875918381e-08 2.35705832345504e-08 3.15232320905701e-08 3.24636618308706e-07 3.76884583350418e-07 1.52472697317485e-07 3.24388388679308e-08 3.76516599433855e-08
"5" 11909 3.51668148694883e-08 2.35636829135142e-08 3.15133690470194e-08 3.23220857873393e-07 3.76815691903517e-07 1.53007424647667e-07 3.23270805081377e-08 3.76515782092429e-08
"6" 11910 3.51647421471386e-08 2.35543710494968e-08 3.1419468673196e-08 3.21536704028255e-07 3.78063110700439e-07 1.52880597326183e-07 3.22153221483446e-08 3.77388926984112e-08
"7" 11911 3.51626694247888e-08 2.35450591854793e-08 3.13255682993726e-08 3.19852550183117e-07 3.7931052949736e-07 1.52753770004698e-07 3.21035637885515e-08 3.78262071875794e-08
"8" 11912 3.51605967024391e-08 2.35357473214618e-08 3.12316679255492e-08 3.1816839633798e-07 3.80557948294281e-07 1.52626942683214e-07 3.19918054287584e-08 3.79135216767477e-08
"9" 11913 3.51585239800893e-08 2.35264354574443e-08 3.11377675517258e-08 3.16484242492842e-07 3.81805367091202e-07 1.5250011536173e-07 3.18800470689653e-08 3.8000836165916e-08
"10" 11914 3.51564512577396e-08 2.35171235934268e-08 3.10438671779025e-08 3.14800088647704e-07 3.83052785888123e-07 1.52373288040246e-07 3.17682887091723e-08 3.80881506550842e-08
"11" 11915 3.5065976307714e-08 2.34260400140631e-08 3.09495965942063e-08 3.13784656703159e-07 3.81925624208775e-07 1.509820775884e-07 3.15660012022623e-08 3.81620870829619e-08
"12" 11916 3.49755013576884e-08 2.33349564346994e-08 3.08553260105102e-08 3.12769224758615e-07 3.80798462529427e-07 1.49590867136554e-07 3.13637136953524e-08 3.82360235108397e-08
"13" 11917 3.48850264076627e-08 2.32438728553356e-08 3.07610554268141e-08 3.1175379281407e-07 3.79671300850078e-07 1.48199656684709e-07 3.11614261884425e-08 3.83099599387174e-08
"14" 11918 3.47945514576371e-08 2.31527892759719e-08 3.0666784843118e-08 3.10738360869525e-07 3.7854413917073e-07 1.46808446232863e-07 3.09591386815325e-08 3.83838963665951e-08
"15" 11919 3.47040765076115e-08 2.30617056966081e-08 3.05725142594218e-08 3.0972292892498e-07 3.77416977491382e-07 1.45417235781017e-07 3.07568511746226e-08 3.84578327944728e-08
"16" 11920 3.46136015575859e-08 2.29706221172444e-08 3.04782436757257e-08 3.08707496980435e-07 3.76289815812034e-07 1.44026025329171e-07 3.05545636677126e-08 3.85317692223505e-08
"17" 11921 3.45231266075603e-08 2.28795385378807e-08 3.03839730920296e-08 3.0769206503589e-07 3.75162654132685e-07 1.42634814877325e-07 3.03522761608027e-08 3.86057056502282e-08
"18" 11922 3.44326516575347e-08 2.27884549585169e-08 3.02897025083335e-08 3.06676633091345e-07 3.74035492453337e-07 1.4124360442548e-07 3.01499886538928e-08 3.86796420781059e-08
"19" 11923 3.43543799119648e-08 2.27281588405751e-08 3.02791166740788e-08 3.07644499295135e-07 3.74445168421451e-07 1.40615918332101e-07 2.99220243369379e-08 3.86412609736409e-08
"20" 11924 3.4276108166395e-08 2.26678627226332e-08 3.02685308398241e-08 3.08612365498924e-07 3.74854844389565e-07 1.39988232238723e-07 2.96940600199831e-08 3.86028798691759e-08
"21" 11925 3.41978364208251e-08 2.26075666046914e-08 3.02579450055694e-08 3.09580231702714e-07 3.75264520357679e-07 1.39360546145345e-07 2.94660957030282e-08 3.85644987647109e-08
"22" 11926 3.41195646752553e-08 2.25472704867495e-08 3.02473591713147e-08 3.10548097906504e-07 3.75674196325793e-07 1.38732860051967e-07 2.92381313860734e-08 3.85261176602459e-08
"23" 11927 3.40412929296854e-08 2.24869743688077e-08 3.023677333706e-08 3.11515964110293e-07 3.76083872293906e-07 1.38105173958588e-07 2.90101670691185e-08 3.84877365557809e-08
"24" 11928 3.40381351054133e-08 2.24624878743132e-08 3.03274230011007e-08 3.1277717956388e-07 3.77868119357597e-07 1.38836100665015e-07 2.88171299022032e-08 3.84253106819874e-08
"25" 11929 3.40497067450147e-08 2.24814459102559e-08 3.04180726651415e-08 3.12565746147954e-07 3.78016883928685e-07 1.3927178821179e-07 2.88400366436297e-08 3.837945155013e-08
"26" 11930 3.40552156373286e-08 2.24733836377759e-08 3.04154264827254e-08 3.11856456520064e-07 3.75424581769577e-07 1.39605506051764e-07 2.90307989758964e-08 3.84457628291586e-08
"27" 11931 3.40607245296425e-08 2.24653213652958e-08 3.04127803003093e-08 3.11147166892174e-07 3.72832279610469e-07 1.39939223891738e-07 2.92215613081631e-08 3.85120741081872e-08
"28" 11932 3.40662334219564e-08 2.24572590928158e-08 3.04101341178933e-08 3.10437877264284e-07 3.70239977451361e-07 1.40272941731712e-07 2.94123236404298e-08 3.85783853872158e-08
"29" 11933 3.40717423142703e-08 2.24491968203358e-08 3.04074879354772e-08 3.09728587636394e-07 3.67647675292253e-07 1.40606659571686e-07 2.96030859726965e-08 3.86446966662444e-08
"30" 11934 3.40772512065843e-08 2.24411345478557e-08 3.04048417530612e-08 3.09019298008503e-07 3.65055373133145e-07 1.4094037741166e-07 2.97938483049632e-08 3.8711007945273e-08
"31" 11935 3.40827600988982e-08 2.24330722753757e-08 3.04021955706451e-08 3.08310008380613e-07 3.62463070974037e-07 1.41274095251634e-07 2.99846106372299e-08 3.87773192243016e-08
"32" 11936 3.40882689912121e-08 2.24250100028956e-08 3.0399549388229e-08 3.07600718752723e-07 3.59870768814929e-07 1.41607813091608e-07 3.01753729694966e-08 3.88436305033302e-08
"33" 11937 3.4093777883526e-08 2.24169477304156e-08 3.0396903205813e-08 3.06891429124833e-07 3.57278466655821e-07 1.41941530931582e-07 3.03661353017633e-08 3.89099417823588e-08
"34" 11938 3.409928677584e-08 2.24088854579356e-08 3.03942570233969e-08 3.06182139496943e-07 3.54686164496713e-07 1.42275248771556e-07 3.055689763403e-08 3.89762530613873e-08
"35" 11939 3.41047956681539e-08 2.24008231854555e-08 3.03916108409808e-08 3.05472849869053e-07 3.52093862337605e-07 1.4260896661153e-07 3.07476599662967e-08 3.90425643404159e-08
"36" 11940 3.41103045604678e-08 2.23927609129755e-08 3.03889646585648e-08 3.04763560241163e-07 3.49501560178497e-07 1.42942684451504e-07 3.09384222985633e-08 3.91088756194445e-08
"37" 11941 3.41158134527817e-08 2.23846986404954e-08 3.03863184761487e-08 3.04054270613273e-07 3.46909258019389e-07 1.43276402291478e-07 3.112918463083e-08 3.91751868984731e-08
"38" 11942 3.41213223450956e-08 2.23766363680154e-08 3.03836722937326e-08 3.03344980985382e-07 3.44316955860281e-07 1.43610120131452e-07 3.13199469630967e-08 3.92414981775017e-08
"39" 11943 3.41268312374096e-08 2.23685740955354e-08 3.03810261113166e-08 3.02635691357492e-07 3.41724653701173e-07 1.43943837971425e-07 3.15107092953634e-08 3.93078094565303e-08
"40" 11944 3.41323401297235e-08 2.23605118230553e-08 3.03783799289005e-08 3.01926401729602e-07 3.39132351542066e-07 1.44277555811399e-07 3.17014716276301e-08 3.93741207355589e-08
"41" 11945 3.41378490220374e-08 2.23524495505753e-08 3.03757337464844e-08 3.01217112101712e-07 3.36540049382958e-07 1.44611273651373e-07 3.18922339598968e-08 3.94404320145875e-08
"42" 11946 3.41410746703834e-08 2.23771989653505e-08 3.05767903843875e-08 2.99024192532049e-07 3.33727995153894e-07 1.44272106872259e-07 3.19151407013233e-08 3.93836362771743e-08
"43" 11947 3.41443003187294e-08 2.24019483801257e-08 3.07778470222906e-08 2.96831272962387e-07 3.30915940924831e-07 1.43932940093144e-07 3.19380474427499e-08 3.93268405397611e-08
"44" 11948 3.41731276816219e-08 2.24453929105629e-08 3.08047268034951e-08 2.97071463796762e-07 3.30810080106669e-07 1.4407470999785e-07 3.19318040532935e-08 3.92675444980304e-08
"45" 11949 3.42019550445143e-08 2.24888374410001e-08 3.08316065846996e-08 2.97311654631137e-07 3.30704219288507e-07 1.44216479902556e-07 3.19255606638372e-08 3.92082484562998e-08
"46" 11950 3.41589718443359e-08 2.24623104682058e-08 3.07864543685276e-08 2.99645154095244e-07 3.33457734481094e-07 1.43998294086352e-07 3.18828903458423e-08 3.91813550203591e-08
"47" 11951 3.41159886441576e-08 2.24357834954114e-08 3.07413021523556e-08 3.01978653559351e-07 3.36211249673681e-07 1.43780108270148e-07 3.18402200278473e-08 3.91544615844184e-08
"48" 11952 3.41446605872881e-08 2.24817455873103e-08 3.07760914672692e-08 3.0348022160598e-07 3.38709832878234e-07 1.44166564570247e-07 3.16984432069619e-08 3.88915173413134e-08
"49" 11953 3.41733325304187e-08 2.25277076792092e-08 3.08108807821828e-08 3.0498178965261e-07 3.41208416082786e-07 1.44553020870345e-07 3.15566663860764e-08 3.86285730982085e-08
"50" 11954 3.42020044735493e-08 2.25736697711082e-08 3.08456700970963e-08 3.06483357699239e-07 3.43706999287338e-07 1.44939477170443e-07 3.1414889565191e-08 3.83656288551036e-08
"51" 11955 3.42306764166799e-08 2.26196318630071e-08 3.08804594120099e-08 3.07984925745869e-07 3.46205582491891e-07 1.45325933470541e-07 3.12731127443056e-08 3.81026846119987e-08
"52" 11956 3.42593483598104e-08 2.2665593954906e-08 3.09152487269235e-08 3.09486493792498e-07 3.48704165696443e-07 1.4571238977064e-07 3.11313359234201e-08 3.78397403688937e-08
"53" 11957 3.4288020302941e-08 2.27115560468049e-08 3.09500380418371e-08 3.10988061839128e-07 3.51202748900995e-07 1.46098846070738e-07 3.09895591025347e-08 3.75767961257888e-08
"54" 11958 3.43166922460716e-08 2.27575181387039e-08 3.09848273567506e-08 3.12489629885757e-07 3.53701332105548e-07 1.46485302370836e-07 3.08477822816492e-08 3.73138518826839e-08
"55" 11959 3.43453641892022e-08 2.28034802306028e-08 3.10196166716642e-08 3.13991197932387e-07 3.561999153101e-07 1.46871758670934e-07 3.07060054607638e-08 3.70509076395789e-08
"56" 11960 3.43740361323328e-08 2.28494423225017e-08 3.10544059865778e-08 3.15492765979016e-07 3.58698498514652e-07 1.47258214971032e-07 3.05642286398784e-08 3.6787963396474e-08
"57" 11961 3.44027080754633e-08 2.28954044144006e-08 3.10891953014914e-08 3.16994334025646e-07 3.61197081719205e-07 1.47644671271131e-07 3.04224518189929e-08 3.65250191533691e-08
"58" 11962 3.44313800185939e-08 2.29413665062996e-08 3.11239846164049e-08 3.18495902072275e-07 3.63695664923757e-07 1.48031127571229e-07 3.02806749981075e-08 3.62620749102642e-08
"59" 11963 3.44600519617245e-08 2.29873285981985e-08 3.11587739313185e-08 3.19997470118905e-07 3.66194248128309e-07 1.48417583871327e-07 3.0138898177222e-08 3.59991306671592e-08
"60" 11964 3.44895885993523e-08 2.30130408883548e-08 3.11906236146535e-08 3.21133193662007e-07 3.68937537943924e-07 1.4749598013588e-07 3.00660443201448e-08 3.58111955535776e-08
"61" 11965 3.451912523698e-08 2.3038753178511e-08 3.12224732979885e-08 3.22268917205109e-07 3.71680827759539e-07 1.46574376400433e-07 2.99931904630676e-08 3.5623260439996e-08
"62" 11966 3.45199899314772e-08 2.30247058686245e-08 3.12672729333294e-08 3.21539731644071e-07 3.71925534370602e-07 1.4544096395474e-07 2.99456061774043e-08 3.5494722718482e-08
"63" 11967 3.45197794098591e-08 2.30011000269063e-08 3.12672729333294e-08 3.20275187038127e-07 3.72437679048416e-07 1.44046812988753e-07 2.98766867327435e-08 3.53092650236579e-08
"64" 11968 3.4519568888241e-08 2.29774941851881e-08 3.12672729333294e-08 3.19010642432184e-07 3.7294982372623e-07 1.42652662022767e-07 2.98077672880828e-08 3.51238073288338e-08
"65" 11969 3.45193583666228e-08 2.295388834347e-08 3.12672729333294e-08 3.1774609782624e-07 3.73461968404044e-07 1.4125851105678e-07 2.9738847843422e-08 3.49383496340097e-08
"66" 11970 3.45191478450047e-08 2.29302825017518e-08 3.12672729333294e-08 3.16481553220297e-07 3.73974113081858e-07 1.39864360090794e-07 2.96699283987612e-08 3.47528919391856e-08
"67" 11971 3.45189373233865e-08 2.29066766600336e-08 3.12672729333294e-08 3.15217008614354e-07 3.74486257759672e-07 1.38470209124807e-07 2.96010089541005e-08 3.45674342443615e-08
"68" 11972 3.44706034870668e-08 2.27186813656999e-08 3.1251107529624e-08 3.14895198320492e-07 3.73828096071276e-07 1.374647694942e-07 2.96041306488286e-08 3.4494163307252e-08
"69" 11973 3.4422269650747e-08 2.25306860713663e-08 3.12349421259187e-08 3.1457338802663e-07 3.7316993438288e-07 1.36459329863593e-07 2.96072523435568e-08 3.44208923701424e-08
"70" 11974 3.43739358144272e-08 2.23426907770326e-08 3.12187767222134e-08 3.14251577732769e-07 3.72511772694484e-07 1.35453890232986e-07 2.9610374038285e-08 3.43476214330329e-08
"71" 11975 3.43256019781074e-08 2.21546954826989e-08 3.1202611318508e-08 3.13929767438907e-07 3.71853611006088e-07 1.34448450602378e-07 2.96134957330131e-08 3.42743504959233e-08
"72" 11976 3.42772681417876e-08 2.19667001883653e-08 3.11864459148027e-08 3.13607957145046e-07 3.71195449317692e-07 1.33443010971771e-07 2.96166174277413e-08 3.42010795588137e-08
"73" 11977 3.42289343054678e-08 2.17787048940316e-08 3.11702805110974e-08 3.13286146851184e-07 3.70537287629296e-07 1.32437571341164e-07 2.96197391224695e-08 3.41278086217042e-08
"74" 11978 3.4180600469148e-08 2.15907095996979e-08 3.11541151073921e-08 3.12964336557323e-07 3.698791259409e-07 1.31432131710557e-07 2.96228608171976e-08 3.40545376845946e-08
"75" 11979 3.41322666328282e-08 2.14027143053643e-08 3.11379497036867e-08 3.12642526263461e-07 3.69220964252505e-07 1.3042669207995e-07 2.96259825119258e-08 3.39812667474851e-08
"76" 11980 3.40877674016842e-08 2.12205926124678e-08 3.1129987282853e-08 3.12289527841582e-07 3.69845065206077e-07 1.29433063835028e-07 2.99326026943919e-08 3.40096858670687e-08
"77" 11981 3.40432681705403e-08 2.10384709195714e-08 3.11220248620192e-08 3.11936529419703e-07 3.70469166159649e-07 1.28439435590106e-07 3.02392228768581e-08 3.40381049866524e-08
"78" 11982 3.39987689393963e-08 2.08563492266749e-08 3.11140624411855e-08 3.11583530997824e-07 3.71093267113222e-07 1.27445807345184e-07 3.05458430593242e-08 3.40665241062361e-08
"79" 11983 3.39542697082523e-08 2.06742275337785e-08 3.11061000203517e-08 3.11230532575946e-07 3.71717368066794e-07 1.26452179100262e-07 3.08524632417903e-08 3.40949432258198e-08
"80" 11984 3.39097704771083e-08 2.04921058408821e-08 3.1098137599518e-08 3.10877534154067e-07 3.72341469020367e-07 1.25458550855341e-07 3.11590834242565e-08 3.41233623454035e-08
"81" 11985 3.39071763936167e-08 2.04974222624731e-08 3.11063405823895e-08 3.10710200357323e-07 3.73906943030935e-07 1.25446404756546e-07 3.14170482513212e-08 3.42250295165368e-08
"82" 11986 3.39045823101251e-08 2.0502738684064e-08 3.11145435652611e-08 3.1054286656058e-07 3.75472417041504e-07 1.25434258657751e-07 3.16750130783859e-08 3.43266966876701e-08
"83" 11987 3.38283182992417e-08 2.04841495868824e-08 3.09584753422025e-08 3.12041375141444e-07 3.78583179632433e-07 1.26728242963797e-07 3.1732610087932e-08 3.4289775879534e-08
"84" 11988 3.37520542883583e-08 2.04655604897009e-08 3.08024071191438e-08 3.13539883722308e-07 3.81693942223363e-07 1.28022227269842e-07 3.17902070974782e-08 3.42528550713978e-08
"85" 11989 3.36757902774749e-08 2.04469713925193e-08 3.06463388960851e-08 3.15038392303172e-07 3.84804704814293e-07 1.29316211575888e-07 3.18478041070244e-08 3.42159342632617e-08
"86" 11990 3.35995262665916e-08 2.04283822953377e-08 3.04902706730265e-08 3.16536900884035e-07 3.87915467405222e-07 1.30610195881933e-07 3.19054011165705e-08 3.41790134551256e-08
"87" 11991 3.35232622557082e-08 2.04097931981561e-08 3.03342024499678e-08 3.18035409464899e-07 3.91026229996152e-07 1.31904180187979e-07 3.19629981261167e-08 3.41420926469894e-08
"88" 11992 3.34469982448248e-08 2.03912041009745e-08 3.01781342269091e-08 3.19533918045763e-07 3.94136992587081e-07 1.33198164494024e-07 3.20205951356628e-08 3.41051718388533e-08
"89" 11993 3.33707342339414e-08 2.03726150037929e-08 3.00220660038505e-08 3.21032426626627e-07 3.97247755178011e-07 1.3449214880007e-07 3.2078192145209e-08 3.40682510307171e-08
"90" 11994 3.3294470223058e-08 2.03540259066113e-08 2.98659977807918e-08 3.22530935207491e-07 4.0035851776894e-07 1.35786133106115e-07 3.21357891547552e-08 3.4031330222581e-08
"91" 11995 3.32182062121747e-08 2.03354368094297e-08 2.97099295577331e-08 3.24029443788355e-07 4.0346928035987e-07 1.37080117412161e-07 3.21933861643013e-08 3.39944094144449e-08
"92" 11996 3.31419422012913e-08 2.03168477122481e-08 2.95538613346745e-08 3.25527952369218e-07 4.065800429508e-07 1.38374101718206e-07 3.22509831738475e-08 3.39574886063087e-08
"93" 11997 3.30656781904079e-08 2.02982586150665e-08 2.93977931116158e-08 3.27026460950082e-07 4.09690805541729e-07 1.39668086024252e-07 3.23085801833936e-08 3.39205677981726e-08
"94" 11998 3.29894141795245e-08 2.0279669517885e-08 2.92417248885572e-08 3.28524969530946e-07 4.12801568132659e-07 1.40962070330297e-07 3.23661771929398e-08 3.38836469900365e-08
"95" 11999 3.29131501686411e-08 2.02610804207034e-08 2.90856566654985e-08 3.3002347811181e-07 4.15912330723588e-07 1.42256054636343e-07 3.2423774202486e-08 3.38467261819003e-08
"96" 12000 3.28368861577578e-08 2.02424913235218e-08 2.89295884424398e-08 3.31521986692674e-07 4.19023093314518e-07 1.43550038942388e-07 3.24813712120321e-08 3.38098053737642e-08
"97" 12001 3.27567875416986e-08 2.02354027614005e-08 2.88034982935383e-08 3.31238713106212e-07 4.18620304478963e-07 1.43562205051477e-07 3.23050512500345e-08 3.37099730161802e-08
"98" 12002 3.26766889256394e-08 2.02283141992792e-08 2.86774081446367e-08 3.30955439519751e-07 4.18217515643409e-07 1.43574371160566e-07 3.21287312880368e-08 3.36101406585962e-08
"99" 12003 3.26122395698071e-08 2.02106933949675e-08 2.85510888181949e-08 3.30955439519751e-07 4.20478212372439e-07 1.43432313196433e-07 3.19729714288871e-08 3.378524550449e-08
"100" 12004 3.25477902139749e-08 2.01930725906558e-08 2.8424769491753e-08 3.30955439519751e-07 4.22738909101469e-07 1.432902552323e-07 3.18172115697374e-08 3.39603503503838e-08
"101" 12005 3.24833408581426e-08 2.01754517863441e-08 2.82984501653112e-08 3.30955439519751e-07 4.24999605830499e-07 1.43148197268167e-07 3.16614517105876e-08 3.41354551962776e-08
"102" 12006 3.24791403115868e-08 2.01766429511525e-08 2.83044642162568e-08 3.31185396823167e-07 4.27570523246155e-07 1.42954482348974e-07 3.16306025808245e-08 3.43000829573444e-08
"103" 12007 3.24828421050254e-08 2.01075975665282e-08 2.79675362865651e-08 3.27489591352758e-07 4.28497064767349e-07 1.41363042475357e-07 3.16135893623183e-08 3.4566003372324e-08
"104" 12008 3.2482220425978e-08 2.01093697070586e-08 2.8008551200923e-08 3.27224364975826e-07 4.31097782212723e-07 1.40809965288963e-07 3.14543417504955e-08 3.48235005635281e-08
"105" 12009 3.24815987469305e-08 2.01111418475889e-08 2.80495661152809e-08 3.26959138598894e-07 4.33698499658098e-07 1.40256888102569e-07 3.12950941386728e-08 3.50809977547322e-08
"106" 12010 3.24809770678831e-08 2.01129139881192e-08 2.80905810296388e-08 3.26693912221963e-07 4.36299217103472e-07 1.39703810916175e-07 3.11358465268501e-08 3.53384949459363e-08
"107" 12011 3.24803553888357e-08 2.01146861286495e-08 2.81315959439967e-08 3.26428685845031e-07 4.38899934548846e-07 1.39150733729781e-07 3.09765989150274e-08 3.55959921371404e-08
"108" 12012 3.24797337097883e-08 2.01164582691799e-08 2.81726108583545e-08 3.26163459468099e-07 4.4150065199422e-07 1.38597656543388e-07 3.08173513032047e-08 3.58534893283445e-08
"109" 12013 3.24791120307408e-08 2.01182304097102e-08 2.82136257727124e-08 3.25898233091168e-07 4.44101369439595e-07 1.38044579356994e-07 3.0658103691382e-08 3.61109865195486e-08
"110" 12014 3.24784903516934e-08 2.01200025502405e-08 2.82546406870703e-08 3.25633006714236e-07 4.46702086884969e-07 1.374915021706e-07 3.04988560795593e-08 3.63684837107528e-08
"111" 12015 3.2477868672646e-08 2.01217746907708e-08 2.82956556014282e-08 3.25367780337304e-07 4.49302804330343e-07 1.36938424984206e-07 3.03396084677365e-08 3.66259809019569e-08
"112" 12016 3.24772469935986e-08 2.01235468313012e-08 2.83366705157861e-08 3.25102553960373e-07 4.51903521775717e-07 1.36385347797812e-07 3.01803608559138e-08 3.6883478093161e-08
"113" 12017 3.24766253145512e-08 2.01253189718315e-08 2.8377685430144e-08 3.24837327583441e-07 4.54504239221092e-07 1.35832270611418e-07 3.00211132440911e-08 3.71409752843651e-08
"114" 12018 3.24278124967281e-08 1.99941944937574e-08 2.83474958074882e-08 3.24115774220649e-07 4.57071276760015e-07 1.3581189374847e-07 3.00411566428393e-08 3.73984724755692e-08
"115" 12019 3.23789996789051e-08 1.98630700156834e-08 2.83173061848323e-08 3.23394220857856e-07 4.59638314298939e-07 1.35791516885521e-07 3.00612000415875e-08 3.76559696667733e-08
"116" 12020 3.23301868610821e-08 1.97319455376093e-08 2.82871165621765e-08 3.22672667495064e-07 4.62205351837863e-07 1.35771140022572e-07 3.00812434403358e-08 3.79134668579774e-08
"117" 12021 3.22813740432591e-08 1.96008210595352e-08 2.82569269395207e-08 3.21951114132271e-07 4.64772389376786e-07 1.35750763159624e-07 3.0101286839084e-08 3.81709640491815e-08
"118" 12022 3.22325612254361e-08 1.94696965814611e-08 2.82267373168649e-08 3.21229560769479e-07 4.6733942691571e-07 1.35730386296675e-07 3.01213302378322e-08 3.84284612403856e-08
"119" 12023 3.21837484076131e-08 1.93385721033871e-08 2.81965476942091e-08 3.20508007406686e-07 4.69906464454633e-07 1.35710009433726e-07 3.01413736365804e-08 3.86859584315897e-08
"120" 12024 3.21234317742627e-08 1.92361578516613e-08 2.82145204354701e-08 3.19594280477987e-07 4.69665185598665e-07 1.35693533246004e-07 3.01371252595929e-08 3.86635439656068e-08
"121" 12025 3.20677141226797e-08 1.91919224344617e-08 2.83517708278634e-08 3.19660298907329e-07 4.69440055516487e-07 1.35685446511564e-07 3.0224128992498e-08 3.88161068402551e-08
"122" 12026 3.20338087965167e-08 1.92239432349545e-08 2.85363913818938e-08 3.18130820046998e-07 4.69203157166507e-07 1.35394420054513e-07 3.03145127721812e-08 3.89880785847204e-08
"123" 12027 3.19999034703536e-08 1.92559640354473e-08 2.87210119359242e-08 3.16601341186667e-07 4.68966258816526e-07 1.35103393597463e-07 3.04048965518644e-08 3.91600503291856e-08
"124" 12028 3.19659981441905e-08 1.92879848359401e-08 2.89056324899545e-08 3.15071862326335e-07 4.68729360466546e-07 1.34812367140412e-07 3.04952803315475e-08 3.93320220736509e-08
"125" 12029 3.19320928180274e-08 1.93200056364329e-08 2.90902530439849e-08 3.13542383466004e-07 4.68492462116565e-07 1.34521340683362e-07 3.05856641112307e-08 3.95039938181162e-08
"126" 12030 3.18981874918643e-08 1.93520264369257e-08 2.92748735980153e-08 3.12012904605673e-07 4.68255563766585e-07 1.34230314226311e-07 3.06760478909139e-08 3.96759655625814e-08
"127" 12031 3.18642821657013e-08 1.93840472374186e-08 2.94594941520457e-08 3.10483425745341e-07 4.68018665416604e-07 1.3393928776926e-07 3.0766431670597e-08 3.98479373070467e-08
"128" 12032 3.18303768395382e-08 1.94160680379114e-08 2.9644114706076e-08 3.0895394688501e-07 4.67781767066624e-07 1.3364826131221e-07 3.08568154502802e-08 4.0019909051512e-08
"129" 12033 3.17964715133751e-08 1.94480888384042e-08 2.98287352601064e-08 3.07424468024679e-07 4.67544868716643e-07 1.33357234855159e-07 3.09471992299633e-08 4.01918807959772e-08
"130" 12034 3.1762566187212e-08 1.9480109638897e-08 3.00133558141368e-08 3.05894989164347e-07 4.67307970366662e-07 1.33066208398109e-07 3.10375830096465e-08 4.03638525404425e-08
"131" 12035 3.17286608610489e-08 1.95121304393898e-08 3.01979763681672e-08 3.04365510304016e-07 4.67071072016682e-07 1.32775181941058e-07 3.11279667893297e-08 4.05358242849078e-08
"132" 12036 3.16947555348859e-08 1.95441512398826e-08 3.03825969221975e-08 3.02836031443685e-07 4.66834173666701e-07 1.32484155484008e-07 3.12183505690128e-08 4.0707796029373e-08
"133" 12037 3.16608502087228e-08 1.95761720403754e-08 3.05672174762279e-08 3.01306552583354e-07 4.66597275316721e-07 1.32193129026957e-07 3.1308734348696e-08 4.08797677738383e-08
"134" 12038 3.16203282802988e-08 1.95195316394635e-08 3.05486464521443e-08 3.01339231181336e-07 4.67905219053879e-07 1.32214622064679e-07 3.13081799830576e-08 4.09366648615884e-08
"135" 12039 3.15818239723683e-08 1.94685419680503e-08 3.05486464521443e-08 2.99287406905802e-07 4.67845618994442e-07 1.31915206154347e-07 3.13486166470901e-08 4.09411601783746e-08
"136" 12040 3.15433196644378e-08 1.94175522966371e-08 3.05486464521443e-08 2.97235582630268e-07 4.67786018935005e-07 1.31615790244015e-07 3.13890533111225e-08 4.09456554951609e-08
"137" 12041 3.15433196644378e-08 1.93806391484749e-08 3.04633357955164e-08 2.96679479870717e-07 4.66682504211453e-07 1.31177853012839e-07 3.13936730247761e-08 4.09501508119472e-08
"138" 12042 3.15168631412012e-08 1.9285729989383e-08 3.03979928926183e-08 2.97040229275945e-07 4.65542767308246e-07 1.30696916329018e-07 3.13936730247761e-08 4.09397227676057e-08
"139" 12043 3.14904066179646e-08 1.91908208302911e-08 3.03326499897202e-08 2.97400978681173e-07 4.64403030405039e-07 1.30215979645197e-07 3.13936730247761e-08 4.09292947232642e-08
"140" 12044 3.14598046500284e-08 1.90901495057311e-08 3.02446755216346e-08 2.97467180128387e-07 4.63075456002962e-07 1.29750558988013e-07 3.17487870038012e-08 4.09338423499018e-08
"141" 12045 3.14292026820923e-08 1.89894781811712e-08 3.0156701053549e-08 2.975333815756e-07 4.61747881600886e-07 1.29285138330828e-07 3.21039009828263e-08 4.09383899765393e-08
"142" 12046 3.13986007141562e-08 1.88888068566113e-08 3.00687265854634e-08 2.97599583022813e-07 4.60420307198809e-07 1.28819717673643e-07 3.24590149618514e-08 4.09429376031769e-08
"143" 12047 3.13679987462201e-08 1.87881355320514e-08 2.99807521173778e-08 2.97665784470027e-07 4.59092732796733e-07 1.28354297016459e-07 3.28141289408765e-08 4.09474852298144e-08
"144" 12048 3.13373967782839e-08 1.86874642074914e-08 2.98927776492923e-08 2.9773198591724e-07 4.57765158394656e-07 1.27888876359274e-07 3.31692429199016e-08 4.0952032856452e-08
"145" 12049 3.13067948103478e-08 1.85867928829315e-08 2.98048031812067e-08 2.97798187364453e-07 4.56437583992579e-07 1.27423455702089e-07 3.35243568989267e-08 4.09565804830895e-08
"146" 12050 3.12761928424117e-08 1.84861215583716e-08 2.97168287131211e-08 2.97864388811667e-07 4.55110009590503e-07 1.26958035044905e-07 3.38794708779518e-08 4.09611281097271e-08
"147" 12051 3.12455908744755e-08 1.83854502338117e-08 2.96288542450355e-08 2.9793059025888e-07 4.53782435188426e-07 1.2649261438772e-07 3.42345848569769e-08 4.09656757363646e-08
"148" 12052 3.12149889065394e-08 1.82847789092517e-08 2.95408797769499e-08 2.97996791706093e-07 4.5245486078635e-07 1.26027193730535e-07 3.4589698836002e-08 4.09702233630022e-08
"149" 12053 3.11843869386033e-08 1.81841075846918e-08 2.94529053088644e-08 2.98062993153307e-07 4.51127286384273e-07 1.25561773073351e-07 3.49448128150271e-08 4.09747709896397e-08
"150" 12054 3.11537849706672e-08 1.80834362601319e-08 2.93649308407788e-08 2.9812919460052e-07 4.49799711982197e-07 1.25096352416166e-07 3.52999267940522e-08 4.09793186162773e-08
"151" 12055 3.1123183002731e-08 1.7982764935572e-08 2.92769563726932e-08 2.98195396047733e-07 4.4847213758012e-07 1.24630931758981e-07 3.56550407730773e-08 4.09838662429148e-08
"152" 12056 3.10925810347949e-08 1.7882093611012e-08 2.91889819046076e-08 2.98261597494947e-07 4.47144563178043e-07 1.24165511101796e-07 3.60101547521024e-08 4.09884138695523e-08
"153" 12057 3.10619790668588e-08 1.77814222864521e-08 2.91010074365221e-08 2.9832779894216e-07 4.45816988775967e-07 1.23700090444612e-07 3.63652687311275e-08 4.09929614961899e-08
"154" 12058 3.10313770989227e-08 1.76807509618922e-08 2.90130329684365e-08 2.98394000389373e-07 4.4448941437389e-07 1.23234669787427e-07 3.67203827101526e-08 4.09975091228274e-08
"155" 12059 3.10170460702609e-08 1.75840988756344e-08 2.8929030896247e-08 2.98358584666211e-07 4.43635958007683e-07 1.22797660723069e-07 3.67203827101526e-08 4.09845546192429e-08
"156" 12060 3.10027150415991e-08 1.74874467893767e-08 2.88450288240575e-08 2.98323168943049e-07 4.42782501641476e-07 1.22360651658711e-07 3.67203827101526e-08 4.09716001156583e-08
"157" 12061 3.09883840129373e-08 1.73991912835067e-08 2.88986888567612e-08 3.00092395613724e-07 4.42442723735205e-07 1.219183496689e-07 3.72567415315313e-08 4.1927533295596e-08
"158" 12062 3.09740529842755e-08 1.73109357776368e-08 2.89523488894648e-08 3.01861622284399e-07 4.42102945828935e-07 1.21476047679088e-07 3.779310035291e-08 4.28834664755338e-08
"159" 12063 3.09597219556137e-08 1.72226802717668e-08 2.90060089221685e-08 3.03630848955074e-07 4.41763167922665e-07 1.21033745689277e-07 3.83294591742887e-08 4.38393996554715e-08
"160" 12064 3.09453909269519e-08 1.71344247658969e-08 2.90596689548721e-08 3.05400075625749e-07 4.41423390016394e-07 1.20591443699465e-07 3.88658179956673e-08 4.47953328354092e-08
"161" 12065 3.09310598982901e-08 1.70461692600269e-08 2.91133289875758e-08 3.07169302296424e-07 4.41083612110124e-07 1.20149141709654e-07 3.9402176817046e-08 4.5751266015347e-08
"162" 12066 3.09167288696283e-08 1.6957913754157e-08 2.91669890202794e-08 3.08938528967099e-07 4.40743834203853e-07 1.19706839719842e-07 3.99385356384247e-08 4.67071991952847e-08
"163" 12067 3.09023978409665e-08 1.6869658248287e-08 2.9220649052983e-08 3.10707755637774e-07 4.40404056297583e-07 1.19264537730031e-07 4.04748944598034e-08 4.76631323752224e-08
"164" 12068 3.08880668123048e-08 1.67814027424171e-08 2.92743090856867e-08 3.12476982308449e-07 4.40064278391312e-07 1.18822235740219e-07 4.1011253281182e-08 4.86190655551601e-08
"165" 12069 3.08790115463141e-08 1.67733112565725e-08 2.93459418596514e-08 3.13535766691671e-07 4.40800632294766e-07 1.18823622639566e-07 4.15830056228999e-08 4.95330250084756e-08
"166" 12070 3.08931546613824e-08 1.67856156392932e-08 2.92650909675391e-08 3.11536908133257e-07 4.39584976645676e-07 1.18862257333575e-07 4.21363776627848e-08 5.04889026091963e-08
"167" 12071 3.09072977764507e-08 1.67979200220139e-08 2.91842400754269e-08 3.09538049574843e-07 4.38369320996587e-07 1.18900892027584e-07 4.26897497026698e-08 5.14447802099171e-08
"168" 12072 3.0921440891519e-08 1.68102244047347e-08 2.91033891833147e-08 3.07539191016429e-07 4.37153665347498e-07 1.18939526721594e-07 4.32431217425547e-08 5.24006578106378e-08
"169" 12073 3.09355840065873e-08 1.68225287874554e-08 2.90225382912025e-08 3.05540332458015e-07 4.35938009698409e-07 1.18978161415603e-07 4.37964937824396e-08 5.33565354113586e-08
"170" 12074 3.09497271216556e-08 1.68348331701761e-08 2.89416873990903e-08 3.03541473899601e-07 4.34722354049319e-07 1.19016796109612e-07 4.43498658223246e-08 5.43124130120793e-08
"171" 12075 3.09621634557541e-08 1.67921686915236e-08 2.90049005017311e-08 3.0551617988843e-07 4.35508161161072e-07 1.18701561453803e-07 4.49032378622095e-08 5.52758209500437e-08
"172" 12076 3.09745997898527e-08 1.67495042128712e-08 2.9068113604372e-08 3.07490885877258e-07 4.36293968272825e-07 1.18386326797993e-07 4.54566099020944e-08 5.62392288880082e-08
"173" 12077 3.09870361239512e-08 1.67068397342187e-08 2.91313267070128e-08 3.09465591866087e-07 4.37079775384578e-07 1.18071092142184e-07 4.60099819419793e-08 5.72026368259726e-08
"174" 12078 3.09994724580497e-08 1.66641752555663e-08 2.91945398096536e-08 3.11440297854915e-07 4.37865582496331e-07 1.17755857486375e-07 4.65633539818643e-08 5.8166044763937e-08
"175" 12079 3.10119087921483e-08 1.66215107769138e-08 2.92577529122944e-08 3.13415003843744e-07 4.38651389608084e-07 1.17440622830565e-07 4.71167260217492e-08 5.91294527019014e-08
"176" 12080 3.10243451262468e-08 1.65788462982613e-08 2.93209660149352e-08 3.15389709832572e-07 4.39437196719837e-07 1.17125388174756e-07 4.76700980616341e-08 6.00928606398659e-08
"177" 12081 3.10367814603453e-08 1.65361818196089e-08 2.93841791175761e-08 3.17364415821401e-07 4.4022300383159e-07 1.16810153518947e-07 4.82234701015191e-08 6.10562685778303e-08
"178" 12082 3.10755966077995e-08 1.65237768358966e-08 2.93844964403241e-08 3.19475755014096e-07 4.40340537778458e-07 1.16814207532421e-07 4.82358636063718e-08 6.1113592492652e-08
"179" 12083 3.10759074473233e-08 1.64750158838684e-08 2.93341286200302e-08 3.19521191848258e-07 4.40302832472422e-07 1.16857270973602e-07 4.82117566191822e-08 6.12079451046782e-08
"180" 12084 3.10681054252344e-08 1.63620564290543e-08 2.91691357279865e-08 3.18375286251442e-07 4.39992998514569e-07 1.16240374680713e-07 4.81863578717434e-08 6.12902753320401e-08
"181" 12085 3.10603034031456e-08 1.62490969742402e-08 2.90041428359428e-08 3.17229380654627e-07 4.39683164556717e-07 1.15623478387824e-07 4.81609591243045e-08 6.1372605559402e-08
"182" 12086 3.10525013810568e-08 1.61361375194261e-08 2.88391499438991e-08 3.16083475057811e-07 4.39373330598864e-07 1.15006582094935e-07 4.81355603768657e-08 6.14549357867639e-08
"183" 12087 3.1044699358968e-08 1.60231780646119e-08 2.86741570518554e-08 3.14937569460996e-07 4.39063496641012e-07 1.14389685802046e-07 4.81101616294269e-08 6.15372660141258e-08
"184" 12088 3.10368973368792e-08 1.59102186097978e-08 2.85091641598117e-08 3.13791663864181e-07 4.38753662683159e-07 1.13772789509157e-07 4.8084762881988e-08 6.16195962414877e-08
"185" 12089 3.10290953147904e-08 1.57972591549837e-08 2.83441712677679e-08 3.12645758267365e-07 4.38443828725307e-07 1.13155893216268e-07 4.80593641345492e-08 6.17019264688496e-08
"186" 12090 3.10212932927016e-08 1.56842997001696e-08 2.81791783757242e-08 3.1149985267055e-07 4.38133994767454e-07 1.12538996923379e-07 4.80339653871104e-08 6.17842566962115e-08
"187" 12091 3.10134912706128e-08 1.55713402453555e-08 2.80141854836805e-08 3.10353947073734e-07 4.37824160809602e-07 1.1192210063049e-07 4.80085666396715e-08 6.18665869235734e-08
"188" 12092 3.1005689248524e-08 1.54583807905413e-08 2.78491925916368e-08 3.09208041476919e-07 4.37514326851749e-07 1.11305204337601e-07 4.79831678922327e-08 6.19489171509353e-08
"189" 12093 3.10182908881913e-08 1.53507377573182e-08 2.77026825784689e-08 3.07994918742543e-07 4.37084041201883e-07 1.10316759658127e-07 4.79634958301505e-08 6.19314444450046e-08
"190" 12094 3.10308925278587e-08 1.52430947240951e-08 2.75561725653009e-08 3.06781796008168e-07 4.36653755552017e-07 1.09328314978654e-07 4.79438237680683e-08 6.19139717390738e-08
"191" 12095 3.10434941675261e-08 1.51354516908719e-08 2.7409662552133e-08 3.05568673273792e-07 4.36223469902152e-07 1.0833987029918e-07 4.79241517059861e-08 6.1896499033143e-08
"192" 12096 3.10560958071935e-08 1.50278086576488e-08 2.7263152538965e-08 3.04355550539417e-07 4.35793184252286e-07 1.07351425619706e-07 4.79044796439039e-08 6.18790263272123e-08
"193" 12097 3.10686974468609e-08 1.49201656244256e-08 2.71166425257971e-08 3.03142427805042e-07 4.3536289860242e-07 1.06362980940233e-07 4.78848075818217e-08 6.18615536212815e-08
"194" 12098 3.10812990865283e-08 1.48125225912025e-08 2.69701325126292e-08 3.01929305070666e-07 4.34932612952554e-07 1.05374536260759e-07 4.78651355197395e-08 6.18440809153507e-08
"195" 12099 3.10939007261957e-08 1.48243520166817e-08 2.69987667442647e-08 3.01940909109737e-07 4.34788607839688e-07 1.05383444477452e-07 4.78502662002832e-08 6.18461020827452e-08
"196" 12100 2.98937848496618e-08 1.4714257392135e-08 2.68228178080935e-08 3.00908469258712e-07 4.34436856106328e-07 1.05011896090867e-07 4.77227719503981e-08 6.18406517614787e-08
"197" 12101 2.86936689731279e-08 1.46041627675884e-08 2.66468688719224e-08 2.99876029407686e-07 4.34085104372967e-07 1.04640347704283e-07 4.7595277700513e-08 6.18352014402121e-08
"198" 12102 2.74754326788057e-08 1.44948481948265e-08 2.64284440201248e-08 2.99908606227927e-07 4.34046076472511e-07 1.04287342532746e-07 4.7595277700513e-08 6.19010008886607e-08
"199" 12103 2.62571963844836e-08 1.43855336220646e-08 2.62100191683273e-08 2.99941183048169e-07 4.34007048572055e-07 1.03934337361209e-07 4.7595277700513e-08 6.19668003371093e-08
"200" 12104 2.50389600901614e-08 1.42762190493027e-08 2.59915943165297e-08 2.99973759868411e-07 4.33968020671599e-07 1.03581332189672e-07 4.7595277700513e-08 6.20325997855578e-08
"201" 12105 2.38207237958392e-08 1.41669044765408e-08 2.57731694647322e-08 3.00006336688652e-07 4.33928992771143e-07 1.03228327018134e-07 4.7595277700513e-08 6.20983992340064e-08
"202" 12106 2.2602487501517e-08 1.40575899037789e-08 2.55547446129346e-08 3.00038913508894e-07 4.33889964870687e-07 1.02875321846597e-07 4.7595277700513e-08 6.2164198682455e-08
"203" 12107 2.13842512071948e-08 1.3948275331017e-08 2.53363197611371e-08 3.00071490329135e-07 4.33850936970231e-07 1.0252231667506e-07 4.7595277700513e-08 6.22299981309036e-08
"204" 12108 2.01660149128727e-08 1.38389607582551e-08 2.51178949093395e-08 3.00104067149377e-07 4.33811909069774e-07 1.02169311503523e-07 4.7595277700513e-08 6.22957975793521e-08
"205" 12109 1.89477786185505e-08 1.37296461854932e-08 2.4899470057542e-08 3.00136643969618e-07 4.33772881169318e-07 1.01816306331986e-07 4.7595277700513e-08 6.23615970278007e-08
"206" 12110 1.77295423242283e-08 1.36203316127313e-08 2.46810452057445e-08 3.0016922078986e-07 4.33733853268862e-07 1.01463301160449e-07 4.7595277700513e-08 6.24273964762493e-08
"207" 12111 1.65113060299061e-08 1.35110170399694e-08 2.44626203539469e-08 3.00201797610102e-07 4.33694825368406e-07 1.01110295988912e-07 4.7595277700513e-08 6.24931959246978e-08
"208" 12112 1.5293069735584e-08 1.34017024672075e-08 2.42441955021494e-08 3.00234374430343e-07 4.3365579746795e-07 1.00757290817375e-07 4.7595277700513e-08 6.25589953731464e-08
"209" 12113 1.40748334412618e-08 1.32923878944456e-08 2.40257706503518e-08 3.00266951250585e-07 4.33616769567494e-07 1.00404285645838e-07 4.7595277700513e-08 6.2624794821595e-08
"210" 12114 1.28918079824501e-08 1.32000255101799e-08 2.38099919809704e-08 2.99284587913263e-07 4.33616769567494e-07 1.00074312467403e-07 4.75603308399172e-08 6.27640482916326e-08
"211" 12115 1.17579061809852e-08 1.32230795895407e-08 2.36155601659234e-08 2.98815876053897e-07 4.36680198847922e-07 9.98671939203694e-08 4.74682301103713e-08 6.27565996885315e-08
"212" 12116 1.06240043795203e-08 1.32461336689015e-08 2.34211283508765e-08 2.98347164194531e-07 4.3974362812835e-07 9.96600753733355e-08 4.73761293808254e-08 6.27491510854305e-08
"213" 12117 1.07136923449297e-08 1.33887002553068e-08 2.34504199970032e-08 2.98784675531154e-07 4.42588250585163e-07 9.72139513562475e-08 4.73354737858555e-08 6.27341721450857e-08
"214" 12118 1.0803380310339e-08 1.35312668417121e-08 2.347971164313e-08 2.99222186867776e-07 4.45432873041975e-07 9.47678273391595e-08 4.72948181908856e-08 6.2719193204741e-08
"215" 12119 1.06708702373345e-08 1.36209710151823e-08 2.34898629958897e-08 2.99594070961046e-07 4.48590131425164e-07 9.49203937884624e-08 4.72275044710452e-08 6.2584464475781e-08
"216" 12120 1.05383601643299e-08 1.37106751886525e-08 2.35000143486494e-08 2.99965955054317e-07 4.51747389808354e-07 9.50729602377653e-08 4.71601907512047e-08 6.2449735746821e-08
"217" 12121 1.04058500913254e-08 1.38003793621227e-08 2.35101657014092e-08 3.00337839147587e-07 4.54904648191543e-07 9.52255266870682e-08 4.70928770313643e-08 6.23150070178611e-08
"218" 12122 1.02733400183208e-08 1.38900835355929e-08 2.35203170541689e-08 3.00709723240857e-07 4.58061906574732e-07 9.5378093136371e-08 4.70255633115239e-08 6.21802782889011e-08
"219" 12123 1.01408299453163e-08 1.39797877090631e-08 2.35304684069286e-08 3.01081607334128e-07 4.61219164957922e-07 9.55306595856739e-08 4.69582495916834e-08 6.20455495599411e-08
"220" 12124 1.00083198723117e-08 1.40694918825334e-08 2.35406197596884e-08 3.01453491427398e-07 4.64376423341111e-07 9.56832260349768e-08 4.6890935871843e-08 6.19108208309811e-08
"221" 12125 9.87580979930717e-09 1.41591960560036e-08 2.35507711124481e-08 3.01825375520668e-07 4.675336817243e-07 9.58357924842797e-08 4.68236221520025e-08 6.17760921020211e-08
"222" 12126 9.74329972630262e-09 1.42489002294738e-08 2.35609224652078e-08 3.02197259613938e-07 4.70690940107489e-07 9.59883589335826e-08 4.67563084321621e-08 6.16413633730612e-08
"223" 12127 9.61078965329807e-09 1.4338604402944e-08 2.35710738179676e-08 3.02569143707209e-07 4.73848198490679e-07 9.61409253828854e-08 4.66889947123216e-08 6.15066346441012e-08
"224" 12128 9.47827958029352e-09 1.44283085764142e-08 2.35812251707273e-08 3.02941027800479e-07 4.77005456873868e-07 9.62934918321883e-08 4.66216809924812e-08 6.13719059151412e-08
"225" 12129 9.34576950728898e-09 1.45180127498844e-08 2.3591376523487e-08 3.03312911893749e-07 4.80162715257057e-07 9.64460582814912e-08 4.65543672726407e-08 6.12371771861812e-08
"226" 12130 9.21325943428443e-09 1.46077169233546e-08 2.36015278762467e-08 3.0368479598702e-07 4.83319973640247e-07 9.65986247307941e-08 4.64870535528003e-08 6.11024484572212e-08
"227" 12131 9.08074936127988e-09 1.46974210968248e-08 2.36116792290065e-08 3.0405668008029e-07 4.86477232023436e-07 9.6751191180097e-08 4.64197398329598e-08 6.09677197282612e-08
"228" 12132 8.94823928827533e-09 1.47871252702951e-08 2.36218305817662e-08 3.0442856417356e-07 4.89634490406625e-07 9.69037576293998e-08 4.63524261131194e-08 6.08329909993013e-08
"229" 12133 8.81572921527079e-09 1.48768294437653e-08 2.36319819345259e-08 3.0480044826683e-07 4.92791748789815e-07 9.70563240787027e-08 4.62851123932789e-08 6.06982622703413e-08
"230" 12134 8.68321914226624e-09 1.49665336172355e-08 2.36421332872857e-08 3.05172332360101e-07 4.95949007173004e-07 9.72088905280056e-08 4.62177986734385e-08 6.05635335413813e-08
"231" 12135 8.55070906926169e-09 1.50562377907057e-08 2.36522846400454e-08 3.05544216453371e-07 4.99106265556193e-07 9.73614569773085e-08 4.6150484953598e-08 6.04288048124213e-08
"232" 12136 8.41819899625714e-09 1.51459419641759e-08 2.36624359928051e-08 3.05916100546641e-07 5.02263523939383e-07 9.75140234266113e-08 4.60831712337576e-08 6.02940760834613e-08
"233" 12137 8.22552770966405e-09 1.51161628439661e-08 2.36673416233134e-08 3.05797314887867e-07 5.02167387868937e-07 9.80259521431156e-08 4.61197435297299e-08 6.01742707156291e-08
"234" 12138 8.03285642307095e-09 1.50863837237563e-08 2.36722472538217e-08 3.05678529229092e-07 5.02071251798491e-07 9.85378808596197e-08 4.61563158257022e-08 6.00544653477969e-08
"235" 12139 8.000239671052e-09 1.50823168937028e-08 2.3697032492852e-08 3.05559743570317e-07 4.99592043587799e-07 9.81967056908353e-08 4.62602018415149e-08 6.00694115944846e-08
"236" 12140 8.01519237876122e-09 1.5071232889155e-08 2.37157798073512e-08 3.05636450949376e-07 4.98090822970945e-07 9.82248585430627e-08 4.63899494559187e-08 6.00693560152676e-08
"237" 12141 8.03014508647043e-09 1.50601488846072e-08 2.37345271218503e-08 3.05713158328434e-07 4.96589602354092e-07 9.82530113952901e-08 4.65196970703225e-08 6.00693004360506e-08
"238" 12142 8.04509779417965e-09 1.50490648800593e-08 2.37532744363495e-08 3.05789865707492e-07 4.95088381737239e-07 9.82811642475174e-08 4.66494446847263e-08 6.00692448568336e-08
"239" 12143 8.06005050188886e-09 1.50379808755115e-08 2.37720217508486e-08 3.0586657308655e-07 4.93587161120386e-07 9.83093170997448e-08 4.67791922991301e-08 6.00691892776167e-08
"240" 12144 8.07500320959808e-09 1.50268968709637e-08 2.37907690653478e-08 3.05943280465609e-07 4.92085940503532e-07 9.83374699519722e-08 4.69089399135339e-08 6.00691336983997e-08
"241" 12145 8.08995591730729e-09 1.50158128664159e-08 2.3809516379847e-08 3.06019987844667e-07 4.90584719886679e-07 9.83656228041996e-08 4.70386875279377e-08 6.00690781191827e-08
"242" 12146 8.1049086250165e-09 1.50047288618681e-08 2.38282636943461e-08 3.06096695223725e-07 4.89083499269826e-07 9.8393775656427e-08 4.71684351423415e-08 6.00690225399657e-08
"243" 12147 8.11986133272572e-09 1.49936448573203e-08 2.38470110088453e-08 3.06173402602784e-07 4.87582278652972e-07 9.84219285086544e-08 4.72981827567452e-08 6.00689669607487e-08
"244" 12148 8.13481404043493e-09 1.49825608527725e-08 2.38657583233444e-08 3.06250109981842e-07 4.86081058036119e-07 9.84500813608818e-08 4.7427930371149e-08 6.00689113815317e-08
"245" 12149 8.13165621616284e-09 1.49459820125181e-08 2.38597380278548e-08 3.06262553659524e-07 4.84369419615977e-07 9.79556156365732e-08 4.74183984494009e-08 6.00963591498066e-08
"246" 12150 8.12849839189075e-09 1.49094031722637e-08 2.38537177323652e-08 3.06274997337207e-07 4.82657781195834e-07 9.74611499122647e-08 4.74088665276527e-08 6.01238069180816e-08
"247" 12151 8.12534056761865e-09 1.48728243320093e-08 2.38476974368756e-08 3.06287441014889e-07 4.80946142775692e-07 9.69666841879562e-08 4.73993346059046e-08 6.01512546863565e-08
"248" 12152 8.12218274334656e-09 1.48362454917549e-08 2.3841677141386e-08 3.06299884692571e-07 4.79234504355549e-07 9.64722184636476e-08 4.73898026841564e-08 6.01787024546314e-08
"249" 12153 8.11902491907447e-09 1.47996666515005e-08 2.38356568458964e-08 3.06312328370253e-07 4.77522865935406e-07 9.59777527393391e-08 4.73802707624083e-08 6.02061502229063e-08
"250" 12154 8.12277192856235e-09 1.47931536476123e-08 2.38297246956146e-08 3.0576617977464e-07 4.76946421232398e-07 9.49187091881129e-08 4.7365401442952e-08 6.02241837999026e-08
"251" 12155 8.13290241066834e-09 1.47889407507361e-08 2.3730055972837e-08 3.05470304642873e-07 4.74690975482137e-07 9.48045494042752e-08 4.73361777485654e-08 6.02691206209368e-08
"252" 12156 8.14303289277434e-09 1.478472785386e-08 2.36303872500594e-08 3.05174429511107e-07 4.72435529731877e-07 9.46903896204374e-08 4.73069540541789e-08 6.0314057441971e-08
"253" 12157 8.15316337488033e-09 1.47805149569838e-08 2.35307185272818e-08 3.0487855437934e-07 4.70180083981617e-07 9.45762298365997e-08 4.72777303597923e-08 6.03589942630052e-08
"254" 12158 8.19244194520947e-09 1.489577451881e-08 2.34370700999938e-08 3.04589837842949e-07 4.67924387916729e-07 9.45508334482108e-08 4.72580385871539e-08 6.03659996922061e-08
"255" 12159 8.2317205155386e-09 1.50110340806362e-08 2.33434216727058e-08 3.04301121306559e-07 4.6566869185184e-07 9.45254370598219e-08 4.72383468145154e-08 6.03730051214069e-08
"256" 12160 8.27099908586774e-09 1.51262936424623e-08 2.32497732454178e-08 3.04012404770168e-07 4.63412995786952e-07 9.45000406714331e-08 4.7218655041877e-08 6.03800105506077e-08
"257" 12161 8.31027765619687e-09 1.52415532042885e-08 2.31561248181298e-08 3.03723688233777e-07 4.61157299722064e-07 9.44746442830442e-08 4.71989632692386e-08 6.03870159798086e-08
"258" 12162 8.34955622652601e-09 1.53568127661147e-08 2.30624763908418e-08 3.03434971697386e-07 4.58901603657176e-07 9.44492478946553e-08 4.71792714966001e-08 6.03940214090094e-08
"259" 12163 8.38883479685514e-09 1.54720723279409e-08 2.29688279635538e-08 3.03146255160996e-07 4.56645907592288e-07 9.44238515062664e-08 4.71595797239617e-08 6.04010268382102e-08
"260" 12164 8.42811336718428e-09 1.5587331889767e-08 2.28751795362658e-08 3.02857538624605e-07 4.54390211527399e-07 9.43984551178775e-08 4.71398879513233e-08 6.04080322674111e-08
"261" 12165 8.46739193751341e-09 1.57025914515932e-08 2.27815311089778e-08 3.02568822088214e-07 4.52134515462511e-07 9.43730587294887e-08 4.71201961786849e-08 6.04150376966119e-08
"262" 12166 8.50667050784255e-09 1.58178510134194e-08 2.26878826816898e-08 3.02280105551824e-07 4.49878819397623e-07 9.43476623410998e-08 4.71005044060464e-08 6.04220431258127e-08
"263" 12167 8.54594907817168e-09 1.59331105752456e-08 2.25942342544018e-08 3.01991389015433e-07 4.47623123332735e-07 9.43222659527109e-08 4.7080812633408e-08 6.04290485550136e-08
"264" 12168 8.58522764850082e-09 1.60483701370717e-08 2.25005858271138e-08 3.01702672479042e-07 4.45367427267847e-07 9.4296869564322e-08 4.70611208607696e-08 6.04360539842144e-08
"265" 12169 8.62450621882995e-09 1.61636296988979e-08 2.24069373998258e-08 3.01413955942652e-07 4.43111731202958e-07 9.42714731759331e-08 4.70414290881311e-08 6.04430594134152e-08
"266" 12170 8.66378478915909e-09 1.62788892607241e-08 2.23132889725378e-08 3.01125239406261e-07 4.4085603513807e-07 9.42460767875443e-08 4.70217373154927e-08 6.04500648426161e-08
"267" 12171 8.70306335948822e-09 1.63941488225503e-08 2.22196405452498e-08 3.0083652286987e-07 4.38600339073182e-07 9.42206803991554e-08 4.70020455428543e-08 6.04570702718169e-08
"268" 12172 8.74234192981736e-09 1.65094083843764e-08 2.21259921179618e-08 3.0054780633348e-07 4.36344643008294e-07 9.41952840107665e-08 4.69823537702159e-08 6.04640757010177e-08
"269" 12173 8.7057323164501e-09 1.63504889635837e-08 2.19028845686522e-08 2.99464759099249e-07 4.32703100704728e-07 9.25634611872968e-08 4.68363877040116e-08 6.06032866693011e-08
"270" 12174 8.71085265935939e-09 1.63396278309744e-08 2.18879396041776e-08 2.99551100655158e-07 4.31946391458412e-07 9.25466476110253e-08 4.68520894517124e-08 6.0739052136884e-08
"271" 12175 8.71668227700401e-09 1.63274294667341e-08 2.1930415519804e-08 2.99329123401617e-07 4.32240973381195e-07 9.20019252082047e-08 4.68265991897873e-08 6.08558780634758e-08
"272" 12176 8.72251189464864e-09 1.63152311024938e-08 2.19728914354303e-08 2.99107146148076e-07 4.32535555303979e-07 9.14572028053841e-08 4.68011089278623e-08 6.09727039900676e-08
"273" 12177 8.72834151229327e-09 1.63030327382535e-08 2.20153673510567e-08 2.98885168894535e-07 4.32830137226762e-07 9.09124804025635e-08 4.67756186659372e-08 6.10895299166594e-08
"274" 12178 8.7341711299379e-09 1.62908343740132e-08 2.20578432666831e-08 2.98663191640995e-07 4.33124719149545e-07 9.03677579997429e-08 4.67501284040122e-08 6.12063558432512e-08
"275" 12179 8.74000074758253e-09 1.62786360097729e-08 2.21003191823095e-08 2.98441214387454e-07 4.33419301072329e-07 8.98230355969223e-08 4.67246381420872e-08 6.1323181769843e-08
"276" 12180 8.74583036522716e-09 1.62664376455325e-08 2.21427950979359e-08 2.98219237133913e-07 4.33713882995112e-07 8.92783131941017e-08 4.66991478801621e-08 6.14400076964348e-08
"277" 12181 8.75165998287178e-09 1.62542392812922e-08 2.21852710135623e-08 2.97997259880372e-07 4.34008464917895e-07 8.87335907912811e-08 4.66736576182371e-08 6.15568336230266e-08
"278" 12182 8.75748960051641e-09 1.62420409170519e-08 2.22277469291887e-08 2.97775282626832e-07 4.34303046840679e-07 8.81888683884605e-08 4.66481673563121e-08 6.16736595496184e-08
"279" 12183 8.76331921816104e-09 1.62298425528116e-08 2.2270222844815e-08 2.97553305373291e-07 4.34597628763462e-07 8.76441459856399e-08 4.6622677094387e-08 6.17904854762102e-08
"280" 12184 8.76914883580567e-09 1.62176441885713e-08 2.23126987604414e-08 2.9733132811975e-07 4.34892210686245e-07 8.70994235828193e-08 4.6597186832462e-08 6.1907311402802e-08
"281" 12185 8.77497845345029e-09 1.6205445824331e-08 2.23551746760678e-08 2.97109350866209e-07 4.35186792609029e-07 8.65547011799987e-08 4.65716965705369e-08 6.20241373293938e-08
"282" 12186 8.78080807109492e-09 1.61932474600907e-08 2.23976505916942e-08 2.96887373612669e-07 4.35481374531812e-07 8.60099787771781e-08 4.65462063086119e-08 6.21409632559857e-08
"283" 12187 8.78663768873955e-09 1.61810490958504e-08 2.24401265073206e-08 2.96665396359128e-07 4.35775956454596e-07 8.54652563743575e-08 4.65207160466869e-08 6.22577891825775e-08
"284" 12188 8.79246730638418e-09 1.61688507316101e-08 2.2482602422947e-08 2.96443419105587e-07 4.36070538377379e-07 8.49205339715369e-08 4.64952257847618e-08 6.23746151091693e-08
"285" 12189 8.79829692402881e-09 1.61566523673697e-08 2.25250783385734e-08 2.96221441852046e-07 4.36365120300162e-07 8.43758115687163e-08 4.64697355228368e-08 6.24914410357611e-08
"286" 12190 8.80412654167343e-09 1.61444540031294e-08 2.25675542541997e-08 2.95999464598506e-07 4.36659702222946e-07 8.38310891658957e-08 4.64442452609117e-08 6.26082669623529e-08
"287" 12191 8.80995615931806e-09 1.61322556388891e-08 2.26100301698261e-08 2.95777487344965e-07 4.36954284145729e-07 8.32863667630751e-08 4.64187549989867e-08 6.27250928889447e-08
"288" 12192 8.81578577696269e-09 1.61200572746488e-08 2.26525060854525e-08 2.95555510091424e-07 4.37248866068512e-07 8.27416443602545e-08 4.63932647370617e-08 6.28419188155365e-08
"289" 12193 8.82161539460732e-09 1.61078589104085e-08 2.26949820010789e-08 2.95333532837883e-07 4.37543447991296e-07 8.21969219574339e-08 4.63677744751366e-08 6.29587447421283e-08
"290" 12194 8.82140487298918e-09 1.60721661404193e-08 2.26909743470997e-08 2.95017991200291e-07 4.3891063480535e-07 8.16553881075926e-08 4.63677744751366e-08 6.29438475359262e-08
"291" 12195 8.82502895654684e-09 1.60415431242068e-08 2.26849540516101e-08 2.947863797699e-07 4.39961925974449e-07 8.28992197442509e-08 4.63334358331268e-08 6.29707671267925e-08
"292" 12196 8.8125926224483e-09 1.60450874052675e-08 2.26811869596687e-08 2.92755524023696e-07 4.41042957408817e-07 8.41430513809093e-08 4.50246664728895e-08 6.12916404670691e-08
"293" 12197 8.73632861156492e-09 1.60266627532953e-08 2.26655555671637e-08 2.92585520409631e-07 4.4208215334579e-07 8.59399602039615e-08 4.50236330646901e-08 6.13499357331996e-08
"294" 12198 8.66006460068154e-09 1.60082381013232e-08 2.26499241746587e-08 2.92415516795567e-07 4.43121349282762e-07 8.77368690270137e-08 4.50225996564907e-08 6.14082309993301e-08
"295" 12199 8.58380058979817e-09 1.59898134493511e-08 2.26342927821537e-08 2.92245513181502e-07 4.44160545219734e-07 8.95337778500659e-08 4.50215662482913e-08 6.14665262654607e-08
"296" 12200 8.50753657891478e-09 1.59713887973789e-08 2.26186613896487e-08 2.92075509567437e-07 4.45199741156706e-07 9.13306866731181e-08 4.50205328400919e-08 6.15248215315912e-08
"297" 12201 8.4312725680314e-09 1.59529641454068e-08 2.26030299971437e-08 2.91905505953373e-07 4.46238937093678e-07 9.31275954961704e-08 4.50194994318925e-08 6.15831167977217e-08
"298" 12202 8.35500855714802e-09 1.59345394934347e-08 2.25873986046387e-08 2.91735502339308e-07 4.4727813303065e-07 9.49245043192226e-08 4.50184660236931e-08 6.16414120638523e-08
"299" 12203 8.27874454626465e-09 1.59161148414625e-08 2.25717672121337e-08 2.91565498725244e-07 4.48317328967623e-07 9.67214131422748e-08 4.50174326154937e-08 6.16997073299828e-08
"300" 12204 8.20248053538126e-09 1.58976901894904e-08 2.25561358196287e-08 2.91395495111179e-07 4.49356524904595e-07 9.8518321965327e-08 4.50163992072943e-08 6.17580025961133e-08
"301" 12205 8.12621652449789e-09 1.58792655375182e-08 2.25405044271236e-08 2.91225491497115e-07 4.50395720841567e-07 1.00315230788379e-07 4.50153657990949e-08 6.18162978622439e-08
"302" 12206 8.0499525136145e-09 1.58608408855461e-08 2.25248730346186e-08 2.9105548788305e-07 4.51434916778539e-07 1.02112139611431e-07 4.50143323908954e-08 6.18745931283744e-08
"303" 12207 7.97368850273113e-09 1.5842416233574e-08 2.25092416421136e-08 2.90885484268986e-07 4.52474112715511e-07 1.03909048434484e-07 4.50132989826961e-08 6.19328883945049e-08
"304" 12208 7.89742449184775e-09 1.58245487614481e-08 2.25056332115463e-08 2.90664202718705e-07 4.52933326046175e-07 1.03911150131518e-07 4.49979488611051e-08 6.20262108066396e-08
"305" 12209 7.89711365232403e-09 1.58066812893222e-08 2.23974100296564e-08 2.90578499599425e-07 4.5334666159461e-07 1.038127370783e-07 4.49979488611051e-08 6.21135743362934e-08
"306" 12210 7.89220383103289e-09 1.57043893085434e-08 2.23975334329473e-08 2.8948992546084e-07 4.51966746257305e-07 1.03684448167173e-07 4.49782947500054e-08 6.20058142386854e-08
"307" 12211 7.88729400974175e-09 1.56020973277646e-08 2.23976568362382e-08 2.88401351322255e-07 4.5058683092e-07 1.03556159256045e-07 4.49586406389056e-08 6.18980541410773e-08
"308" 12212 7.88238418845061e-09 1.54998053469858e-08 2.23977802395291e-08 2.87312777183671e-07 4.49206915582695e-07 1.03427870344918e-07 4.49389865278059e-08 6.17902940434693e-08
"309" 12213 7.87747436715947e-09 1.5397513366207e-08 2.239790364282e-08 2.86224203045086e-07 4.4782700024539e-07 1.0329958143379e-07 4.49193324167062e-08 6.16825339458612e-08
"310" 12214 7.87256454586833e-09 1.52952213854282e-08 2.23980270461109e-08 2.85135628906502e-07 4.46447084908085e-07 1.03171292522663e-07 4.48996783056065e-08 6.15747738482532e-08
"311" 12215 7.86765472457718e-09 1.51929294046494e-08 2.23981504494019e-08 2.84047054767917e-07 4.4506716957078e-07 1.03043003611535e-07 4.48800241945068e-08 6.14670137506451e-08
"312" 12216 7.86274490328604e-09 1.50906374238707e-08 2.23982738526928e-08 2.82958480629332e-07 4.43687254233475e-07 1.02914714700408e-07 4.48603700834071e-08 6.13592536530371e-08
"313" 12217 7.85814592151861e-09 1.50184112794581e-08 2.23900708698212e-08 2.81845758173003e-07 4.4279100051027e-07 1.02847008295887e-07 4.512567259937e-08 6.1179141659777e-08
"314" 12218 7.85354693975118e-09 1.49461851350455e-08 2.23818678869496e-08 2.80733035716674e-07 4.41894746787065e-07 1.02779301891366e-07 4.53909751153328e-08 6.09990296665169e-08
"315" 12219 7.84894795798375e-09 1.48739589906329e-08 2.2373664904078e-08 2.79620313260344e-07 4.40998493063859e-07 1.02711595486845e-07 4.56562776312957e-08 6.08189176732568e-08
"316" 12220 7.84434897621632e-09 1.48017328462202e-08 2.23654619212065e-08 2.78507590804015e-07 4.40102239340654e-07 1.02643889082324e-07 4.59215801472585e-08 6.06388056799966e-08
"317" 12221 7.83974999444889e-09 1.47295067018076e-08 2.23572589383349e-08 2.77394868347685e-07 4.39205985617449e-07 1.02576182677803e-07 4.61868826632214e-08 6.04586936867365e-08
"318" 12222 7.83515101268146e-09 1.4657280557395e-08 2.23490559554633e-08 2.76282145891356e-07 4.38309731894243e-07 1.02508476273282e-07 4.64521851791843e-08 6.02785816934764e-08
"319" 12223 7.83055203091403e-09 1.45850544129824e-08 2.23408529725917e-08 2.75169423435027e-07 4.37413478171038e-07 1.02440769868762e-07 4.67174876951471e-08 6.00984697002163e-08
"320" 12224 7.8259530491466e-09 1.45128282685698e-08 2.23326499897202e-08 2.74056700978697e-07 4.36517224447833e-07 1.02373063464241e-07 4.698279021111e-08 5.99183577069562e-08
"321" 12225 7.82135406737917e-09 1.44406021241572e-08 2.23244470068486e-08 2.72943978522368e-07 4.35620970724627e-07 1.0230535705972e-07 4.72480927270728e-08 5.97382457136961e-08
"322" 12226 7.81675508561174e-09 1.43683759797446e-08 2.2316244023977e-08 2.71831256066038e-07 4.34724717001422e-07 1.02237650655199e-07 4.75133952430357e-08 5.9558133720436e-08
"323" 12227 7.81215610384431e-09 1.4296149835332e-08 2.23080410411054e-08 2.70718533609709e-07 4.33828463278217e-07 1.02169944250678e-07 4.77786977589986e-08 5.93780217271759e-08
"324" 12228 7.80755712207688e-09 1.42239236909194e-08 2.22998380582338e-08 2.6960581115338e-07 4.32932209555012e-07 1.02102237846157e-07 4.80440002749614e-08 5.91979097339157e-08
"325" 12229 7.80295814030945e-09 1.41516975465068e-08 2.22916350753623e-08 2.6849308869705e-07 4.32035955831806e-07 1.02034531441636e-07 4.83093027909243e-08 5.90177977406556e-08
"326" 12230 7.79835915854202e-09 1.40794714020942e-08 2.22834320924907e-08 2.67380366240721e-07 4.31139702108601e-07 1.01966825037115e-07 4.85746053068871e-08 5.88376857473955e-08
"327" 12231 7.80158480688804e-09 1.41074069941467e-08 2.22573092554828e-08 2.67150738604822e-07 4.32027036164007e-07 1.02029615925321e-07 4.87032135667703e-08 5.87839086836112e-08
"328" 12232 7.82121420624562e-09 1.41080756099622e-08 2.22282115288132e-08 2.67587323634114e-07 4.32524223876721e-07 1.02283074534013e-07 4.85575058526159e-08 5.87151559488478e-08
"329" 12233 7.751000220432e-09 1.3984185760832e-08 2.19573294545011e-08 2.67050856801551e-07 4.31996266498148e-07 1.024737422545e-07 4.82955707111697e-08 5.81362801255186e-08
"330" 12234 7.68078623461838e-09 1.38602959117019e-08 2.1686447380189e-08 2.66514389968989e-07 4.31468309119575e-07 1.02664409974987e-07 4.80336355697236e-08 5.75574043021893e-08
"331" 12235 7.61057224880476e-09 1.37364060625717e-08 2.1415565305877e-08 2.65977923136426e-07 4.30940351741003e-07 1.02855077695473e-07 4.77717004282775e-08 5.69785284788601e-08
"332" 12236 7.54035826299115e-09 1.36125162134416e-08 2.11446832315649e-08 2.65441456303864e-07 4.3041239436243e-07 1.0304574541596e-07 4.75097652868313e-08 5.63996526555308e-08
"333" 12237 7.47014427717753e-09 1.34886263643114e-08 2.08738011572528e-08 2.64904989471301e-07 4.29884436983858e-07 1.03236413136447e-07 4.72478301453852e-08 5.58207768322016e-08
"334" 12238 7.39993029136391e-09 1.33647365151813e-08 2.06029190829408e-08 2.64368522638739e-07 4.29356479605285e-07 1.03427080856933e-07 4.6985895003939e-08 5.52419010088723e-08
"335" 12239 7.3297163055503e-09 1.32408466660511e-08 2.03320370086287e-08 2.63832055806177e-07 4.28828522226712e-07 1.0361774857742e-07 4.67239598624929e-08 5.46630251855431e-08
"336" 12240 7.25950231973668e-09 1.3116956816921e-08 2.00611549343166e-08 2.63295588973614e-07 4.2830056484814e-07 1.03808416297907e-07 4.64620247210468e-08 5.40841493622138e-08
"337" 12241 7.18928833392306e-09 1.29930669677908e-08 1.97902728600045e-08 2.62759122141052e-07 4.27772607469567e-07 1.03999084018393e-07 4.62000895796006e-08 5.35052735388846e-08
"338" 12242 7.11907434810944e-09 1.28691771186607e-08 1.95193907856925e-08 2.62222655308489e-07 4.27244650090994e-07 1.0418975173888e-07 4.59381544381545e-08 5.29263977155553e-08
"339" 12243 7.04886036229583e-09 1.27452872695305e-08 1.92485087113804e-08 2.61686188475927e-07 4.26716692712422e-07 1.04380419459367e-07 4.56762192967084e-08 5.23475218922261e-08
"340" 12244 6.97864637648221e-09 1.26213974204004e-08 1.89776266370683e-08 2.61149721643364e-07 4.26188735333849e-07 1.04571087179853e-07 4.54142841552622e-08 5.17686460688968e-08
"341" 12245 6.90843239066859e-09 1.24975075712702e-08 1.87067445627563e-08 2.60613254810802e-07 4.25660777955277e-07 1.0476175490034e-07 4.51523490138161e-08 5.11897702455676e-08
"342" 12246 6.83821840485498e-09 1.237361772214e-08 1.84358624884442e-08 2.60076787978239e-07 4.25132820576704e-07 1.04952422620826e-07 4.48904138723699e-08 5.06108944222383e-08
"343" 12247 6.76800441904136e-09 1.22497278730099e-08 1.81649804141321e-08 2.59540321145677e-07 4.24604863198131e-07 1.05143090341313e-07 4.46284787309238e-08 5.00320185989091e-08
"344" 12248 6.69779043322774e-09 1.21258380238797e-08 1.789409833982e-08 2.59003854313114e-07 4.24076905819559e-07 1.053337580618e-07 4.43665435894777e-08 4.94531427755798e-08
"345" 12249 6.62757644741412e-09 1.20019481747496e-08 1.7623216265508e-08 2.58467387480552e-07 4.23548948440986e-07 1.05524425782286e-07 4.41046084480315e-08 4.88742669522506e-08
"346" 12250 6.55736246160051e-09 1.18780583256194e-08 1.73523341911959e-08 2.57930920647989e-07 4.23020991062413e-07 1.05715093502773e-07 4.38426733065854e-08 4.82953911289213e-08
"347" 12251 6.48714847578689e-09 1.17541684764893e-08 1.70814521168838e-08 2.57394453815427e-07 4.22493033683841e-07 1.0590576122326e-07 4.35807381651393e-08 4.77165153055921e-08
"348" 12252 6.41693448997327e-09 1.16302786273591e-08 1.68105700425718e-08 2.56857986982865e-07 4.21965076305268e-07 1.06096428943746e-07 4.33188030236931e-08 4.71376394822628e-08
"349" 12253 6.43656388933084e-09 1.16375132563031e-08 1.67393302474749e-08 2.56918193712241e-07 4.18962231185557e-07 1.06270245742813e-07 4.32574025373292e-08 4.71311981934933e-08
"350" 12254 6.43947869815316e-09 1.16433868577403e-08 1.67181773125975e-08 2.57244570949196e-07 4.17815928485699e-07 1.06148209918225e-07 4.34172815974415e-08 4.71306961710104e-08
"351" 12255 6.44239350697547e-09 1.16492604591775e-08 1.66970243777201e-08 2.57570948186151e-07 4.16669625785841e-07 1.06026174093637e-07 4.35771606575538e-08 4.71301941485275e-08
"352" 12256 6.44530831579779e-09 1.16551340606148e-08 1.66758714428427e-08 2.57897325423106e-07 4.15523323085984e-07 1.05904138269049e-07 4.37370397176661e-08 4.71296921260446e-08
"353" 12257 6.4482231246201e-09 1.1661007662052e-08 1.66547185079653e-08 2.58223702660061e-07 4.14377020386126e-07 1.05782102444461e-07 4.38969187777784e-08 4.71291901035617e-08
"354" 12258 6.45113793344241e-09 1.16668812634892e-08 1.6633565573088e-08 2.58550079897017e-07 4.13230717686268e-07 1.05660066619872e-07 4.40567978378907e-08 4.71286880810788e-08
"355" 12259 6.45405274226473e-09 1.16727548649265e-08 1.66124126382106e-08 2.58876457133972e-07 4.12084414986411e-07 1.05538030795284e-07 4.4216676898003e-08 4.71281860585958e-08
"356" 12260 6.45696755108704e-09 1.16786284663637e-08 1.65912597033332e-08 2.59202834370927e-07 4.10938112286553e-07 1.05415994970696e-07 4.43765559581154e-08 4.71276840361129e-08
"357" 12261 6.45988235990936e-09 1.16845020678009e-08 1.65701067684558e-08 2.59529211607882e-07 4.09791809586695e-07 1.05293959146108e-07 4.45364350182277e-08 4.712718201363e-08
"358" 12262 6.46279716873167e-09 1.16903756692382e-08 1.65489538335784e-08 2.59855588844838e-07 4.08645506886837e-07 1.0517192332152e-07 4.469631407834e-08 4.71266799911471e-08
"359" 12263 6.46571197755398e-09 1.16962492706754e-08 1.6527800898701e-08 2.60181966081793e-07 4.0749920418698e-07 1.05049887496932e-07 4.48561931384523e-08 4.71261779686642e-08
"360" 12264 6.4686267863763e-09 1.17021228721126e-08 1.65066479638236e-08 2.60508343318748e-07 4.06352901487122e-07 1.04927851672344e-07 4.50160721985646e-08 4.71256759461813e-08
"361" 12265 6.47154159519861e-09 1.17079964735499e-08 1.64854950289462e-08 2.60834720555703e-07 4.05206598787264e-07 1.04805815847755e-07 4.51759512586769e-08 4.71251739236984e-08
"362" 12266 6.45004999510942e-09 1.17198258990291e-08 1.64742995273713e-08 2.61246040975912e-07 4.0524120330253e-07 1.04805815847755e-07 4.51421507908967e-08 4.66315554591202e-08
"363" 12267 6.4611002735689e-09 1.17694837563001e-08 1.66229870879677e-08 2.6270199767419e-07 4.0632956113011e-07 1.04980394098192e-07 4.49371829702809e-08 4.62999467541259e-08
"364" 12268 6.47215055202839e-09 1.18191416135711e-08 1.67716746485641e-08 2.64157954372468e-07 4.07417918957691e-07 1.05154972348628e-07 4.47322151496651e-08 4.59683380491317e-08
"365" 12269 6.48320083048787e-09 1.18687994708422e-08 1.69203622091604e-08 2.65613911070746e-07 4.08506276785271e-07 1.05329550599065e-07 4.45272473290492e-08 4.56367293441374e-08
"366" 12270 6.49425110894735e-09 1.19184573281132e-08 1.70690497697568e-08 2.67069867769024e-07 4.09594634612851e-07 1.05504128849501e-07 4.43222795084334e-08 4.53051206391432e-08
"367" 12271 6.50530138740683e-09 1.19681151853842e-08 1.72177373303531e-08 2.68525824467302e-07 4.10682992440432e-07 1.05678707099937e-07 4.41173116878175e-08 4.49735119341489e-08
"368" 12272 6.51635166586631e-09 1.20177730426553e-08 1.73664248909495e-08 2.69981781165581e-07 4.11771350268012e-07 1.05853285350374e-07 4.39123438672017e-08 4.46419032291547e-08
"369" 12273 6.54023671363596e-09 1.20177730426553e-08 1.73913801758514e-08 2.70748445586062e-07 4.12731283858258e-07 1.05965358096592e-07 4.39490291477901e-08 4.47710345153914e-08
"370" 12274 6.56412176140562e-09 1.20177730426553e-08 1.74163354607533e-08 2.71515110006543e-07 4.13691217448504e-07 1.06077430842809e-07 4.39857144283786e-08 4.49001658016281e-08
"371" 12275 6.58800680917527e-09 1.20177730426553e-08 1.74412907456552e-08 2.72281774427024e-07 4.1465115103875e-07 1.06189503589027e-07 4.4022399708967e-08 4.50292970878649e-08
"372" 12276 6.57659058933579e-09 1.19690012556494e-08 1.73064687426353e-08 2.71254629338735e-07 4.15147240477716e-07 1.06139020164184e-07 4.40289570629944e-08 4.49993980557581e-08
"373" 12277 6.56517436949631e-09 1.19202294686435e-08 1.71716467396154e-08 2.70227484250446e-07 4.15643329916682e-07 1.06088536739341e-07 4.40355144170218e-08 4.49694990236513e-08
"374" 12278 6.55375814965684e-09 1.18714576816377e-08 1.70368247365955e-08 2.69200339162158e-07 4.16139419355649e-07 1.06038053314498e-07 4.40420717710492e-08 4.49395999915445e-08
"375" 12279 6.54234192981736e-09 1.18226858946318e-08 1.69020027335756e-08 2.68173194073869e-07 4.16635508794615e-07 1.05987569889654e-07 4.40486291250766e-08 4.49097009594378e-08
"376" 12280 6.53092570997788e-09 1.17739141076259e-08 1.67671807305556e-08 2.6714604898558e-07 4.17131598233581e-07 1.05937086464811e-07 4.4055186479104e-08 4.4879801927331e-08
"377" 12281 6.5195094901384e-09 1.172514232062e-08 1.66323587275357e-08 2.66118903897292e-07 4.17627687672547e-07 1.05886603039968e-07 4.40617438331315e-08 4.48499028952242e-08
"378" 12282 6.50809327029893e-09 1.16763705336142e-08 1.64975367245158e-08 2.65091758809003e-07 4.18123777111514e-07 1.05836119615125e-07 4.40683011871589e-08 4.48200038631174e-08
"379" 12283 6.49667705045945e-09 1.16275987466083e-08 1.63627147214959e-08 2.64064613720714e-07 4.1861986655048e-07 1.05785636190282e-07 4.40748585411862e-08 4.47901048310106e-08
"380" 12284 6.48526083061997e-09 1.15788269596024e-08 1.6227892718476e-08 2.63037468632425e-07 4.19115955989446e-07 1.05735152765438e-07 4.40814158952136e-08 4.47602057989039e-08
"381" 12285 6.4738446107805e-09 1.15300551725965e-08 1.60930707154561e-08 2.62010323544137e-07 4.19612045428413e-07 1.05684669340595e-07 4.40879732492411e-08 4.47303067667971e-08
"382" 12286 6.46242839094102e-09 1.14812833855907e-08 1.59582487124361e-08 2.60983178455848e-07 4.20108134867379e-07 1.05634185915752e-07 4.40945306032685e-08 4.47004077346903e-08
"383" 12287 6.45101217110154e-09 1.14325115985848e-08 1.58234267094162e-08 2.59956033367559e-07 4.20604224306345e-07 1.05583702490909e-07 4.41010879572959e-08 4.46705087025835e-08
"384" 12288 6.43959595126207e-09 1.13837398115789e-08 1.56886047063963e-08 2.58928888279271e-07 4.21100313745312e-07 1.05533219066066e-07 4.41076453113233e-08 4.46406096704767e-08
"385" 12289 6.48297758665208e-09 1.14203186518333e-08 1.57148333176536e-08 2.59047573337054e-07 4.19985927492678e-07 1.05026091154991e-07 4.41690457976872e-08 4.4677396434619e-08
"386" 12290 6.48942888334413e-09 1.14772641472885e-08 1.56990432637745e-08 2.60139897216074e-07 4.19920217238521e-07 1.05361135863428e-07 4.41699500298617e-08 4.4619964630729e-08
"387" 12291 6.49549163063154e-09 1.15034221813217e-08 1.56355844591423e-08 2.61219361081173e-07 4.2042183396484e-07 1.06018988549584e-07 4.41255430514478e-08 4.46299233462446e-08
"388" 12292 6.50155437791895e-09 1.1529580215355e-08 1.55721256545101e-08 2.62298824946273e-07 4.20923450691159e-07 1.0667684123574e-07 4.40811360730338e-08 4.46398820617602e-08
"389" 12293 6.50761712520637e-09 1.15557382493883e-08 1.55086668498779e-08 2.63378288811372e-07 4.21425067417478e-07 1.07334693921896e-07 4.40367290946199e-08 4.46498407772758e-08
"390" 12294 6.51367987249378e-09 1.15818962834215e-08 1.54452080452458e-08 2.64457752676472e-07 4.21926684143797e-07 1.07992546608052e-07 4.3992322116206e-08 4.46597994927914e-08
"391" 12295 6.51974261978119e-09 1.16080543174548e-08 1.53817492406136e-08 2.65537216541572e-07 4.22428300870116e-07 1.08650399294207e-07 4.39479151377921e-08 4.4669758208307e-08
"392" 12296 6.5258053670686e-09 1.16342123514881e-08 1.53182904359814e-08 2.66616680406671e-07 4.22929917596436e-07 1.09308251980363e-07 4.39035081593782e-08 4.46797169238227e-08
"393" 12297 6.53186811435601e-09 1.16603703855213e-08 1.52548316313492e-08 2.67696144271771e-07 4.23431534322755e-07 1.09966104666519e-07 4.38591011809643e-08 4.46896756393383e-08
"394" 12298 6.53793086164342e-09 1.16865284195546e-08 1.5191372826717e-08 2.68775608136871e-07 4.23933151049074e-07 1.10623957352675e-07 4.38146942025503e-08 4.46996343548539e-08
"395" 12299 6.54399360893084e-09 1.17126864535879e-08 1.51279140220848e-08 2.6985507200197e-07 4.24434767775393e-07 1.11281810038831e-07 4.37702872241364e-08 4.47095930703695e-08
"396" 12300 6.55005635621825e-09 1.17388444876211e-08 1.50644552174526e-08 2.7093453586707e-07 4.24936384501712e-07 1.11939662724987e-07 4.37258802457225e-08 4.47195517858851e-08
"397" 12301 6.55611910350566e-09 1.17650025216544e-08 1.50009964128204e-08 2.7201399973217e-07 4.25438001228032e-07 1.12597515411142e-07 4.36814732673086e-08 4.47295105014007e-08
"398" 12302 6.56218185079307e-09 1.17911605556876e-08 1.49375376081882e-08 2.73093463597269e-07 4.25939617954351e-07 1.13255368097298e-07 4.36370662888947e-08 4.47394692169164e-08
"399" 12303 6.56824459808048e-09 1.18173185897209e-08 1.4874078803556e-08 2.74172927462369e-07 4.2644123468067e-07 1.13913220783454e-07 4.35926593104808e-08 4.4749427932432e-08
"400" 12304 6.57430734536789e-09 1.18434766237542e-08 1.48106199989238e-08 2.75252391327469e-07 4.26942851406989e-07 1.1457107346961e-07 4.35482523320669e-08 4.47593866479476e-08
"401" 12305 6.58037009265531e-09 1.18696346577874e-08 1.47471611942916e-08 2.76331855192568e-07 4.27444468133308e-07 1.15228926155766e-07 4.35038453536529e-08 4.47693453634632e-08
"402" 12306 6.58643283994272e-09 1.18957926918207e-08 1.46837023896594e-08 2.77411319057668e-07 4.27946084859627e-07 1.15886778841922e-07 4.3459438375239e-08 4.47793040789788e-08
"403" 12307 6.59249558723013e-09 1.1921950725854e-08 1.46202435850272e-08 2.78490782922768e-07 4.28447701585947e-07 1.16544631528077e-07 4.34150313968251e-08 4.47892627944944e-08
"404" 12308 6.59855833451754e-09 1.19481087598872e-08 1.4556784780395e-08 2.79570246787867e-07 4.28949318312266e-07 1.17202484214233e-07 4.33706244184112e-08 4.479922151001e-08
"405" 12309 6.60462108180495e-09 1.19742667939205e-08 1.44933259757628e-08 2.80649710652967e-07 4.29450935038585e-07 1.17860336900389e-07 4.33262174399973e-08 4.48091802255257e-08
"406" 12310 6.6168242862607e-09 1.20288007463944e-08 1.43936396239436e-08 2.81473483254539e-07 4.3034305857043e-07 1.18114432941032e-07 4.32837481019572e-08 4.47807709140391e-08
"407" 12311 6.61866387896768e-09 1.20347565704363e-08 1.43799679858243e-08 2.81494348468582e-07 4.28960537443195e-07 1.18154209170989e-07 4.32580712919123e-08 4.46550164718231e-08
"408" 12312 6.62712007393555e-09 1.203586551264e-08 1.44000944009282e-08 2.81496709516793e-07 4.27698342850659e-07 1.18293202601562e-07 4.33013892496056e-08 4.46784644070633e-08
"409" 12313 6.63557626890343e-09 1.20369744548436e-08 1.44202208160321e-08 2.81499070565004e-07 4.26436148258124e-07 1.18432196032135e-07 4.33447072072989e-08 4.47019123423034e-08
"410" 12314 6.6440324638713e-09 1.20380833970473e-08 1.44403472311359e-08 2.81501431613214e-07 4.25173953665588e-07 1.18571189462709e-07 4.33880251649922e-08 4.47253602775435e-08
"411" 12315 6.65248865883918e-09 1.2039192339251e-08 1.44604736462398e-08 2.81503792661425e-07 4.23911759073052e-07 1.18710182893282e-07 4.34313431226855e-08 4.47488082127837e-08
"412" 12316 6.66094485380705e-09 1.20403012814546e-08 1.44806000613437e-08 2.81506153709636e-07 4.22649564480516e-07 1.18849176323855e-07 4.34746610803788e-08 4.47722561480238e-08
"413" 12317 6.66940104877492e-09 1.20414102236583e-08 1.45007264764476e-08 2.81508514757847e-07 4.21387369887981e-07 1.18988169754428e-07 4.35179790380721e-08 4.4795704083264e-08
"414" 12318 6.6778572437428e-09 1.2042519165862e-08 1.45208528915514e-08 2.81510875806058e-07 4.20125175295445e-07 1.19127163185001e-07 4.35612969957654e-08 4.48191520185041e-08
"415" 12319 6.68631343871067e-09 1.20436281080656e-08 1.45409793066553e-08 2.81513236854269e-07 4.18862980702909e-07 1.19266156615575e-07 4.36046149534587e-08 4.48425999537442e-08
"416" 12320 6.69476963367855e-09 1.20447370502693e-08 1.45611057217592e-08 2.81515597902479e-07 4.17600786110374e-07 1.19405150046148e-07 4.3647932911152e-08 4.48660478889844e-08
"417" 12321 6.70322582864642e-09 1.2045845992473e-08 1.4581232136863e-08 2.8151795895069e-07 4.16338591517838e-07 1.19544143476721e-07 4.36912508688453e-08 4.48894958242245e-08
"418" 12322 6.7116820236143e-09 1.20469549346766e-08 1.46013585519669e-08 2.81520319998901e-07 4.15076396925302e-07 1.19683136907294e-07 4.37345688265386e-08 4.49129437594646e-08
"419" 12323 6.72013821858217e-09 1.20480638768803e-08 1.46214849670708e-08 2.81522681047112e-07 4.13814202332766e-07 1.19822130337867e-07 4.37778867842319e-08 4.49363916947048e-08
"420" 12324 6.71639120909429e-09 1.20183853576621e-08 1.45579266327332e-08 2.79541743946988e-07 4.11015170092768e-07 1.19197599409973e-07 4.38468815519701e-08 4.50721571622876e-08
"421" 12325 6.76059232293222e-09 1.20183853576621e-08 1.45006115268815e-08 2.78290411458435e-07 4.08052599090222e-07 1.18468166287457e-07 4.4142934644915e-08 4.57453267490604e-08
"422" 12326 6.80479343677015e-09 1.20183853576621e-08 1.44432964210299e-08 2.77039078969882e-07 4.05090028087675e-07 1.17738733164942e-07 4.44389877378598e-08 4.64184963358331e-08
"423" 12327 6.84899455060807e-09 1.20183853576621e-08 1.43859813151782e-08 2.75787746481329e-07 4.02127457085128e-07 1.17009300042426e-07 4.47350408308046e-08 4.70916659226058e-08
"424" 12328 6.893195664446e-09 1.20183853576621e-08 1.43286662093265e-08 2.74536413992776e-07 3.99164886082581e-07 1.1627986691991e-07 4.50310939237495e-08 4.77648355093785e-08
"425" 12329 6.93739677828392e-09 1.20183853576621e-08 1.42713511034748e-08 2.73285081504224e-07 3.96202315080034e-07 1.15550433797395e-07 4.53271470166943e-08 4.84380050961512e-08
"426" 12330 6.98159789212185e-09 1.20183853576621e-08 1.42140359976231e-08 2.72033749015671e-07 3.93239744077487e-07 1.14821000674879e-07 4.56232001096392e-08 4.91111746829239e-08
"427" 12331 7.03186175324719e-09 1.20454056660848e-08 1.42500167382283e-08 2.71280272739082e-07 3.93018239805137e-07 1.14193537259164e-07 4.57513976117439e-08 4.96721738588106e-08
"428" 12332 7.08212561437253e-09 1.20724259745075e-08 1.42859974788334e-08 2.70526796462493e-07 3.92796735532786e-07 1.1356607384345e-07 4.58795951138486e-08 5.02331730346973e-08
"429" 12333 7.13238947549786e-09 1.20994462829303e-08 1.43219782194386e-08 2.69773320185904e-07 3.92575231260436e-07 1.12938610427735e-07 4.60077926159533e-08 5.07941722105841e-08
"430" 12334 7.1826533366232e-09 1.2126466591353e-08 1.43579589600437e-08 2.69019843909316e-07 3.92353726988086e-07 1.12311147012021e-07 4.61359901180579e-08 5.13551713864708e-08
"431" 12335 7.34379297311969e-09 1.25814008218729e-08 1.44153798401447e-08 2.67687816731062e-07 3.9232581182263e-07 1.11675510187595e-07 4.59472604597988e-08 5.129694477702e-08
"432" 12336 7.50493260961618e-09 1.30363350523927e-08 1.44728007202458e-08 2.66355789552808e-07 3.92297896657175e-07 1.1103987336317e-07 4.57585308015397e-08 5.12387181675693e-08
"433" 12337 7.66607224611267e-09 1.34912692829125e-08 1.45302216003468e-08 2.65023762374554e-07 3.9226998149172e-07 1.10404236538744e-07 4.55698011432805e-08 5.11804915581186e-08
"434" 12338 7.82721188260916e-09 1.39462035134323e-08 1.45876424804478e-08 2.63691735196301e-07 3.92242066326265e-07 1.09768599714318e-07 4.53810714850214e-08 5.11222649486678e-08
"435" 12339 7.98835151910565e-09 1.44011377439521e-08 1.46450633605489e-08 2.62359708018047e-07 3.9221415116081e-07 1.09132962889893e-07 4.51923418267622e-08 5.10640383392171e-08
"436" 12340 8.14949115560214e-09 1.48560719744719e-08 1.47024842406499e-08 2.61027680839793e-07 3.92186235995355e-07 1.08497326065467e-07 4.50036121685031e-08 5.10058117297664e-08
"437" 12341 8.31063079209863e-09 1.53110062049917e-08 1.47599051207509e-08 2.59695653661539e-07 3.92158320829899e-07 1.07861689241041e-07 4.48148825102439e-08 5.09475851203156e-08
"438" 12342 8.47177042859512e-09 1.57659404355115e-08 1.4817326000852e-08 2.58363626483285e-07 3.92130405664444e-07 1.07226052416615e-07 4.46261528519848e-08 5.08893585108649e-08
"439" 12343 8.63291006509161e-09 1.62208746660313e-08 1.4874746880953e-08 2.57031599305032e-07 3.92102490498989e-07 1.0659041559219e-07 4.44374231937257e-08 5.08311319014142e-08
"440" 12344 8.7940497015881e-09 1.66758088965512e-08 1.49321677610541e-08 2.55699572126778e-07 3.92074575333534e-07 1.05954778767764e-07 4.42486935354665e-08 5.07729052919634e-08
"441" 12345 8.95518933808459e-09 1.7130743127071e-08 1.49895886411551e-08 2.54367544948524e-07 3.92046660168079e-07 1.05319141943338e-07 4.40599638772074e-08 5.07146786825127e-08
"442" 12346 9.11632897458108e-09 1.75856773575908e-08 1.50470095212561e-08 2.5303551777027e-07 3.92018745002624e-07 1.04683505118913e-07 4.38712342189482e-08 5.0656452073062e-08
"443" 12347 9.27975185504547e-09 1.80077999008553e-08 1.4900727581038e-08 2.53187120533789e-07 3.92210581907124e-07 1.04720752913576e-07 4.38503601515293e-08 5.07213324800531e-08
"444" 12348 9.28481709609846e-09 1.79777340644892e-08 1.46969366155111e-08 2.55688067151153e-07 3.93873589084131e-07 1.04957854003085e-07 4.38503601515293e-08 5.08336107800073e-08
"445" 12349 9.26428062260505e-09 1.7928973112461e-08 1.46673225066827e-08 2.55755903364479e-07 3.92830402850236e-07 1.04714018408773e-07 4.38795102824121e-08 5.0948389384279e-08
"446" 12350 9.24374414911164e-09 1.78802121604328e-08 1.46377083978543e-08 2.55823739577806e-07 3.91787216616342e-07 1.04470182814462e-07 4.3908660413295e-08 5.10631679885507e-08
"447" 12351 9.22320767561824e-09 1.78314512084046e-08 1.4608094289026e-08 2.55891575791132e-07 3.90744030382448e-07 1.0422634722015e-07 4.39378105441779e-08 5.11779465928224e-08
"448" 12352 9.20267120212483e-09 1.77826902563764e-08 1.45784801801976e-08 2.55959412004458e-07 3.89700844148553e-07 1.03982511625839e-07 4.39669606750607e-08 5.12927251970941e-08
"449" 12353 9.18213472863142e-09 1.77339293043482e-08 1.45488660713693e-08 2.56027248217784e-07 3.88657657914659e-07 1.03738676031527e-07 4.39961108059436e-08 5.14075038013658e-08
"450" 12354 9.16159825513801e-09 1.768516835232e-08 1.45192519625409e-08 2.56095084431111e-07 3.87614471680764e-07 1.03494840437215e-07 4.40252609368265e-08 5.15222824056375e-08
"451" 12355 9.1410617816446e-09 1.76364074002918e-08 1.44896378537125e-08 2.56162920644437e-07 3.8657128544687e-07 1.03251004842904e-07 4.40544110677093e-08 5.16370610099092e-08
"452" 12356 9.12052530815119e-09 1.75876464482636e-08 1.44600237448842e-08 2.56230756857763e-07 3.85528099212975e-07 1.03007169248592e-07 4.40835611985922e-08 5.17518396141809e-08
"453" 12357 9.09998883465778e-09 1.75388854962354e-08 1.44304096360558e-08 2.5629859307109e-07 3.84484912979081e-07 1.02763333654281e-07 4.41127113294751e-08 5.18666182184526e-08
"454" 12358 9.07945236116437e-09 1.74901245442072e-08 1.44007955272275e-08 2.56366429284416e-07 3.83441726745187e-07 1.02519498059969e-07 4.41418614603579e-08 5.19813968227243e-08
"455" 12359 9.05891588767096e-09 1.7441363592179e-08 1.43711814183991e-08 2.56434265497742e-07 3.82398540511292e-07 1.02275662465658e-07 4.41710115912408e-08 5.2096175426996e-08
"456" 12360 9.03837941417755e-09 1.73926026401509e-08 1.43415673095707e-08 2.56502101711068e-07 3.81355354277398e-07 1.02031826871346e-07 4.42001617221237e-08 5.22109540312677e-08
"457" 12361 9.01784294068414e-09 1.73438416881227e-08 1.43119532007424e-08 2.56569937924395e-07 3.80312168043503e-07 1.01787991277034e-07 4.42293118530065e-08 5.23257326355394e-08
"458" 12362 8.99730646719073e-09 1.72950807360945e-08 1.4282339091914e-08 2.56637774137721e-07 3.79268981809609e-07 1.01544155682723e-07 4.42584619838894e-08 5.24405112398111e-08
"459" 12363 8.97676999369732e-09 1.72463197840663e-08 1.42527249830857e-08 2.56705610351047e-07 3.78225795575715e-07 1.01300320088411e-07 4.42876121147723e-08 5.25552898440828e-08
"460" 12364 8.95623352020391e-09 1.71975588320381e-08 1.42231108742573e-08 2.56773446564373e-07 3.7718260934182e-07 1.010564844941e-07 4.43167622456551e-08 5.26700684483545e-08
"461" 12365 8.9356970467105e-09 1.71487978800099e-08 1.4193496765429e-08 2.568412827777e-07 3.76139423107926e-07 1.00812648899788e-07 4.4345912376538e-08 5.27848470526262e-08
"462" 12366 8.91516057321710e-09 1.71000369279817e-08 1.41638826566006e-08 2.56909118991026e-07 3.75096236874031e-07 1.00568813305477e-07 4.43750625074209e-08 5.28996256568979e-08
"463" 12367 8.92329604285426e-09 1.70910355759963e-08 1.41213185957664e-08 2.58841864308492e-07 3.76551633844689e-07 1.0053678642141e-07 4.43789430668898e-08 5.29550068691021e-08
"464" 12368 8.93250672860677e-09 1.70915927558425e-08 1.41235541702731e-08 2.61309968670864e-07 3.77739592748596e-07 1.00765498057638e-07 4.44041587853562e-08 5.30673080546163e-08
"465" 12369 9.05235017428065e-09 1.72279405979252e-08 1.41397195739784e-08 2.62052076941044e-07 3.79714814020543e-07 1.00990902472347e-07 4.45303450835833e-08 5.34534835500598e-08
"466" 12370 9.08209733352657e-09 1.72700825275848e-08 1.43908443384689e-08 2.6395648967998e-07 3.7921432371005e-07 1.00980714040873e-07 4.45326540606232e-08 5.34510061313023e-08
"467" 12371 9.11184449277249e-09 1.73122244572443e-08 1.46419691029594e-08 2.65860902418917e-07 3.78713833399556e-07 1.00970525609399e-07 4.45349630376631e-08 5.34485287125448e-08
"468" 12372 9.14159165201841e-09 1.73543663869039e-08 1.48930938674499e-08 2.67765315157853e-07 3.78213343089062e-07 1.00960337177924e-07 4.4537272014703e-08 5.34460512937873e-08
"469" 12373 9.17133881126433e-09 1.73965083165635e-08 1.51442186319404e-08 2.69669727896789e-07 3.77712852778568e-07 1.0095014874645e-07 4.45395809917429e-08 5.34435738750298e-08
"470" 12374 9.20108597051025e-09 1.7438650246223e-08 1.53953433964309e-08 2.71574140635726e-07 3.77212362468075e-07 1.00939960314976e-07 4.45418899687828e-08 5.34410964562723e-08
"471" 12375 9.23083312975617e-09 1.74807921758826e-08 1.56464681609213e-08 2.73478553374662e-07 3.76711872157581e-07 1.00929771883501e-07 4.45441989458227e-08 5.34386190375148e-08
"472" 12376 9.26058028900209e-09 1.75229341055422e-08 1.58975929254118e-08 2.75382966113598e-07 3.76211381847087e-07 1.00919583452027e-07 4.45465079228626e-08 5.34361416187573e-08
"473" 12377 9.290327448248e-09 1.75650760352017e-08 1.61487176899023e-08 2.77287378852535e-07 3.75710891536594e-07 1.00909395020553e-07 4.45488168999025e-08 5.34336641999997e-08
"474" 12378 9.32007460749392e-09 1.76072179648613e-08 1.63998424543928e-08 2.79191791591471e-07 3.752104012261e-07 1.00899206589078e-07 4.45511258769424e-08 5.34311867812422e-08
"475" 12379 9.34982176673984e-09 1.76493598945209e-08 1.66509672188833e-08 2.81096204330408e-07 3.74709910915606e-07 1.00889018157604e-07 4.45534348539823e-08 5.34287093624847e-08
"476" 12380 9.37956892598576e-09 1.76915018241804e-08 1.69020919833738e-08 2.83000617069344e-07 3.74209420605112e-07 1.0087882972613e-07 4.45557438310222e-08 5.34262319437272e-08
"477" 12381 9.40548148005588e-09 1.77277701524028e-08 1.71450137649927e-08 2.84936217936298e-07 3.7242666765265e-07 1.0085682990897e-07 4.42545543203241e-08 5.33220644682765e-08
"478" 12382 9.42697308014507e-09 1.77889577580986e-08 1.72649789487458e-08 2.86366038270498e-07 3.71221422302296e-07 1.00838926801313e-07 4.3981942623888e-08 5.32188814215973e-08
"479" 12383 9.47983102476201e-09 1.78267861898905e-08 1.72550920316094e-08 2.895008428332e-07 3.70249630661581e-07 1.0086414716572e-07 4.38715154454566e-08 5.32517893192358e-08
"480" 12384 9.53268896937896e-09 1.78646146216823e-08 1.72452051144731e-08 2.92635647395903e-07 3.69277839020867e-07 1.00889367530127e-07 4.37610882670252e-08 5.32846972168744e-08
"481" 12385 9.5855469139959e-09 1.79024430534742e-08 1.72353181973368e-08 2.95770451958605e-07 3.68306047380152e-07 1.00914587894534e-07 4.36506610885939e-08 5.33176051145129e-08
"482" 12386 9.63840485861285e-09 1.7940271485266e-08 1.72254312802004e-08 2.98905256521307e-07 3.67334255739437e-07 1.00939808258941e-07 4.35402339101625e-08 5.33505130121515e-08
"483" 12387 9.69126280322979e-09 1.79780999170579e-08 1.72155443630641e-08 3.0204006108401e-07 3.66362464098722e-07 1.00965028623349e-07 4.34298067317311e-08 5.338342090979e-08
"484" 12388 9.74412074784674e-09 1.80266488321252e-08 1.72055340426368e-08 3.03341970376929e-07 3.63539043067753e-07 9.95783082317708e-08 4.33894777735936e-08 5.34531155715708e-08
"485" 12389 9.79697869246368e-09 1.80751977471926e-08 1.71955237222096e-08 3.04643879669849e-07 3.60715622036784e-07 9.81915878401929e-08 4.33491488154561e-08 5.35228102333516e-08
"486" 12390 9.85636280724295e-09 1.81221865586905e-08 1.71921672381776e-08 3.03556691509193e-07 3.59082510028592e-07 9.68560603202654e-08 4.31666410765233e-08 5.41688164866657e-08
"487" 12391 9.86173888781966e-09 1.81212712750608e-08 1.71921672381776e-08 3.01731751139038e-07 3.55693321793224e-07 9.56137329692793e-08 4.29314305851565e-08 5.42893708889388e-08
"488" 12392 9.86711496839637e-09 1.81203559914311e-08 1.71921672381776e-08 2.99906810768882e-07 3.52304133557856e-07 9.43714056182931e-08 4.26962200937897e-08 5.44099252912119e-08
"489" 12393 9.87249104897308e-09 1.81194407078014e-08 1.71921672381776e-08 2.98081870398727e-07 3.48914945322489e-07 9.31290782673069e-08 4.24610096024229e-08 5.4530479693485e-08
"490" 12394 9.87786712954979e-09 1.81185254241717e-08 1.71921672381776e-08 2.96256930028571e-07 3.45525757087121e-07 9.18867509163208e-08 4.22257991110561e-08 5.4651034095758e-08
"491" 12395 9.8832432101265e-09 1.8117610140542e-08 1.71921672381776e-08 2.94431989658416e-07 3.42136568851753e-07 9.06444235653346e-08 4.19905886196893e-08 5.47715884980311e-08
"492" 12396 9.88861929070321e-09 1.81166948569124e-08 1.71921672381776e-08 2.9260704928826e-07 3.38747380616385e-07 8.94020962143484e-08 4.17553781283225e-08 5.48921429003042e-08
"493" 12397 9.89399537127992e-09 1.81157795732827e-08 1.71921672381776e-08 2.90782108918105e-07 3.35358192381017e-07 8.81597688633623e-08 4.15201676369557e-08 5.50126973025773e-08
"494" 12398 9.89937145185663e-09 1.8114864289653e-08 1.71921672381776e-08 2.88957168547949e-07 3.31969004145649e-07 8.69174415123761e-08 4.12849571455889e-08 5.51332517048504e-08
"495" 12399 9.90474753243334e-09 1.81139490060233e-08 1.71921672381776e-08 2.87132228177794e-07 3.28579815910281e-07 8.56751141613899e-08 4.10497466542222e-08 5.52538061071234e-08
"496" 12400 9.91012361301005e-09 1.81130337223936e-08 1.71921672381776e-08 2.85307287807638e-07 3.25190627674913e-07 8.44327868104038e-08 4.08145361628554e-08 5.53743605093965e-08
"497" 12401 9.91549969358676e-09 1.81121184387639e-08 1.71921672381776e-08 2.83482347437483e-07 3.21801439439545e-07 8.31904594594176e-08 4.05793256714886e-08 5.54949149116696e-08
"498" 12402 9.92471037933927e-09 1.8099702620074e-08 1.71621891640205e-08 2.83439189234653e-07 3.21925802630662e-07 8.32299503053879e-08 4.05780321516656e-08 5.56783808633906e-08
"499" 12403 9.93392106509178e-09 1.8087286801384e-08 1.71322110898634e-08 2.83396031031822e-07 3.22050165821778e-07 8.32694411513582e-08 4.05767386318426e-08 5.58618468151115e-08
"500" 12404 9.92748249061737e-09 1.8087286801384e-08 1.71259854904191e-08 2.83613194091631e-07 3.19386680257193e-07 8.33508965985905e-08 4.06717241741968e-08 5.56148920960486e-08
"501" 12405 9.9281041696648e-09 1.81059105294189e-08 1.70849353179781e-08 2.83468132385268e-07 3.16720190917074e-07 8.35618664917289e-08 4.07270678192243e-08 5.53803244707732e-08
"502" 12406 9.92872584871222e-09 1.81245342574539e-08 1.70438851455371e-08 2.83323070678904e-07 3.14053701576954e-07 8.37728363848672e-08 4.07824114642517e-08 5.51457568454978e-08
"503" 12407 9.92934752775964e-09 1.81431579854888e-08 1.70028349730961e-08 2.83178008972541e-07 3.11387212236835e-07 8.39838062780056e-08 4.08377551092792e-08 5.49111892202224e-08
"504" 12408 9.92996920680707e-09 1.81617817135238e-08 1.69617848006551e-08 2.83032947266177e-07 3.08720722896716e-07 8.41947761711439e-08 4.08930987543067e-08 5.46766215949469e-08
"505" 12409 9.93059088585449e-09 1.81804054415588e-08 1.69207346282141e-08 2.82887885559813e-07 3.06054233556596e-07 8.44057460642823e-08 4.09484423993342e-08 5.44420539696715e-08
"506" 12410 9.93121256490192e-09 1.81990291695937e-08 1.68796844557731e-08 2.8274282385345e-07 3.03387744216477e-07 8.46167159574207e-08 4.10037860443617e-08 5.42074863443961e-08
"507" 12411 9.93183424394934e-09 1.82176528976287e-08 1.68386342833321e-08 2.82597762147086e-07 3.00721254876358e-07 8.4827685850559e-08 4.10591296893892e-08 5.39729187191207e-08
"508" 12412 9.93245592299676e-09 1.82362766256636e-08 1.67975841108911e-08 2.82452700440723e-07 2.98054765536238e-07 8.50386557436974e-08 4.11144733344166e-08 5.37383510938453e-08
"509" 12413 9.93307760204419e-09 1.82549003536986e-08 1.67565339384501e-08 2.82307638734359e-07 2.95388276196119e-07 8.52496256368358e-08 4.11698169794441e-08 5.35037834685699e-08
"510" 12414 9.93369928109161e-09 1.82735240817335e-08 1.67154837660091e-08 2.82162577027996e-07 2.92721786856e-07 8.54605955299742e-08 4.12251606244716e-08 5.32692158432945e-08
"511" 12415 9.93432096013903e-09 1.82921478097685e-08 1.66744335935681e-08 2.82017515321632e-07 2.9005529751588e-07 8.56715654231125e-08 4.12805042694991e-08 5.30346482180191e-08
"512" 12416 9.93494263918645e-09 1.83107715378034e-08 1.66333834211271e-08 2.81872453615269e-07 2.87388808175761e-07 8.58825353162509e-08 4.13358479145266e-08 5.28000805927437e-08
"513" 12417 9.93556431823388e-09 1.83293952658384e-08 1.65923332486861e-08 2.81727391908905e-07 2.84722318835642e-07 8.60935052093893e-08 4.1391191559554e-08 5.25655129674683e-08
"514" 12418 9.9361859972813e-09 1.83480189938734e-08 1.65512830762451e-08 2.81582330202541e-07 2.82055829495522e-07 8.63044751025276e-08 4.14465352045815e-08 5.23309453421929e-08
"515" 12419 9.93680767632873e-09 1.83666427219083e-08 1.65102329038041e-08 2.81437268496178e-07 2.79389340155403e-07 8.6515444995666e-08 4.1501878849609e-08 5.20963777169175e-08
"516" 12420 9.93742935537615e-09 1.83852664499433e-08 1.64691827313631e-08 2.81292206789814e-07 2.76722850815284e-07 8.67264148888044e-08 4.15572224946365e-08 5.18618100916421e-08
"517" 12421 9.93805103442357e-09 1.84038901779782e-08 1.64281325589221e-08 2.81147145083451e-07 2.74056361475165e-07 8.69373847819427e-08 4.1612566139664e-08 5.16272424663667e-08
"518" 12422 9.93867271347100e-09 1.84225139060132e-08 1.6387082386481e-08 2.81002083377087e-07 2.71389872135045e-07 8.71483546750811e-08 4.16679097846914e-08 5.13926748410913e-08
"519" 12423 9.93929439251842e-09 1.84411376340481e-08 1.634603221404e-08 2.80857021670724e-07 2.68723382794926e-07 8.73593245682195e-08 4.17232534297189e-08 5.11581072158159e-08
"520" 12424 9.93991607156584e-09 1.84597613620831e-08 1.6304982041599e-08 2.8071195996436e-07 2.66056893454806e-07 8.75702944613578e-08 4.17785970747464e-08 5.09235395905405e-08
"521" 12425 9.95204156614067e-09 1.84496748637697e-08 1.62157695052412e-08 2.80759071823904e-07 2.66198720509579e-07 8.77773636792695e-08 4.18582324955096e-08 5.09688836224521e-08
"522" 12426 9.95956807894806e-09 1.83814095309302e-08 1.60072793177512e-08 2.79826438325405e-07 2.66324398790561e-07 8.79760434438996e-08 4.18466158063802e-08 5.08392503137325e-08
"523" 12427 9.96709459175545e-09 1.83131441980908e-08 1.57987891302611e-08 2.78893804826907e-07 2.66450077071543e-07 8.81747232085297e-08 4.18349991172507e-08 5.07096170050128e-08
"524" 12428 9.97462110456285e-09 1.82448788652513e-08 1.5590298942771e-08 2.77961171328409e-07 2.66575755352525e-07 8.83734029731598e-08 4.18233824281213e-08 5.05799836962932e-08
"525" 12429 9.98214761737024e-09 1.81766135324118e-08 1.53818087552809e-08 2.77028537829911e-07 2.66701433633507e-07 8.85720827377899e-08 4.18117657389918e-08 5.04503503875735e-08
"526" 12430 9.98967413017763e-09 1.81083481995724e-08 1.51733185677909e-08 2.76095904331412e-07 2.66827111914489e-07 8.877076250242e-08 4.18001490498624e-08 5.03207170788539e-08
"527" 12431 9.99720064298503e-09 1.80400828667329e-08 1.49648283803008e-08 2.75163270832914e-07 2.66952790195471e-07 8.896944226705e-08 4.17885323607329e-08 5.01910837701342e-08
"528" 12432 1.00047271557924e-08 1.79718175338934e-08 1.47563381928107e-08 2.74230637334416e-07 2.67078468476453e-07 8.91681220316801e-08 4.17769156716035e-08 5.00614504614146e-08
"529" 12433 1.00122536685998e-08 1.79035522010539e-08 1.45478480053206e-08 2.73298003835917e-07 2.67204146757435e-07 8.93668017963102e-08 4.1765298982474e-08 4.99318171526949e-08
"530" 12434 1.00529310167857e-08 1.78511647453604e-08 1.44285703541884e-08 2.74367310797552e-07 2.67193607549109e-07 8.95955134325378e-08 4.17853782831872e-08 4.97707820137854e-08
"531" 12435 1.00502267295815e-08 1.77818964887976e-08 1.42312580392316e-08 2.74194658264573e-07 2.67520858739138e-07 8.96459075076701e-08 4.16952528555539e-08 4.96720583208698e-08
"532" 12436 1.00475224423773e-08 1.77126282322349e-08 1.40339457242747e-08 2.74022005731594e-07 2.67848109929168e-07 8.96963015828023e-08 4.16051274279206e-08 4.95733346279542e-08
"533" 12437 1.00448181551731e-08 1.76433599756722e-08 1.38366334093179e-08 2.73849353198616e-07 2.68175361119198e-07 8.97466956579346e-08 4.15150020002873e-08 4.94746109350385e-08
"534" 12438 1.0042113867969e-08 1.75740917191095e-08 1.36393210943611e-08 2.73676700665637e-07 2.68502612309227e-07 8.97970897330668e-08 4.1424876572654e-08 4.93758872421229e-08
"535" 12439 1.00460261830257e-08 1.75934846639515e-08 1.36452003575182e-08 2.71941890674345e-07 2.67285021412118e-07 8.95349643134265e-08 4.14256892903423e-08 4.93922382059225e-08
"536" 12440 1.00429559544415e-08 1.75961720881115e-08 1.36213659821417e-08 2.73132620995691e-07 2.68023009865207e-07 8.95433537667081e-08 4.13909416501277e-08 4.93877200035763e-08
"537" 12441 1.00398857258573e-08 1.75988595122715e-08 1.35975316067651e-08 2.74323351317038e-07 2.68760998318296e-07 8.95517432199897e-08 4.13561940099131e-08 4.938320180123e-08
"538" 12442 1.00368154972732e-08 1.76015469364315e-08 1.35736972313885e-08 2.75514081638384e-07 2.69498986771385e-07 8.95601326732712e-08 4.13214463696985e-08 4.93786835988838e-08
"539" 12443 1.0033745268689e-08 1.76042343605916e-08 1.35498628560119e-08 2.76704811959731e-07 2.70236975224474e-07 8.95685221265528e-08 4.1286698729484e-08 4.93741653965376e-08
"540" 12444 1.00306750401048e-08 1.76069217847516e-08 1.35260284806353e-08 2.77895542281077e-07 2.70974963677562e-07 8.95769115798344e-08 4.12519510892694e-08 4.93696471941914e-08
"541" 12445 1.00317502562202e-08 1.76153713743796e-08 1.35248256704462e-08 2.79380820560438e-07 2.71900789629521e-07 8.95697850064799e-08 4.08620894700297e-08 4.93501533208662e-08
"542" 12446 1.00328254723355e-08 1.76238209640076e-08 1.35236228602571e-08 2.80866098839799e-07 2.72826615581479e-07 8.95626584331254e-08 4.047222785079e-08 4.9330659447541e-08
"543" 12447 1.00339006884509e-08 1.76322705536356e-08 1.3522420050068e-08 2.8235137711916e-07 2.73752441533438e-07 8.95555318597709e-08 4.00823662315503e-08 4.93111655742157e-08
"544" 12448 1.00349759045662e-08 1.76407201432635e-08 1.35212172398789e-08 2.83836655398522e-07 2.74678267485397e-07 8.95484052864164e-08 3.96925046123107e-08 4.92916717008905e-08
"545" 12449 1.00414045932336e-08 1.76569323283172e-08 1.35492708177334e-08 2.84098137463608e-07 2.75136134103824e-07 8.95295766873818e-08 3.93269706707717e-08 4.92697004088077e-08
"546" 12450 1.0047833281901e-08 1.76731445133708e-08 1.35773243955879e-08 2.84359619528695e-07 2.75594000722251e-07 8.95107480883472e-08 3.89614367292327e-08 4.9247729116725e-08
"547" 12451 1.00542619705684e-08 1.76893566984245e-08 1.36053779734424e-08 2.84621101593782e-07 2.76051867340679e-07 8.94919194893126e-08 3.85959027876938e-08 4.92257578246423e-08
"548" 12452 1.00606906592358e-08 1.77055688834781e-08 1.36334315512969e-08 2.84882583658869e-07 2.76509733959106e-07 8.9473090890278e-08 3.82303688461548e-08 4.92037865325595e-08
"549" 12453 1.00671193479032e-08 1.77217810685318e-08 1.36614851291514e-08 2.85144065723956e-07 2.76967600577533e-07 8.94542622912433e-08 3.78648349046158e-08 4.91818152404768e-08
"550" 12454 1.00735480365706e-08 1.77379932535854e-08 1.36895387070059e-08 2.85405547789042e-07 2.77425467195961e-07 8.94354336922087e-08 3.74993009630769e-08 4.9159843948394e-08
"551" 12455 1.0079976725238e-08 1.77542054386391e-08 1.37175922848604e-08 2.85667029854129e-07 2.77883333814388e-07 8.94166050931741e-08 3.71337670215379e-08 4.91378726563113e-08
"552" 12456 1.00864054139055e-08 1.77704176236927e-08 1.37456458627149e-08 2.85928511919216e-07 2.78341200432815e-07 8.93977764941395e-08 3.67682330799989e-08 4.91159013642285e-08
"553" 12457 1.00928341025729e-08 1.77866298087464e-08 1.37736994405694e-08 2.86189993984303e-07 2.78799067051243e-07 8.93789478951049e-08 3.640269913846e-08 4.90939300721458e-08
"554" 12458 1.00992627912403e-08 1.78028419938e-08 1.38017530184239e-08 2.8645147604939e-07 2.7925693366967e-07 8.93601192960703e-08 3.6037165196921e-08 4.9071958780063e-08
"555" 12459 1.01056914799077e-08 1.78190541788537e-08 1.38298065962784e-08 2.86712958114476e-07 2.79714800288097e-07 8.93412906970357e-08 3.5671631255382e-08 4.90499874879803e-08
"556" 12460 1.00958492293007e-08 1.78312471256051e-08 1.38538877782368e-08 2.87076057349939e-07 2.79698548870655e-07 8.92940505051744e-08 3.56612112928682e-08 4.90455183261197e-08
"557" 12461 1.00860069786938e-08 1.78434400723566e-08 1.38779689601952e-08 2.87439156585401e-07 2.79682297453213e-07 8.92468103133132e-08 3.56507913303543e-08 4.9041049164259e-08
"558" 12462 1.00761647280869e-08 1.78472364387203e-08 1.37643880372605e-08 2.85997613427026e-07 2.79152367575834e-07 8.92048630469053e-08 3.51040125464617e-08 4.80676923188761e-08
"559" 12463 1.006632247748e-08 1.7851032805084e-08 1.36508071143258e-08 2.84556070268651e-07 2.78622437698455e-07 8.91629157804975e-08 3.45572337625692e-08 4.70943354734932e-08
"560" 12464 1.00592622239581e-08 1.79114403589951e-08 1.35372261913911e-08 2.82599093039811e-07 2.77750794666786e-07 8.91326705397698e-08 3.40366484928213e-08 4.61209786281102e-08
"561" 12465 1.00522019704363e-08 1.79243257174377e-08 1.33996522317057e-08 2.80588559243423e-07 2.76805078354589e-07 8.90991300614976e-08 3.38605706914647e-08 4.5206917824458e-08
"562" 12466 1.00451417169145e-08 1.79372110758804e-08 1.32620782720204e-08 2.78578025447035e-07 2.75859362042391e-07 8.90655895832255e-08 3.36844928901082e-08 4.42928570208057e-08
"563" 12467 1.00380814633927e-08 1.7950096434323e-08 1.31245043123351e-08 2.76567491650647e-07 2.74913645730193e-07 8.90320491049534e-08 3.35084150887516e-08 4.33787962171534e-08
"564" 12468 1.00310212098708e-08 1.79629817927657e-08 1.29869303526497e-08 2.74556957854259e-07 2.73967929417996e-07 8.89985086266813e-08 3.33323372873951e-08 4.24647354135011e-08
"565" 12469 1.0023960956349e-08 1.79758671512083e-08 1.28493563929644e-08 2.72546424057871e-07 2.73022213105798e-07 8.89649681484092e-08 3.31562594860385e-08 4.15506746098489e-08
"566" 12470 1.00169007028272e-08 1.7988752509651e-08 1.2711782433279e-08 2.70535890261483e-07 2.720764967936e-07 8.8931427670137e-08 3.29801816846819e-08 4.06366138061966e-08
"567" 12471 1.00098404493054e-08 1.80016378680936e-08 1.25742084735937e-08 2.68525356465095e-07 2.71130780481403e-07 8.88978871918649e-08 3.28041038833254e-08 3.97225530025443e-08
"568" 12472 1.00027801957835e-08 1.80145232265363e-08 1.24366345139084e-08 2.66514822668707e-07 2.70185064169205e-07 8.88643467135928e-08 3.26280260819688e-08 3.8808492198892e-08
"569" 12473 9.99571994226171e-09 1.80274085849789e-08 1.2299060554223e-08 2.64504288872319e-07 2.69239347857007e-07 8.88308062353206e-08 3.24519482806123e-08 3.78944313952398e-08
"570" 12474 9.98865968873988e-09 1.80402939434216e-08 1.21614865945377e-08 2.62493755075931e-07 2.6829363154481e-07 8.87972657570485e-08 3.22758704792557e-08 3.69803705915875e-08
"571" 12475 9.98159943521806e-09 1.80531793018643e-08 1.20239126348524e-08 2.60483221279543e-07 2.67347915232612e-07 8.87637252787764e-08 3.20997926778991e-08 3.60663097879352e-08
"572" 12476 9.97453918169623e-09 1.80660646603069e-08 1.1886338675167e-08 2.58472687483155e-07 2.66402198920414e-07 8.87301848005043e-08 3.19237148765426e-08 3.51522489842829e-08
"573" 12477 9.9674789281744e-09 1.80789500187496e-08 1.17487647154817e-08 2.56462153686767e-07 2.65456482608217e-07 8.86966443222322e-08 3.1747637075186e-08 3.42381881806307e-08
"574" 12478 9.96041867465258e-09 1.80918353771922e-08 1.16111907557964e-08 2.54451619890379e-07 2.64510766296019e-07 8.866310384396e-08 3.15715592738295e-08 3.33241273769784e-08
"575" 12479 9.95335842113075e-09 1.81047207356349e-08 1.1473616796111e-08 2.52441086093991e-07 2.63565049983821e-07 8.86295633656879e-08 3.13954814724729e-08 3.24100665733261e-08
"576" 12480 9.94629816760893e-09 1.81176060940775e-08 1.13360428364257e-08 2.50430552297603e-07 2.62619333671624e-07 8.85960228874158e-08 3.12194036711163e-08 3.14960057696738e-08
"577" 12481 9.9392379140871e-09 1.81304914525202e-08 1.11984688767404e-08 2.48420018501215e-07 2.61673617359426e-07 8.85624824091437e-08 3.10433258697598e-08 3.05819449660216e-08
"578" 12482 9.93217766056528e-09 1.81433768109628e-08 1.1060894917055e-08 2.46409484704827e-07 2.60727901047228e-07 8.85289419308715e-08 3.08672480684032e-08 2.96678841623693e-08
"579" 12483 9.89873859368776e-09 1.81260026744653e-08 1.09862167372625e-08 2.44262317704572e-07 2.60450457899916e-07 8.81761127833162e-08 3.12321488020789e-08 2.96599073818597e-08
"580" 12484 9.90380383474076e-09 1.81449845062837e-08 1.09622237005118e-08 2.44181053062851e-07 2.60328254005508e-07 8.77842742080536e-08 3.16335500277968e-08 2.96149019041457e-08
"581" 12485 9.90178621424729e-09 1.81471147505975e-08 1.09329320543851e-08 2.44153344988678e-07 2.60199379522674e-07 8.73896391483638e-08 3.16354158642407e-08 2.95131006890185e-08
"582" 12486 9.89976859375382e-09 1.81492449949112e-08 1.09036404082584e-08 2.44125636914505e-07 2.6007050503984e-07 8.6995004088674e-08 3.16372817006846e-08 2.94112994738913e-08
"583" 12487 9.89775097326034e-09 1.8151375239225e-08 1.08743487621316e-08 2.44097928840332e-07 2.59941630557006e-07 8.66003690289842e-08 3.16391475371285e-08 2.93094982587641e-08
"584" 12488 9.89573335276687e-09 1.81535054835387e-08 1.08450571160049e-08 2.44070220766158e-07 2.59812756074172e-07 8.62057339692944e-08 3.16410133735724e-08 2.92076970436369e-08
"585" 12489 9.8937157322734e-09 1.81556357278525e-08 1.08157654698781e-08 2.44042512691985e-07 2.59683881591339e-07 8.58110989096046e-08 3.16428792100163e-08 2.91058958285097e-08
"586" 12490 9.89169811177993e-09 1.81577659721663e-08 1.07864738237514e-08 2.44014804617812e-07 2.59555007108505e-07 8.54164638499148e-08 3.16447450464602e-08 2.90040946133824e-08
"587" 12491 9.88968049128646e-09 1.815989621648e-08 1.07571821776246e-08 2.43987096543639e-07 2.59426132625671e-07 8.5021828790225e-08 3.16466108829041e-08 2.89022933982552e-08
"588" 12492 9.88766287079298e-09 1.81620264607938e-08 1.07278905314979e-08 2.43959388469466e-07 2.59297258142837e-07 8.46271937305353e-08 3.1648476719348e-08 2.8800492183128e-08
"589" 12493 9.88564525029951e-09 1.81641567051075e-08 1.06985988853712e-08 2.43931680395292e-07 2.59168383660003e-07 8.42325586708455e-08 3.16503425557919e-08 2.86986909680008e-08
"590" 12494 9.86322396804984e-09 1.81609705278303e-08 1.06508243603686e-08 2.43971189458679e-07 2.59159960869183e-07 8.42094719977403e-08 3.16464817068792e-08 2.86966926861663e-08
"591" 12495 9.84080268580017e-09 1.81577843505531e-08 1.06030498353661e-08 2.44010698522066e-07 2.59151538078362e-07 8.41863853246352e-08 3.16426208579665e-08 2.86946944043318e-08
"592" 12496 9.8183814035505e-09 1.81545981732759e-08 1.05552753103636e-08 2.44050207585452e-07 2.59143115287542e-07 8.41632986515301e-08 3.16387600090537e-08 2.86926961224972e-08
"593" 12497 9.79596012130083e-09 1.81514119959987e-08 1.05075007853611e-08 2.44089716648839e-07 2.59134692496721e-07 8.4140211978425e-08 3.1634899160141e-08 2.86906978406627e-08
"594" 12498 9.83462973480019e-09 1.84431187253469e-08 1.04587463831657e-08 2.44431111031647e-07 2.60208582731626e-07 8.41675340398661e-08 3.18368403196624e-08 2.87311262674478e-08
"595" 12499 9.87329934829955e-09 1.87348254546951e-08 1.04099919809704e-08 2.44772505414455e-07 2.6128247296653e-07 8.41948561013072e-08 3.20387814791837e-08 2.87715546942329e-08
"596" 12500 9.91196896179891e-09 1.90265321840433e-08 1.0361237578775e-08 2.45113899797263e-07 2.62356363201434e-07 8.42221781627483e-08 3.2240722638705e-08 2.8811983121018e-08
"597" 12501 9.95063857529828e-09 1.93182389133914e-08 1.03124831765796e-08 2.45455294180071e-07 2.63430253436338e-07 8.42495002241894e-08 3.24426637982264e-08 2.88524115478031e-08
"598" 12502 9.98930818879764e-09 1.96099456427396e-08 1.02637287743842e-08 2.45796688562878e-07 2.64504143671242e-07 8.42768222856305e-08 3.26446049577477e-08 2.88928399745882e-08
"599" 12503 1.00460982200853e-08 1.99008723203031e-08 1.02574502878153e-08 2.45073066274419e-07 2.65265310073242e-07 8.4285601132024e-08 3.2719051867384e-08 2.88620186316583e-08
"600" 12504 1.0102888251373e-08 2.01917989978665e-08 1.02511718012463e-08 2.4434944398596e-07 2.66026476475242e-07 8.42943799784174e-08 3.27934987770202e-08 2.88311972887283e-08
"601" 12505 1.01596782826606e-08 2.048272567543e-08 1.02448933146773e-08 2.436258216975e-07 2.66787642877242e-07 8.43031588248109e-08 3.28679456866564e-08 2.88003759457983e-08
"602" 12506 1.01535378254923e-08 2.04710022684312e-08 1.02388730191877e-08 2.4254639148633e-07 2.67045477601314e-07 8.43999489238172e-08 3.27356666451279e-08 2.87290967517918e-08
"603" 12507 1.01535378254923e-08 2.04643486152092e-08 1.02626721364811e-08 2.41952966197414e-07 2.6675613352433e-07 8.4442856351311e-08 3.26116260055245e-08 2.86528463734419e-08
"604" 12508 1.01535378254923e-08 2.04576949619872e-08 1.02864712537746e-08 2.41359540908499e-07 2.66466789447347e-07 8.44857637788047e-08 3.24875853659211e-08 2.85765959950919e-08
"605" 12509 1.01535378254923e-08 2.04510413087652e-08 1.03102703710681e-08 2.40766115619583e-07 2.66177445370363e-07 8.45286712062985e-08 3.23635447263177e-08 2.85003456167419e-08
"606" 12510 1.01535378254923e-08 2.04443876555432e-08 1.03340694883615e-08 2.40172690330667e-07 2.6588810129338e-07 8.45715786337923e-08 3.22395040867143e-08 2.84240952383919e-08
"607" 12511 1.01535378254923e-08 2.04377340023212e-08 1.0357868605655e-08 2.39579265041752e-07 2.65598757216397e-07 8.4614486061286e-08 3.21154634471109e-08 2.83478448600419e-08
"608" 12512 1.01535378254923e-08 2.04310803490993e-08 1.03816677229485e-08 2.38985839752836e-07 2.65309413139413e-07 8.46573934887798e-08 3.19914228075076e-08 2.8271594481692e-08
"609" 12513 1.01535378254923e-08 2.04244266958773e-08 1.04054668402419e-08 2.3839241446392e-07 2.6502006906243e-07 8.47003009162736e-08 3.18673821679042e-08 2.8195344103342e-08
"610" 12514 1.01535378254923e-08 2.04177730426553e-08 1.04292659575354e-08 2.37798989175005e-07 2.64730724985446e-07 8.47432083437673e-08 3.17433415283008e-08 2.8119093724992e-08
"611" 12515 1.01183269899817e-08 2.03941672009371e-08 1.04504188924128e-08 2.38220504043653e-07 2.64402353008007e-07 8.47630837781586e-08 3.16542477492931e-08 2.7969389325053e-08
"612" 12516 1.00339924971245e-08 2.02551448955924e-08 1.04502249729556e-08 2.38128367434345e-07 2.61010551750139e-07 8.46601045811493e-08 3.16223078392357e-08 2.79663869982526e-08
"613" 12517 9.9496580042672e-09 2.01161225902478e-08 1.04500310534985e-08 2.38036230825036e-07 2.57618750492272e-07 8.45571253841399e-08 3.15903679291782e-08 2.79633846714523e-08
"614" 12518 9.86532351140993e-09 1.99771002849031e-08 1.04498371340413e-08 2.37944094215728e-07 2.54226949234404e-07 8.44541461871305e-08 3.15584280191207e-08 2.79603823446519e-08
"615" 12519 9.78098901855266e-09 1.98380779795585e-08 1.04496432145842e-08 2.3785195760642e-07 2.50835147976536e-07 8.43511669901212e-08 3.15264881090633e-08 2.79573800178516e-08
"616" 12520 9.69665452569539e-09 1.96990556742138e-08 1.0449449295127e-08 2.37759820997112e-07 2.47443346718669e-07 8.42481877931118e-08 3.14945481990058e-08 2.79543776910512e-08
"617" 12521 9.61232003283812e-09 1.95600333688692e-08 1.04492553756699e-08 2.37667684387804e-07 2.44051545460801e-07 8.41452085961024e-08 3.14626082889483e-08 2.79513753642508e-08
"618" 12522 9.52798553998086e-09 1.94210110635245e-08 1.04490614562127e-08 2.37575547778496e-07 2.40659744202933e-07 8.40422293990931e-08 3.14306683788908e-08 2.79483730374505e-08
"619" 12523 9.44365104712359e-09 1.92819887581798e-08 1.04488675367556e-08 2.37483411169188e-07 2.37267942945066e-07 8.39392502020837e-08 3.13987284688334e-08 2.79453707106501e-08
"620" 12524 9.35931655426632e-09 1.91429664528352e-08 1.04486736172984e-08 2.3739127455988e-07 2.33876141687198e-07 8.38362710050743e-08 3.13667885587759e-08 2.79423683838498e-08
"621" 12525 9.27498206140905e-09 1.90039441474905e-08 1.04484796978413e-08 2.37299137950572e-07 2.3048434042933e-07 8.3733291808065e-08 3.13348486487184e-08 2.79393660570494e-08
"622" 12526 9.19064756855178e-09 1.88649218421459e-08 1.04482857783841e-08 2.37207001341264e-07 2.27092539171463e-07 8.36303126110556e-08 3.13029087386609e-08 2.79363637302491e-08
"623" 12527 9.10631307569451e-09 1.87258995368012e-08 1.0448091858927e-08 2.37114864731956e-07 2.23700737913595e-07 8.35273334140462e-08 3.12709688286035e-08 2.79333614034487e-08
"624" 12528 9.01646969052332e-09 1.86104830731747e-08 1.0448091858927e-08 2.37231557491565e-07 2.21497353309688e-07 8.33342065976818e-08 3.12451072300124e-08 2.80351626185759e-08
"625" 12529 8.92662630535213e-09 1.84950666095483e-08 1.0448091858927e-08 2.37348250251175e-07 2.1929396870578e-07 8.31410797813174e-08 3.12192456314214e-08 2.81369638337031e-08
"626" 12530 8.83678292018094e-09 1.83796501459218e-08 1.0448091858927e-08 2.37464943010784e-07 2.17090584101873e-07 8.2947952964953e-08 3.11933840328303e-08 2.82387650488303e-08
"627" 12531 8.74693953500976e-09 1.82642336822953e-08 1.0448091858927e-08 2.37581635770393e-07 2.14887199497965e-07 8.27548261485887e-08 3.11675224342392e-08 2.83405662639575e-08
"628" 12532 8.65709614983857e-09 1.81488172186688e-08 1.0448091858927e-08 2.37698328530003e-07 2.12683814894058e-07 8.25616993322243e-08 3.11416608356482e-08 2.84423674790847e-08
"629" 12533 8.56725276466737e-09 1.80334007550424e-08 1.0448091858927e-08 2.37815021289612e-07 2.1048043029015e-07 8.23685725158599e-08 3.11157992370571e-08 2.85441686942119e-08
"630" 12534 8.47740937949619e-09 1.79179842914159e-08 1.0448091858927e-08 2.37931714049222e-07 2.08277045686243e-07 8.21754456994955e-08 3.10899376384661e-08 2.86459699093391e-08
"631" 12535 8.387565994325e-09 1.78025678277894e-08 1.0448091858927e-08 2.38048406808831e-07 2.06073661082336e-07 8.19823188831311e-08 3.1064076039875e-08 2.87477711244663e-08
"632" 12536 8.29772260915381e-09 1.76871513641629e-08 1.0448091858927e-08 2.3816509956844e-07 2.03870276478428e-07 8.17891920667667e-08 3.1038214441284e-08 2.88495723395936e-08
"633" 12537 8.20787922398262e-09 1.75717349005365e-08 1.0448091858927e-08 2.3828179232805e-07 2.01666891874521e-07 8.15960652504023e-08 3.10123528426929e-08 2.89513735547208e-08
"634" 12538 8.17819705239998e-09 1.757580173059e-08 1.04533375811784e-08 2.38889154839704e-07 2.02716901724248e-07 8.10435761668366e-08 3.08826052282891e-08 2.90382514087202e-08
"635" 12539 8.14851488081734e-09 1.75798685606435e-08 1.04585833034299e-08 2.39496517351359e-07 2.03766911573975e-07 8.04910870832709e-08 3.07528576138853e-08 2.91251292627197e-08
"636" 12540 8.1188327092347e-09 1.75839353906971e-08 1.04638290256813e-08 2.40103879863013e-07 2.04816921423703e-07 7.99385979997052e-08 3.06231099994815e-08 2.92120071167191e-08
"637" 12541 8.08915053765206e-09 1.75880022207506e-08 1.04690747479328e-08 2.40711242374667e-07 2.0586693127343e-07 7.93861089161395e-08 3.04933623850778e-08 2.92988849707186e-08
"638" 12542 8.06269401441544e-09 1.7562507385044e-08 1.04800649455529e-08 2.40979578517861e-07 2.06440940099163e-07 7.89899229170954e-08 3.03599387103074e-08 2.93034325973561e-08
"639" 12543 8.06753601163265e-09 1.76458175340044e-08 1.06233885205605e-08 2.40910668170807e-07 2.07184123246865e-07 7.95524204505005e-08 3.02343659093874e-08 2.92960003410836e-08
"640" 12544 8.04107948839604e-09 1.76296345623153e-08 1.06023880025131e-08 2.41090933180373e-07 2.07503142196253e-07 7.91960453511221e-08 3.01688103200959e-08 2.92810540943959e-08
"641" 12545 8.01462296515942e-09 1.76134515906262e-08 1.05813874844657e-08 2.41271198189939e-07 2.07822161145641e-07 7.88396702517436e-08 3.01032547308044e-08 2.92661078477082e-08
"642" 12546 7.98816644192281e-09 1.75972686189371e-08 1.05603869664183e-08 2.41451463199506e-07 2.08141180095029e-07 7.84832951523652e-08 3.00376991415128e-08 2.92511616010205e-08
"643" 12547 7.96170991868619e-09 1.75810856472479e-08 1.0539386448371e-08 2.41631728209072e-07 2.08460199044417e-07 7.81269200529867e-08 2.99721435522213e-08 2.92362153543328e-08
"644" 12548 7.93525339544958e-09 1.75649026755588e-08 1.05183859303236e-08 2.41811993218638e-07 2.08779217993805e-07 7.77705449536083e-08 2.99065879629298e-08 2.92212691076452e-08
"645" 12549 7.90879687221297e-09 1.75487197038697e-08 1.04973854122762e-08 2.41992258228205e-07 2.09098236943193e-07 7.74141698542298e-08 2.98410323736383e-08 2.92063228609575e-08
"646" 12550 7.90045088095766e-09 1.75580315678872e-08 1.05011525042176e-08 2.42236786939147e-07 2.0962767369587e-07 7.75804133313873e-08 2.99147563204987e-08 2.91638732667779e-08
"647" 12551 7.89210488970235e-09 1.75673434319046e-08 1.0504919596159e-08 2.4248131565009e-07 2.10157110448548e-07 7.77466568085448e-08 2.99884802673592e-08 2.91214236725983e-08
"648" 12552 7.88375889844705e-09 1.75766552959221e-08 1.05086866881004e-08 2.42725844361032e-07 2.10686547201225e-07 7.79129002857023e-08 3.00622042142196e-08 2.90789740784187e-08
"649" 12553 7.87541290719174e-09 1.75859671599396e-08 1.05124537800418e-08 2.42970373071974e-07 2.11215983953902e-07 7.80791437628598e-08 3.013592816108e-08 2.90365244842392e-08
"650" 12554 7.86706691593643e-09 1.75952790239571e-08 1.05162208719832e-08 2.43214901782917e-07 2.11745420706579e-07 7.82453872400173e-08 3.02096521079405e-08 2.89940748900596e-08
"651" 12555 7.85872092468112e-09 1.76045908879745e-08 1.05199879639246e-08 2.43459430493859e-07 2.12274857459257e-07 7.84116307171748e-08 3.02833760548009e-08 2.895162529588e-08
"652" 12556 7.88786901290426e-09 1.76460111925784e-08 1.05356193564296e-08 2.44140756654052e-07 2.1291917171313e-07 7.84005888091796e-08 3.03017563566338e-08 2.89660956750104e-08
"653" 12557 7.9170171011274e-09 1.76874314971823e-08 1.05512507489346e-08 2.44822082814246e-07 2.13563485967004e-07 7.83895469011844e-08 3.03201366584668e-08 2.89805660541408e-08
"654" 12558 7.94616518935054e-09 1.77288518017861e-08 1.05668821414396e-08 2.45503408974439e-07 2.14207800220878e-07 7.83785049931893e-08 3.03385169602997e-08 2.89950364332713e-08
"655" 12559 7.94616518935054e-09 1.76507996476877e-08 1.0576493238455e-08 2.46177576539256e-07 2.1485236478938e-07 7.82786996897452e-08 3.03473653403845e-08 2.9047438204235e-08
"656" 12560 7.94616518935054e-09 1.75727474935892e-08 1.05861043354704e-08 2.46851744104073e-07 2.15496929357882e-07 7.81788943863012e-08 3.03562137204693e-08 2.90998399751988e-08
"657" 12561 7.94616518935054e-09 1.74946953394907e-08 1.05957154324858e-08 2.4752591166889e-07 2.16141493926383e-07 7.80790890828571e-08 3.03650621005541e-08 2.91522417461626e-08
"658" 12562 7.94616518935054e-09 1.74166431853922e-08 1.06053265295012e-08 2.48200079233707e-07 2.16786058494885e-07 7.79792837794131e-08 3.03739104806389e-08 2.92046435171264e-08
"659" 12563 7.94616518935054e-09 1.73385910312938e-08 1.06149376265166e-08 2.48874246798525e-07 2.17430623063387e-07 7.78794784759691e-08 3.03827588607237e-08 2.92570452880902e-08
"660" 12564 7.94616518935054e-09 1.72605388771953e-08 1.0624548723532e-08 2.49548414363342e-07 2.18075187631889e-07 7.7779673172525e-08 3.03916072408085e-08 2.93094470590539e-08
"661" 12565 7.91373635092509e-09 1.72228673472038e-08 1.06222250038176e-08 2.50087404363579e-07 2.1937158902607e-07 7.76601484483771e-08 3.03786019982224e-08 2.93124003453687e-08
"662" 12566 7.88130751249965e-09 1.71851958172122e-08 1.06199012841031e-08 2.50626394363816e-07 2.20667990420252e-07 7.75406237242291e-08 3.03655967556363e-08 2.93153536316835e-08
"663" 12567 7.84887867407419e-09 1.71475242872207e-08 1.06175775643887e-08 2.51165384364053e-07 2.21964391814434e-07 7.74210990000811e-08 3.03525915130502e-08 2.93183069179983e-08
"664" 12568 7.81644983564875e-09 1.71098527572291e-08 1.06152538446742e-08 2.5170437436429e-07 2.23260793208616e-07 7.73015742759332e-08 3.03395862704641e-08 2.93212602043131e-08
"665" 12569 7.7840209972233e-09 1.70721812272376e-08 1.06129301249598e-08 2.52243364364527e-07 2.24557194602798e-07 7.71820495517852e-08 3.0326581027878e-08 2.93242134906279e-08
"666" 12570 7.75159215879785e-09 1.7034509697246e-08 1.06106064052453e-08 2.52782354364764e-07 2.2585359599698e-07 7.70625248276372e-08 3.03135757852919e-08 2.93271667769427e-08
"667" 12571 7.7191633203724e-09 1.69968381672545e-08 1.06082826855309e-08 2.53321344365001e-07 2.27149997391162e-07 7.69430001034893e-08 3.03005705427058e-08 2.93301200632574e-08
"668" 12572 7.68673448194695e-09 1.69591666372629e-08 1.06059589658164e-08 2.53860334365238e-07 2.28446398785344e-07 7.68234753793413e-08 3.02875653001197e-08 2.93330733495722e-08
"669" 12573 7.6543056435215e-09 1.69214951072714e-08 1.0603635246102e-08 2.54399324365475e-07 2.29742800179525e-07 7.67039506551934e-08 3.02745600575336e-08 2.9336026635887e-08
"670" 12574 7.65747619001124e-09 1.69789155599681e-08 1.05588356107611e-08 2.54871575082862e-07 2.30714629071027e-07 7.66952931527789e-08 3.02527064348627e-08 2.91967731658494e-08
