"time" "channel1" "channel2" "channel3" "channel4" "channel5" "channel6" "channel7" "channel8"
"1428" 39761 1.43802342570371e-08 2.14237718862691e-08 3.99716943534943e-08 2.84932279241594e-07 1.49464793261952e-07 4.48634563807844e-08 6.27056591257666e-09 2.00948932492773e-09
"1429" 39762 1.4333755305163e-08 2.14207971121665e-08 3.99652202034823e-08 2.83922974795316e-07 1.48707617897257e-07 4.50388729461049e-08 6.27056591257666e-09 2.00959209213328e-09
"1430" 39763 1.4287276353289e-08 2.1417822338064e-08 3.99587460534703e-08 2.82913670349039e-07 1.47950442532562e-07 4.52142895114254e-08 6.27056591257666e-09 2.00969485933884e-09
"1431" 39764 1.42407974014149e-08 2.14148475639614e-08 3.99522719034583e-08 2.81904365902761e-07 1.47193267167867e-07 4.53897060767459e-08 6.27056591257666e-09 2.00979762654439e-09
"1432" 39765 1.42154559044112e-08 2.13595845154044e-08 3.99652917445186e-08 2.80617591819226e-07 1.46710601154144e-07 4.55697333493315e-08 6.24203440162824e-09 2.00412089075457e-09
"1433" 39766 1.42149887886186e-08 2.13582932711097e-08 4.00122125910486e-08 2.80624731835378e-07 1.46784481880998e-07 4.56857210397722e-08 6.21021678539461e-09 1.99513579318956e-09
"1434" 39767 1.4214521672826e-08 2.1357002026815e-08 4.00591334375786e-08 2.8063187185153e-07 1.46858362607851e-07 4.58017087302129e-08 6.17839916916099e-09 1.98615069562455e-09
"1435" 39768 1.42140545570334e-08 2.13557107825203e-08 4.01060542841086e-08 2.80639011867682e-07 1.46932243334705e-07 4.59176964206535e-08 6.14658155292736e-09 1.97716559805955e-09
"1436" 39769 1.42135874412408e-08 2.13544195382257e-08 4.01529751306385e-08 2.80646151883834e-07 1.47006124061558e-07 4.60336841110942e-08 6.11476393669373e-09 1.96818050049454e-09
"1437" 39770 1.42131203254481e-08 2.1353128293931e-08 4.01998959771685e-08 2.80653291899986e-07 1.47080004788412e-07 4.61496718015349e-08 6.08294632046011e-09 1.95919540292953e-09
"1438" 39771 1.42126532096555e-08 2.13518370496363e-08 4.02468168236985e-08 2.80660431916138e-07 1.47153885515265e-07 4.62656594919756e-08 6.05112870422648e-09 1.95021030536452e-09
"1439" 39772 1.42121860938629e-08 2.13505458053416e-08 4.02937376702285e-08 2.8066757193229e-07 1.47227766242119e-07 4.63816471824163e-08 6.01931108799285e-09 1.94122520779951e-09
"1440" 39773 1.42117189780703e-08 2.13492545610469e-08 4.03406585167584e-08 2.80674711948442e-07 1.47301646968972e-07 4.64976348728569e-08 5.98749347175923e-09 1.93224011023451e-09
"1441" 39774 1.42089600172634e-08 2.13499760738218e-08 4.03647031864102e-08 2.80634450055448e-07 1.4737327514861e-07 4.66898429698481e-08 5.97033842463216e-09 1.93014233056012e-09
"1442" 39775 1.4155365924138e-08 2.11556930379197e-08 4.0204978896389e-08 2.80562087141144e-07 1.47248417310993e-07 4.68573462331234e-08 5.96694587338273e-09 1.92665860019496e-09
"1443" 39776 1.41017718310126e-08 2.09614100020176e-08 4.00452546063678e-08 2.8048972422684e-07 1.47123559473376e-07 4.70248494963987e-08 5.96355332213329e-09 1.92317486982979e-09
"1444" 39777 1.40481777378872e-08 2.07671269661155e-08 3.98855303163466e-08 2.80417361312536e-07 1.46998701635759e-07 4.71923527596741e-08 5.96016077088386e-09 1.91969113946462e-09
"1445" 39778 1.40088455645891e-08 2.05967131014367e-08 3.96965267319373e-08 2.80773751229794e-07 1.47059067079318e-07 4.71821228026333e-08 5.95716696461508e-09 1.9161046418939e-09
"1446" 39779 1.3969513391291e-08 2.04262992367579e-08 3.95075231475279e-08 2.81130141147052e-07 1.47119432522876e-07 4.71718928455926e-08 5.9541731583463e-09 1.91251814432318e-09
"1447" 39780 1.39163864139582e-08 2.03212299505842e-08 3.93073760080008e-08 2.81828042826384e-07 1.47465136565875e-07 4.73322590573627e-08 5.95776186317223e-09 1.9096283928255e-09
"1448" 39781 1.38632594366254e-08 2.02161606644105e-08 3.91072288684737e-08 2.82525944505716e-07 1.47810840608874e-07 4.74926252691328e-08 5.96135056799815e-09 1.90673864132781e-09
"1449" 39782 1.38101324592926e-08 2.01110913782369e-08 3.89070817289466e-08 2.83223846185047e-07 1.48156544651873e-07 4.76529914809029e-08 5.96493927282408e-09 1.90384888983012e-09
"1450" 39783 1.37570054819599e-08 2.00060220920632e-08 3.87069345894196e-08 2.83921747864379e-07 1.48502248694873e-07 4.78133576926731e-08 5.96852797765e-09 1.90095913833243e-09
"1451" 39784 1.37038785046271e-08 1.99009528058895e-08 3.85067874498925e-08 2.84619649543711e-07 1.48847952737872e-07 4.79737239044432e-08 5.97211668247593e-09 1.89806938683475e-09
"1452" 39785 1.36507515272943e-08 1.97958835197159e-08 3.83066403103654e-08 2.85317551223042e-07 1.49193656780871e-07 4.81340901162133e-08 5.97570538730185e-09 1.89517963533706e-09
"1453" 39786 1.35976245499615e-08 1.96908142335422e-08 3.81064931708383e-08 2.86015452902374e-07 1.4953936082387e-07 4.82944563279834e-08 5.97929409212778e-09 1.89228988383937e-09
"1454" 39787 1.35444975726287e-08 1.95857449473685e-08 3.79063460313112e-08 2.86713354581706e-07 1.49885064866869e-07 4.84548225397536e-08 5.9828827969537e-09 1.88940013234168e-09
"1455" 39788 1.34913705952959e-08 1.94806756611949e-08 3.77061988917841e-08 2.87411256261038e-07 1.50230768909868e-07 4.86151887515237e-08 5.98647150177963e-09 1.88651038084400e-09
"1456" 39789 1.34382436179631e-08 1.93756063750212e-08 3.7506051752257e-08 2.88109157940369e-07 1.50576472952867e-07 4.87755549632938e-08 5.99006020660555e-09 1.88362062934631e-09
"1457" 39790 1.34105846869325e-08 1.93560111423462e-08 3.64303128194779e-08 2.88584767229365e-07 1.50528850188362e-07 4.84456794395035e-08 5.9502548151034e-09 1.8758461138821e-09
"1458" 39791 1.34118157510632e-08 1.94462046537084e-08 3.63966492670607e-08 2.892914422937e-07 1.51050020957638e-07 4.8636369734765e-08 5.95384351992933e-09 1.87644009274958e-09
"1459" 39792 1.34119483486737e-08 1.94471844153421e-08 3.71376731067153e-08 2.89869537882565e-07 1.51133641923014e-07 4.86433302058538e-08 5.96521612105407e-09 1.87703407161706e-09
"1460" 39793 1.34591912488858e-08 1.94494021874686e-08 3.71668143935538e-08 2.90086515851561e-07 1.51534473398213e-07 4.87443773753304e-08 5.96192357794119e-09 1.87882354967478e-09
"1461" 39794 1.3506434149098e-08 1.9451619959595e-08 3.71959556803922e-08 2.90303493820558e-07 1.51935304873413e-07 4.88454245448069e-08 5.9586310348283e-09 1.8806130277325e-09
"1462" 39795 1.35536770493101e-08 1.94538377317214e-08 3.72250969672307e-08 2.90520471789554e-07 1.52336136348612e-07 4.89464717142834e-08 5.95533849171541e-09 1.88240250579022e-09
"1463" 39796 1.36009199495223e-08 1.94560555038479e-08 3.72542382540691e-08 2.9073744975855e-07 1.52736967823812e-07 4.90475188837599e-08 5.95204594860252e-09 1.88419198384794e-09
"1464" 39797 1.36481628497344e-08 1.94582732759743e-08 3.72833795409075e-08 2.90954427727547e-07 1.53137799299011e-07 4.91485660532364e-08 5.94875340548964e-09 1.88598146190566e-09
"1465" 39798 1.36611997537431e-08 1.9467304065886e-08 3.72833795409075e-08 2.91051343304796e-07 1.53172190553174e-07 4.92349170903434e-08 5.96012600661438e-09 1.8858786947001e-09
"1466" 39799 1.39128244234122e-08 1.95392230622168e-08 3.7372214421772e-08 2.91069388827919e-07 1.53485172686958e-07 4.93035679099276e-08 5.96790732778213e-09 1.89743770069085e-09
"1467" 39800 1.41644490930813e-08 1.96111420585475e-08 3.74610493026365e-08 2.91087434351043e-07 1.53798154820741e-07 4.93722187295117e-08 5.97568864894988e-09 1.90899670668161e-09
"1468" 39801 1.44160737627504e-08 1.96830610548783e-08 3.7549884183501e-08 2.91105479874167e-07 1.54111136954525e-07 4.94408695490959e-08 5.98346997011764e-09 1.92055571267236e-09
"1469" 39802 1.46676984324195e-08 1.97549800512091e-08 3.76387190643655e-08 2.91123525397291e-07 1.54424119088309e-07 4.950952036868e-08 5.99125129128539e-09 1.93211471866311e-09
"1470" 39803 1.49193231020886e-08 1.98268990475398e-08 3.772755394523e-08 2.91141570920415e-07 1.54737101222093e-07 4.95781711882642e-08 5.99903261245314e-09 1.94367372465386e-09
"1471" 39804 1.51709477717577e-08 1.98988180438706e-08 3.78163888260944e-08 2.91159616443539e-07 1.55050083355877e-07 4.96468220078483e-08 6.00681393362089e-09 1.95523273064461e-09
"1472" 39805 1.54225724414269e-08 1.99707370402014e-08 3.79052237069589e-08 2.91177661966662e-07 1.55363065489661e-07 4.97154728274325e-08 6.01459525478864e-09 1.96679173663536e-09
"1473" 39806 1.5674197111096e-08 2.00426560365321e-08 3.79940585878234e-08 2.91195707489786e-07 1.55676047623445e-07 4.97841236470166e-08 6.02237657595639e-09 1.97835074262611e-09
"1474" 39807 1.59258217807651e-08 2.01145750328629e-08 3.80828934686879e-08 2.9121375301291e-07 1.55989029757229e-07 4.98527744666008e-08 6.03015789712414e-09 1.98990974861686e-09
"1475" 39808 1.61774464504342e-08 2.01864940291937e-08 3.81717283495524e-08 2.91231798536034e-07 1.56302011891013e-07 4.9921425286185e-08 6.03793921829189e-09 2.00146875460761e-09
"1476" 39809 1.63976119880826e-08 1.98787652601756e-08 3.7574454493668e-08 2.87294746771139e-07 1.54375787665045e-07 4.98890289362926e-08 6.04213183463371e-09 2.01222824731977e-09
"1477" 39810 1.66279861459715e-08 1.98700459529248e-08 3.7634148087694e-08 2.86922589521084e-07 1.54706829203857e-07 4.99507192847879e-08 6.03445052160251e-09 2.0219977752528e-09
"1478" 39811 1.68176388798085e-08 1.99330406269478e-08 3.7764522050825e-08 2.86510520076507e-07 1.55035256367898e-07 4.99735289626931e-08 6.0456243940197e-09 2.03007305087839e-09
"1479" 39812 1.70072916136456e-08 1.99960353009708e-08 3.78948960139561e-08 2.86098450631931e-07 1.55363683531938e-07 4.99963386405983e-08 6.05679826643689e-09 2.03814832650397e-09
"1480" 39813 1.71969443474826e-08 2.00590299749939e-08 3.80252699770871e-08 2.85686381187354e-07 1.55692110695979e-07 5.00191483185035e-08 6.06797213885407e-09 2.04622360212955e-09
"1481" 39814 1.73865970813197e-08 2.01220246490169e-08 3.81556439402182e-08 2.85274311742777e-07 1.56020537860019e-07 5.00419579964087e-08 6.07914601127126e-09 2.05429887775514e-09
"1482" 39815 1.74592312607963e-08 2.01853209812512e-08 3.83112122932855e-08 2.85278380233474e-07 1.56033691315759e-07 5.0018527636176e-08 6.08183850556486e-09 2.0630935238196e-09
"1483" 39816 1.74086613236988e-08 2.02403790147513e-08 3.88391498253665e-08 2.85082495422765e-07 1.56049136346015e-07 4.99715560227763e-08 6.08313474864338e-09 2.06350459264182e-09
"1484" 39817 1.73580913866012e-08 2.02954370482514e-08 3.93670873574474e-08 2.84886610612057e-07 1.56064581376272e-07 4.99245844093766e-08 6.0844309917219e-09 2.06391566146403e-09
"1485" 39818 1.73075214495037e-08 2.03504950817514e-08 3.98950248895284e-08 2.84690725801348e-07 1.56080026406529e-07 4.98776127959769e-08 6.08572723480043e-09 2.06432673028625e-09
"1486" 39819 1.72569515124061e-08 2.04055531152515e-08 4.04229624216093e-08 2.8449484099064e-07 1.56095471436786e-07 4.98306411825773e-08 6.08702347787895e-09 2.06473779910847e-09
"1487" 39820 1.72063815753086e-08 2.04606111487516e-08 4.09508999536902e-08 2.84298956179932e-07 1.56110916467042e-07 4.97836695691776e-08 6.08831972095747e-09 2.06514886793069e-09
"1488" 39821 1.7155811638211e-08 2.05156691822517e-08 4.14788374857712e-08 2.84103071369223e-07 1.56126361497299e-07 4.97366979557779e-08 6.089615964036e-09 2.0655599367529e-09
"1489" 39822 1.71052417011135e-08 2.05707272157517e-08 4.20067750178521e-08 2.83907186558515e-07 1.56141806527556e-07 4.96897263423782e-08 6.09091220711452e-09 2.06597100557512e-09
"1490" 39823 1.70546717640159e-08 2.06257852492518e-08 4.25347125499331e-08 2.83711301747807e-07 1.56157251557812e-07 4.96427547289785e-08 6.09220845019305e-09 2.06638207439734e-09
"1491" 39824 1.70041018269184e-08 2.06808432827519e-08 4.3062650082014e-08 2.83515416937098e-07 1.56172696588069e-07 4.95957831155788e-08 6.09350469327157e-09 2.06679314321956e-09
"1492" 39825 1.69535318898208e-08 2.0735901316252e-08 4.35905876140949e-08 2.8331953212639e-07 1.56188141618326e-07 4.95488115021792e-08 6.09480093635009e-09 2.06720421204177e-09
"1493" 39826 1.69029619527232e-08 2.0790959349752e-08 4.41185251461759e-08 2.83123647315681e-07 1.56203586648582e-07 4.95018398887795e-08 6.09609717942862e-09 2.06761528086399e-09
"1494" 39827 1.68523920156257e-08 2.08460173832521e-08 4.46464626782568e-08 2.82927762504973e-07 1.56219031678839e-07 4.94548682753798e-08 6.09739342250714e-09 2.06802634968621e-09
"1495" 39828 1.68018220785281e-08 2.09010754167522e-08 4.51744002103378e-08 2.82731877694265e-07 1.56234476709096e-07 4.94078966619801e-08 6.09868966558566e-09 2.06843741850842e-09
"1496" 39829 1.67512521414306e-08 2.09561334502522e-08 4.57023377424187e-08 2.82535992883556e-07 1.56249921739353e-07 4.93609250485804e-08 6.09998590866419e-09 2.06884848733064e-09
"1497" 39830 1.6700682204333e-08 2.10111914837523e-08 4.62302752744996e-08 2.82340108072848e-07 1.56265366769609e-07 4.93139534351807e-08 6.10128215174271e-09 2.06925955615286e-09
"1498" 39831 1.66198404653968e-08 2.09942161331666e-08 4.66486342603221e-08 2.82374113695722e-07 1.56287761710754e-07 4.93027480444576e-08 6.10217964984058e-09 2.07235484206166e-09
"1499" 39832 1.65131133466265e-08 2.08766425298615e-08 4.66737053577435e-08 2.7927275549802e-07 1.56010432266662e-07 4.92005704032604e-08 6.03724559916373e-09 2.07005906943145e-09
"1500" 39833 1.6466653935453e-08 2.09247357643213e-08 4.7200265356999e-08 2.78389423001424e-07 1.55649758575586e-07 4.90154557428444e-08 6.01699802519688e-09 2.07185608894445e-09
"1501" 39834 1.64201945242794e-08 2.09728289987811e-08 4.77268253562546e-08 2.77506090504828e-07 1.5528908488451e-07 4.88303410824285e-08 5.99675045123002e-09 2.07365310845745e-09
"1502" 39835 1.63737351131059e-08 2.1020922233241e-08 4.82533853555102e-08 2.76622758008231e-07 1.54928411193434e-07 4.86452264220125e-08 5.97650287726317e-09 2.07545012797045e-09
"1503" 39836 1.63272757019323e-08 2.10690154677008e-08 4.87799453547658e-08 2.75739425511635e-07 1.54567737502357e-07 4.84601117615966e-08 5.95625530329632e-09 2.07724714748345e-09
"1504" 39837 1.62738714327545e-08 2.11171087021607e-08 4.88778957992897e-08 2.75874652222713e-07 1.55165077045724e-07 4.86301319233581e-08 6.04154981173193e-09 2.07863309817424e-09
"1505" 39838 1.62204671635767e-08 2.11652019366205e-08 4.89758462438136e-08 2.7600987893379e-07 1.5576241658909e-07 4.88001520851196e-08 6.12684432016754e-09 2.08001904886502e-09
"1506" 39839 1.61629719091754e-08 2.11582371375803e-08 4.90640448725455e-08 2.7530426001943e-07 1.55899850414714e-07 4.86620090381033e-08 6.10530050312216e-09 2.07781850198509e-09
"1507" 39840 1.61054766547741e-08 2.115127233854e-08 4.91522435012774e-08 2.74598641105071e-07 1.56037284240337e-07 4.8523865991087e-08 6.08375668607678e-09 2.07561795510515e-09
"1508" 39841 1.60479814003728e-08 2.11443075394998e-08 4.92404421300092e-08 2.73893022190712e-07 1.56174718065961e-07 4.83857229440708e-08 6.06221286903141e-09 2.07341740822521e-09
"1509" 39842 1.59904861459715e-08 2.11373427404596e-08 4.93286407587411e-08 2.73187403276352e-07 1.56312151891584e-07 4.82475798970545e-08 6.04066905198603e-09 2.07121686134528e-09
"1510" 39843 1.59329908915702e-08 2.11303779414193e-08 4.9416839387473e-08 2.72481784361993e-07 1.56449585717207e-07 4.81094368500382e-08 6.01912523494065e-09 2.06901631446534e-09
"1511" 39844 1.58754956371688e-08 2.11234131423791e-08 4.95050380162049e-08 2.71776165447634e-07 1.56587019542831e-07 4.7971293803022e-08 5.99758141789528e-09 2.0668157675854e-09
"1512" 39845 1.58180003827675e-08 2.11164483433389e-08 4.95932366449368e-08 2.71070546533274e-07 1.56724453368454e-07 4.78331507560057e-08 5.9760376008499e-09 2.06461522070547e-09
"1513" 39846 1.57605051283662e-08 2.11094835442986e-08 4.96814352736687e-08 2.70364927618915e-07 1.56861887194077e-07 4.76950077089894e-08 5.95449378380452e-09 2.06241467382553e-09
"1514" 39847 1.57605051283662e-08 2.11184078666064e-08 4.96916290165762e-08 2.70253171626217e-07 1.56815261935807e-07 4.75894270861799e-08 5.93972863143034e-09 2.05882817625481e-09
"1515" 39848 1.57235597120563e-08 2.11184078666064e-08 4.96926219568219e-08 2.70689708754414e-07 1.56870385180715e-07 4.75580166760719e-08 5.89564220353963e-09 2.05882817625481e-09
"1516" 39849 1.57194687268327e-08 2.10374758249646e-08 4.96926219568219e-08 2.70966076084094e-07 1.57341462130824e-07 4.76049882894716e-08 5.89524345855898e-09 2.05872540904925e-09
"1517" 39850 1.57153777416092e-08 2.09565437833227e-08 4.96926219568219e-08 2.71242443413773e-07 1.57812539080934e-07 4.76519599028713e-08 5.89484471357832e-09 2.0586226418437e-09
"1518" 39851 1.57454294779401e-08 2.0922664060554e-08 4.96021005490432e-08 2.72633655097338e-07 1.5906389786291e-07 4.76544647047333e-08 5.90252731417505e-09 2.06210637220887e-09
"1519" 39852 1.57422034013405e-08 2.08750676749127e-08 4.9547802925781e-08 2.72556120843767e-07 1.59468777573994e-07 4.76859192599454e-08 5.97673765780574e-09 2.07109146977387e-09
"1520" 39853 1.5738977324741e-08 2.08274712892715e-08 4.94935053025188e-08 2.72478586590196e-07 1.59873657285077e-07 4.77173738151576e-08 6.05094800143642e-09 2.08007656733888e-09
"1521" 39854 1.57357512481414e-08 2.07798749036303e-08 4.94392076792566e-08 2.72401052336624e-07 1.6027853699616e-07 4.77488283703697e-08 6.12515834506711e-09 2.08906166490389e-09
"1522" 39855 1.57325251715419e-08 2.0732278517989e-08 4.93849100559944e-08 2.72323518083053e-07 1.60683416707244e-07 4.77802829255818e-08 6.19936868869779e-09 2.0980467624689e-09
"1523" 39856 1.57284341863184e-08 2.06782259108744e-08 4.93361935965356e-08 2.72439922771609e-07 1.62361378962747e-07 4.78308230647341e-08 6.20355744234301e-09 2.09774600230752e-09
"1524" 39857 1.57243432010948e-08 2.06241733037598e-08 4.92874771370768e-08 2.72556327460166e-07 1.6403934121825e-07 4.78813632038864e-08 6.20774619598822e-09 2.09744524214614e-09
"1525" 39858 1.57202522158713e-08 2.05701206966451e-08 4.9238760677618e-08 2.72672732148722e-07 1.65717303473753e-07 4.79319033430386e-08 6.21193494963344e-09 2.09714448198476e-09
"1526" 39859 1.57161612306478e-08 2.05160680895305e-08 4.91900442181592e-08 2.72789136837278e-07 1.67395265729256e-07 4.79824434821909e-08 6.21612370327866e-09 2.09684372182338e-09
"1527" 39860 1.57120702454243e-08 2.04620154824159e-08 4.91413277587004e-08 2.72905541525835e-07 1.6907322798476e-07 4.80329836213432e-08 6.22031245692388e-09 2.09654296166200e-09
"1528" 39861 1.57079792602008e-08 2.04079628753012e-08 4.90926112992417e-08 2.73021946214391e-07 1.70751190240263e-07 4.80835237604955e-08 6.22450121056909e-09 2.09624220150061e-09
"1529" 39862 1.57038882749773e-08 2.03539102681866e-08 4.90438948397829e-08 2.73138350902947e-07 1.72429152495766e-07 4.81340638996478e-08 6.22868996421431e-09 2.09594144133923e-09
"1530" 39863 1.56997972897538e-08 2.0299857661072e-08 4.89951783803241e-08 2.73254755591503e-07 1.74107114751269e-07 4.81846040388001e-08 6.23287871785953e-09 2.09564068117785e-09
"1531" 39864 1.56957063045303e-08 2.02458050539573e-08 4.89464619208653e-08 2.7337116028006e-07 1.75785077006772e-07 4.82351441779524e-08 6.23706747150474e-09 2.09533992101647e-09
"1532" 39865 1.56916153193068e-08 2.01917524468427e-08 4.88977454614065e-08 2.73487564968616e-07 1.77463039262276e-07 4.82856843171047e-08 6.24125622514996e-09 2.09503916085509e-09
"1533" 39866 1.56875243340833e-08 2.01376998397281e-08 4.88490290019478e-08 2.73603969657172e-07 1.79141001517779e-07 4.8336224456257e-08 6.24544497879518e-09 2.09473840069371e-09
"1534" 39867 1.56834333488598e-08 2.00836472326134e-08 4.8800312542489e-08 2.73720374345729e-07 1.80818963773282e-07 4.83867645954093e-08 6.24963373244039e-09 2.09443764053233e-09
"1535" 39868 1.56332867936061e-08 2.00834342974055e-08 4.87095963011589e-08 2.73944539029472e-07 1.82485826456473e-07 4.84160801363902e-08 6.24434746442422e-09 2.07806647195949e-09
"1536" 39869 1.56021938170922e-08 2.01189798053814e-08 4.87314369182902e-08 2.74212570638232e-07 1.8411729398472e-07 4.83014772821928e-08 6.24085361747269e-09 2.07597623374039e-09
"1537" 39870 1.55711008405782e-08 2.01545253133574e-08 4.87532775354214e-08 2.74480602246992e-07 1.85748761512966e-07 4.81868744279955e-08 6.23735977052117e-09 2.07388599552129e-09
"1538" 39871 1.55400078640643e-08 2.01900708213334e-08 4.87751181525527e-08 2.74748633855753e-07 1.87380229041213e-07 4.80722715737981e-08 6.23386592356965e-09 2.07179575730219e-09
"1539" 39872 1.55089148875504e-08 2.02256163293094e-08 4.87969587696839e-08 2.75016665464513e-07 1.89011696569459e-07 4.79576687196007e-08 6.23037207661813e-09 2.06970551908309e-09
"1540" 39873 1.55394276913617e-08 2.02293126161868e-08 4.88187993868152e-08 2.75049043691109e-07 1.89127981233104e-07 4.78394973396507e-08 6.22268947602139e-09 2.06970551908309e-09
"1541" 39874 1.55292190711213e-08 2.02300696181629e-08 4.89093588481064e-08 2.75664219414591e-07 1.89950881321913e-07 4.7814814578487e-08 6.22937328281818e-09 2.06851001989285e-09
"1542" 39875 1.55190104508808e-08 2.02308266201391e-08 4.89999183093976e-08 2.76279395138073e-07 1.90773781410723e-07 4.77901318173233e-08 6.23605708961497e-09 2.06731452070261e-09
"1543" 39876 1.55088018306404e-08 2.02315836221152e-08 4.90904777706889e-08 2.76894570861555e-07 1.91596681499532e-07 4.77654490561595e-08 6.24274089641176e-09 2.06611902151237e-09
"1544" 39877 1.54985932103999e-08 2.02323406240913e-08 4.91810372319801e-08 2.77509746585037e-07 1.92419581588342e-07 4.77407662949958e-08 6.24942470320855e-09 2.06492352232213e-09
"1545" 39878 1.54883845901595e-08 2.02330976260675e-08 4.92715966932713e-08 2.78124922308519e-07 1.93242481677151e-07 4.77160835338321e-08 6.25610851000533e-09 2.06372802313189e-09
"1546" 39879 1.54781759699191e-08 2.02338546280436e-08 4.93621561545626e-08 2.78740098032001e-07 1.94065381765961e-07 4.76914007726683e-08 6.26279231680212e-09 2.06253252394165e-09
"1547" 39880 1.54679673496786e-08 2.02346116300198e-08 4.94527156158538e-08 2.79355273755483e-07 1.9488828185477e-07 4.76667180115046e-08 6.26947612359891e-09 2.06133702475141e-09
"1548" 39881 1.54577587294382e-08 2.02353686319959e-08 4.9543275077145e-08 2.79970449478965e-07 1.9571118194358e-07 4.76420352503409e-08 6.2761599303957e-09 2.06014152556117e-09
"1549" 39882 1.54475501091977e-08 2.02361256339721e-08 4.96338345384363e-08 2.80585625202447e-07 1.9653408203239e-07 4.76173524891771e-08 6.28284373719249e-09 2.05894602637093e-09
"1550" 39883 1.54373414889573e-08 2.02368826359482e-08 4.97243939997275e-08 2.81200800925929e-07 1.97356982121199e-07 4.75926697280134e-08 6.28952754398927e-09 2.05775052718069e-09
"1551" 39884 1.54271328687168e-08 2.02376396379243e-08 4.98149534610188e-08 2.81815976649411e-07 1.98179882210009e-07 4.75679869668497e-08 6.29621135078606e-09 2.05655502799045e-09
"1552" 39885 1.54169242484764e-08 2.02383966399005e-08 4.990551292231e-08 2.82431152372893e-07 1.99002782298818e-07 4.75433042056859e-08 6.30289515758285e-09 2.05535952880021e-09
"1553" 39886 1.5406715628236e-08 2.02391536418766e-08 4.99960723836012e-08 2.83046328096375e-07 1.99825682387628e-07 4.75186214445222e-08 6.30957896437964e-09 2.05416402960997e-09
"1554" 39887 1.53965070079955e-08 2.02399106438528e-08 5.00866318448925e-08 2.83661503819857e-07 2.00648582476437e-07 4.74939386833584e-08 6.31626277117643e-09 2.05296853041973e-09
"1555" 39888 1.53862983877551e-08 2.02406676458289e-08 5.01771913061837e-08 2.84276679543339e-07 2.01471482565247e-07 4.74692559221947e-08 6.32294657797321e-09 2.05177303122949e-09
"1556" 39889 1.53760897675146e-08 2.02414246478051e-08 5.02677507674749e-08 2.84891855266821e-07 2.02294382654056e-07 4.7444573161031e-08 6.32963038477e-09 2.05057753203925e-09
"1557" 39890 1.53961092151642e-08 2.02174135197765e-08 4.98721111784918e-08 2.81535883191628e-07 2.02119675082911e-07 4.75754130822276e-08 6.33741428106882e-09 2.0514722710681e-09
"1558" 39891 1.54161286628137e-08 2.01934023917479e-08 4.94764715895087e-08 2.78179911116436e-07 2.01944967511766e-07 4.77062530034243e-08 6.34519817736765e-09 2.05236701009696e-09
"1559" 39892 1.54372465769835e-08 2.01584009505401e-08 4.95806303179912e-08 2.77661473675675e-07 2.02075787015852e-07 4.78442084337482e-08 6.35996332974183e-09 2.05216147568586e-09
"1560" 39893 1.54583644911533e-08 2.01233995093322e-08 4.96847890464737e-08 2.77143036234914e-07 2.02206606519938e-07 4.79821638640721e-08 6.37472848211601e-09 2.05195594127475e-09
"1561" 39894 1.54608266194147e-08 2.00896005894158e-08 4.97202289307962e-08 2.77009189577694e-07 2.02059411952123e-07 4.79944776539639e-08 6.41493133103329e-09 2.07059271665667e-09
"1562" 39895 1.54632887476762e-08 2.00558016694993e-08 4.97556688151188e-08 2.76875342920474e-07 2.01912217384308e-07 4.80067914438557e-08 6.45513417995057e-09 2.08922949203859e-09
"1563" 39896 1.54632887476762e-08 2.00287092997642e-08 4.98694271453432e-08 2.75693648272159e-07 2.01206077341323e-07 4.80067914438557e-08 6.46630805236775e-09 2.09021945681772e-09
"1564" 39897 1.54632887476762e-08 2.0001616930029e-08 4.99831854755676e-08 2.74511953623844e-07 2.00499937298338e-07 4.80067914438557e-08 6.47748192478494e-09 2.09120942159685e-09
"1565" 39898 1.54632887476762e-08 1.99745245602939e-08 5.0096943805792e-08 2.73330258975529e-07 1.99793797255353e-07 4.80067914438557e-08 6.48865579720213e-09 2.09219938637598e-09
"1566" 39899 1.54632887476762e-08 1.99474321905587e-08 5.02107021360164e-08 2.72148564327214e-07 1.99087657212367e-07 4.80067914438557e-08 6.49982966961932e-09 2.09318935115511e-09
"1567" 39900 1.54632887476762e-08 1.99203398208236e-08 5.03244604662409e-08 2.70966869678899e-07 1.98381517169382e-07 4.80067914438557e-08 6.5110035420365e-09 2.09417931593425e-09
"1568" 39901 1.54632887476762e-08 1.98932474510884e-08 5.04382187964653e-08 2.69785175030584e-07 1.97675377126397e-07 4.80067914438557e-08 6.52217741445369e-09 2.09516928071338e-09
"1569" 39902 1.54632887476762e-08 1.98661550813533e-08 5.05519771266897e-08 2.68603480382269e-07 1.96969237083412e-07 4.80067914438557e-08 6.53335128687088e-09 2.09615924549251e-09
"1570" 39903 1.53805213192323e-08 1.98390627116181e-08 5.06682150159998e-08 2.68576818946653e-07 1.94836757496194e-07 4.75641651369226e-08 6.48617490727145e-09 2.05543685847152e-09
"1571" 39904 1.52977538907885e-08 1.98119703418829e-08 5.07844529053098e-08 2.68550157511036e-07 1.92704277908977e-07 4.71215388299894e-08 6.43899852767203e-09 2.01471447145052e-09
"1572" 39905 1.51056450770021e-08 1.9772141070909e-08 5.07480627002428e-08 2.64902271780206e-07 1.90379762055258e-07 4.66134428992159e-08 6.40608597219851e-09 2.0166067167138e-09
"1573" 39906 1.49135362632157e-08 1.97323117999351e-08 5.07116724951758e-08 2.61254386049375e-07 1.8805524620154e-07 4.61053469684423e-08 6.373173416725e-09 2.01849896197707e-09
"1574" 39907 1.47214274494292e-08 1.96924825289612e-08 5.06752822901088e-08 2.57606500318544e-07 1.85730730347821e-07 4.55972510376688e-08 6.34026086125148e-09 2.02039120724034e-09
"1575" 39908 1.45580760331937e-08 1.96447086973134e-08 5.05308052321463e-08 2.55386871652444e-07 1.84642626338926e-07 4.510350805436e-08 6.30315568943614e-09 2.02438877363328e-09
"1576" 39909 1.43947246169582e-08 1.95969348656655e-08 5.03863281741838e-08 2.53167242986345e-07 1.83554522330031e-07 4.46097650710511e-08 6.2660505176208e-09 2.02838634002622e-09
"1577" 39910 1.42313732007226e-08 1.95491610340176e-08 5.02418511162213e-08 2.50947614320246e-07 1.82466418321137e-07 4.41160220877423e-08 6.22894534580545e-09 2.03238390641916e-09
"1578" 39911 1.40680217844871e-08 1.95013872023697e-08 5.00973740582587e-08 2.48727985654146e-07 1.81378314312242e-07 4.36222791044335e-08 6.19184017399011e-09 2.0363814728121e-09
"1579" 39912 1.39046703682516e-08 1.94536133707218e-08 4.99528970002962e-08 2.46508356988047e-07 1.80290210303347e-07 4.31285361211247e-08 6.15473500217477e-09 2.04037903920503e-09
"1580" 39913 1.37413189520161e-08 1.94058395390739e-08 4.98084199423337e-08 2.44288728321947e-07 1.79202106294452e-07 4.26347931378159e-08 6.11762983035943e-09 2.04437660559797e-09
"1581" 39914 1.35779675357805e-08 1.9358065707426e-08 4.96639428843712e-08 2.42069099655848e-07 1.78114002285557e-07 4.2141050154507e-08 6.08052465854409e-09 2.04837417199091e-09
"1582" 39915 1.3414616119545e-08 1.93102918757782e-08 4.95194658264086e-08 2.39849470989749e-07 1.77025898276663e-07 4.16473071711982e-08 6.04341948672875e-09 2.05237173838385e-09
"1583" 39916 1.33516089918419e-08 1.926772833496e-08 4.94942714364723e-08 2.37342922171755e-07 1.75696052247861e-07 4.12241879473903e-08 6.00482063069285e-09 2.06403351158015e-09
"1584" 39917 1.32886018641387e-08 1.92251647941417e-08 4.9469077046536e-08 2.34836373353762e-07 1.74366206219059e-07 4.08010687235824e-08 5.96622177465696e-09 2.07569528477646e-09
"1585" 39918 1.32255947364356e-08 1.91826012533235e-08 4.94438826565997e-08 2.32329824535769e-07 1.73036360190258e-07 4.03779494997745e-08 5.92762291862107e-09 2.08735705797276e-09
"1586" 39919 1.31625876087325e-08 1.91400377125053e-08 4.94186882666634e-08 2.29823275717776e-07 1.71706514161456e-07 3.99548302759667e-08 5.88902406258518e-09 2.09901883116907e-09
"1587" 39920 1.30995804810293e-08 1.90974741716871e-08 4.93934938767271e-08 2.27316726899783e-07 1.70376668132654e-07 3.95317110521588e-08 5.85042520654929e-09 2.11068060436537e-09
"1588" 39921 1.30365733533262e-08 1.90549106308689e-08 4.93682994867908e-08 2.24810178081789e-07 1.69046822103853e-07 3.91085918283509e-08 5.8118263505134e-09 2.12234237756168e-09
"1589" 39922 1.29735662256231e-08 1.90123470900507e-08 4.93431050968545e-08 2.22303629263796e-07 1.67716976075051e-07 3.8685472604543e-08 5.77322749447751e-09 2.13400415075798e-09
"1590" 39923 1.291055909792e-08 1.89697835492325e-08 4.93179107069182e-08 2.19797080445803e-07 1.66387130046249e-07 3.82623533807351e-08 5.73462863844162e-09 2.14566592395429e-09
"1591" 39924 1.28475519702168e-08 1.89272200084143e-08 4.92927163169819e-08 2.1729053162781e-07 1.65057284017448e-07 3.78392341569272e-08 5.69602978240573e-09 2.15732769715059e-09
"1592" 39925 1.27845448425137e-08 1.88846564675961e-08 4.92675219270456e-08 2.14783982809817e-07 1.63727437988646e-07 3.74161149331193e-08 5.65743092636984e-09 2.16898947034690e-09
"1593" 39926 1.28701163614775e-08 1.88905882712006e-08 4.93741647806025e-08 2.15791470079148e-07 1.64798345380441e-07 3.74867386926203e-08 5.62521585272109e-09 2.16018728282715e-09
"1594" 39927 1.29414892352632e-08 1.88477763059731e-08 4.94991189259576e-08 2.16852347281317e-07 1.65875391051581e-07 3.7574220201448e-08 5.6280109302823e-09 2.16964850914352e-09
"1595" 39928 1.30128621090488e-08 1.88049643407456e-08 4.96240730713127e-08 2.17913224483487e-07 1.6695243672272e-07 3.76617017102757e-08 5.63080600784352e-09 2.17910973545988e-09
"1596" 39929 1.30842349828345e-08 1.87621523755181e-08 4.97490272166678e-08 2.18974101685657e-07 1.6802948239386e-07 3.77491832191034e-08 5.63360108540474e-09 2.18857096177625e-09
"1597" 39930 1.30552635680878e-08 1.87937886614087e-08 4.97428853992225e-08 2.21962522035338e-07 1.69156821207967e-07 3.77928627438251e-08 5.63220483418967e-09 2.18826266015959e-09
"1598" 39931 1.3080302184234e-08 1.88769109061266e-08 4.99769812382435e-08 2.21893148653451e-07 1.69214122472767e-07 3.77996124653215e-08 5.63649359597143e-09 2.21131561221195e-09
"1599" 39932 1.31053408003802e-08 1.89600331508446e-08 5.02110770772645e-08 2.21823775271564e-07 1.69271423737568e-07 3.78063621868178e-08 5.6407823577532e-09 2.23436856426431e-09
"1600" 39933 1.31303794165264e-08 1.90431553955625e-08 5.04451729162855e-08 2.21754401889677e-07 1.69328725002368e-07 3.78131119083141e-08 5.64507111953496e-09 2.25742151631666e-09
"1601" 39934 1.31554180326726e-08 1.91262776402805e-08 5.06792687553065e-08 2.2168502850779e-07 1.69386026267169e-07 3.78198616298104e-08 5.64935988131673e-09 2.28047446836902e-09
"1602" 39935 1.31804566488188e-08 1.92093998849984e-08 5.09133645943275e-08 2.21615655125902e-07 1.69443327531969e-07 3.78266113513068e-08 5.65364864309849e-09 2.30352742042138e-09
"1603" 39936 1.3205495264965e-08 1.92925221297164e-08 5.11474604333484e-08 2.21546281744015e-07 1.6950062879677e-07 3.78333610728031e-08 5.65793740488026e-09 2.32658037247374e-09
"1604" 39937 1.32305338811112e-08 1.93756443744343e-08 5.13815562723694e-08 2.21476908362128e-07 1.6955793006157e-07 3.78401107942994e-08 5.66222616666203e-09 2.34963332452610e-09
"1605" 39938 1.32555724972574e-08 1.94587666191523e-08 5.16156521113904e-08 2.21407534980241e-07 1.69615231326371e-07 3.78468605157958e-08 5.66651492844379e-09 2.37268627657845e-09
"1606" 39939 1.32806111134036e-08 1.95418888638702e-08 5.18497479504114e-08 2.21338161598354e-07 1.69672532591171e-07 3.78536102372921e-08 5.67080369022556e-09 2.39573922863081e-09
"1607" 39940 1.33056497295498e-08 1.96250111085882e-08 5.20838437894324e-08 2.21268788216467e-07 1.69729833855972e-07 3.78603599587884e-08 5.67509245200732e-09 2.41879218068317e-09
"1608" 39941 1.3330688345696e-08 1.97081333533061e-08 5.23179396284534e-08 2.21199414834579e-07 1.69787135120772e-07 3.78671096802847e-08 5.67938121378909e-09 2.44184513273553e-09
"1609" 39942 1.33557269618422e-08 1.97912555980241e-08 5.25520354674743e-08 2.21130041452692e-07 1.69844436385573e-07 3.78738594017811e-08 5.68366997557085e-09 2.46489808478788e-09
"1610" 39943 1.33807655779884e-08 1.9874377842742e-08 5.27861313064953e-08 2.21060668070805e-07 1.69901737650373e-07 3.78806091232774e-08 5.68795873735262e-09 2.48795103684024e-09
"1611" 39944 1.34058041941346e-08 1.995750008746e-08 5.30202271455163e-08 2.20991294688918e-07 1.69959038915174e-07 3.78873588447737e-08 5.69224749913439e-09 2.5110039888926e-09
"1612" 39945 1.34308428102808e-08 2.00406223321779e-08 5.32543229845373e-08 2.20921921307031e-07 1.70016340179974e-07 3.78941085662701e-08 5.69653626091615e-09 2.53405694094496e-09
"1613" 39946 1.3455881426427e-08 2.01237445768959e-08 5.34884188235583e-08 2.20852547925143e-07 1.70073641444775e-07 3.79008582877664e-08 5.70082502269792e-09 2.55710989299732e-09
"1614" 39947 1.35305045700605e-08 2.02556105904458e-08 5.37278299603293e-08 2.20691765613308e-07 1.69864360932069e-07 3.79069873269352e-08 5.68436230713348e-09 2.57877689435889e-09
"1615" 39948 1.36051277136939e-08 2.03874766039958e-08 5.39672410971004e-08 2.20530983301472e-07 1.69655080419362e-07 3.7913116366104e-08 5.66789959156904e-09 2.60044389572046e-09
"1616" 39949 1.36223188775753e-08 2.03507916329801e-08 5.41952996387019e-08 2.20153581677971e-07 1.6971312165565e-07 3.79030083382736e-08 5.67148829639497e-09 2.62169982825982e-09
"1617" 39950 1.36395100414566e-08 2.03141066619644e-08 5.44233581803035e-08 2.1977618005447e-07 1.69771162891938e-07 3.78929003104431e-08 5.67507700122089e-09 2.64295576079918e-09
"1618" 39951 1.35763959051556e-08 2.01703238074035e-08 5.44361547748117e-08 2.19450287111541e-07 1.69837063568916e-07 3.78890322147158e-08 5.67627194859733e-09 2.64295576079918e-09
"1619" 39952 1.35132817688546e-08 2.00265409528425e-08 5.44489513693199e-08 2.19124394168611e-07 1.69902964245894e-07 3.78851641189884e-08 5.67746689597377e-09 2.64295576079918e-09
"1620" 39953 1.34667213973951e-08 1.98736208407659e-08 5.44489513693199e-08 2.193735228438e-07 1.70348272724957e-07 3.78779266806509e-08 5.67407434472433e-09 2.64085043966951e-09
"1621" 39954 1.34201610259357e-08 1.97207007286893e-08 5.44489513693199e-08 2.19622651518988e-07 1.7079358120402e-07 3.78706892423134e-08 5.6706817934749e-09 2.63874511853985e-09
"1622" 39955 1.33736006544763e-08 1.95677806166126e-08 5.44489513693199e-08 2.19871780194176e-07 1.71238889683082e-07 3.78634518039759e-08 5.66728924222546e-09 2.63663979741018e-09
"1623" 39956 1.33270402830169e-08 1.9414860504536e-08 5.44489513693199e-08 2.20120908869364e-07 1.71684198162145e-07 3.78562143656383e-08 5.66389669097602e-09 2.63453447628052e-09
"1624" 39957 1.32804799115575e-08 1.92619403924594e-08 5.44489513693199e-08 2.20370037544552e-07 1.72129506641208e-07 3.78489769273008e-08 5.66050413972659e-09 2.63242915515085e-09
"1625" 39958 1.32339195400981e-08 1.91090202803828e-08 5.44489513693199e-08 2.2061916621974e-07 1.7257481512027e-07 3.78417394889633e-08 5.65711158847715e-09 2.63032383402119e-09
"1626" 39959 1.31873591686387e-08 1.89561001683061e-08 5.44489513693199e-08 2.20868294894928e-07 1.73020123599333e-07 3.78345020506258e-08 5.65371903722771e-09 2.62821851289152e-09
"1627" 39960 1.31407987971793e-08 1.88031800562295e-08 5.44489513693199e-08 2.21117423570116e-07 1.73465432078396e-07 3.78272646122883e-08 5.65032648597828e-09 2.62611319176186e-09
"1628" 39961 1.31591833395547e-08 1.87292128136279e-08 5.44308917370745e-08 2.20164120109746e-07 1.73675081473218e-07 3.78200271739508e-08 5.64962771658797e-09 2.62441893945441e-09
"1629" 39962 1.31614374989323e-08 1.86641442285824e-08 5.44423488522699e-08 2.2032566100326e-07 1.74120389952281e-07 3.75287437870518e-08 5.60284106901046e-09 2.62441893945441e-09
"1630" 39963 1.316369165831e-08 1.85990756435368e-08 5.44538059674652e-08 2.20487201896775e-07 1.74565698431344e-07 3.72374604001529e-08 5.55605442143294e-09 2.62441893945441e-09
"1631" 39964 1.31659458176877e-08 1.85340070584913e-08 5.44652630826606e-08 2.20648742790289e-07 1.75011006910406e-07 3.69461770132539e-08 5.50926777385543e-09 2.62441893945441e-09
"1632" 39965 1.31659458176877e-08 1.85432428634599e-08 5.46335757702232e-08 2.20274885109776e-07 1.75424929443106e-07 3.66477781172278e-08 5.46946238235327e-09 2.62652426058408e-09
"1633" 39966 1.31659458176877e-08 1.85524786684286e-08 5.48018884577858e-08 2.19901027429264e-07 1.75838851975806e-07 3.63493792212016e-08 5.42965699085112e-09 2.62862958171374e-09
"1634" 39967 1.31659458176877e-08 1.85617144733973e-08 5.49702011453484e-08 2.19527169748752e-07 1.76252774508506e-07 3.60509803251755e-08 5.38985159934897e-09 2.6307349028434e-09
"1635" 39968 1.31659458176877e-08 1.85709502783659e-08 5.5138513832911e-08 2.19153312068239e-07 1.76666697041206e-07 3.57525814291493e-08 5.35004620784681e-09 2.63284022397307e-09
"1636" 39969 1.31659458176877e-08 1.85801860833346e-08 5.53068265204736e-08 2.18779454387727e-07 1.77080619573905e-07 3.54541825331231e-08 5.31024081634466e-09 2.63494554510273e-09
"1637" 39970 1.31659458176877e-08 1.85894218883033e-08 5.54751392080361e-08 2.18405596707215e-07 1.77494542106605e-07 3.5155783637097e-08 5.2704354248425e-09 2.6370508662324e-09
"1638" 39971 1.31659458176877e-08 1.85986576932719e-08 5.56434518955987e-08 2.18031739026702e-07 1.77908464639305e-07 3.48573847410708e-08 5.23063003334035e-09 2.63915618736206e-09
"1639" 39972 1.31659458176877e-08 1.86078934982406e-08 5.58117645831613e-08 2.1765788134619e-07 1.78322387172005e-07 3.45589858450447e-08 5.19082464183820e-09 2.64126150849173e-09
"1640" 39973 1.31659458176877e-08 1.86171293032092e-08 5.59800772707239e-08 2.17284023665678e-07 1.78736309704705e-07 3.42605869490185e-08 5.15101925033604e-09 2.64336682962139e-09
"1641" 39974 1.34081500087027e-08 1.85361715968157e-08 5.59879528005734e-08 2.16800148703655e-07 1.79072941820614e-07 3.39599381458269e-08 5.10602888651979e-09 2.64506108192884e-09
"1642" 39975 1.36503541997177e-08 1.84552138904222e-08 5.59958283304228e-08 2.16316273741633e-07 1.79409573936524e-07 3.36592893426353e-08 5.06103852270354e-09 2.64675533423629e-09
"1643" 39976 1.38925583907327e-08 1.83742561840287e-08 5.60037038602723e-08 2.15832398779611e-07 1.79746206052433e-07 3.33586405394437e-08 5.01604815888729e-09 2.64844958654373e-09
"1644" 39977 1.41347625817477e-08 1.82932984776352e-08 5.60115793901217e-08 2.15348523817589e-07 1.80082838168343e-07 3.30579917362521e-08 4.97105779507104e-09 2.65014383885118e-09
"1645" 39978 1.43769667727627e-08 1.82123407712417e-08 5.60194549199712e-08 2.14864648855566e-07 1.80419470284252e-07 3.27573429330605e-08 4.9260674312548e-09 2.65183809115863e-09
"1646" 39979 1.46191709637777e-08 1.81313830648482e-08 5.60273304498206e-08 2.14380773893544e-07 1.80756102400162e-07 3.24566941298689e-08 4.88107706743855e-09 2.65353234346608e-09
"1647" 39980 1.48613751547927e-08 1.80504253584547e-08 5.60352059796701e-08 2.13896898931522e-07 1.81092734516071e-07 3.21560453266773e-08 4.8360867036223e-09 2.65522659577352e-09
"1648" 39981 1.51035793458077e-08 1.79694676520612e-08 5.60430815095195e-08 2.134130239695e-07 1.8142936663198e-07 3.18553965234857e-08 4.79109633980605e-09 2.65692084808097e-09
"1649" 39982 1.53457835368227e-08 1.78885099456677e-08 5.6050957039369e-08 2.12929149007478e-07 1.8176599874789e-07 3.15547477202941e-08 4.7461059759898e-09 2.65861510038842e-09
"1650" 39983 1.51808921272868e-08 1.75649985229056e-08 5.55076768871809e-08 2.08902120496665e-07 1.8094075747542e-07 3.14528249737934e-08 4.71608464351744e-09 2.63694809902684e-09
"1651" 39984 1.53856326081742e-08 1.73697357253697e-08 5.54269691957188e-08 2.08831726259246e-07 1.80993488380282e-07 3.09313835777175e-08 4.71239335542389e-09 2.56085948941585e-09
"1652" 39985 1.56209612641462e-08 1.73209821320881e-08 5.54347402055424e-08 2.07749332625143e-07 1.80219296538644e-07 3.09261632244008e-08 4.71289339610664e-09 2.5646439799424e-09
"1653" 39986 1.58562899201182e-08 1.72722285388065e-08 5.5442511215366e-08 2.0666693899104e-07 1.79445104697005e-07 3.09209428710842e-08 4.71339343678938e-09 2.56842847046894e-09
"1654" 39987 1.60916185760902e-08 1.72234749455248e-08 5.54502822251896e-08 2.05584545356937e-07 1.78670912855367e-07 3.09157225177676e-08 4.71389347747212e-09 2.57221296099549e-09
"1655" 39988 1.60828745778768e-08 1.71769391243696e-08 5.54495079655073e-08 2.05519797862605e-07 1.77560467041751e-07 3.09183382125639e-08 4.7360412060334e-09 2.57221296099549e-09
"1656" 39989 1.69799113702243e-08 1.76327738087451e-08 5.56163573727078e-08 2.0521601051563e-07 1.77224476999069e-07 3.1118770748025e-08 4.73813751420431e-09 2.59663678082807e-09
"1657" 39990 1.78769481625718e-08 1.80886084931206e-08 5.57832067799083e-08 2.04912223168656e-07 1.76888486956386e-07 3.1319203283486e-08 4.74023382237522e-09 2.62106060066065e-09
"1658" 39991 1.87739849549192e-08 1.85444431774961e-08 5.59500561871088e-08 2.04608435821681e-07 1.76552496913704e-07 3.15196358189471e-08 4.74233013054614e-09 2.64548442049322e-09
"1659" 39992 1.96710217472667e-08 1.90002778618716e-08 5.61169055943093e-08 2.04304648474707e-07 1.76216506871022e-07 3.17200683544082e-08 4.74442643871705e-09 2.6699082403258e-09
"1660" 39993 2.05680585396142e-08 1.94561125462471e-08 5.62837550015098e-08 2.04000861127732e-07 1.7588051682834e-07 3.19205008898692e-08 4.74652274688796e-09 2.69433206015838e-09
"1661" 39994 2.14650953319617e-08 1.99119472306226e-08 5.64506044087103e-08 2.03697073780758e-07 1.75544526785657e-07 3.21209334253303e-08 4.74861905505887e-09 2.71875587999096e-09
"1662" 39995 2.23621321243092e-08 2.03677819149981e-08 5.66174538159108e-08 2.03393286433783e-07 1.75208536742975e-07 3.23213659607914e-08 4.75071536322979e-09 2.74317969982353e-09
"1663" 39996 2.32591689166567e-08 2.08236165993735e-08 5.67843032231113e-08 2.03089499086809e-07 1.74872546700293e-07 3.25217984962525e-08 4.7528116714007e-09 2.76760351965611e-09
"1664" 39997 2.41562057090042e-08 2.1279451283749e-08 5.69511526303118e-08 2.02785711739834e-07 1.74536556657611e-07 3.27222310317135e-08 4.75490797957161e-09 2.79202733948869e-09
"1665" 39998 2.50532425013517e-08 2.17352859681245e-08 5.71180020375123e-08 2.0248192439286e-07 1.74200566614928e-07 3.29226635671746e-08 4.75700428774252e-09 2.81645115932127e-09
"1666" 39999 2.59502792936992e-08 2.21911206525e-08 5.72848514447128e-08 2.02178137045886e-07 1.73864576572246e-07 3.31230961026357e-08 4.75910059591344e-09 2.84087497915384e-09
"1667" 40000 2.68473160860466e-08 2.26469553368755e-08 5.74517008519133e-08 2.01874349698911e-07 1.73528586529564e-07 3.33235286380967e-08 4.76119690408435e-09 2.86529879898642e-09
"1668" 40001 2.77443528783941e-08 2.3102790021251e-08 5.76185502591138e-08 2.01570562351937e-07 1.73192596486882e-07 3.35239611735578e-08 4.76329321225526e-09 2.889722618819e-09
"1669" 40002 2.86413896707416e-08 2.35586247056265e-08 5.77853996663143e-08 2.01266775004962e-07 1.72856606444199e-07 3.37243937090189e-08 4.76538952042617e-09 2.91414643865158e-09
"1670" 40003 2.95384264630891e-08 2.4014459390002e-08 5.79522490735148e-08 2.00962987657988e-07 1.72520616401517e-07 3.39248262444799e-08 4.76748582859709e-09 2.93857025848415e-09
"1671" 40004 3.04592331218154e-08 2.45127688921924e-08 5.79636346476738e-08 1.97714565434304e-07 1.71352946717691e-07 3.4080193888802e-08 4.75761334952057e-09 2.96189380487676e-09
"1672" 40005 3.13800397805418e-08 2.50110783943827e-08 5.79750202218328e-08 1.94466143210619e-07 1.70185277033865e-07 3.4235561533124e-08 4.74774087044405e-09 2.98521735126937e-09
"1673" 40006 3.22989523870851e-08 2.5459690030859e-08 5.81308828539543e-08 1.94345188654975e-07 1.70890230168644e-07 3.44333783737887e-08 4.75113342169349e-09 2.99409214017354e-09
"1674" 40007 3.32178649936284e-08 2.59083016673354e-08 5.82867454860759e-08 1.9422423409933e-07 1.71595183303422e-07 3.46311952144535e-08 4.75452597294292e-09 3.00296692907771e-09
"1675" 40008 3.41367776001718e-08 2.63569133038117e-08 5.84426081181974e-08 1.94103279543685e-07 1.72300136438201e-07 3.48290120551182e-08 4.75791852419236e-09 3.01184171798189e-09
"1676" 40009 3.50556902067151e-08 2.6805524940288e-08 5.85984707503189e-08 1.9398232498804e-07 1.73005089572979e-07 3.5026828895783e-08 4.76131107544179e-09 3.02071650688606e-09
"1677" 40010 3.50545601028703e-08 2.67618298565811e-08 5.977551897495e-08 1.96049627336992e-07 1.75198065134769e-07 3.50624174776951e-08 4.76260731852032e-09 3.00546823611903e-09
"1678" 40011 3.50718145414008e-08 2.67181347728742e-08 5.99597252957499e-08 1.97255723689308e-07 1.76558797036791e-07 3.51466510429489e-08 4.78903865860122e-09 2.99021996535201e-09
"1679" 40012 3.52978627604055e-08 2.6917803641314e-08 6.00041904302063e-08 2.00383191357347e-07 1.78704511661631e-07 3.51410649020014e-08 4.79712000417861e-09 2.99104210299644e-09
"1680" 40013 3.55239109794103e-08 2.71174725097538e-08 6.00486555646628e-08 2.03510659025387e-07 1.80850226286471e-07 3.51354787610538e-08 4.80520134975601e-09 2.99186424064088e-09
"1681" 40014 3.5749959198415e-08 2.73171413781936e-08 6.00931206991193e-08 2.06638126693426e-07 1.82995940911312e-07 3.51298926201063e-08 4.81328269533341e-09 2.99268637828531e-09
"1682" 40015 3.59760074174197e-08 2.75168102466334e-08 6.01375858335757e-08 2.09765594361465e-07 1.85141655536152e-07 3.51243064791588e-08 4.8213640409108e-09 2.99350851592974e-09
"1683" 40016 3.62020556364244e-08 2.77164791150732e-08 6.01820509680322e-08 2.12893062029504e-07 1.87287370160992e-07 3.51187203382113e-08 4.8294453864882e-09 2.99433065357418e-09
"1684" 40017 3.64281038554292e-08 2.7916147983513e-08 6.02265161024887e-08 2.16020529697543e-07 1.89433084785832e-07 3.51131341972637e-08 4.83752673206559e-09 2.99515279121861e-09
"1685" 40018 3.66541520744339e-08 2.81158168519528e-08 6.02709812369451e-08 2.19147997365583e-07 1.91578799410672e-07 3.51075480563162e-08 4.84560807764299e-09 2.99597492886305e-09
"1686" 40019 3.68738174632008e-08 2.83554312834201e-08 6.02549688771816e-08 2.22334408312357e-07 1.93692068844689e-07 3.50630812447786e-08 4.81348657430311e-09 3.00856160690934e-09
"1687" 40020 3.70934828519677e-08 2.85950457148874e-08 6.0238956517418e-08 2.25520819259131e-07 1.95805338278705e-07 3.50186144332409e-08 4.78136507096323e-09 3.02114828495564e-09
"1688" 40021 3.73131482407346e-08 2.88346601463548e-08 6.02229441576545e-08 2.28707230205905e-07 1.97918607712722e-07 3.49741476217033e-08 4.74924356762335e-09 3.03373496300193e-09
"1689" 40022 3.75328136295014e-08 2.90742745778221e-08 6.02069317978909e-08 2.31893641152679e-07 2.00031877146738e-07 3.49296808101657e-08 4.71712206428347e-09 3.04632164104822e-09
"1690" 40023 3.77524790182683e-08 2.93138890092894e-08 6.01909194381274e-08 2.35080052099453e-07 2.02145146580755e-07 3.48852139986281e-08 4.68500056094359e-09 3.05890831909452e-09
"1691" 40024 3.77914450360597e-08 2.94076466751733e-08 6.07158781494712e-08 2.34723309497436e-07 2.02155499787031e-07 3.48407471870904e-08 4.65028528388113e-09 3.0553218215238e-09
"1692" 40025 3.77557879102176e-08 2.94871632603158e-08 6.1301314355035e-08 2.3520428235166e-07 2.02165852993307e-07 3.48117974337404e-08 4.65567284759939e-09 3.05132425513086e-09
"1693" 40026 3.77962125017239e-08 2.95967115000947e-08 6.18422854261424e-08 2.34428747589987e-07 2.02265411347509e-07 3.48075525141061e-08 4.64789538912825e-09 3.04503091610771e-09
"1694" 40027 3.78366370932302e-08 2.97062597398736e-08 6.23832564972498e-08 2.33653212828314e-07 2.0236496970171e-07 3.48033075944718e-08 4.64011793065711e-09 3.03873757708456e-09
"1695" 40028 3.78770616847365e-08 2.98158079796525e-08 6.29242275683572e-08 2.32877678066642e-07 2.02464528055911e-07 3.47990626748376e-08 4.63234047218596e-09 3.03244423806142e-09
"1696" 40029 3.79174862762428e-08 2.99253562194314e-08 6.34651986394645e-08 2.32102143304969e-07 2.02564086410112e-07 3.47948177552033e-08 4.62456301371482e-09 3.02615089903827e-09
"1697" 40030 3.79579108677491e-08 3.00349044592102e-08 6.40061697105719e-08 2.31326608543296e-07 2.02663644764314e-07 3.4790572835569e-08 4.61678555524368e-09 3.01985756001512e-09
"1698" 40031 3.79983354592554e-08 3.01444526989891e-08 6.45471407816793e-08 2.30551073781623e-07 2.02763203118515e-07 3.47863279159348e-08 4.60900809677254e-09 3.01356422099198e-09
"1699" 40032 3.80387600507617e-08 3.0254000938768e-08 6.50881118527867e-08 2.29775539019951e-07 2.02862761472716e-07 3.47820829963005e-08 4.60123063830139e-09 3.00727088196883e-09
"1700" 40033 3.81340279444603e-08 3.03439539458719e-08 6.50316101770039e-08 2.28877039758732e-07 2.02928120841995e-07 3.48332327815043e-08 4.64631585999205e-09 3.02623104187798e-09
"1701" 40034 3.82292958381589e-08 3.04339069529758e-08 6.49751085012211e-08 2.27978540497513e-07 2.02993480211274e-07 3.4884382566708e-08 4.6914010816827e-09 3.04519120178712e-09
"1702" 40035 3.83245637318575e-08 3.05238599600797e-08 6.49186068254383e-08 2.27080041236295e-07 2.03058839580553e-07 3.49355323519118e-08 4.73648630337335e-09 3.06415136169627e-09
"1703" 40036 3.84198316255561e-08 3.06138129671836e-08 6.48621051496556e-08 2.26181541975076e-07 2.03124198949832e-07 3.49866821371156e-08 4.78157152506401e-09 3.08311152160542e-09
"1704" 40037 3.85150995192547e-08 3.07037659742875e-08 6.48056034738728e-08 2.25283042713857e-07 2.03189558319111e-07 3.50378319223194e-08 4.82665674675466e-09 3.10207168151457e-09
"1705" 40038 3.86103674129533e-08 3.07937189813914e-08 6.474910179809e-08 2.24384543452639e-07 2.0325491768839e-07 3.50889817075231e-08 4.87174196844532e-09 3.12103184142372e-09
"1706" 40039 3.87056353066518e-08 3.08836719884953e-08 6.46926001223072e-08 2.2348604419142e-07 2.03320277057669e-07 3.51401314927269e-08 4.91682719013597e-09 3.13999200133286e-09
"1707" 40040 3.88009032003504e-08 3.09736249955992e-08 6.46360984465245e-08 2.22587544930201e-07 2.03385636426948e-07 3.51912812779307e-08 4.96191241182662e-09 3.15895216124201e-09
"1708" 40041 3.8896171094049e-08 3.10635780027031e-08 6.45795967707417e-08 2.21689045668982e-07 2.03450995796227e-07 3.52424310631344e-08 5.00699763351728e-09 3.17791232115116e-09
"1709" 40042 3.89791088057399e-08 3.09981329724464e-08 6.45238789951529e-08 2.21870288262776e-07 2.03411610616344e-07 3.52814000239327e-08 5.06524787739734e-09 3.20246907401042e-09
"1710" 40043 3.90808288526376e-08 3.10680471318587e-08 6.45197844501894e-08 2.22195653130717e-07 2.03461332686127e-07 3.53019818672245e-08 5.12289936002364e-09 3.22792056589854e-09
"1711" 40044 3.91660207237062e-08 3.11159806649126e-08 6.45158989452776e-08 2.21538917453423e-07 2.0318460628796e-07 3.52310143926448e-08 5.14104676312297e-09 3.24151229163453e-09
"1712" 40045 3.92512125947748e-08 3.11639141979664e-08 6.45120134403658e-08 2.20882181776129e-07 2.02907879889794e-07 3.5160046918065e-08 5.15919416622231e-09 3.25510401737052e-09
"1713" 40046 3.93364044658434e-08 3.12118477310203e-08 6.4508127935454e-08 2.20225446098835e-07 2.02631153491628e-07 3.50890794434852e-08 5.17734156932164e-09 3.26869574310651e-09
"1714" 40047 3.94319375547629e-08 3.12258305629028e-08 6.48466057495096e-08 2.21557661832496e-07 2.0255176729684e-07 3.49770702115321e-08 5.14701248704642e-09 3.26941511354539e-09
"1715" 40048 3.9417637949299e-08 3.11958521420684e-08 6.49069787237038e-08 2.2168915183363e-07 2.02275040898674e-07 3.49947809351569e-08 5.13324097821004e-09 3.2739265159661e-09
"1716" 40049 3.9403338343835e-08 3.11658737212339e-08 6.49673516978979e-08 2.21820641834764e-07 2.01998314500508e-07 3.50124916587817e-08 5.11946946937366e-09 3.27843791838681e-09
"1717" 40050 3.93890387383711e-08 3.11358953003995e-08 6.50277246720921e-08 2.21952131835898e-07 2.01721588102341e-07 3.50302023824066e-08 5.10569796053728e-09 3.28294932080752e-09
"1718" 40051 3.93747391329071e-08 3.11059168795651e-08 6.50880976462862e-08 2.22083621837032e-07 2.01444861704175e-07 3.50479131060314e-08 5.0919264517009e-09 3.28746072322823e-09
"1719" 40052 3.93604395274432e-08 3.10759384587307e-08 6.51484706204804e-08 2.22215111838166e-07 2.01168135306009e-07 3.50656238296562e-08 5.07815494286453e-09 3.29197212564894e-09
"1720" 40053 3.93461399219792e-08 3.10459600378963e-08 6.52088435946746e-08 2.22346601839299e-07 2.00891408907842e-07 3.5083334553281e-08 5.06438343402815e-09 3.29648352806965e-09
"1721" 40054 3.93318403165152e-08 3.10159816170619e-08 6.52692165688687e-08 2.22478091840433e-07 2.00614682509676e-07 3.51010452769058e-08 5.05061192519177e-09 3.30099493049036e-09
"1722" 40055 3.93175407110513e-08 3.09860031962275e-08 6.53295895430629e-08 2.22609581841567e-07 2.0033795611151e-07 3.51187560005306e-08 5.03684041635539e-09 3.30550633291107e-09
"1723" 40056 3.93032411055873e-08 3.09560247753931e-08 6.5389962517257e-08 2.22741071842701e-07 2.00061229713343e-07 3.51364667241554e-08 5.02306890751901e-09 3.31001773533178e-09
"1724" 40057 3.92889415001234e-08 3.09260463545587e-08 6.54503354914512e-08 2.22872561843835e-07 1.99784503315177e-07 3.51541774477803e-08 5.00929739868263e-09 3.31452913775249e-09
"1725" 40058 3.92746418946594e-08 3.08960679337242e-08 6.55107084656453e-08 2.23004051844969e-07 1.99507776917011e-07 3.51718881714051e-08 4.99552588984626e-09 3.3190405401732e-09
"1726" 40059 3.92603422891955e-08 3.08660895128898e-08 6.55710814398395e-08 2.23135541846103e-07 1.99231050518844e-07 3.51895988950299e-08 4.98175438100988e-09 3.32355194259391e-09
"1727" 40060 3.92460426837315e-08 3.08361110920554e-08 6.56314544140337e-08 2.23267031847237e-07 1.98954324120678e-07 3.52073096186547e-08 4.9679828721735e-09 3.32806334501462e-09
"1728" 40061 3.92317430782676e-08 3.0806132671221e-08 6.56918273882278e-08 2.23398521848371e-07 1.98677597722512e-07 3.52250203422795e-08 4.95421136333712e-09 3.33257474743533e-09
"1729" 40062 3.92174434728036e-08 3.07761542503866e-08 6.5752200362422e-08 2.23530011849505e-07 1.98400871324345e-07 3.52427310659043e-08 4.94043985450074e-09 3.33708614985604e-09
"1730" 40063 3.91371381726213e-08 3.07634094289968e-08 6.57960241702228e-08 2.22518993123325e-07 1.96990882812892e-07 3.53680841726377e-08 4.96557495150312e-09 3.34417146070249e-09
"1731" 40064 3.89988946954932e-08 3.0676117809036e-08 6.56791926482814e-08 2.21828535001015e-07 1.94783470308921e-07 3.55129217597702e-08 4.99130752219371e-09 3.3486828631232e-09
"1732" 40065 3.89700302893444e-08 3.06881588622516e-08 6.57187747715917e-08 2.21759797481745e-07 1.94416642022124e-07 3.53670088822971e-08 4.98003621677105e-09 3.35247489510503e-09
"1733" 40066 3.89411658831956e-08 3.07001999154672e-08 6.57583568949019e-08 2.21691059962475e-07 1.94049813735326e-07 3.5221096004824e-08 4.96876491134838e-09 3.35626692708686e-09
"1734" 40067 3.89797913344927e-08 3.07121167564782e-08 6.62153238362781e-08 2.2106881725702e-07 1.93614255416614e-07 3.49340806704594e-08 4.93654983769964e-09 3.35235704498891e-09
"1735" 40068 3.90184167857898e-08 3.07240335974892e-08 6.66722907776543e-08 2.20446574551566e-07 1.93178697097902e-07 3.46470653360949e-08 4.90433476405089e-09 3.34844716289096e-09
"1736" 40069 3.90275841658471e-08 3.08442961569877e-08 6.68565823374566e-08 2.19899757327012e-07 1.92764979623538e-07 3.43557052254378e-08 4.86733088793763e-09 3.35141705722836e-09
"1737" 40070 3.90367515459045e-08 3.09645587164862e-08 6.70408738972589e-08 2.19352940102458e-07 1.92351262149175e-07 3.40643451147808e-08 4.83032701182437e-09 3.35438695156575e-09
"1738" 40071 3.90459189259618e-08 3.10848212759847e-08 6.72251654570613e-08 2.18806122877904e-07 1.91937544674812e-07 3.37729850041237e-08 4.79332313571111e-09 3.35735684590315e-09
"1739" 40072 3.90550863060191e-08 3.12050838354832e-08 6.74094570168636e-08 2.1825930565335e-07 1.91523827200448e-07 3.34816248934666e-08 4.75631925959786e-09 3.36032674024054e-09
"1740" 40073 3.90642536860764e-08 3.13253463949817e-08 6.75937485766659e-08 2.17712488428796e-07 1.91110109726085e-07 3.31902647828096e-08 4.7193153834846e-09 3.36329663457794e-09
"1741" 40074 3.90734210661337e-08 3.14456089544802e-08 6.77780401364683e-08 2.17165671204242e-07 1.90696392251721e-07 3.28989046721525e-08 4.68231150737134e-09 3.36626652891533e-09
"1742" 40075 3.90825884461911e-08 3.15658715139787e-08 6.79623316962706e-08 2.16618853979688e-07 1.90282674777358e-07 3.26075445614955e-08 4.64530763125808e-09 3.36923642325273e-09
"1743" 40076 3.90917558262484e-08 3.16861340734772e-08 6.8146623256073e-08 2.16072036755134e-07 1.89868957302995e-07 3.23161844508384e-08 4.60830375514483e-09 3.37220631759012e-09
"1744" 40077 3.9117356470161e-08 3.18043661313056e-08 6.80831578091384e-08 2.15719660753105e-07 1.89881507712808e-07 3.22298334137314e-08 4.60830375514483e-09 3.38566511029943e-09
"1745" 40078 3.91567519181083e-08 3.19045898431125e-08 6.82669267688114e-08 2.16327060597818e-07 1.89858920502424e-07 3.21611825941473e-08 4.60860377955447e-09 3.40011386778786e-09
"1746" 40079 3.91961473660556e-08 3.20048135549194e-08 6.84506957284844e-08 2.16934460442531e-07 1.8983633329204e-07 3.20925317745631e-08 4.60890380396412e-09 3.4145626252763e-09
"1747" 40080 3.92355428140029e-08 3.21050372667263e-08 6.86344646881574e-08 2.17541860287244e-07 1.89813746081655e-07 3.20238809549789e-08 4.60920382837377e-09 3.42901138276474e-09
"1748" 40081 3.92657708818928e-08 3.20869756869029e-08 6.86517500607205e-08 2.18433097354243e-07 1.90026889615566e-07 3.19543545583707e-08 4.64062269962673e-09 3.43030964916053e-09
"1749" 40082 3.92959989497828e-08 3.20689141070795e-08 6.86690354332835e-08 2.19324334421243e-07 1.90240033149477e-07 3.18848281617624e-08 4.6720415708797e-09 3.43160791555633e-09
"1750" 40083 3.93262270176728e-08 3.2050852527256e-08 6.86863208058466e-08 2.20215571488242e-07 1.90453176683388e-07 3.18153017651541e-08 4.70346044213267e-09 3.43290618195212e-09
"1751" 40084 3.93564550855628e-08 3.20327909474326e-08 6.87036061784096e-08 2.21106808555241e-07 1.90666320217299e-07 3.17457753685459e-08 4.73487931338564e-09 3.43420444834792e-09
"1752" 40085 3.93834570768532e-08 3.19710263637512e-08 6.87036061784096e-08 2.22013098626661e-07 1.90786910651574e-07 3.17348248725194e-08 4.7662981846386e-09 3.4363022280223e-09
"1753" 40086 3.94104590681436e-08 3.19092617800698e-08 6.87036061784096e-08 2.22919388698081e-07 1.90907501085849e-07 3.17238743764928e-08 4.79771705589157e-09 3.43840000769668e-09
"1754" 40087 3.94374610594341e-08 3.18474971963885e-08 6.87036061784096e-08 2.23825678769501e-07 1.91028091520125e-07 3.17129238804663e-08 4.82913592714454e-09 3.44049778737107e-09
"1755" 40088 3.94644630507245e-08 3.17857326127071e-08 6.87036061784096e-08 2.24731968840921e-07 1.911486819544e-07 3.17019733844398e-08 4.86055479839751e-09 3.44259556704545e-09
"1756" 40089 3.94812564217745e-08 3.17217502568993e-08 6.86772909897239e-08 2.24682752741115e-07 1.911486819544e-07 3.17344475184384e-08 4.86015605341685e-09 3.44259556704545e-09
"1757" 40090 3.94980497928245e-08 3.16577679010915e-08 6.86509758010382e-08 2.24633536641309e-07 1.911486819544e-07 3.1766921652437e-08 4.85975730843619e-09 3.44259556704545e-09
"1758" 40091 3.95148431638745e-08 3.15937855452837e-08 6.86246606123525e-08 2.24584320541503e-07 1.911486819544e-07 3.17993957864355e-08 4.85935856345553e-09 3.44259556704545e-09
"1759" 40092 3.95316365349245e-08 3.15298031894759e-08 6.85983454236668e-08 2.24535104441697e-07 1.911486819544e-07 3.18318699204341e-08 4.85895981847487e-09 3.44259556704545e-09
"1760" 40093 3.95484299059744e-08 3.14658208336681e-08 6.85720302349811e-08 2.24485888341891e-07 1.911486819544e-07 3.18643440544327e-08 4.85856107349422e-09 3.44259556704545e-09
"1761" 40094 3.95652232770244e-08 3.14018384778603e-08 6.85457150462954e-08 2.24436672242085e-07 1.911486819544e-07 3.18968181884312e-08 4.85816232851356e-09 3.44259556704545e-09
"1762" 40095 3.95820166480744e-08 3.13378561220524e-08 6.85193998576097e-08 2.24387456142279e-07 1.911486819544e-07 3.19292923224298e-08 4.8577635835329e-09 3.44259556704545e-09
"1763" 40096 3.95988100191244e-08 3.12738737662446e-08 6.8493084668924e-08 2.24338240042473e-07 1.911486819544e-07 3.19617664564284e-08 4.85736483855224e-09 3.44259556704545e-09
"1764" 40097 3.96156033901744e-08 3.12098914104368e-08 6.84667694802383e-08 2.24289023942666e-07 1.911486819544e-07 3.19942405904269e-08 4.85696609357158e-09 3.44259556704545e-09
"1765" 40098 3.96323967612244e-08 3.1145909054629e-08 6.84404542915526e-08 2.2423980784286e-07 1.911486819544e-07 3.20267147244255e-08 4.85656734859092e-09 3.44259556704545e-09
"1766" 40099 3.96491901322744e-08 3.10819266988212e-08 6.84141391028669e-08 2.24190591743054e-07 1.911486819544e-07 3.20591888584241e-08 4.85616860361027e-09 3.44259556704545e-09
"1767" 40100 3.96669177349096e-08 3.10618070482773e-08 6.84264227377575e-08 2.23006723705754e-07 1.90678410241284e-07 3.1784386396945e-08 4.854372319849e-09 3.44080608898773e-09
"1768" 40101 3.96409253464777e-08 3.08665442507415e-08 6.75464040669752e-08 2.2296546132024e-07 1.90717870608502e-07 3.15924878458566e-08 4.81416947093172e-09 3.4255578182207e-09
"1769" 40102 3.96149329580458e-08 3.06712814532056e-08 6.6666385396193e-08 2.22924198934725e-07 1.9075733097572e-07 3.14005892947681e-08 4.77396662201445e-09 3.41030954745368e-09
"1770" 40103 3.95937955031755e-08 3.04850494455815e-08 6.57901619167971e-08 2.25282084570341e-07 1.92912916370096e-07 3.129974077826e-08 4.77146641860073e-09 3.40125184850424e-09
"1771" 40104 3.95726580483052e-08 3.02988174379574e-08 6.49139384374011e-08 2.27639970205957e-07 1.95068501764472e-07 3.11988922617519e-08 4.76896621518702e-09 3.39219414955481e-09
"1772" 40105 3.95543051432544e-08 3.01075091761579e-08 6.41390237413229e-08 2.28244736189297e-07 1.95019272053259e-07 3.10416962094495e-08 4.74352851864393e-09 3.38262261457761e-09
"1773" 40106 3.95078261913803e-08 2.99124868828803e-08 6.33980430297038e-08 2.28444231463607e-07 1.94952471768307e-07 3.12405436651767e-08 4.73744347310089e-09 3.38681063247109e-09
"1774" 40107 3.94613472395063e-08 2.97174645896028e-08 6.26570623180847e-08 2.28643726737917e-07 1.94885671483354e-07 3.14393911209039e-08 4.73135842755786e-09 3.39099865036457e-09
"1775" 40108 3.94148682876322e-08 2.95224422963252e-08 6.19160816064656e-08 2.28843222012227e-07 1.94818871198402e-07 3.16382385766312e-08 4.72527338201483e-09 3.39518666825805e-09
"1776" 40109 3.93683893357582e-08 2.93274200030476e-08 6.11751008948465e-08 2.29042717286537e-07 1.9475207091345e-07 3.18370860323584e-08 4.7191883364718e-09 3.39937468615154e-09
"1777" 40110 3.93219103838841e-08 2.91323977097701e-08 6.04341201832275e-08 2.29242212560847e-07 1.94685270628497e-07 3.20359334880856e-08 4.71310329092876e-09 3.40356270404502e-09
"1778" 40111 3.92754314320101e-08 2.89373754164925e-08 5.96931394716084e-08 2.29441707835157e-07 1.94618470343545e-07 3.22347809438128e-08 4.70701824538573e-09 3.4077507219385e-09
"1779" 40112 3.9228952480136e-08 2.87423531232149e-08 5.89521587599893e-08 2.29641203109467e-07 1.94551670058593e-07 3.24336283995401e-08 4.7009331998427e-09 3.41193873983198e-09
"1780" 40113 3.9182473528262e-08 2.85473308299374e-08 5.82111780483702e-08 2.29840698383776e-07 1.9448486977364e-07 3.26324758552673e-08 4.69484815429967e-09 3.41612675772546e-09
"1781" 40114 3.9135994576388e-08 2.83523085366598e-08 5.74701973367512e-08 2.30040193658086e-07 1.94418069488688e-07 3.28313233109945e-08 4.68876310875663e-09 3.42031477561895e-09
"1782" 40115 3.90895156245139e-08 2.81572862433822e-08 5.67292166251321e-08 2.30239688932396e-07 1.94351269203736e-07 3.30301707667217e-08 4.6826780632136e-09 3.42450279351243e-09
"1783" 40116 3.90430366726399e-08 2.79622639501047e-08 5.5988235913513e-08 2.30439184206706e-07 1.94284468918783e-07 3.32290182224489e-08 4.67659301767057e-09 3.42869081140591e-09
"1784" 40117 3.89965577207658e-08 2.77672416568271e-08 5.52472552018939e-08 2.30638679481016e-07 1.94217668633831e-07 3.34278656781762e-08 4.67050797212754e-09 3.43287882929939e-09
"1785" 40118 3.89500787688918e-08 2.75722193635495e-08 5.45062744902748e-08 2.30838174755326e-07 1.94150868348879e-07 3.36267131339034e-08 4.6644229265845e-09 3.43706684719287e-09
"1786" 40119 3.89035998170177e-08 2.7377197070272e-08 5.37652937786558e-08 2.31037670029636e-07 1.94084068063926e-07 3.38255605896306e-08 4.65833788104147e-09 3.44125486508636e-09
"1787" 40120 3.88571208651437e-08 2.71821747769944e-08 5.30243130670367e-08 2.31237165303946e-07 1.94017267778974e-07 3.40244080453578e-08 4.65225283549844e-09 3.44544288297984e-09
"1788" 40121 3.88106419132696e-08 2.69871524837168e-08 5.22833323554176e-08 2.31436660578256e-07 1.93950467494022e-07 3.4223255501085e-08 4.64616778995541e-09 3.44963090087332e-09
"1789" 40122 3.87641629613956e-08 2.67921301904393e-08 5.15423516437985e-08 2.31636155852565e-07 1.9388366720907e-07 3.44221029568123e-08 4.64008274441237e-09 3.4538189187668e-09
"1790" 40123 3.86862309258129e-08 2.66108147355846e-08 5.15423516437985e-08 2.30826530488693e-07 1.93307134843783e-07 3.48469081773603e-08 4.67420054778662e-09 3.46977147706214e-09
"1791" 40124 3.86773166443524e-08 2.66087842339144e-08 5.16851563813472e-08 2.31067582730528e-07 1.93345747419425e-07 3.51688041814494e-08 4.69505332083491e-09 3.47692938929302e-09
"1792" 40125 3.86684023628918e-08 2.66067537322443e-08 5.18279611188959e-08 2.31308634972364e-07 1.93384359995067e-07 3.54907001855384e-08 4.7159060938832e-09 3.4840873015239e-09
"1793" 40126 3.87059670333054e-08 2.66054979771509e-08 5.18158342640442e-08 2.31905173022414e-07 1.93429576970418e-07 3.53911603116896e-08 4.70264106355724e-09 3.47180892509427e-09
"1794" 40127 3.87435317037189e-08 2.66042422220576e-08 5.18037074091924e-08 2.32501711072464e-07 1.93474793945768e-07 3.52916204378407e-08 4.68937603323129e-09 3.45953054866464e-09
"1795" 40128 3.87364481997921e-08 2.66081612685926e-08 5.17934710467836e-08 2.32521503724642e-07 1.93504526863561e-07 3.52296310495447e-08 4.68937603323129e-09 3.44725217223501e-09
"1796" 40129 3.87293646958654e-08 2.66120803151276e-08 5.17832346843748e-08 2.32541296376819e-07 1.93534259781353e-07 3.51676416612487e-08 4.68937603323129e-09 3.43497379580538e-09
"1797" 40130 3.87222811919386e-08 2.66159993616625e-08 5.1772998321966e-08 2.32561089028996e-07 1.93563992699145e-07 3.51056522729527e-08 4.68937603323129e-09 3.42269541937575e-09
"1798" 40131 3.87151976880119e-08 2.66199184081975e-08 5.17627619595572e-08 2.32580881681173e-07 1.93593725616937e-07 3.50436628846567e-08 4.68937603323129e-09 3.41041704294612e-09
"1799" 40132 3.87081141840851e-08 2.66238374547325e-08 5.17525255971484e-08 2.32600674333351e-07 1.9362345853473e-07 3.49816734963607e-08 4.68937603323129e-09 3.39813866651649e-09
"1800" 40133 3.87010306801584e-08 2.66277565012675e-08 5.17422892347396e-08 2.32620466985528e-07 1.93653191452522e-07 3.49196841080646e-08 4.68937603323129e-09 3.38586029008685e-09
"1801" 40134 3.86939471762316e-08 2.66316755478025e-08 5.17320528723308e-08 2.32640259637705e-07 1.93682924370314e-07 3.48576947197686e-08 4.68937603323129e-09 3.37358191365722e-09
"1802" 40135 3.86868636723049e-08 2.66355945943375e-08 5.1721816509922e-08 2.32660052289882e-07 1.93712657288107e-07 3.47957053314726e-08 4.68937603323129e-09 3.36130353722759e-09
"1803" 40136 3.86797801683781e-08 2.66395136408725e-08 5.17115801475132e-08 2.3267984494206e-07 1.93742390205899e-07 3.47337159431766e-08 4.68937603323129e-09 3.34902516079796e-09
"1804" 40137 3.86811438301193e-08 2.66454631890777e-08 5.16838590130014e-08 2.32699433423131e-07 1.93193236785649e-07 3.46820784411317e-08 4.69805356493137e-09 3.34692738112358e-09
"1805" 40138 3.86825074918605e-08 2.66514127372829e-08 5.16561378784895e-08 2.32719021904201e-07 1.92644083365399e-07 3.46304409390867e-08 4.70673109663144e-09 3.3448296014492e-09
"1806" 40139 3.86943133317384e-08 2.66871889250675e-08 5.16262507449696e-08 2.33503394126198e-07 1.94050110957387e-07 3.45293937696102e-08 4.70393988176684e-09 3.34262905456926e-09
"1807" 40140 3.87061191716163e-08 2.67229651128521e-08 5.15963636114497e-08 2.34287766348194e-07 1.95456138549375e-07 3.44283466001337e-08 4.70114866690223e-09 3.34042850768933e-09
"1808" 40141 3.87179250114942e-08 2.67587413006367e-08 5.15664764779298e-08 2.3507213857019e-07 1.96862166141364e-07 3.43272994306572e-08 4.69835745203762e-09 3.33822796080939e-09
"1809" 40142 3.8728367189631e-08 2.67826006474103e-08 5.1562590973018e-08 2.35331113616088e-07 1.98829897563416e-07 3.41818521974732e-08 4.63392344204351e-09 3.33193462178624e-09
"1810" 40143 3.87414040936396e-08 2.6818376835195e-08 5.14623177494473e-08 2.35714879297338e-07 2.00161474015379e-07 3.41456650057856e-08 4.63392344204351e-09 3.33193462178624e-09
"1811" 40144 3.87544409976482e-08 2.68541530229796e-08 5.13620445258766e-08 2.36098644978588e-07 2.01493050467342e-07 3.41094778140981e-08 4.63392344204351e-09 3.33193462178624e-09
"1812" 40145 3.87674779016569e-08 2.68899292107642e-08 5.12617713023059e-08 2.36482410659837e-07 2.02824626919305e-07 3.40732906224105e-08 4.63392344204351e-09 3.33193462178624e-09
"1813" 40146 3.87805148056655e-08 2.69257053985488e-08 5.11614980787351e-08 2.36866176341087e-07 2.04156203371267e-07 3.40371034307229e-08 4.63392344204351e-09 3.33193462178624e-09
"1814" 40147 3.87935517096741e-08 2.69614815863334e-08 5.10612248551644e-08 2.37249942022337e-07 2.0548777982323e-07 3.40009162390354e-08 4.63392344204351e-09 3.33193462178624e-09
"1815" 40148 3.8863636292992e-08 2.72492187256095e-08 5.11846066341429e-08 2.36855139697189e-07 2.05607418173121e-07 3.40105701890268e-08 4.63392344204351e-09 3.33382686704952e-09
"1816" 40149 3.89337208763098e-08 2.75369558648856e-08 5.13079884131213e-08 2.3646033737204e-07 2.05727056523011e-07 3.40202241390182e-08 4.63392344204351e-09 3.33571911231279e-09
"1817" 40150 3.90038054596276e-08 2.78246930041616e-08 5.14313701920998e-08 2.36065535046891e-07 2.05846694872902e-07 3.40298780890095e-08 4.63392344204351e-09 3.33761135757606e-09
"1818" 40151 3.90738900429454e-08 2.81124301434377e-08 5.15547519710782e-08 2.35670732721743e-07 2.05966333222793e-07 3.40395320390009e-08 4.63392344204351e-09 3.33950360283934e-09
"1819" 40152 3.91439746262633e-08 2.84001672827138e-08 5.16781337500567e-08 2.35275930396594e-07 2.06085971572683e-07 3.40491859889923e-08 4.63392344204351e-09 3.34139584810261e-09
"1820" 40153 3.92140592095811e-08 2.86879044219899e-08 5.18015155290351e-08 2.34881128071446e-07 2.06205609922574e-07 3.40588399389837e-08 4.63392344204351e-09 3.34328809336588e-09
"1821" 40154 3.92841437928989e-08 2.89756415612659e-08 5.19248973080136e-08 2.34486325746297e-07 2.06325248272464e-07 3.40684938889751e-08 4.63392344204351e-09 3.34518033862916e-09
"1822" 40155 3.93542283762167e-08 2.9263378700542e-08 5.2048279086992e-08 2.34091523421148e-07 2.06444886622355e-07 3.40781478389665e-08 4.63392344204351e-09 3.34707258389243e-09
"1823" 40156 3.94243129595346e-08 2.95511158398181e-08 5.21716608659705e-08 2.33696721096e-07 2.06564524972246e-07 3.40878017889579e-08 4.63392344204351e-09 3.3489648291557e-09
"1824" 40157 3.93479539503411e-08 2.98351389476161e-08 5.23318935496206e-08 2.33077027813586e-07 2.06782434002603e-07 3.40768738956574e-08 4.63561971766823e-09 3.35016032834594e-09
"1825" 40158 3.94172745853208e-08 3.01221368295167e-08 5.25063049265929e-08 2.33073787411468e-07 2.07483009046683e-07 3.39248876905697e-08 4.6374160014295e-09 3.35194980640366e-09
"1826" 40159 3.94865952203006e-08 3.04091347114173e-08 5.26807163035653e-08 2.33070547009349e-07 2.08183584090763e-07 3.37729014854819e-08 4.63921228519076e-09 3.35373928446138e-09
"1827" 40160 3.95559158552803e-08 3.06961325933179e-08 5.28551276805377e-08 2.3306730660723e-07 2.08884159134843e-07 3.36209152803941e-08 4.64100856895203e-09 3.3555287625191e-09
"1828" 40161 3.962523649026e-08 3.09831304752185e-08 5.302953905751e-08 2.33064066205112e-07 2.09584734178924e-07 3.34689290753064e-08 4.6428048527133e-09 3.35731824057682e-09
"1829" 40162 3.96945571252397e-08 3.12701283571191e-08 5.32039504344824e-08 2.33060825802993e-07 2.10285309223004e-07 3.33169428702186e-08 4.64460113647457e-09 3.35910771863454e-09
"1830" 40163 3.97150436886819e-08 3.12701638463204e-08 5.31671091703224e-08 2.33581337262976e-07 2.10656358831281e-07 3.31522439787801e-08 4.66804510811437e-09 3.36089719669226e-09
"1831" 40164 3.97155108044745e-08 3.12894634366365e-08 5.35800863918815e-08 2.3363665216039e-07 2.11139024845004e-07 3.29906038237009e-08 4.67263260674024e-09 3.36708776850985e-09
"1832" 40165 3.97159779202671e-08 3.13087630269526e-08 5.39930636134406e-08 2.33691967057805e-07 2.11621690858727e-07 3.28289636686218e-08 4.67722010536612e-09 3.37327834032745e-09
"1833" 40166 3.97164450360597e-08 3.13280626172688e-08 5.44060408349996e-08 2.33747281955219e-07 2.1210435687245e-07 3.26673235135426e-08 4.68180760399199e-09 3.37946891214504e-09
"1834" 40167 3.97169121518523e-08 3.13473622075849e-08 5.48190180565587e-08 2.33802596852634e-07 2.12587022886173e-07 3.25056833584635e-08 4.68639510261787e-09 3.38565948396263e-09
"1835" 40168 3.97173792676449e-08 3.1366661797901e-08 5.52319952781178e-08 2.33857911750048e-07 2.13069688899896e-07 3.23440432033843e-08 4.69098260124374e-09 3.39185005578022e-09
"1836" 40169 3.97178463834375e-08 3.13859613882171e-08 5.56449724996769e-08 2.33913226647463e-07 2.13552354913619e-07 3.21824030483052e-08 4.69557009986962e-09 3.39804062759782e-09
"1837" 40170 3.97183134992301e-08 3.14052609785332e-08 5.6057949721236e-08 2.33968541544878e-07 2.14035020927342e-07 3.2020762893226e-08 4.70015759849549e-09 3.40423119941541e-09
"1838" 40171 3.97187806150227e-08 3.14245605688494e-08 5.64709269427951e-08 2.34023856442292e-07 2.14517686941065e-07 3.18591227381468e-08 4.70474509712137e-09 3.410421771233e-09
"1839" 40172 3.97192477308153e-08 3.14438601591655e-08 5.68839041643541e-08 2.34079171339707e-07 2.15000352954789e-07 3.16974825830677e-08 4.70933259574724e-09 3.41661234305059e-09
"1840" 40173 3.97197148466079e-08 3.14631597494816e-08 5.72968813859132e-08 2.34134486237121e-07 2.15483018968512e-07 3.15358424279885e-08 4.71392009437312e-09 3.42280291486819e-09
"1841" 40174 3.97201819624005e-08 3.14824593397977e-08 5.77098586074723e-08 2.34189801134536e-07 2.15965684982235e-07 3.13742022729094e-08 4.71850759299899e-09 3.42899348668578e-09
"1842" 40175 3.97206490781931e-08 3.15017589301139e-08 5.81228358290314e-08 2.3424511603195e-07 2.16448350995958e-07 3.12125621178302e-08 4.72309509162487e-09 3.43518405850337e-09
"1843" 40176 3.97211161939858e-08 3.152105852043e-08 5.85358130505905e-08 2.34300430929365e-07 2.16931017009681e-07 3.10509219627511e-08 4.72768259025075e-09 3.44137463032096e-09
"1844" 40177 3.97215833097784e-08 3.15403581107461e-08 5.89487902721496e-08 2.3435574582678e-07 2.17413683023404e-07 3.08892818076719e-08 4.73227008887662e-09 3.44756520213855e-09
"1845" 40178 3.9722050425571e-08 3.15596577010622e-08 5.93617674937086e-08 2.34411060724194e-07 2.17896349037127e-07 3.07276416525928e-08 4.7368575875025e-09 3.45375577395615e-09
"1846" 40179 3.97082556215363e-08 3.15550881201551e-08 5.98040240096558e-08 2.34037622790046e-07 2.18193791769674e-07 3.07437347178297e-08 4.74104634114771e-09 3.46004911297929e-09
"1847" 40180 3.96944608175016e-08 3.15505185392479e-08 6.0246280525603e-08 2.33664184855899e-07 2.18491234502222e-07 3.07598277830667e-08 4.74523509479293e-09 3.46634245200244e-09
"1848" 40181 3.96944608175016e-08 3.14806043798356e-08 6.0699680596668e-08 2.32949235159678e-07 2.18503338635329e-07 3.06053246794927e-08 4.74284133734344e-09 3.47193904495255e-09
"1849" 40182 3.96944608175016e-08 3.14106902204233e-08 6.1153080667733e-08 2.32234285463457e-07 2.18515442768436e-07 3.04508215759188e-08 4.74044757989396e-09 3.47753563790267e-09
"1850" 40183 3.96944608175016e-08 3.1340776061011e-08 6.16064807387979e-08 2.31519335767236e-07 2.18527546901543e-07 3.02963184723449e-08 4.73805382244447e-09 3.48313223085278e-09
"1851" 40184 3.97510911632789e-08 3.13505106190969e-08 6.19400232816944e-08 2.30770494208342e-07 2.18040767386429e-07 3.02634223089872e-08 4.7422464387863e-09 3.48872882380289e-09
"1852" 40185 3.98077215090563e-08 3.13602451771828e-08 6.22735658245909e-08 2.30021652649449e-07 2.17553987871315e-07 3.02305261456295e-08 4.74643905512812e-09 3.49432541675301e-09
"1853" 40186 3.98161686747242e-08 3.12763304412873e-08 6.24326442219678e-08 2.2983867731704e-07 2.17149717600706e-07 3.00441806266606e-08 4.74215029334636e-09 3.49373143788553e-09
"1854" 40187 3.98246158403921e-08 3.11924157053919e-08 6.25917226193447e-08 2.29655701984632e-07 2.16745447330096e-07 2.98578351076916e-08 4.73786153156459e-09 3.49313745901805e-09
"1855" 40188 3.983306300606e-08 3.11085009694965e-08 6.27508010167217e-08 2.29472726652224e-07 2.16341177059487e-07 2.96714895887226e-08 4.73357276978282e-09 3.49254348015057e-09
"1856" 40189 3.9841510171728e-08 3.10245862336011e-08 6.29098794140986e-08 2.29289751319815e-07 2.15936906788877e-07 2.94851440697536e-08 4.72928400800106e-09 3.49194950128309e-09
"1857" 40190 3.98499573373959e-08 3.09406714977056e-08 6.30689578114755e-08 2.29106775987407e-07 2.15532636518268e-07 2.92987985507846e-08 4.72499524621929e-09 3.49135552241561e-09
"1858" 40191 3.98584045030638e-08 3.08567567618102e-08 6.32280362088524e-08 2.28923800654999e-07 2.15128366247658e-07 2.91124530318157e-08 4.72070648443753e-09 3.49076154354813e-09
"1859" 40192 3.98668516687317e-08 3.07728420259148e-08 6.33871146062293e-08 2.28740825322591e-07 2.14724095977049e-07 2.89261075128467e-08 4.71641772265576e-09 3.49016756468065e-09
"1860" 40193 3.98763973009199e-08 3.07781410397478e-08 6.27715056115345e-08 2.28686429465652e-07 2.1475737551034e-07 2.89234918180504e-08 4.70434506457517e-09 3.48957358581318e-09
"1861" 40194 3.98388326305064e-08 3.07822020430881e-08 6.28677791696559e-08 2.28993151228582e-07 2.14473444533807e-07 2.88267894248664e-08 4.70693755073222e-09 3.48778410775546e-09
"1862" 40195 3.98012679600929e-08 3.07862630464284e-08 6.29640527277772e-08 2.29299872991513e-07 2.14189513557274e-07 2.87300870316824e-08 4.70953003688927e-09 3.48599462969774e-09
"1863" 40196 3.97637032896794e-08 3.07903240497687e-08 6.30603262858986e-08 2.29606594754443e-07 2.13905582580741e-07 2.86333846384984e-08 4.71212252304632e-09 3.48420515164002e-09
"1864" 40197 3.97261386192658e-08 3.0794385053109e-08 6.315659984402e-08 2.29913316517373e-07 2.13621651604208e-07 2.85366822453144e-08 4.71471500920336e-09 3.4824156735823e-09
"1865" 40198 3.96885739488523e-08 3.07984460564494e-08 6.32528734021413e-08 2.30220038280304e-07 2.13337720627675e-07 2.84399798521304e-08 4.71730749536041e-09 3.48062619552458e-09
"1866" 40199 3.96852152746423e-08 3.07956940420044e-08 6.33782882471011e-08 2.30646822434981e-07 2.13420229872179e-07 2.83579735913159e-08 4.70523483727982e-09 3.48072896273013e-09
"1867" 40200 3.94432688347718e-08 3.07300538211404e-08 6.34148682111964e-08 2.31152476643784e-07 2.13224148237062e-07 2.82936675480243e-08 4.69675345915623e-09 3.46916995673938e-09
"1868" 40201 3.92013223949014e-08 3.06644136002764e-08 6.34514481752917e-08 2.31658130852587e-07 2.13028066601944e-07 2.82293615047326e-08 4.68827208103264e-09 3.45761095074863e-09
"1869" 40202 3.89593759550309e-08 3.05987733794123e-08 6.34880281393871e-08 2.3216378506139e-07 2.12831984966827e-07 2.8165055461441e-08 4.67979070290905e-09 3.44605194475788e-09
"1870" 40203 3.87174295151604e-08 3.05331331585483e-08 6.35246081034824e-08 2.32669439270193e-07 2.1263590333171e-07 2.81007494181494e-08 4.67130932478546e-09 3.43449293876713e-09
"1871" 40204 3.847548307529e-08 3.04674929376843e-08 6.35611880675777e-08 2.33175093478996e-07 2.12439821696592e-07 2.80364433748577e-08 4.66282794666187e-09 3.42293393277638e-09
"1872" 40205 3.82335366354195e-08 3.04018527168203e-08 6.3597768031673e-08 2.33680747687799e-07 2.12243740061475e-07 2.79721373315661e-08 4.65434656853828e-09 3.41137492678563e-09
"1873" 40206 3.7991590195549e-08 3.03362124959563e-08 6.36343479957683e-08 2.34186401896602e-07 2.12047658426358e-07 2.79078312882745e-08 4.64586519041469e-09 3.39981592079488e-09
"1874" 40207 3.78322092635506e-08 3.03964177620344e-08 6.3699271648542e-08 2.34228477980256e-07 2.12340906075631e-07 2.79121644981169e-08 4.63808386924694e-09 3.38905642808272e-09
"1875" 40208 3.76728283315523e-08 3.04566230281125e-08 6.37641953013156e-08 2.3427055406391e-07 2.12634153724904e-07 2.79164977079594e-08 4.63030254807919e-09 3.37829693537056e-09
"1876" 40209 3.75134473995539e-08 3.05168282941907e-08 6.38291189540893e-08 2.34312630147564e-07 2.12927401374177e-07 2.79208309178018e-08 4.62252122691144e-09 3.36753744265839e-09
"1877" 40210 3.73540664675556e-08 3.05770335602688e-08 6.38940426068629e-08 2.34354706231218e-07 2.13220649023451e-07 2.79251641276443e-08 4.61473990574369e-09 3.35677794994623e-09
"1878" 40211 3.71946855355572e-08 3.06372388263469e-08 6.39589662596366e-08 2.34396782314872e-07 2.13513896672724e-07 2.79294973374868e-08 4.60695858457594e-09 3.34601845723407e-09
"1879" 40212 3.70353046035588e-08 3.0697444092425e-08 6.40238899124102e-08 2.34438858398526e-07 2.13807144321997e-07 2.79338305473292e-08 4.59917726340819e-09 3.33525896452191e-09
"1880" 40213 3.68759236715605e-08 3.07576493585031e-08 6.40888135651839e-08 2.3448093448218e-07 2.1410039197127e-07 2.79381637571717e-08 4.59139594224044e-09 3.32449947180974e-09
"1881" 40214 3.67165427395621e-08 3.08178546245813e-08 6.41537372179576e-08 2.34523010565834e-07 2.14393639620543e-07 2.79424969670141e-08 4.58361462107268e-09 3.31373997909758e-09
"1882" 40215 3.65571618075637e-08 3.08780598906594e-08 6.42186608707312e-08 2.34565086649488e-07 2.14686887269817e-07 2.79468301768566e-08 4.57583329990493e-09 3.30298048638542e-09
"1883" 40216 3.65147994299258e-08 3.09379634985262e-08 6.42583901335686e-08 2.3419102479787e-07 2.15295408627391e-07 2.79974034248369e-08 4.57653335686077e-09 3.29150162323437e-09
"1884" 40217 3.6595641168862e-08 3.10061054051273e-08 6.39257502173923e-08 2.34016916247655e-07 2.15901638410448e-07 2.80715179259843e-08 4.57862966503169e-09 3.28840633732558e-09
"1885" 40218 3.66764829077982e-08 3.10742473117284e-08 6.35931103012161e-08 2.33842807697441e-07 2.16507868193505e-07 2.81456324271316e-08 4.5807259732026e-09 3.28531105141678e-09
"1886" 40219 3.67573246467345e-08 3.11423892183295e-08 6.32604703850398e-08 2.33668699147227e-07 2.17114097976562e-07 2.82197469282789e-08 4.58282228137351e-09 3.28221576550799e-09
"1887" 40220 3.68381663856707e-08 3.12105311249305e-08 6.29278304688636e-08 2.33494590597013e-07 2.1772032775962e-07 2.82938614294263e-08 4.58491858954442e-09 3.27912047959919e-09
"1888" 40221 3.68612732639973e-08 3.12027915793135e-08 6.24146987502601e-08 2.34860623254868e-07 2.18051884367925e-07 2.85695163350293e-08 4.60516616351128e-09 3.2814162522294e-09
"1889" 40222 3.69421150029335e-08 3.11428347376447e-08 6.19860891955284e-08 2.3536635592943e-07 2.18516693167689e-07 2.85907409332007e-08 4.61374368707481e-09 3.28650655060702e-09
"1890" 40223 3.70229567418698e-08 3.10828778959758e-08 6.15574796407967e-08 2.35872088603991e-07 2.18981501967453e-07 2.8611965531372e-08 4.62232121063834e-09 3.29159684898465e-09
"1891" 40224 3.7103798480806e-08 3.1022921054307e-08 6.1128870086065e-08 2.36377821278553e-07 2.19446310767217e-07 2.86331901295434e-08 4.63089873420187e-09 3.29668714736227e-09
"1892" 40225 3.71846402197423e-08 3.09629642126382e-08 6.07002605313333e-08 2.36883553953114e-07 2.19911119566981e-07 2.86544147277148e-08 4.6394762577654e-09 3.30177744573990e-09
"1893" 40226 3.72654819586785e-08 3.09030073709694e-08 6.02716509766016e-08 2.37389286627676e-07 2.20375928366745e-07 2.86756393258861e-08 4.64805378132893e-09 3.30686774411752e-09
"1894" 40227 3.73463236976147e-08 3.08430505293006e-08 5.98430414218698e-08 2.37895019302237e-07 2.20840737166508e-07 2.86968639240575e-08 4.65663130489247e-09 3.31195804249514e-09
"1895" 40228 3.7427165436551e-08 3.07830936876317e-08 5.94144318671381e-08 2.38400751976798e-07 2.21305545966272e-07 2.87180885222288e-08 4.665208828456e-09 3.31704834087277e-09
"1896" 40229 3.75080071754872e-08 3.07231368459629e-08 5.89858223124064e-08 2.3890648465136e-07 2.21770354766036e-07 2.87393131204002e-08 4.67378635201953e-09 3.32213863925039e-09
"1897" 40230 3.75888489144235e-08 3.06631800042941e-08 5.85572127576747e-08 2.39412217325921e-07 2.222351635658e-07 2.87605377185715e-08 4.68236387558306e-09 3.32722893762802e-09
"1898" 40231 3.76696906533597e-08 3.06032231626253e-08 5.8128603202943e-08 2.39917950000483e-07 2.22699972365564e-07 2.87817623167429e-08 4.69094139914659e-09 3.33231923600564e-09
"1899" 40232 3.77505323922959e-08 3.05432663209564e-08 5.76999936482113e-08 2.40423682675044e-07 2.23164781165328e-07 2.88029869149142e-08 4.69951892271012e-09 3.33740953438326e-09
"1900" 40233 3.78313741312322e-08 3.04833094792876e-08 5.72713840934796e-08 2.40929415349606e-07 2.23629589965092e-07 2.88242115130856e-08 4.70809644627365e-09 3.34249983276089e-09
"1901" 40234 3.79122158701684e-08 3.04233526376188e-08 5.68427745387479e-08 2.41435148024167e-07 2.24094398764856e-07 2.88454361112569e-08 4.71667396983718e-09 3.34759013113851e-09
"1902" 40235 3.79930576091047e-08 3.036339579595e-08 5.64141649840162e-08 2.41940880698728e-07 2.24559207564619e-07 2.88666607094283e-08 4.72525149340072e-09 3.35268042951614e-09
"1903" 40236 3.80738993480409e-08 3.03034389542811e-08 5.59855554292845e-08 2.4244661337329e-07 2.25024016364383e-07 2.88878853075997e-08 4.73382901696425e-09 3.35777072789376e-09
"1904" 40237 3.81547410869772e-08 3.02434821126123e-08 5.55569458745528e-08 2.42952346047851e-07 2.25488825164147e-07 2.8909109905771e-08 4.74240654052778e-09 3.36286102627138e-09
"1905" 40238 3.82425276839176e-08 3.01835252709435e-08 5.55569458745528e-08 2.42439519514739e-07 2.24995620729468e-07 2.85751996817649e-08 4.64544198168885e-09 3.36836239347123e-09
"1906" 40239 3.83303142808581e-08 3.01235684292747e-08 5.55569458745528e-08 2.41926692981628e-07 2.2450241629479e-07 2.82412894577588e-08 4.54847742284991e-09 3.37386376067107e-09
"1907" 40240 3.84221918630221e-08 3.01186696211059e-08 5.55666976903448e-08 2.42254712073952e-07 2.24469117577854e-07 2.82155424425305e-08 4.55835118949197e-09 3.38295162544163e-09
"1908" 40241 3.85140694451861e-08 3.01137708129372e-08 5.55764495061368e-08 2.42582731166277e-07 2.24435818860919e-07 2.81897954273021e-08 4.56822495613402e-09 3.39203949021219e-09
"1909" 40242 3.86059470273501e-08 3.01088720047684e-08 5.55862013219288e-08 2.42910750258602e-07 2.24402520143983e-07 2.81640484120738e-08 4.57809872277608e-09 3.40112735498275e-09
"1910" 40243 3.8618617775852e-08 3.02320719448696e-08 5.54980026931969e-08 2.4242687529658e-07 2.23963878462868e-07 2.81225520466874e-08 4.58618006835348e-09 3.40123012218831e-09
"1911" 40244 3.86312885243539e-08 3.03552718849707e-08 5.5409804064465e-08 2.41943000334557e-07 2.23525236781754e-07 2.80810556813009e-08 4.59426141393087e-09 3.40133288939386e-09
"1912" 40245 3.86439592728557e-08 3.04784718250719e-08 5.53216054357331e-08 2.41459125372535e-07 2.23086595100639e-07 2.80395593159145e-08 4.60234275950827e-09 3.40143565659942e-09
"1913" 40246 3.86566300213576e-08 3.0601671765173e-08 5.52334068070013e-08 2.40975250410513e-07 2.22647953419524e-07 2.79980629505281e-08 4.61042410508567e-09 3.40153842380497e-09
"1914" 40247 3.86693007698595e-08 3.07248717052742e-08 5.51452081782694e-08 2.40491375448491e-07 2.22209311738409e-07 2.79565665851417e-08 4.61850545066306e-09 3.40164119101053e-09
"1915" 40248 3.86819715183614e-08 3.08480716453753e-08 5.50570095495375e-08 2.40007500486468e-07 2.21770670057294e-07 2.79150702197552e-08 4.62658679624046e-09 3.40174395821608e-09
"1916" 40249 3.86946422668633e-08 3.09712715854765e-08 5.49688109208056e-08 2.39523625524446e-07 2.2133202837618e-07 2.78735738543688e-08 4.63466814181785e-09 3.40184672542163e-09
"1917" 40250 3.87073130153651e-08 3.10944715255777e-08 5.48806122920737e-08 2.39039750562424e-07 2.20893386695065e-07 2.78320774889824e-08 4.64274948739525e-09 3.40194949262719e-09
"1918" 40251 3.8719983763867e-08 3.12176714656788e-08 5.47924136633418e-08 2.38555875600402e-07 2.2045474501395e-07 2.77905811235959e-08 4.65083083297265e-09 3.40205225983274e-09
"1919" 40252 3.86985117908146e-08 3.12938190869069e-08 5.47947364423887e-08 2.36957156284495e-07 2.19235821500969e-07 2.77935515697471e-08 4.65083083297265e-09 3.39856852946758e-09
"1920" 40253 3.87103176306925e-08 3.13836833710075e-08 5.4760835436919e-08 2.36827182905724e-07 2.18863377058881e-07 2.77675722625483e-08 4.5843030899387e-09 3.38958343190257e-09
"1921" 40254 3.87221234705704e-08 3.1473547655108e-08 5.47269344314493e-08 2.36697209526953e-07 2.18490932616793e-07 2.77415929553494e-08 4.51777534690475e-09 3.38059833433756e-09
"1922" 40255 3.87339293104483e-08 3.15634119392086e-08 5.46930334259797e-08 2.36567236148182e-07 2.18118488174705e-07 2.77156136481506e-08 4.45124760387081e-09 3.37161323677255e-09
"1923" 40256 3.87457351503262e-08 3.16532762233092e-08 5.465913242051e-08 2.36437262769411e-07 2.17746043732617e-07 2.76896343409517e-08 4.38471986083686e-09 3.36262813920754e-09
"1924" 40257 3.87584058988281e-08 3.17495967288832e-08 5.46196502512369e-08 2.36113350448512e-07 2.16100516746109e-07 2.76445694498127e-08 4.38821370778838e-09 3.36292889936893e-09
"1925" 40258 3.877107664733e-08 3.18459172344571e-08 5.45801680819638e-08 2.35789438127614e-07 2.14454989759601e-07 2.75995045586736e-08 4.3917075547399e-09 3.36322965953031e-09
"1926" 40259 3.87837473958319e-08 3.19422377400311e-08 5.45406859126907e-08 2.35465525806715e-07 2.12809462773092e-07 2.75544396675346e-08 4.39520140169143e-09 3.36353041969169e-09
"1927" 40260 3.87964181443338e-08 3.20385582456051e-08 5.45012037434176e-08 2.35141613485817e-07 2.11163935786584e-07 2.75093747763956e-08 4.39869524864295e-09 3.36383117985307e-09
"1928" 40261 3.88090888928356e-08 3.2134878751179e-08 5.44617215741445e-08 2.34817701164918e-07 2.09518408800076e-07 2.74643098852565e-08 4.40218909559447e-09 3.36413194001445e-09
"1929" 40262 3.88217596413375e-08 3.2231199256753e-08 5.44222394048714e-08 2.34493788844019e-07 2.07872881813568e-07 2.74192449941175e-08 4.40568294254599e-09 3.36443270017583e-09
"1930" 40263 3.88344303898394e-08 3.2327519762327e-08 5.43827572355983e-08 2.34169876523121e-07 2.0622735482706e-07 2.73741801029784e-08 4.40917678949751e-09 3.36473346033721e-09
"1931" 40264 3.88471011383413e-08 3.24238402679009e-08 5.43432750663252e-08 2.33845964202222e-07 2.04581827840552e-07 2.73291152118394e-08 4.41267063644903e-09 3.36503422049859e-09
"1932" 40265 3.89542576872675e-08 3.25085395748228e-08 5.4357187893594e-08 2.33592446118743e-07 2.03614631331651e-07 2.72797055444078e-08 4.40987942158442e-09 3.37370347499165e-09
"1933" 40266 3.8959542050985e-08 3.24766903537242e-08 5.43400593010698e-08 2.34229032931822e-07 2.01936669076148e-07 2.73262451525205e-08 4.45207857053606e-09 3.39344052381354e-09
"1934" 40267 3.89648264147026e-08 3.24448411326256e-08 5.43229307085456e-08 2.348656197449e-07 2.00258706820645e-07 2.73727847606332e-08 4.4942777194877e-09 3.41317757263543e-09
"1935" 40268 3.89701107784202e-08 3.2412991911527e-08 5.43058021160213e-08 2.35502206557978e-07 1.98580744565141e-07 2.74193243687458e-08 4.53647686843934e-09 3.43291462145732e-09
"1936" 40269 3.89753951421378e-08 3.23811426904284e-08 5.42886735234971e-08 2.36138793371057e-07 1.96902782309638e-07 2.74658639768585e-08 4.57867601739098e-09 3.45265167027921e-09
"1937" 40270 3.89806795058553e-08 3.23492934693299e-08 5.42715449309728e-08 2.36775380184135e-07 1.95224820054135e-07 2.75124035849711e-08 4.62087516634262e-09 3.47238871910109e-09
"1938" 40271 3.89859638695729e-08 3.23174442482313e-08 5.42544163384486e-08 2.37411966997213e-07 1.93546857798632e-07 2.75589431930838e-08 4.66307431529426e-09 3.49212576792298e-09
"1939" 40272 3.89912482332905e-08 3.22855950271327e-08 5.42372877459243e-08 2.38048553810292e-07 1.91868895543129e-07 2.76054828011964e-08 4.7052734642459e-09 3.51186281674487e-09
"1940" 40273 3.8996532597008e-08 3.22537458060341e-08 5.42201591534001e-08 2.3868514062337e-07 1.90190933287625e-07 2.76520224093091e-08 4.74747261319754e-09 3.53159986556676e-09
"1941" 40274 3.89402111804003e-08 3.22537458060341e-08 5.42030305608759e-08 2.39557380818613e-07 1.90028153896724e-07 2.77021305431744e-08 4.7938605157944e-09 3.54924667616955e-09
"1942" 40275 3.89246111878444e-08 3.22566850909353e-08 5.41171831241916e-08 2.39846823516969e-07 1.89158759080657e-07 2.76587500582534e-08 4.82588201099773e-09 3.56808898596258e-09
"1943" 40276 3.89090111952885e-08 3.22596243758366e-08 5.40313356875074e-08 2.40136266215326e-07 1.88289364264591e-07 2.76153695733324e-08 4.85790350620106e-09 3.58693129575561e-09
"1944" 40277 3.88934112027325e-08 3.22625636607378e-08 5.39454882508232e-08 2.40425708913682e-07 1.87419969448525e-07 2.75719890884114e-08 4.8899250014044e-09 3.60577360554863e-09
"1945" 40278 3.88778112101766e-08 3.22655029456391e-08 5.38596408141389e-08 2.40715151612039e-07 1.86550574632458e-07 2.75286086034904e-08 4.92194649660773e-09 3.62461591534166e-09
"1946" 40279 3.88803305647752e-08 3.2264487694804e-08 5.37530025265708e-08 2.40162891815504e-07 1.85851075149216e-07 2.76393097229583e-08 4.92194649660773e-09 3.62461591534166e-09
"1947" 40280 3.93813890193849e-08 3.26621200457212e-08 5.4451213762625e-08 2.42670109345266e-07 1.8756337265519e-07 2.77826736534653e-08 4.99436828187036e-09 3.694917480502e-09
"1948" 40281 3.98824474739947e-08 3.30597523966385e-08 5.51494249986793e-08 2.45177326875027e-07 1.89275670161165e-07 2.79260375839722e-08 5.06679006713299e-09 3.76521904566234e-09
"1949" 40282 4.03835059286044e-08 3.34573847475557e-08 5.58476362347336e-08 2.47684544404788e-07 1.9098796766714e-07 2.80694015144792e-08 5.13921185239563e-09 3.83552061082268e-09
"1950" 40283 4.08845643832142e-08 3.38550170984729e-08 5.65458474707878e-08 2.50191761934549e-07 1.92700265173115e-07 2.82127654449861e-08 5.21163363765826e-09 3.90582217598301e-09
"1951" 40284 4.13856228378239e-08 3.42526494493901e-08 5.72440587068421e-08 2.5269897946431e-07 1.94412562679089e-07 2.83561293754931e-08 5.28405542292089e-09 3.97612374114335e-09
"1952" 40285 4.18866812924337e-08 3.46502818003074e-08 5.79422699428963e-08 2.55206196994071e-07 1.96124860185064e-07 2.8499493306e-08 5.35647720818353e-09 4.04642530630369e-09
"1953" 40286 4.23877397470434e-08 3.50479141512246e-08 5.86404811789506e-08 2.57713414523832e-07 1.97837157691039e-07 2.8642857236507e-08 5.42889899344616e-09 4.11672687146403e-09
"1954" 40287 4.28887982016531e-08 3.54455465021418e-08 5.93386924150048e-08 2.60220632053594e-07 1.99549455197014e-07 2.87862211670139e-08 5.50132077870879e-09 4.18702843662436e-09
"1955" 40288 4.33898566562629e-08 3.5843178853059e-08 6.00369036510591e-08 2.62727849583355e-07 2.01261752702988e-07 2.89295850975209e-08 5.57374256397143e-09 4.2573300017847e-09
"1956" 40289 4.38909151108726e-08 3.62408112039762e-08 6.07351148871134e-08 2.65235067113116e-07 2.02974050208963e-07 2.90729490280278e-08 5.64616434923406e-09 4.32763156694504e-09
"1957" 40290 4.43919735654824e-08 3.66384435548935e-08 6.14333261231676e-08 2.67742284642877e-07 2.04686347714938e-07 2.92163129585348e-08 5.71858613449669e-09 4.39793313210538e-09
"1958" 40291 4.48930320200921e-08 3.70360759058107e-08 6.21315373592219e-08 2.70249502172638e-07 2.06398645220913e-07 2.93596768890417e-08 5.79100791975932e-09 4.46823469726571e-09
"1959" 40292 4.53940904747019e-08 3.74337082567279e-08 6.28297485952761e-08 2.72756719702399e-07 2.08110942726887e-07 2.95030408195487e-08 5.86342970502196e-09 4.53853626242605e-09
"1960" 40293 4.58951489293116e-08 3.78313406076451e-08 6.35279598313304e-08 2.75263937232161e-07 2.09823240232862e-07 2.96464047500556e-08 5.93585149028459e-09 4.60883782758639e-09
"1961" 40294 4.63962073839214e-08 3.82289729585624e-08 6.42261710673847e-08 2.77771154761922e-07 2.11535537738837e-07 2.97897686805626e-08 6.00827327554722e-09 4.67913939274673e-09
"1962" 40295 4.69159216244395e-08 3.86254027881882e-08 6.49931011475989e-08 2.79893781508142e-07 2.13525849316713e-07 3.00587742515016e-08 6.05525736426676e-09 4.73059864811404e-09
"1963" 40296 4.74356358649576e-08 3.90218326178141e-08 6.57600312278132e-08 2.82016408254362e-07 2.15516160894588e-07 3.03277798224406e-08 6.1022414529863e-09 4.78205790348135e-09
"1964" 40297 4.79578122337371e-08 3.94115558972586e-08 6.64486428621255e-08 2.85186882991677e-07 2.18065417947634e-07 3.06090991832715e-08 6.17825451820594e-09 4.85116396945144e-09
"1965" 40298 4.84799886025167e-08 3.98012791767032e-08 6.71372544964379e-08 2.88357357728992e-07 2.2061467500068e-07 3.08904185441023e-08 6.25426758342557e-09 4.92027003542154e-09
"1966" 40299 4.90021649712962e-08 4.01910024561478e-08 6.78258661307502e-08 2.91527832466307e-07 2.23163932053726e-07 3.11717379049331e-08 6.3302806486452e-09 4.98937610139164e-09
"1967" 40300 4.95243413400757e-08 4.05807257355924e-08 6.85144777650625e-08 2.94698307203622e-07 2.25713189106772e-07 3.14530572657639e-08 6.40629371386483e-09 5.05848216736173e-09
"1968" 40301 4.97451442767639e-08 4.0577991465748e-08 6.83943543708407e-08 2.94732333189508e-07 2.25653723271188e-07 3.1482007019114e-08 6.41666365849302e-09 5.06288326112161e-09
"1969" 40302 4.97476064050253e-08 4.06113271217486e-08 6.8304692970281e-08 2.94773137547928e-07 2.25688472825625e-07 3.16083691985318e-08 6.42434497152422e-09 5.06099101585833e-09
"1970" 40303 4.97500685332867e-08 4.06446627777492e-08 6.82150315697213e-08 2.94813941906348e-07 2.25723222380063e-07 3.17347313779496e-08 6.43202628455542e-09 5.05909877059506e-09
"1971" 40304 4.97525306615482e-08 4.06779984337498e-08 6.81253701691616e-08 2.94854746264768e-07 2.257579719345e-07 3.18610935573675e-08 6.43970759758662e-09 5.05720652533179e-09
"1972" 40305 4.97549927898096e-08 4.07113340897503e-08 6.80357087686019e-08 2.94895550623188e-07 2.25792721488937e-07 3.19874557367853e-08 6.44738891061783e-09 5.05531428006851e-09
"1973" 40306 4.97574549180711e-08 4.07446697457509e-08 6.79460473680422e-08 2.94936354981609e-07 2.25827471043375e-07 3.21138179162031e-08 6.45507022364903e-09 5.05342203480524e-09
"1974" 40307 4.97599170463325e-08 4.07780054017515e-08 6.78563859674826e-08 2.94977159340029e-07 2.25862220597812e-07 3.22401800956209e-08 6.46275153668023e-09 5.05152978954197e-09
"1975" 40308 4.97623791745939e-08 4.08113410577521e-08 6.77667245669229e-08 2.95017963698449e-07 2.2589697015225e-07 3.23665422750387e-08 6.47043284971143e-09 5.04963754427869e-09
"1976" 40309 4.97360839053045e-08 4.08526212744266e-08 6.77851500192587e-08 2.93630510992138e-07 2.24695307861863e-07 3.24785515069918e-08 6.48230677908446e-09 5.04563997788575e-09
"1977" 40310 4.9709788636015e-08 4.08939014911012e-08 6.78035754715945e-08 2.92243058285826e-07 2.23493645571477e-07 3.25905607389449e-08 6.49418070845748e-09 5.04164241149282e-09
"1978" 40311 4.96834933667255e-08 4.09351817077757e-08 6.78220009239304e-08 2.90855605579515e-07 2.2229198328109e-07 3.2702569970898e-08 6.50605463783051e-09 5.03764484509988e-09
"1979" 40312 4.96571980974361e-08 4.09764619244503e-08 6.78404263762662e-08 2.89468152873204e-07 2.21090320990704e-07 3.28145792028511e-08 6.51792856720354e-09 5.03364727870694e-09
"1980" 40313 4.96309028281466e-08 4.10177421411249e-08 6.78588518286021e-08 2.88080700166892e-07 2.19888658700317e-07 3.29265884348042e-08 6.52980249657657e-09 5.029649712314e-09
"1981" 40314 4.96046075588572e-08 4.10590223577994e-08 6.78772772809379e-08 2.86693247460581e-07 2.18686996409931e-07 3.30385976667573e-08 6.54167642594959e-09 5.02565214592106e-09
"1982" 40315 4.95783122895677e-08 4.1100302574474e-08 6.78957027332737e-08 2.8530579475427e-07 2.17485334119544e-07 3.31506068987104e-08 6.55355035532262e-09 5.02165457952813e-09
"1983" 40316 4.95520170202782e-08 4.11415827911485e-08 6.79141281856096e-08 2.83918342047959e-07 2.16283671829158e-07 3.32626161306635e-08 6.56542428469565e-09 5.01765701313519e-09
"1984" 40317 4.94253774624564e-08 4.11776527169934e-08 6.78132709699192e-08 2.82817809493541e-07 2.15323751558678e-07 3.33040016031156e-08 6.57879189828922e-09 5.00599523993888e-09
"1985" 40318 4.92987379046345e-08 4.12137226428383e-08 6.77124137542288e-08 2.81717276939124e-07 2.14363831288198e-07 3.33453870755678e-08 6.5921595118828e-09 4.99433346674258e-09
"1986" 40319 4.91720983468126e-08 4.12497925686832e-08 6.76115565385384e-08 2.80616744384706e-07 2.13403911017719e-07 3.33867725480199e-08 6.60552712547637e-09 4.98267169354627e-09
"1987" 40320 4.90454587889908e-08 4.12858624945281e-08 6.7510699322848e-08 2.79516211830289e-07 2.12443990747239e-07 3.34281580204721e-08 6.61889473906995e-09 4.97100992034997e-09
"1988" 40321 4.89188192311689e-08 4.13219324203729e-08 6.74098421071577e-08 2.78415679275871e-07 2.11484070476759e-07 3.34695434929243e-08 6.63226235266353e-09 4.95934814715366e-09
"1989" 40322 4.8792179673347e-08 4.13580023462178e-08 6.73089848914673e-08 2.77315146721454e-07 2.1052415020628e-07 3.35109289653764e-08 6.6456299662571e-09 4.94768637395736e-09
"1990" 40323 4.86655401155252e-08 4.13940722720627e-08 6.72081276757769e-08 2.76214614167036e-07 2.095642299358e-07 3.35523144378286e-08 6.65899757985068e-09 4.93602460076105e-09
"1991" 40324 4.85364384294419e-08 4.13881404684582e-08 6.70856292424953e-08 2.75989743572782e-07 2.08593715240674e-07 3.34744532399901e-08 6.65809750662174e-09 4.92526510804889e-09
"1992" 40325 4.84577168565086e-08 4.13979814941481e-08 6.69795089890678e-08 2.75143604430011e-07 2.09392258008624e-07 3.33999613847618e-08 6.65300867974759e-09 4.91370610205814e-09
"1993" 40326 4.83789952835752e-08 4.14078225198379e-08 6.68733887356403e-08 2.7429746528724e-07 2.10190800776574e-07 3.33254695295335e-08 6.64791985287343e-09 4.90214709606739e-09
"1994" 40327 4.83002737106419e-08 4.14176635455278e-08 6.67672684822127e-08 2.73451326144468e-07 2.10989343544524e-07 3.32509776743052e-08 6.64283102599928e-09 4.89058809007664e-09
"1995" 40328 4.82215521377085e-08 4.14275045712176e-08 6.66611482287852e-08 2.72605187001697e-07 2.11787886312474e-07 3.31764858190769e-08 6.63774219912512e-09 4.87902908408589e-09
"1996" 40329 4.81428305647752e-08 4.14373455969075e-08 6.65550279753577e-08 2.71759047858926e-07 2.12586429080424e-07 3.31019939638487e-08 6.63265337225097e-09 4.86747007809514e-09
"1997" 40330 4.80641089918419e-08 4.14471866225973e-08 6.64489077219302e-08 2.70912908716154e-07 2.13384971848374e-07 3.30275021086204e-08 6.62756454537681e-09 4.85591107210439e-09
"1998" 40331 4.80857317074409e-08 4.13825793971691e-08 6.6473883431303e-08 2.68139226425872e-07 2.14133221473357e-07 3.29968122374981e-08 6.62666704727895e-09 4.85412159404667e-09
"1999" 40332 4.80533443921471e-08 4.12664862129135e-08 6.62586214842097e-08 2.68423337867158e-07 2.15951508647646e-07 3.30030521696012e-08 6.62008453618425e-09 4.82897086231993e-09
"2000" 40333 4.80209570768532e-08 4.11503930286579e-08 6.60433595371163e-08 2.68707449308443e-07 2.17769795821935e-07 3.30092921017043e-08 6.61350202508954e-09 4.80382013059319e-09
"2001" 40334 4.79885697615594e-08 4.10342998444022e-08 6.58280975900229e-08 2.68991560749729e-07 2.19588082996224e-07 3.30155320338074e-08 6.60691951399484e-09 4.77866939886645e-09
"2002" 40335 4.79561824462655e-08 4.09182066601466e-08 6.56128356429295e-08 2.69275672191015e-07 2.21406370170514e-07 3.30217719659105e-08 6.60033700290014e-09 4.75351866713971e-09
"2003" 40336 4.79237951309716e-08 4.0802113475891e-08 6.53975736958361e-08 2.695597836323e-07 2.23224657344803e-07 3.30280118980136e-08 6.59375449180543e-09 4.72836793541297e-09
"2004" 40337 4.78914078156778e-08 4.06860202916354e-08 6.51823117487427e-08 2.69843895073586e-07 2.25042944519092e-07 3.30342518301167e-08 6.58717198071073e-09 4.70321720368623e-09
"2005" 40338 4.81359038517071e-08 4.07786011009796e-08 6.49418508457243e-08 2.69854774244974e-07 2.25035583831519e-07 3.3067868002286e-08 6.58019072463537e-09 4.69034484838912e-09
"2006" 40339 4.82246186319208e-08 4.06467350874297e-08 6.48456579606167e-08 2.70298022684098e-07 2.24988860674988e-07 3.30636230826518e-08 6.57660201980944e-09 4.66509134945683e-09
"2007" 40340 4.83133334121344e-08 4.05148690738798e-08 6.47494650755091e-08 2.70741271123223e-07 2.24942137518457e-07 3.30593781630175e-08 6.57301331498352e-09 4.63983785052453e-09
"2008" 40341 4.84020481923481e-08 4.03830030603298e-08 6.46532721904015e-08 2.71184519562347e-07 2.24895414361927e-07 3.30551332433832e-08 6.56942461015759e-09 4.61458435159224e-09
"2009" 40342 4.84907629725617e-08 4.02511370467799e-08 6.45570793052939e-08 2.71627768001471e-07 2.24848691205396e-07 3.3050888323749e-08 6.56583590533167e-09 4.58933085265994e-09
"2010" 40343 4.85794777527753e-08 4.01192710332299e-08 6.44608864201863e-08 2.72071016440596e-07 2.24801968048865e-07 3.30466434041147e-08 6.56224720050574e-09 4.56407735372765e-09
"2011" 40344 4.8668192532989e-08 3.99874050196799e-08 6.43646935350787e-08 2.7251426487972e-07 2.24755244892334e-07 3.30423984844804e-08 6.55865849567981e-09 4.53882385479535e-09
"2012" 40345 4.87569073132026e-08 3.985553900613e-08 6.42685006499711e-08 2.72957513318844e-07 2.24708521735804e-07 3.30381535648462e-08 6.55506979085389e-09 4.51357035586306e-09
"2013" 40346 4.88456220934163e-08 3.972367299258e-08 6.41723077648634e-08 2.73400761757969e-07 2.24661798579273e-07 3.30339086452119e-08 6.55148108602796e-09 4.48831685693077e-09
"2014" 40347 4.89343368736299e-08 3.95918069790301e-08 6.40761148797558e-08 2.73844010197093e-07 2.24615075422742e-07 3.30296637255776e-08 6.54789238120204e-09 4.46306335799847e-09
"2015" 40348 4.90230516538436e-08 3.94599409654801e-08 6.39799219946482e-08 2.74287258636217e-07 2.24568352266211e-07 3.30254188059433e-08 6.54430367637611e-09 4.43780985906618e-09
"2016" 40349 4.91117664340572e-08 3.93280749519302e-08 6.38837291095406e-08 2.74730507075342e-07 2.24521629109681e-07 3.30211738863091e-08 6.54071497155019e-09 4.41255636013388e-09
"2017" 40350 4.92004812142709e-08 3.91962089383802e-08 6.3787536224433e-08 2.75173755514466e-07 2.2447490595315e-07 3.30169289666748e-08 6.53712626672426e-09 4.38730286120159e-09
"2018" 40351 4.92891959944845e-08 3.90643429248303e-08 6.36913433393254e-08 2.7561700395359e-07 2.24428182796619e-07 3.30126840470405e-08 6.53353756189834e-09 4.36204936226929e-09
"2019" 40352 4.94582160748805e-08 3.90395747948256e-08 6.38104124013112e-08 2.76008743712142e-07 2.24373600199398e-07 3.30021991953032e-08 6.5323426145219e-09 4.35805179587636e-09
"2020" 40353 4.96272361552766e-08 3.90148066648208e-08 6.3929481463297e-08 2.76400483470695e-07 2.24319017602177e-07 3.29917143435658e-08 6.53114766714546e-09 4.35405422948342e-09
"2021" 40354 4.9779702470831e-08 3.89991757923318e-08 6.4061347119791e-08 2.7621720161113e-07 2.23885027202872e-07 3.29845988344386e-08 6.53454021839489e-09 4.35216198422014e-09
"2022" 40355 4.99321687863853e-08 3.89835449198428e-08 6.41932127762849e-08 2.76033919751565e-07 2.23451036803566e-07 3.29774833253114e-08 6.53793276964433e-09 4.35026973895687e-09
"2023" 40356 5.00846351019397e-08 3.89679140473537e-08 6.43250784327789e-08 2.75850637892e-07 2.23017046404261e-07 3.29703678161841e-08 6.54132532089377e-09 4.3483774936936e-09
"2024" 40357 5.02371014174941e-08 3.89522831748647e-08 6.44569440892728e-08 2.75667356032435e-07 2.22583056004956e-07 3.29632523070569e-08 6.5447178721432e-09 4.34648524843032e-09
"2025" 40358 5.03895677330485e-08 3.89366523023757e-08 6.45888097457668e-08 2.7548407417287e-07 2.2214906560565e-07 3.29561367979297e-08 6.54811042339264e-09 4.34459300316705e-09
"2026" 40359 5.05420340486029e-08 3.89210214298866e-08 6.47206754022608e-08 2.75300792313305e-07 2.21715075206345e-07 3.29490212888025e-08 6.55150297464208e-09 4.34270075790378e-09
"2027" 40360 5.05285360771138e-08 3.8935209276826e-08 6.47381601743638e-08 2.74670067818572e-07 2.2172532698708e-07 3.30177830013209e-08 6.55699054649689e-09 4.34439501021122e-09
"2028" 40361 5.05207895851347e-08 3.89202999171118e-08 6.4750956768872e-08 2.74023949038812e-07 2.21289768668368e-07 3.30454803537399e-08 6.58880816273052e-09 4.34650033134089e-09
"2029" 40362 5.05130430931557e-08 3.89053905573976e-08 6.47637533633802e-08 2.73377830259052e-07 2.20854210349656e-07 3.3073177706159e-08 6.62062577896414e-09 4.34860565247055e-09
"2030" 40363 5.05052966011767e-08 3.88904811976834e-08 6.47765499578883e-08 2.72731711479292e-07 2.20418652030944e-07 3.3100875058578e-08 6.65244339519777e-09 4.35071097360022e-09
"2031" 40364 5.04975501091977e-08 3.88755718379692e-08 6.47893465523965e-08 2.72085592699532e-07 2.19983093712232e-07 3.3128572410997e-08 6.68426101143139e-09 4.35281629472988e-09
"2032" 40365 5.04898036172187e-08 3.8860662478255e-08 6.48021431469047e-08 2.71439473919772e-07 2.1954753539352e-07 3.3156269763416e-08 6.71607862766502e-09 4.35492161585955e-09
"2033" 40366 5.04843112846174e-08 3.87714487285265e-08 6.46580841690456e-08 2.71328753714038e-07 2.19143363021171e-07 3.31910826249623e-08 6.74091498782328e-09 4.35492161585955e-09
"2034" 40367 5.04788189520161e-08 3.86822349787981e-08 6.45140251911866e-08 2.71218033508305e-07 2.18739190648821e-07 3.32258954865085e-08 6.76575134798155e-09 4.35492161585955e-09
"2035" 40368 5.04733266194147e-08 3.85930212290697e-08 6.43699662133275e-08 2.71107313302571e-07 2.18335018276472e-07 3.32607083480547e-08 6.79058770813981e-09 4.35492161585955e-09
"2036" 40369 5.04678342868134e-08 3.85038074793413e-08 6.42259072354684e-08 2.70996593096838e-07 2.17930845904123e-07 3.3295521209601e-08 6.81542406829808e-09 4.35492161585955e-09
"2037" 40370 5.0462341954212e-08 3.84145937296129e-08 6.40818482576094e-08 2.70885872891104e-07 2.17526673531774e-07 3.33303340711472e-08 6.84026042845634e-09 4.35492161585955e-09
"2038" 40371 5.04568496216107e-08 3.83253799798844e-08 6.39377892797503e-08 2.70775152685371e-07 2.17122501159424e-07 3.33651469326935e-08 6.86509678861461e-09 4.35492161585955e-09
"2039" 40372 5.04513572890094e-08 3.8236166230156e-08 6.37937303018912e-08 2.70664432479637e-07 2.16718328787075e-07 3.33999597942397e-08 6.88993314877287e-09 4.35492161585955e-09
"2040" 40373 5.04458649564081e-08 3.81469524804276e-08 6.36496713240322e-08 2.70553712273904e-07 2.16314156414726e-07 3.34347726557859e-08 6.91476950893114e-09 4.35492161585955e-09
"2041" 40374 5.04403726238067e-08 3.80577387306992e-08 6.35056123461731e-08 2.7044299206817e-07 2.15909984042377e-07 3.34695855173322e-08 6.9396058690894e-09 4.35492161585955e-09
"2042" 40375 5.01926761001904e-08 3.80587184923329e-08 6.35219905260272e-08 2.70442289143946e-07 2.15583102086818e-07 3.35066482860439e-08 6.96962720156176e-09 4.35533268468176e-09
"2043" 40376 4.99449795765741e-08 3.80596982539667e-08 6.35383687058813e-08 2.70441586219723e-07 2.15256220131259e-07 3.35437110547555e-08 6.99964853403412e-09 4.35574375350398e-09
"2044" 40377 4.96972830529577e-08 3.80606780156004e-08 6.35547468857353e-08 2.70440883295499e-07 2.149293381757e-07 3.35807738234672e-08 7.02966986650648e-09 4.3561548223262e-09
"2045" 40378 4.94495865293414e-08 3.80616577772342e-08 6.35711250655894e-08 2.70440180371276e-07 2.14602456220141e-07 3.36178365921789e-08 7.05969119897884e-09 4.35656589114842e-09
"2046" 40379 4.92018900057251e-08 3.80626375388679e-08 6.35875032454435e-08 2.70439477447052e-07 2.14275574264582e-07 3.36548993608906e-08 7.0897125314512e-09 4.35697695997063e-09
"2047" 40380 4.89541934821087e-08 3.80636173005017e-08 6.36038814252976e-08 2.70438774522828e-07 2.13948692309024e-07 3.36919621296023e-08 7.11973386392356e-09 4.35738802879285e-09
"2048" 40381 4.87064969584924e-08 3.80645970621354e-08 6.36202596051517e-08 2.70438071598605e-07 2.13621810353465e-07 3.37290248983139e-08 7.14975519639592e-09 4.35779909761507e-09
"2049" 40382 4.85017564776051e-08 3.8154453426085e-08 6.39336901687981e-08 2.70508465836024e-07 2.13328996851814e-07 3.37383903146066e-08 7.14835765761531e-09 4.35490934611738e-09
"2050" 40383 4.82664278216331e-08 3.8158478940224e-08 6.39312344567246e-08 2.705194617539e-07 2.13145005900695e-07 3.373813541991e-08 7.14726014324435e-09 4.35142561575221e-09
"2051" 40384 4.8031099165661e-08 3.81625044543629e-08 6.3928778744651e-08 2.70530457671777e-07 2.12961014949576e-07 3.37378805252134e-08 7.14616262887338e-09 4.34794188538705e-09
"2052" 40385 4.7795770509689e-08 3.81665299685019e-08 6.39263230325775e-08 2.70541453589653e-07 2.12777023998457e-07 3.37376256305168e-08 7.14506511450242e-09 4.34445815502188e-09
"2053" 40386 4.7560441853717e-08 3.81705554826409e-08 6.3923867320504e-08 2.70552449507529e-07 2.12593033047337e-07 3.37373707358201e-08 7.14396760013146e-09 4.34097442465671e-09
"2054" 40387 4.7325113197745e-08 3.81745809967799e-08 6.39214116084305e-08 2.70563445425405e-07 2.12409042096218e-07 3.37371158411235e-08 7.1428700857605e-09 4.33749069429155e-09
"2055" 40388 4.7089784541773e-08 3.81786065109189e-08 6.3918955896357e-08 2.70574441343282e-07 2.12225051145099e-07 3.37368609464269e-08 7.14177257138953e-09 4.33400696392638e-09
"2056" 40389 4.70985285399864e-08 3.81804142529314e-08 6.39250454537893e-08 2.69567791121387e-07 2.12377314165957e-07 3.37287700036173e-08 7.11902736914004e-09 4.33430772408776e-09
"2057" 40390 4.62014917476389e-08 3.76798514894133e-08 6.37635113443389e-08 2.68800180752135e-07 2.11755121415882e-07 3.3522862220143e-08 7.1163335872809e-09 4.31018466441656e-09
"2058" 40391 4.53044549552914e-08 3.71792887258951e-08 6.36019772348885e-08 2.68032570382883e-07 2.11132928665806e-07 3.33169544366687e-08 7.11363980542177e-09 4.28606160474537e-09
"2059" 40392 4.4407418162944e-08 3.6678725962377e-08 6.34404431254381e-08 2.67264960013631e-07 2.10510735915731e-07 3.31110466531944e-08 7.11094602356264e-09 4.26193854507417e-09
"2060" 40393 4.35103813705965e-08 3.61781631988589e-08 6.32789090159876e-08 2.66497349644379e-07 2.09888543165655e-07 3.290513886972e-08 7.10825224170351e-09 4.23781548540297e-09
"2061" 40394 4.2613344578249e-08 3.56776004353407e-08 6.31173749065372e-08 2.65729739275127e-07 2.09266350415579e-07 3.26992310862457e-08 7.10555845984438e-09 4.21369242573178e-09
"2062" 40395 4.17163077859015e-08 3.51770376718226e-08 6.29558407970868e-08 2.64962128905875e-07 2.08644157665504e-07 3.24933233027714e-08 7.10286467798525e-09 4.18956936606058e-09
"2063" 40396 4.0819270993554e-08 3.46764749083044e-08 6.27943066876364e-08 2.64194518536622e-07 2.08021964915428e-07 3.22874155192971e-08 7.10017089612611e-09 4.16544630638938e-09
"2064" 40397 3.99222342012065e-08 3.41759121447863e-08 6.26327725781859e-08 2.6342690816737e-07 2.07399772165353e-07 3.20815077358227e-08 7.09747711426698e-09 4.14132324671819e-09
"2065" 40398 3.9025197408859e-08 3.36753493812682e-08 6.24712384687355e-08 2.62659297798118e-07 2.06777579415277e-07 3.18755999523484e-08 7.09478333240785e-09 4.11720018704699e-09
"2066" 40399 3.81281606165115e-08 3.317478661775e-08 6.23097043592851e-08 2.61891687428866e-07 2.06155386665202e-07 3.16696921688741e-08 7.09208955054872e-09 4.09307712737579e-09
"2067" 40400 3.7231123824164e-08 3.26742238542319e-08 6.21481702498346e-08 2.61124077059614e-07 2.05533193915126e-07 3.14637843853998e-08 7.08939576868958e-09 4.06895406770460e-09
"2068" 40401 3.63340870318165e-08 3.21736610907137e-08 6.19866361403842e-08 2.60356466690362e-07 2.04911001165051e-07 3.12578766019254e-08 7.08670198683045e-09 4.0448310080334e-09
"2069" 40402 3.54370502394691e-08 3.16730983271956e-08 6.18251020309338e-08 2.59588856321109e-07 2.04288808414975e-07 3.10519688184511e-08 7.08400820497132e-09 4.0207079483622e-09
"2070" 40403 3.45400134471216e-08 3.11725355636775e-08 6.16635679214834e-08 2.58821245951857e-07 2.036666156649e-07 3.08460610349768e-08 7.08131442311219e-09 3.996584888691e-09
"2071" 40404 3.36429766547741e-08 3.06719728001593e-08 6.15020338120329e-08 2.58053635582605e-07 2.03044422914824e-07 3.06401532515025e-08 7.07862064125306e-09 3.97246182901981e-09
"2072" 40405 3.28345974163031e-08 3.02673125919502e-08 6.24890286860073e-08 2.58030972589792e-07 2.0421209259865e-07 3.13097227328667e-08 7.08510185664567e-09 3.96061714577824e-09
"2073" 40406 3.19173136667218e-08 2.98114779075748e-08 6.25300974281575e-08 2.57324297525457e-07 2.04018003108734e-07 3.11352695046045e-08 7.08440179968983e-09 3.93619332594566e-09
"2074" 40407 3.10000299171406e-08 2.93556432231993e-08 6.25711661703077e-08 2.56617622461122e-07 2.03823913618817e-07 3.09608162763423e-08 7.08370174273399e-09 3.91176950611309e-09
"2075" 40408 3.00827461675593e-08 2.88998085388238e-08 6.26122349124578e-08 2.55910947396787e-07 2.03629824128901e-07 3.07863630480801e-08 7.08300168577815e-09 3.88734568628051e-09
"2076" 40409 2.9165462417978e-08 2.84439738544483e-08 6.2653303654608e-08 2.55204272332452e-07 2.03435734638985e-07 3.06119098198179e-08 7.08230162882231e-09 3.86292186644793e-09
"2077" 40410 2.82481786683967e-08 2.79881391700728e-08 6.26943723967582e-08 2.54497597268117e-07 2.03241645149069e-07 3.04374565915557e-08 7.08160157186647e-09 3.83849804661535e-09
"2078" 40411 2.82509376292037e-08 2.80246112058805e-08 6.17142555463989e-08 2.51602665299185e-07 2.01559533232141e-07 3.04252316220461e-08 7.08299782308155e-09 3.83819728645397e-09
"2079" 40412 2.82353120476352e-08 2.80610832416883e-08 6.17269805998707e-08 2.49568939326889e-07 2.00709664974981e-07 3.03643616691948e-08 7.05925897729424e-09 3.83789652629259e-09
"2080" 40413 2.80108926855926e-08 2.78541913253493e-08 6.18794468396859e-08 2.4561384203887e-07 1.99074813995003e-07 3.03933114225448e-08 7.05387012601044e-09 3.82152535771975e-09
"2081" 40414 2.77864733235499e-08 2.76472994090103e-08 6.20319130795012e-08 2.41658744750851e-07 1.97439963015025e-07 3.04222611758949e-08 7.04848127472664e-09 3.80515418914691e-09
"2082" 40415 2.75620539615072e-08 2.74404074926714e-08 6.21843793193164e-08 2.37703647462832e-07 1.95805112035047e-07 3.04512109292449e-08 7.04309242344284e-09 3.78878302057407e-09
"2083" 40416 2.73376345994646e-08 2.72335155763324e-08 6.23368455591317e-08 2.33748550174813e-07 1.94170261055069e-07 3.0480160682595e-08 7.03770357215904e-09 3.77241185200123e-09
"2084" 40417 2.71132152374219e-08 2.70266236599934e-08 6.24893117989469e-08 2.29793452886793e-07 1.92535410075091e-07 3.0509110435945e-08 7.03231472087524e-09 3.75604068342839e-09
"2085" 40418 2.68887958753793e-08 2.68197317436545e-08 6.26417780387622e-08 2.25838355598774e-07 1.90900559095113e-07 3.05380601892951e-08 7.02692586959144e-09 3.73966951485555e-09
"2086" 40419 2.66643765133366e-08 2.66128398273155e-08 6.27942442785774e-08 2.21883258310755e-07 1.89265708115135e-07 3.05670099426452e-08 7.02153701830764e-09 3.72329834628271e-09
"2087" 40420 2.65772724451489e-08 2.63661186400026e-08 6.29070005365787e-08 2.20254765307754e-07 1.87309594862169e-07 3.05662452585553e-08 7.02822082510443e-09 3.71290467366107e-09
"2088" 40421 2.63929929386912e-08 2.61405500986694e-08 6.28923038091159e-08 2.17670664318471e-07 1.87125538645543e-07 3.06560649647567e-08 7.08636977328241e-09 3.73934613032832e-09
"2089" 40422 2.62087134322334e-08 2.59149815573362e-08 6.2877607081653e-08 2.15086563329188e-07 1.86941482428916e-07 3.0745884670958e-08 7.14451872146038e-09 3.76578758699557e-09
"2090" 40423 2.60244339257757e-08 2.56894130160029e-08 6.28629103541902e-08 2.12502462339905e-07 1.8675742621229e-07 3.08357043771594e-08 7.20266766963836e-09 3.79222904366282e-09
"2091" 40424 2.58401544193179e-08 2.54638444746697e-08 6.28482136267274e-08 2.09918361350622e-07 1.86573369995664e-07 3.09255240833607e-08 7.26081661781633e-09 3.81867050033008e-09
"2092" 40425 2.58365742838358e-08 2.53841326989199e-08 6.22925458281571e-08 2.10877413910129e-07 1.88492230006778e-07 3.1015343789562e-08 7.32155933971689e-09 3.86128513261434e-09
