"time" "channel1" "channel2" "channel3" "channel4" "channel5" "channel6" "channel7" "channel8"
"1581" 33511 3.97731313982156e-08 6.97728062278464e-09 1.39800883117582e-08 1.20996802697112e-08 1.08778915139811e-08 1.59155627287311e-08 3.99438044085784e-08 1.50478761995671e-08
"1582" 33512 3.96863499817977e-08 7.00665690092876e-09 1.39474019591951e-08 1.21196195545587e-08 1.08055717355818e-08 1.58351117362964e-08 4.00591062460948e-08 1.50012968962816e-08
"1583" 33513 3.95995685653798e-08 7.03603317907288e-09 1.3914715606632e-08 1.21395588394062e-08 1.07332519571826e-08 1.57546607438616e-08 4.01744080836113e-08 1.4954717592996e-08
"1584" 33514 3.95127871489619e-08 7.065409457217e-09 1.3882029254069e-08 1.21594981242537e-08 1.06609321787833e-08 1.56742097514269e-08 4.02897099211277e-08 1.49081382897104e-08
"1585" 33515 3.9426005732544e-08 7.09478573536112e-09 1.38493429015059e-08 1.21794374091013e-08 1.05886124003841e-08 1.55937587589922e-08 4.04050117586442e-08 1.48615589864248e-08
"1586" 33516 3.93392243161261e-08 7.12416201350524e-09 1.38166565489428e-08 1.21993766939488e-08 1.05162926219849e-08 1.55133077665574e-08 4.05203135961607e-08 1.48149796831392e-08
"1587" 33517 3.92524428997082e-08 7.15353829164936e-09 1.37839701963798e-08 1.22193159787963e-08 1.04439728435856e-08 1.54328567741227e-08 4.06356154336771e-08 1.47684003798537e-08
"1588" 33518 3.91656614832903e-08 7.18291456979348e-09 1.37512838438167e-08 1.22392552636439e-08 1.03716530651864e-08 1.5352405781688e-08 4.07509172711936e-08 1.47218210765681e-08
"1589" 33519 3.90788800668724e-08 7.2122908479376e-09 1.37185974912536e-08 1.22591945484914e-08 1.02993332867871e-08 1.52719547892532e-08 4.08662191087101e-08 1.46752417732825e-08
"1590" 33520 3.89920986504545e-08 7.24166712608172e-09 1.36859111386906e-08 1.22791338333389e-08 1.02270135083879e-08 1.51915037968185e-08 4.09815209462265e-08 1.46286624699969e-08
"1591" 33521 3.89053172340366e-08 7.27104340422584e-09 1.36532247861275e-08 1.22990731181864e-08 1.01546937299886e-08 1.51110528043837e-08 4.1096822783743e-08 1.45820831667113e-08
"1592" 33522 3.88185358176187e-08 7.30041968236996e-09 1.36205384335644e-08 1.2319012403034e-08 1.00823739515894e-08 1.5030601811949e-08 4.12121246212595e-08 1.45355038634257e-08
"1593" 33523 3.87324665185168e-08 7.31202381792406e-09 1.36429679395421e-08 1.23833298754722e-08 1.00452442966843e-08 1.51330896414318e-08 4.13416997846722e-08 1.44866706217292e-08
"1594" 33524 3.86463972194149e-08 7.32362795347816e-09 1.36653974455198e-08 1.24476473479104e-08 1.00081146417793e-08 1.52355774709145e-08 4.1471274948085e-08 1.44378373800327e-08
"1595" 33525 3.85603279203129e-08 7.33523208903226e-09 1.36878269514975e-08 1.25119648203486e-08 9.97098498687419e-09 1.53380653003973e-08 4.16008501114977e-08 1.43890041383361e-08
"1596" 33526 3.8474258621211e-08 7.34683622458636e-09 1.37102564574752e-08 1.25762822927868e-08 9.93385533196913e-09 1.54405531298801e-08 4.17304252749105e-08 1.43401708966396e-08
"1597" 33527 3.83881893221091e-08 7.35844036014046e-09 1.37326859634529e-08 1.2640599765225e-08 9.89672567706406e-09 1.55430409593628e-08 4.18600004383232e-08 1.42913376549431e-08
"1598" 33528 3.83021200230072e-08 7.37004449569456e-09 1.37551154694306e-08 1.27049172376632e-08 9.85959602215899e-09 1.56455287888456e-08 4.1989575601736e-08 1.42425044132466e-08
"1599" 33529 3.82160507239053e-08 7.38164863124867e-09 1.37775449754083e-08 1.27692347101014e-08 9.82246636725393e-09 1.57480166183284e-08 4.21191507651487e-08 1.419367117155e-08
"1600" 33530 3.81299814248033e-08 7.39325276680277e-09 1.3799974481386e-08 1.28335521825396e-08 9.78533671234886e-09 1.58505044478111e-08 4.22487259285615e-08 1.41448379298535e-08
"1601" 33531 3.80439121257014e-08 7.40485690235687e-09 1.38224039873637e-08 1.28978696549778e-08 9.74820705744379e-09 1.59529922772939e-08 4.23783010919742e-08 1.4096004688157e-08
"1602" 33532 3.79567028969019e-08 7.44102091671811e-09 1.41397265604632e-08 1.2915913051678e-08 9.71961168658918e-09 1.58692974108962e-08 4.22966340844835e-08 1.40593686159371e-08
"1603" 33533 3.79514332287636e-08 7.44092943190339e-09 1.41231015139099e-08 1.30377203421936e-08 9.61897336622079e-09 1.58255107086795e-08 4.22576864076205e-08 1.40105353742406e-08
"1604" 33534 3.79461635606253e-08 7.44083794708868e-09 1.41064764673567e-08 1.31595276327091e-08 9.51833504585239e-09 1.57817240064627e-08 4.22187387307575e-08 1.39617021325441e-08
"1605" 33535 3.79408938924871e-08 7.44074646227396e-09 1.40898514208034e-08 1.32813349232247e-08 9.41769672548400e-09 1.5737937304246e-08 4.21797910538945e-08 1.39128688908475e-08
"1606" 33536 3.79356242243488e-08 7.44065497745924e-09 1.40732263742502e-08 1.34031422137402e-08 9.3170584051156e-09 1.56941506020292e-08 4.21408433770316e-08 1.3864035649151e-08
"1607" 33537 3.79303545562105e-08 7.44056349264453e-09 1.40566013276969e-08 1.35249495042558e-08 9.2164200847472e-09 1.56503638998125e-08 4.21018957001686e-08 1.38152024074545e-08
"1608" 33538 3.79250848880722e-08 7.44047200782981e-09 1.40399762811437e-08 1.36467567947714e-08 9.1157817643788e-09 1.56065771975957e-08 4.20629480233056e-08 1.37663691657579e-08
"1609" 33539 3.7919815219934e-08 7.44038052301509e-09 1.40233512345905e-08 1.37685640852869e-08 9.01514344401041e-09 1.55627904953789e-08 4.20240003464427e-08 1.37175359240614e-08
"1610" 33540 3.79145455517957e-08 7.44028903820038e-09 1.40067261880372e-08 1.38903713758025e-08 8.91450512364201e-09 1.55190037931622e-08 4.19850526695797e-08 1.36687026823649e-08
"1611" 33541 3.79092758836574e-08 7.44019755338566e-09 1.3990101141484e-08 1.4012178666318e-08 8.81386680327362e-09 1.54752170909454e-08 4.19461049927167e-08 1.36198694406683e-08
"1612" 33542 3.79040062155191e-08 7.44010606857094e-09 1.39734760949307e-08 1.41339859568336e-08 8.71322848290522e-09 1.54314303887287e-08 4.19071573158537e-08 1.35710361989718e-08
"1613" 33543 3.78987365473809e-08 7.44001458375623e-09 1.39568510483775e-08 1.42557932473492e-08 8.61259016253682e-09 1.53876436865119e-08 4.18682096389908e-08 1.35222029572753e-08
"1614" 33544 3.78934668792426e-08 7.43992309894151e-09 1.39402260018242e-08 1.43776005378647e-08 8.51195184216843e-09 1.53438569842952e-08 4.18292619621278e-08 1.34733697155787e-08
"1615" 33545 3.7905938417133e-08 7.4203389135121e-09 1.38841632401786e-08 1.45006159888533e-08 8.51001288716177e-09 1.5287410139562e-08 4.18721718072583e-08 1.34484638909968e-08
"1616" 33546 3.78301274013254e-08 7.41816093141384e-09 1.39090792335636e-08 1.45659418073667e-08 8.36426486201299e-09 1.53101172573026e-08 4.18165082700651e-08 1.3304746598173e-08
"1617" 33547 3.7754316385518e-08 7.41598294931558e-09 1.39339952269485e-08 1.463126762588e-08 8.21851683686422e-09 1.53328243750431e-08 4.1760844732872e-08 1.31610293053493e-08
"1618" 33548 3.76785053697105e-08 7.41380496721731e-09 1.39589112203335e-08 1.46965934443934e-08 8.07276881171544e-09 1.53555314927837e-08 4.17051811956788e-08 1.30173120125255e-08
"1619" 33549 3.7602694353903e-08 7.41162698511905e-09 1.39838272137184e-08 1.47619192629067e-08 7.92702078656667e-09 1.53782386105242e-08 4.16495176584856e-08 1.28735947197018e-08
"1620" 33550 3.75268833380955e-08 7.40944900302079e-09 1.40087432071034e-08 1.48272450814201e-08 7.78127276141789e-09 1.54009457282648e-08 4.15938541212925e-08 1.2729877426878e-08
"1621" 33551 3.7451072322288e-08 7.40727102092253e-09 1.40336592004883e-08 1.48925708999335e-08 7.63552473626912e-09 1.54236528460053e-08 4.15381905840993e-08 1.25861601340542e-08
"1622" 33552 3.73271649330696e-08 7.41089510660132e-09 1.41546394111546e-08 1.48852336526147e-08 7.5113883855256e-09 1.54081156290897e-08 4.14416850046354e-08 1.24583774759584e-08
"1623" 33553 3.72032575438513e-08 7.41451919228011e-09 1.42756196218209e-08 1.48778964052959e-08 7.38725203478207e-09 1.5392578412174e-08 4.13451794251715e-08 1.23305948178625e-08
"1624" 33554 3.72236311449849e-08 7.44180897314068e-09 1.42873872841154e-08 1.48209936248165e-08 7.23629455422948e-09 1.53766222698256e-08 4.13377493595655e-08 1.24112209339467e-08
"1625" 33555 3.72440047461185e-08 7.46909875400126e-09 1.429915494641e-08 1.47640908443371e-08 7.08533707367689e-09 1.53606661274772e-08 4.13303192939595e-08 1.24918470500309e-08
"1626" 33556 3.72643783472521e-08 7.49638853486183e-09 1.43109226087046e-08 1.47071880638578e-08 6.93437959312429e-09 1.53447099851287e-08 4.13228892283535e-08 1.25724731661151e-08
"1627" 33557 3.72847519483857e-08 7.52367831572241e-09 1.43226902709992e-08 1.46502852833784e-08 6.7834221125717e-09 1.53287538427803e-08 4.13154591627475e-08 1.26530992821993e-08
"1628" 33558 3.73051255495193e-08 7.55096809658299e-09 1.43344579332937e-08 1.4593382502899e-08 6.6324646320191e-09 1.53127977004318e-08 4.13080290971416e-08 1.27337253982835e-08
"1629" 33559 3.73254991506529e-08 7.57825787744356e-09 1.43462255955883e-08 1.45364797224196e-08 6.48150715146651e-09 1.52968415580834e-08 4.13005990315356e-08 1.28143515143677e-08
"1630" 33560 3.73458727517865e-08 7.60554765830413e-09 1.43579932578829e-08 1.44795769419403e-08 6.33054967091391e-09 1.52808854157349e-08 4.12931689659296e-08 1.28949776304519e-08
"1631" 33561 3.73662463529201e-08 7.63283743916471e-09 1.43697609201774e-08 1.44226741614609e-08 6.17959219036132e-09 1.52649292733865e-08 4.12857389003236e-08 1.29756037465361e-08
"1632" 33562 3.73866199540538e-08 7.66012722002528e-09 1.4381528582472e-08 1.43657713809815e-08 6.02863470980872e-09 1.5248973131038e-08 4.12783088347176e-08 1.30562298626203e-08
"1633" 33563 3.74069935551874e-08 7.68741700088586e-09 1.43932962447666e-08 1.43088686005021e-08 5.87767722925613e-09 1.52330169886896e-08 4.12708787691116e-08 1.31368559787045e-08
"1634" 33564 3.7427367156321e-08 7.71470678174643e-09 1.44050639070611e-08 1.42519658200228e-08 5.72671974870353e-09 1.52170608463412e-08 4.12634487035056e-08 1.32174820947887e-08
"1635" 33565 3.75043852486174e-08 7.73512616830264e-09 1.44168821724853e-08 1.41405657401693e-08 5.71236629401618e-09 1.52084184305777e-08 4.13459676364489e-08 1.34355751740924e-08
"1636" 33566 3.7407980221581e-08 7.78898267823353e-09 1.44315557035815e-08 1.4138781381939e-08 5.64547904806096e-09 1.50739826997784e-08 4.14521849733633e-08 1.33719300384752e-08
"1637" 33567 3.73115751945446e-08 7.84283918816441e-09 1.44462292346777e-08 1.41369970237088e-08 5.57859180210575e-09 1.49395469689792e-08 4.15584023102777e-08 1.33082849028581e-08
"1638" 33568 3.71670802980019e-08 7.84283918816441e-09 1.44722656030316e-08 1.40999669232777e-08 5.57859180210575e-09 1.49125344729656e-08 4.16646196471921e-08 1.32185666380619e-08
"1639" 33569 3.70225854014591e-08 7.84283918816441e-09 1.44983019713856e-08 1.40629368228466e-08 5.57859180210575e-09 1.4885521976952e-08 4.17708369841064e-08 1.31288483732658e-08
"1640" 33570 3.68780905049164e-08 7.84283918816441e-09 1.45243383397396e-08 1.40259067224154e-08 5.57859180210575e-09 1.48585094809385e-08 4.18770543210208e-08 1.30391301084696e-08
"1641" 33571 3.67335956083736e-08 7.84283918816441e-09 1.45503747080935e-08 1.39888766219843e-08 5.57859180210575e-09 1.48314969849249e-08 4.19832716579352e-08 1.29494118436735e-08
"1642" 33572 3.65481336414604e-08 7.89066632057831e-09 1.46878425402209e-08 1.39807184373927e-08 5.63012866354342e-09 1.48271916066519e-08 4.20299917931201e-08 1.28844168725853e-08
"1643" 33573 3.63626716745473e-08 7.93849345299222e-09 1.48253103723482e-08 1.3972560252801e-08 5.68166552498109e-09 1.48228862283789e-08 4.20767119283049e-08 1.28194219014972e-08
"1644" 33574 3.61772097076341e-08 7.98632058540612e-09 1.49627782044756e-08 1.39644020682094e-08 5.73320238641877e-09 1.48185808501059e-08 4.21234320634898e-08 1.2754426930409e-08
"1645" 33575 3.59917477407209e-08 8.03414771782002e-09 1.51002460366029e-08 1.39562438836177e-08 5.78473924785644e-09 1.48142754718328e-08 4.21701521986746e-08 1.26894319593208e-08
"1646" 33576 3.58062857738077e-08 8.08197485023393e-09 1.52377138687303e-08 1.39480856990261e-08 5.83627610929411e-09 1.48099700935598e-08 4.22168723338595e-08 1.26244369882327e-08
"1647" 33577 3.56208238068945e-08 8.12980198264783e-09 1.53751817008576e-08 1.39399275144344e-08 5.88781297073178e-09 1.48056647152868e-08 4.22635924690444e-08 1.25594420171445e-08
"1648" 33578 3.54353618399813e-08 8.17762911506173e-09 1.55126495329849e-08 1.39317693298428e-08 5.93934983216945e-09 1.48013593370138e-08 4.23103126042292e-08 1.24944470460563e-08
"1649" 33579 3.52498998730681e-08 8.22545624747563e-09 1.56501173651123e-08 1.39236111452511e-08 5.99088669360712e-09 1.47970539587408e-08 4.23570327394141e-08 1.24294520749682e-08
"1650" 33580 3.50644379061549e-08 8.27328337988954e-09 1.57875851972396e-08 1.39154529606595e-08 6.04242355504479e-09 1.47927485804677e-08 4.24037528745989e-08 1.236445710388e-08
"1651" 33581 3.48789759392417e-08 8.32111051230344e-09 1.5925053029367e-08 1.39072947760678e-08 6.09396041648246e-09 1.47884432021947e-08 4.24504730097838e-08 1.22994621327918e-08
"1652" 33582 3.46935139723285e-08 8.36893764471734e-09 1.60625208614943e-08 1.38991365914762e-08 6.14549727792013e-09 1.47841378239217e-08 4.24971931449686e-08 1.22344671617037e-08
"1653" 33583 3.45080520054153e-08 8.41676477713124e-09 1.61999886936217e-08 1.38909784068845e-08 6.1970341393578e-09 1.47798324456487e-08 4.25439132801535e-08 1.21694721906155e-08
"1654" 33584 3.43225900385021e-08 8.46459190954515e-09 1.6337456525749e-08 1.38828202222929e-08 6.24857100079547e-09 1.47755270673757e-08 4.25906334153384e-08 1.21044772195273e-08
"1655" 33585 3.41371280715889e-08 8.51241904195905e-09 1.64749243578763e-08 1.38746620377012e-08 6.30010786223314e-09 1.47712216891026e-08 4.26373535505232e-08 1.20394822484392e-08
"1656" 33586 3.39516661046757e-08 8.56024617437295e-09 1.66123921900037e-08 1.38665038531096e-08 6.35164472367082e-09 1.47669163108296e-08 4.26840736857081e-08 1.1974487277351e-08
"1657" 33587 3.37662041377625e-08 8.60807330678685e-09 1.6749860022131e-08 1.38583456685179e-08 6.40318158510849e-09 1.47626109325566e-08 4.27307938208929e-08 1.19094923062628e-08
"1658" 33588 3.35807421708494e-08 8.65590043920076e-09 1.68873278542584e-08 1.38501874839263e-08 6.45471844654616e-09 1.47583055542836e-08 4.27775139560778e-08 1.18444973351747e-08
"1659" 33589 3.33952802039362e-08 8.70372757161466e-09 1.70247956863857e-08 1.38420292993346e-08 6.50625530798383e-09 1.47540001760106e-08 4.28242340912627e-08 1.17795023640865e-08
"1660" 33590 3.3209818237023e-08 8.75155470402856e-09 1.71622635185131e-08 1.3833871114743e-08 6.5577921694215e-09 1.47496947977375e-08 4.28709542264475e-08 1.17145073929983e-08
"1661" 33591 3.30243562701098e-08 8.79938183644246e-09 1.72997313506404e-08 1.38257129301513e-08 6.60932903085917e-09 1.47453894194645e-08 4.29176743616324e-08 1.16495124219102e-08
"1662" 33592 3.28388943031966e-08 8.84720896885637e-09 1.74371991827678e-08 1.38175547455597e-08 6.66086589229684e-09 1.47410840411915e-08 4.29643944968172e-08 1.1584517450822e-08
"1663" 33593 3.26534323362834e-08 8.89503610127027e-09 1.75746670148951e-08 1.3809396560968e-08 6.71240275373451e-09 1.47367786629185e-08 4.30111146320021e-08 1.15195224797338e-08
"1664" 33594 3.24679703693702e-08 8.94286323368417e-09 1.77121348470224e-08 1.38012383763764e-08 6.76393961517218e-09 1.47324732846455e-08 4.3057834767187e-08 1.14545275086457e-08
"1665" 33595 3.2282508402457e-08 8.99069036609808e-09 1.78496026791498e-08 1.37930801917847e-08 6.81547647660985e-09 1.47281679063725e-08 4.31045549023718e-08 1.13895325375575e-08
"1666" 33596 3.21836134037789e-08 8.93404497161519e-09 1.78547564040073e-08 1.37751575990875e-08 6.81586426761119e-09 1.46866117422755e-08 4.30805141056848e-08 1.13155027140585e-08
"1667" 33597 3.19866086324423e-08 8.87963955279601e-09 1.78547564040073e-08 1.38356275302726e-08 6.86740112904886e-09 1.4665596155875e-08 4.30679724873637e-08 1.12265421283217e-08
"1668" 33598 3.17896038611057e-08 8.82523413397682e-09 1.78547564040073e-08 1.38960974614577e-08 6.91893799048653e-09 1.46445805694744e-08 4.30554308690426e-08 1.11375815425849e-08
"1669" 33599 3.15925990897692e-08 8.77082871515764e-09 1.78547564040073e-08 1.39565673926428e-08 6.9704748519242e-09 1.46235649830739e-08 4.30428892507214e-08 1.10486209568481e-08
"1670" 33600 3.13955943184326e-08 8.71642329633845e-09 1.78547564040073e-08 1.40170373238279e-08 7.02201171336187e-09 1.46025493966733e-08 4.30303476324003e-08 1.09596603711112e-08
"1671" 33601 3.1198589547096e-08 8.66201787751927e-09 1.78547564040073e-08 1.40775072550129e-08 7.07354857479954e-09 1.45815338102728e-08 4.30178060140792e-08 1.08706997853744e-08
"1672" 33602 3.10015847757594e-08 8.60761245870008e-09 1.78547564040073e-08 1.4137977186198e-08 7.12508543623721e-09 1.45605182238722e-08 4.30052643957581e-08 1.07817391996376e-08
"1673" 33603 3.08045800044229e-08 8.55320703988090e-09 1.78547564040073e-08 1.41984471173831e-08 7.17662229767488e-09 1.45395026374717e-08 4.2992722777437e-08 1.06927786139008e-08
"1674" 33604 3.06075752330863e-08 8.49880162106171e-09 1.78547564040073e-08 1.42589170485682e-08 7.22815915911255e-09 1.45184870510712e-08 4.29801811591158e-08 1.0603818028164e-08
"1675" 33605 3.04105704617497e-08 8.44439620224253e-09 1.78547564040073e-08 1.43193869797532e-08 7.27969602055022e-09 1.44974714646706e-08 4.29676395407947e-08 1.05148574424271e-08
"1676" 33606 3.02135656904132e-08 8.38999078342334e-09 1.78547564040073e-08 1.43798569109383e-08 7.33123288198789e-09 1.44764558782701e-08 4.29550979224736e-08 1.04258968566903e-08
"1677" 33607 3.00165609190766e-08 8.33558536460416e-09 1.78547564040073e-08 1.44403268421234e-08 7.38276974342557e-09 1.44554402918695e-08 4.29425563041525e-08 1.03369362709535e-08
"1678" 33608 2.98214076527616e-08 8.27458400592475e-09 1.78252504263083e-08 1.47592500123432e-08 7.38747986930795e-09 1.44115579323597e-08 4.30269462280215e-08 1.02559684676034e-08
"1679" 33609 2.96262543864466e-08 8.21358264724535e-09 1.77957444486093e-08 1.50781731825631e-08 7.39218999519033e-09 1.43676755728498e-08 4.31113361518906e-08 1.01750006642532e-08
"1680" 33610 2.94311011201316e-08 8.15258128856594e-09 1.77662384709102e-08 1.53970963527829e-08 7.39690012107271e-09 1.432379321334e-08 4.31957260757596e-08 1.00940328609031e-08
"1681" 33611 2.92359478538165e-08 8.09157992988654e-09 1.77367324932112e-08 1.57160195230027e-08 7.40161024695509e-09 1.42799108538301e-08 4.32801159996287e-08 1.00130650575529e-08
"1682" 33612 2.90407945875015e-08 8.03057857120713e-09 1.77072265155122e-08 1.60349426932225e-08 7.40632037283748e-09 1.42360284943203e-08 4.33645059234977e-08 9.93209725420278e-09
"1683" 33613 2.88456413211865e-08 7.96957721252773e-09 1.76777205378132e-08 1.63538658634424e-08 7.41103049871986e-09 1.41921461348104e-08 4.34488958473668e-08 9.85112945085263e-09
"1684" 33614 2.86736440624618e-08 7.90885030829247e-09 1.76672394441731e-08 1.63192520839572e-08 7.41380109319135e-09 1.41511764663194e-08 4.34269677872604e-08 9.78133584572205e-09
"1685" 33615 2.84678036164867e-08 7.84574178780771e-09 1.76377334664741e-08 1.62832860945598e-08 7.4322000538743e-09 1.41069629238655e-08 4.34112431357333e-08 9.6916175809259e-09
"1686" 33616 2.80450001446061e-08 7.83648977725384e-09 1.76365118852459e-08 1.62142149906244e-08 7.4124175251683e-09 1.40883375309535e-08 4.33955184842062e-08 9.67587820958333e-09
"1687" 33617 2.76221966727256e-08 7.82723776669996e-09 1.76352903040177e-08 1.6145143886689e-08 7.39263499646229e-09 1.40697121380415e-08 4.33797938326791e-08 9.66013883824075e-09
"1688" 33618 2.76078757977818e-08 7.82703413254872e-09 1.76238406447973e-08 1.61444236394925e-08 7.39357817444723e-09 1.40664682640786e-08 4.31912588569436e-08 9.61828177392944e-09
"1689" 33619 2.7593554922838e-08 7.82683049839747e-09 1.76123909855769e-08 1.61437033922959e-08 7.39452135243217e-09 1.40632243901157e-08 4.30027238812081e-08 9.57642470961812e-09
"1690" 33620 2.75792340478943e-08 7.82662686424623e-09 1.76009413263566e-08 1.61429831450994e-08 7.3954645304171e-09 1.40599805161527e-08 4.28141889054725e-08 9.53456764530681e-09
"1691" 33621 2.75649131729505e-08 7.82642323009498e-09 1.75894916671362e-08 1.61422628979028e-08 7.39640770840204e-09 1.40567366421898e-08 4.2625653929737e-08 9.4927105809955e-09
"1692" 33622 2.75505922980067e-08 7.86158091149434e-09 1.77335879930582e-08 1.61838483811881e-08 7.37950615987917e-09 1.4080002553721e-08 4.24378252986721e-08 9.47077817634975e-09
"1693" 33623 2.75362714230629e-08 7.8967385928937e-09 1.78776843189802e-08 1.62254338644733e-08 7.3626046113563e-09 1.41032684652523e-08 4.22499966676072e-08 9.448845771704e-09
"1694" 33624 2.75219505481192e-08 7.93189627429305e-09 1.80217806449023e-08 1.62670193477586e-08 7.34570306283343e-09 1.41265343767835e-08 4.20621680365423e-08 9.42691336705825e-09
"1695" 33625 2.75076296731754e-08 7.96705395569241e-09 1.81658769708243e-08 1.63086048310439e-08 7.32880151431056e-09 1.41498002883148e-08 4.18743394054774e-08 9.4049809624125e-09
"1696" 33626 2.74933087982316e-08 8.00221163709177e-09 1.83099732967463e-08 1.63501903143291e-08 7.31189996578769e-09 1.4173066199846e-08 4.16865107744125e-08 9.38304855776675e-09
"1697" 33627 2.74789879232879e-08 8.03736931849113e-09 1.84540696226683e-08 1.63917757976144e-08 7.29499841726482e-09 1.41963321113772e-08 4.14986821433476e-08 9.361116153121e-09
"1698" 33628 2.74646670483441e-08 8.07252699989049e-09 1.85981659485903e-08 1.64333612808997e-08 7.27809686874195e-09 1.42195980229085e-08 4.13108535122827e-08 9.33918374847525e-09
"1699" 33629 2.74503461734003e-08 8.10768468128985e-09 1.87422622745123e-08 1.64749467641849e-08 7.26119532021908e-09 1.42428639344397e-08 4.11230248812178e-08 9.3172513438295e-09
"1700" 33630 2.74360252984566e-08 8.1428423626892e-09 1.88863586004343e-08 1.65165322474702e-08 7.24429377169621e-09 1.4266129845971e-08 4.09351962501529e-08 9.29531893918376e-09
"1701" 33631 2.74217044235128e-08 8.17800004408856e-09 1.90304549263563e-08 1.65581177307555e-08 7.22739222317334e-09 1.42893957575022e-08 4.0747367619088e-08 9.27338653453801e-09
"1702" 33632 2.7407383548569e-08 8.21315772548792e-09 1.91745512522783e-08 1.65997032140407e-08 7.21049067465048e-09 1.43126616690335e-08 4.05595389880231e-08 9.25145412989226e-09
"1703" 33633 2.73930626736253e-08 8.24831540688728e-09 1.93186475782003e-08 1.6641288697326e-08 7.19358912612761e-09 1.43359275805647e-08 4.03717103569582e-08 9.22952172524651e-09
"1704" 33634 2.72406597519269e-08 8.25919649065111e-09 1.9466011100949e-08 1.66780415387193e-08 7.17225428060781e-09 1.43013302156956e-08 4.03789732825434e-08 9.2487014383641e-09
"1705" 33635 2.70882568302284e-08 8.27007757441495e-09 1.96133746236976e-08 1.67147943801125e-08 7.15091943508802e-09 1.42667328508264e-08 4.03862362081287e-08 9.26788115148169e-09
"1706" 33636 2.693585390853e-08 8.28095865817879e-09 1.97607381464463e-08 1.67515472215058e-08 7.12958458956822e-09 1.42321354859573e-08 4.0393499133714e-08 9.28706086459929e-09
"1707" 33637 2.67834509868316e-08 8.29183974194263e-09 1.99081016691949e-08 1.6788300062899e-08 7.10824974404843e-09 1.41975381210882e-08 4.04007620592992e-08 9.30624057771688e-09
"1708" 33638 2.66310480651332e-08 8.30272082570646e-09 2.00554651919436e-08 1.68250529042923e-08 7.08691489852863e-09 1.41629407562191e-08 4.04080249848845e-08 9.32542029083447e-09
"1709" 33639 2.64786451434348e-08 8.3136019094703e-09 2.02028287146922e-08 1.68618057456856e-08 7.06558005300884e-09 1.41283433913499e-08 4.04152879104698e-08 9.34460000395206e-09
"1710" 33640 2.63262422217364e-08 8.32448299323414e-09 2.03501922374409e-08 1.68985585870788e-08 7.04424520748904e-09 1.40937460264808e-08 4.0422550836055e-08 9.36377971706965e-09
"1711" 33641 2.6173839300038e-08 8.33536407699797e-09 2.04975557601896e-08 1.69353114284721e-08 7.02291036196925e-09 1.40591486616117e-08 4.04298137616403e-08 9.38295943018725e-09
"1712" 33642 2.60214363783396e-08 8.34624516076181e-09 2.06449192829382e-08 1.69720642698653e-08 7.00157551644945e-09 1.40245512967426e-08 4.04370766872256e-08 9.40213914330484e-09
"1713" 33643 2.58690334566412e-08 8.35712624452565e-09 2.07922828056869e-08 1.70088171112586e-08 6.98024067092966e-09 1.39899539318734e-08 4.04443396128108e-08 9.42131885642243e-09
"1714" 33644 2.5732662659413e-08 8.34189802329276e-09 2.0846589014154e-08 1.70022001111363e-08 6.96151055311177e-09 1.39341694530285e-08 4.04424623244538e-08 9.42058027613014e-09
"1715" 33645 2.55962918621849e-08 8.32666980205987e-09 2.09008952226212e-08 1.69955831110141e-08 6.94278043529389e-09 1.38783849741835e-08 4.04405850360967e-08 9.41984169583785e-09
"1716" 33646 2.56016395169552e-08 8.35898543206926e-09 2.10347995173231e-08 1.7080848214375e-08 6.9352448102863e-09 1.39009726902179e-08 4.05958491337613e-08 9.45479897783209e-09
"1717" 33647 2.56069871717256e-08 8.39130106207865e-09 2.1168703812025e-08 1.71661133177359e-08 6.92770918527872e-09 1.39235604062522e-08 4.07511132314258e-08 9.48975625982633e-09
"1718" 33648 2.56123348264959e-08 8.42361669208805e-09 2.13026081067269e-08 1.72513784210968e-08 6.92017356027114e-09 1.39461481222866e-08 4.09063773290904e-08 9.52471354182057e-09
"1719" 33649 2.56176824812663e-08 8.45593232209744e-09 2.14365124014288e-08 1.73366435244577e-08 6.91263793526356e-09 1.3968735838321e-08 4.1061641426755e-08 9.55967082381481e-09
"1720" 33650 2.56230301360366e-08 8.48824795210683e-09 2.15704166961307e-08 1.74219086278185e-08 6.90510231025598e-09 1.39913235543553e-08 4.12169055244195e-08 9.59462810580906e-09
"1721" 33651 2.5628377790807e-08 8.52056358211623e-09 2.17043209908325e-08 1.75071737311794e-08 6.8975666852484e-09 1.40139112703897e-08 4.13721696220841e-08 9.6295853878033e-09
"1722" 33652 2.56337254455773e-08 8.55287921212562e-09 2.18382252855344e-08 1.75924388345403e-08 6.89003106024082e-09 1.40364989864241e-08 4.15274337197486e-08 9.66454266979754e-09
"1723" 33653 2.56390731003476e-08 8.58519484213502e-09 2.19721295802363e-08 1.76777039379012e-08 6.88249543523324e-09 1.40590867024584e-08 4.16826978174132e-08 9.69949995179178e-09
"1724" 33654 2.5644420755118e-08 8.61751047214441e-09 2.21060338749382e-08 1.77629690412621e-08 6.87495981022565e-09 1.40816744184928e-08 4.18379619150777e-08 9.73445723378602e-09
"1725" 33655 2.56497684098883e-08 8.6498261021538e-09 2.22399381696401e-08 1.7848234144623e-08 6.86742418521807e-09 1.41042621345272e-08 4.19932260127423e-08 9.76941451578026e-09
"1726" 33656 2.56551160646587e-08 8.6821417321632e-09 2.2373842464342e-08 1.79334992479839e-08 6.85988856021049e-09 1.41268498505616e-08 4.21484901104069e-08 9.80437179777451e-09
"1727" 33657 2.5660463719429e-08 8.71445736217259e-09 2.25077467590439e-08 1.80187643513448e-08 6.85235293520291e-09 1.41494375665959e-08 4.23037542080714e-08 9.83932907976875e-09
"1728" 33658 2.56658113741994e-08 8.74677299218198e-09 2.26416510537458e-08 1.81040294547057e-08 6.84481731019533e-09 1.41720252826303e-08 4.2459018305736e-08 9.87428636176299e-09
"1729" 33659 2.56711590289697e-08 8.77908862219138e-09 2.27755553484477e-08 1.81892945580666e-08 6.83728168518775e-09 1.41946129986647e-08 4.26142824034005e-08 9.90924364375723e-09
"1730" 33660 2.567650668374e-08 8.81140425220077e-09 2.29094596431496e-08 1.82745596614275e-08 6.82974606018017e-09 1.4217200714699e-08 4.27695465010651e-08 9.94420092575147e-09
"1731" 33661 2.56818543385104e-08 8.84371988221016e-09 2.30433639378514e-08 1.83598247647884e-08 6.82221043517258e-09 1.42397884307334e-08 4.29248105987296e-08 9.97915820774571e-09
"1732" 33662 2.56872019932807e-08 8.87603551221956e-09 2.31772682325533e-08 1.84450898681493e-08 6.814674810165e-09 1.42623761467678e-08 4.30800746963942e-08 1.001411548974e-08
"1733" 33663 2.56925496480511e-08 8.90835114222895e-09 2.33111725272552e-08 1.85303549715102e-08 6.80713918515742e-09 1.42849638628021e-08 4.32353387940587e-08 1.00490727717342e-08
"1734" 33664 2.56978973028214e-08 8.94066677223834e-09 2.34450768219571e-08 1.8615620074871e-08 6.79960356014984e-09 1.43075515788365e-08 4.33906028917233e-08 1.00840300537284e-08
"1735" 33665 2.57032449575918e-08 8.97298240224774e-09 2.3578981116659e-08 1.87008851782319e-08 6.79206793514226e-09 1.43301392948709e-08 4.35458669893879e-08 1.01189873357227e-08
"1736" 33666 2.56004335846717e-08 8.96409633095273e-09 2.35707986542653e-08 1.86985354620852e-08 6.80370685282029e-09 1.43132456869615e-08 4.36770732133147e-08 1.01538682226488e-08
"1737" 33667 2.54587178426334e-08 8.98785351094923e-09 2.37721287199315e-08 1.87001200059176e-08 6.78176229206742e-09 1.42574612081165e-08 4.37460745809413e-08 1.01651188159365e-08
"1738" 33668 2.53170021005951e-08 9.01161069094573e-09 2.39734587855977e-08 1.870170454975e-08 6.75981773131454e-09 1.42016767292716e-08 4.38150759485679e-08 1.01763694092242e-08
"1739" 33669 2.51752863585569e-08 9.03536787094224e-09 2.41747888512639e-08 1.87032890935824e-08 6.73787317056166e-09 1.41458922504266e-08 4.38840773161944e-08 1.01876200025119e-08
"1740" 33670 2.50335706165186e-08 9.05912505093874e-09 2.43761189169301e-08 1.87048736374148e-08 6.71592860980878e-09 1.40901077715816e-08 4.3953078683821e-08 1.01988705957996e-08
"1741" 33671 2.48918548744803e-08 9.08288223093524e-09 2.45774489825963e-08 1.87064581812472e-08 6.69398404905591e-09 1.40343232927366e-08 4.40220800514476e-08 1.02101211890873e-08
"1742" 33672 2.4750139132442e-08 9.10663941093174e-09 2.47787790482625e-08 1.87080427250796e-08 6.67203948830303e-09 1.39785388138917e-08 4.40910814190742e-08 1.0221371782375e-08
"1743" 33673 2.46084233904037e-08 9.13039659092824e-09 2.49801091139287e-08 1.8709627268912e-08 6.65009492755015e-09 1.39227543350467e-08 4.41600827867007e-08 1.02326223756628e-08
"1744" 33674 2.44667076483654e-08 9.15415377092475e-09 2.51814391795949e-08 1.87112118127444e-08 6.62815036679728e-09 1.38669698562017e-08 4.42290841543273e-08 1.02438729689505e-08
"1745" 33675 2.43249919063271e-08 9.17791095092125e-09 2.53827692452612e-08 1.87127963565768e-08 6.6062058060444e-09 1.38111853773567e-08 4.42980855219539e-08 1.02551235622382e-08
"1746" 33676 2.41832761642888e-08 9.20166813091775e-09 2.55840993109274e-08 1.87143809004092e-08 6.58426124529152e-09 1.37554008985118e-08 4.43670868895805e-08 1.02663741555259e-08
"1747" 33677 2.40415604222506e-08 9.22542531091425e-09 2.57854293765936e-08 1.87159654442416e-08 6.56231668453865e-09 1.36996164196668e-08 4.4436088257207e-08 1.02776247488136e-08
"1748" 33678 2.38998446802123e-08 9.24918249091075e-09 2.59867594422598e-08 1.8717549988074e-08 6.54037212378577e-09 1.36438319408218e-08 4.45050896248336e-08 1.02888753421013e-08
"1749" 33679 2.3758128938174e-08 9.27293967090726e-09 2.6188089507926e-08 1.87191345319064e-08 6.51842756303289e-09 1.35880474619768e-08 4.45740909924602e-08 1.0300125935389e-08
"1750" 33680 2.36164131961357e-08 9.29669685090376e-09 2.63894195735922e-08 1.87207190757388e-08 6.49648300228002e-09 1.35322629831319e-08 4.46430923600867e-08 1.03113765286768e-08
"1751" 33681 2.34746974540974e-08 9.32045403090026e-09 2.65907496392584e-08 1.87223036195712e-08 6.47453844152714e-09 1.34764785042869e-08 4.47120937277133e-08 1.03226271219645e-08
"1752" 33682 2.33329817120591e-08 9.34421121089676e-09 2.67920797049246e-08 1.87238881634036e-08 6.45259388077426e-09 1.34206940254419e-08 4.47810950953399e-08 1.03338777152522e-08
"1753" 33683 2.31912659700208e-08 9.36796839089326e-09 2.69934097705908e-08 1.8725472707236e-08 6.43064932002139e-09 1.33649095465969e-08 4.48500964629665e-08 1.03451283085399e-08
"1754" 33684 2.3173738670183e-08 9.41600216852529e-09 2.71975082799665e-08 1.87281105222614e-08 6.42782324449196e-09 1.33703160032018e-08 4.49169401602916e-08 1.02853543295432e-08
"1755" 33685 2.31807916125674e-08 9.46043252500033e-09 2.73587356837377e-08 1.87352479551823e-08 6.42616054196652e-09 1.33723948007572e-08 4.47501831816925e-08 1.02726265756709e-08
"1756" 33686 2.31878445549519e-08 9.50486288147538e-09 2.7519963087509e-08 1.87423853881033e-08 6.42449783944109e-09 1.33744735983126e-08 4.45834262030933e-08 1.02598988217986e-08
"1757" 33687 2.31948974973363e-08 9.54929323795042e-09 2.76811904912802e-08 1.87495228210243e-08 6.42283513691566e-09 1.3376552395868e-08 4.44166692244942e-08 1.02471710679263e-08
"1758" 33688 2.35937602775989e-08 9.62710755096218e-09 2.76358472825652e-08 1.87495228210243e-08 6.42161570644949e-09 1.33736397048491e-08 4.4208370156385e-08 1.0242429730185e-08
"1759" 33689 2.35896987699336e-08 9.64391167856707e-09 2.76023729424039e-08 1.87540224389199e-08 6.42316744685905e-09 1.33935937869396e-08 4.40925372268931e-08 1.02236787413721e-08
"1760" 33690 2.35856372622684e-08 9.66071580617195e-09 2.75688986022427e-08 1.87585220568155e-08 6.42471918726861e-09 1.34135478690301e-08 4.39767042974012e-08 1.02049277525593e-08
"1761" 33691 2.35815757546031e-08 9.67751993377683e-09 2.75354242620814e-08 1.87630216747111e-08 6.42627092767817e-09 1.34335019511205e-08 4.38608713679092e-08 1.01861767637464e-08
"1762" 33692 2.35775142469378e-08 9.69432406138172e-09 2.75019499219201e-08 1.87675212926067e-08 6.42782266808773e-09 1.3453456033211e-08 4.37450384384173e-08 1.01674257749336e-08
"1763" 33693 2.35734527392725e-08 9.7111281889866e-09 2.74684755817589e-08 1.87720209105023e-08 6.42937440849728e-09 1.34734101153014e-08 4.36292055089254e-08 1.01486747861207e-08
"1764" 33694 2.35693912316073e-08 9.72793231659149e-09 2.74350012415976e-08 1.87765205283979e-08 6.43092614890684e-09 1.34933641973919e-08 4.35133725794335e-08 1.01299237973079e-08
"1765" 33695 2.3565329723942e-08 9.74473644419637e-09 2.74015269014364e-08 1.87810201462935e-08 6.4324778893164e-09 1.35133182794824e-08 4.33975396499416e-08 1.0111172808495e-08
"1766" 33696 2.35612682162767e-08 9.76154057180126e-09 2.73680525612751e-08 1.87855197641892e-08 6.43402962972596e-09 1.35332723615728e-08 4.32817067204497e-08 1.00924218196822e-08
"1767" 33697 2.35572067086115e-08 9.77834469940614e-09 2.73345782211139e-08 1.87900193820848e-08 6.43558137013552e-09 1.35532264436633e-08 4.31658737909578e-08 1.00736708308693e-08
"1768" 33698 2.35531452009462e-08 9.79514882701103e-09 2.73011038809526e-08 1.87945189999804e-08 6.43713311054508e-09 1.35731805257537e-08 4.30500408614659e-08 1.00549198420565e-08
"1769" 33699 2.35490836932809e-08 9.81195295461591e-09 2.72676295407913e-08 1.8799018617876e-08 6.43868485095463e-09 1.35931346078442e-08 4.29342079319739e-08 1.00361688532436e-08
"1770" 33700 2.35792926432556e-08 9.82793371888835e-09 2.74008761668694e-08 1.8932153180648e-08 6.47664614532453e-09 1.3590473272085e-08 4.26974970132346e-08 1.0012203238595e-08
"1771" 33701 2.35863455856401e-08 9.833378674134e-09 2.73716159266396e-08 1.89377060697366e-08 6.47780951832853e-09 1.35925520696404e-08 4.24840198994506e-08 9.98946859110012e-09
"1772" 33702 2.35987434728347e-08 9.85496669875971e-09 2.75460637550453e-08 1.89772732951167e-08 6.48396099890883e-09 1.36212204803744e-08 4.23655970394998e-08 9.98472725335882e-09
"1773" 33703 2.36111413600293e-08 9.87655472338542e-09 2.77205115834509e-08 1.90168405204969e-08 6.49011247948912e-09 1.36498888911083e-08 4.22471741795489e-08 9.97998591561751e-09
"1774" 33704 2.36235392472239e-08 9.89814274801113e-09 2.78949594118566e-08 1.90564077458771e-08 6.49626396006942e-09 1.36785573018423e-08 4.2128751319598e-08 9.97524457787621e-09
"1775" 33705 2.36359371344185e-08 9.91973077263684e-09 2.80694072402623e-08 1.90959749712572e-08 6.50241544064971e-09 1.37072257125762e-08 4.20103284596471e-08 9.9705032401349e-09
"1776" 33706 2.36483350216131e-08 9.94131879726255e-09 2.82438550686679e-08 1.91355421966374e-08 6.50856692123001e-09 1.37358941233102e-08 4.18919055996962e-08 9.96576190239359e-09
"1777" 33707 2.36607329088077e-08 9.96290682188826e-09 2.84183028970736e-08 1.91751094220175e-08 6.51471840181031e-09 1.37645625340441e-08 4.17734827397453e-08 9.96102056465229e-09
"1778" 33708 2.36731307960022e-08 9.98449484651397e-09 2.85927507254793e-08 1.92146766473977e-08 6.5208698823906e-09 1.37932309447781e-08 4.16550598797944e-08 9.95627922691098e-09
"1779" 33709 2.36855286831968e-08 1.00060828711397e-08 2.87671985538849e-08 1.92542438727779e-08 6.5270213629709e-09 1.38218993555121e-08 4.15366370198435e-08 9.95153788916968e-09
"1780" 33710 2.36979265703914e-08 1.00276708957654e-08 2.89416463822906e-08 1.9293811098158e-08 6.5331728435512e-09 1.3850567766246e-08 4.14182141598926e-08 9.94679655142837e-09
"1781" 33711 2.3710324457586e-08 1.00492589203911e-08 2.91160942106963e-08 1.93333783235382e-08 6.53932432413149e-09 1.387923617698e-08 4.12997912999417e-08 9.94205521368706e-09
"1782" 33712 2.37227223447806e-08 1.00708469450168e-08 2.92905420391019e-08 1.93729455489184e-08 6.54547580471179e-09 1.39079045877139e-08 4.11813684399908e-08 9.93731387594576e-09
"1783" 33713 2.37351202319752e-08 1.00924349696425e-08 2.94649898675076e-08 1.94125127742985e-08 6.55162728529208e-09 1.39365729984479e-08 4.10629455800399e-08 9.93257253820445e-09
"1784" 33714 2.37475181191698e-08 1.01140229942682e-08 2.96394376959133e-08 1.94520799996787e-08 6.55777876587238e-09 1.39652414091818e-08 4.0944522720089e-08 9.92783120046315e-09
"1785" 33715 2.37599160063644e-08 1.01356110188939e-08 2.98138855243189e-08 1.94916472250588e-08 6.56393024645268e-09 1.39939098199158e-08 4.08260998601382e-08 9.92308986272184e-09
"1786" 33716 2.3772313893559e-08 1.01571990435196e-08 2.99883333527246e-08 1.9531214450439e-08 6.57008172703297e-09 1.40225782306497e-08 4.07076770001873e-08 9.91834852498054e-09
"1787" 33717 2.37847117807536e-08 1.01787870681454e-08 3.01627811811302e-08 1.95707816758192e-08 6.57623320761327e-09 1.40512466413837e-08 4.05892541402364e-08 9.91360718723923e-09
"1788" 33718 2.37971096679482e-08 1.02003750927711e-08 3.03372290095359e-08 1.96103489011993e-08 6.58238468819357e-09 1.40799150521176e-08 4.04708312802855e-08 9.90886584949792e-09
"1789" 33719 2.38095075551428e-08 1.02219631173968e-08 3.05116768379416e-08 1.96499161265795e-08 6.58853616877386e-09 1.41085834628516e-08 4.03524084203346e-08 9.90412451175662e-09
"1790" 33720 2.38219054423374e-08 1.02435511420225e-08 3.06861246663472e-08 1.96894833519597e-08 6.59468764935416e-09 1.41372518735855e-08 4.02339855603837e-08 9.89938317401531e-09
"1791" 33721 2.3834303329532e-08 1.02651391666482e-08 3.08605724947529e-08 1.97290505773398e-08 6.60083912993445e-09 1.41659202843195e-08 4.01155627004328e-08 9.89464183627401e-09
"1792" 33722 2.38467012167266e-08 1.02867271912739e-08 3.10350203231586e-08 1.976861780272e-08 6.60699061051475e-09 1.41945886950535e-08 3.99971398404819e-08 9.8899004985327e-09
"1793" 33723 2.38590991039212e-08 1.03083152158996e-08 3.12094681515642e-08 1.98081850281001e-08 6.61314209109505e-09 1.42232571057874e-08 3.9878716980531e-08 9.88515916079140e-09
"1794" 33724 2.38714969911158e-08 1.03299032405253e-08 3.13839159799699e-08 1.98477522534803e-08 6.61929357167534e-09 1.42519255165214e-08 3.97602941205801e-08 9.88041782305009e-09
"1795" 33725 2.38838948783104e-08 1.0351491265151e-08 3.15583638083756e-08 1.98873194788605e-08 6.62544505225564e-09 1.42805939272553e-08 3.96418712606292e-08 9.87567648530878e-09
"1796" 33726 2.3896292765505e-08 1.03730792897767e-08 3.17328116367812e-08 1.99268867042406e-08 6.63159653283594e-09 1.43092623379893e-08 3.95234484006783e-08 9.87093514756748e-09
"1797" 33727 2.39086906526996e-08 1.03946673144024e-08 3.19072594651869e-08 1.99664539296208e-08 6.63774801341623e-09 1.43379307487232e-08 3.94050255407274e-08 9.86619380982617e-09
"1798" 33728 2.39210885398941e-08 1.04162553390282e-08 3.20817072935926e-08 2.0006021155001e-08 6.64389949399653e-09 1.43665991594572e-08 3.92866026807766e-08 9.86145247208487e-09
"1799" 33729 2.39334864270887e-08 1.04378433636539e-08 3.22561551219982e-08 2.00455883803811e-08 6.65005097457682e-09 1.43952675701911e-08 3.91681798208257e-08 9.85671113434356e-09
"1800" 33730 2.39458843142833e-08 1.04594313882796e-08 3.24306029504039e-08 2.00851556057613e-08 6.65620245515712e-09 1.44239359809251e-08 3.90497569608748e-08 9.85196979660225e-09
"1801" 33731 2.39582822014779e-08 1.04810194129053e-08 3.26050507788096e-08 2.01247228311414e-08 6.66235393573742e-09 1.4452604391659e-08 3.89313341009239e-08 9.84722845886095e-09
"1802" 33732 2.38456376476849e-08 1.04819342610524e-08 3.28163340722835e-08 2.01443507716741e-08 6.67011263778521e-09 1.4481859297999e-08 3.90010355157898e-08 9.8584981509157e-09
"1803" 33733 2.38556841927567e-08 1.05049477247369e-08 3.29914903445036e-08 2.00832689917e-08 6.64988510780724e-09 1.45105277087329e-08 3.90315322463304e-08 9.81483497126521e-09
"1804" 33734 2.38657307378284e-08 1.05279611884213e-08 3.31666466167237e-08 2.00221872117258e-08 6.62965757782928e-09 1.45391961194669e-08 3.90620289768709e-08 9.77117179161472e-09
"1805" 33735 2.38122948395278e-08 1.05468931423534e-08 3.33864376538443e-08 2.00621757455832e-08 6.63686204570192e-09 1.4564129817925e-08 3.87598169267017e-08 9.7276104720551e-09
"1806" 33736 2.37588589412272e-08 1.05658250962854e-08 3.3606228690965e-08 2.01021642794405e-08 6.64406651357457e-09 1.45890635163832e-08 3.84576048765326e-08 9.68404915249548e-09
"1807" 33737 2.37054230429266e-08 1.05847570502175e-08 3.38260197280857e-08 2.01421528132979e-08 6.65127098144722e-09 1.46139972148414e-08 3.81553928263634e-08 9.64048783293585e-09
"1808" 33738 2.36641694996536e-08 1.05782939242156e-08 3.38223549844011e-08 2.01415100107413e-08 6.65348734174357e-09 1.46149188507936e-08 3.77337774870596e-08 9.58294869358307e-09
"1809" 33739 2.36229159563807e-08 1.05718307982137e-08 3.38186902407164e-08 2.01408672081848e-08 6.65570370203991e-09 1.46158404867458e-08 3.73121621477558e-08 9.5254095542303e-09
"1810" 33740 2.35816624131078e-08 1.05653676722118e-08 3.38150254970318e-08 2.01402244056283e-08 6.65792006233626e-09 1.4616762122698e-08 3.6890546808452e-08 9.46787041487752e-09
"1811" 33741 2.35404088698348e-08 1.05589045462099e-08 3.38113607533471e-08 2.01395816030718e-08 6.66013642263261e-09 1.46176837586502e-08 3.64689314691482e-08 9.41033127552474e-09
"1812" 33742 2.35996175253272e-08 1.05584471221364e-08 3.38077466127921e-08 2.01423634675364e-08 6.66091200463527e-09 1.46239999790008e-08 3.61362226884384e-08 9.38241383347251e-09
"1813" 33743 2.36588261808196e-08 1.05579896980628e-08 3.3804132472237e-08 2.01451453320011e-08 6.66168758663794e-09 1.46303161993513e-08 3.58035139077287e-08 9.35449639142028e-09
"1814" 33744 2.3718034836312e-08 1.05575322739892e-08 3.3800518331682e-08 2.01479271964658e-08 6.6624631686406e-09 1.46366324197019e-08 3.54708051270189e-08 9.32657894936804e-09
"1815" 33745 2.37772434918044e-08 1.05570748499156e-08 3.37969041911269e-08 2.01507090609304e-08 6.66323875064326e-09 1.46429486400525e-08 3.51380963463091e-08 9.29866150731581e-09
"1816" 33746 2.38364521472968e-08 1.0556617425842e-08 3.37932900505719e-08 2.01534909253951e-08 6.66401433264593e-09 1.4649264860403e-08 3.48053875655994e-08 9.27074406526358e-09
"1817" 33747 2.38956608027892e-08 1.05561600017684e-08 3.37896759100168e-08 2.01562727898597e-08 6.66478991464859e-09 1.46555810807536e-08 3.44726787848896e-08 9.24282662321134e-09
"1818" 33748 2.39548694582816e-08 1.05557025776949e-08 3.37860617694617e-08 2.01590546543244e-08 6.66556549665126e-09 1.46618973011041e-08 3.41399700041799e-08 9.21490918115911e-09
"1819" 33749 2.4014078113774e-08 1.05552451536213e-08 3.37824476289067e-08 2.0161836518789e-08 6.66634107865392e-09 1.46682135214547e-08 3.38072612234701e-08 9.18699173910688e-09
"1820" 33750 2.40732867692664e-08 1.05547877295477e-08 3.37788334883516e-08 2.01646183832537e-08 6.66711666065658e-09 1.46745297418053e-08 3.34745524427603e-08 9.15907429705465e-09
"1821" 33751 2.41324954247588e-08 1.05543303054741e-08 3.37752193477966e-08 2.01674002477183e-08 6.66789224265925e-09 1.46808459621558e-08 3.31418436620506e-08 9.13115685500241e-09
"1822" 33752 2.41917040802512e-08 1.05538728814005e-08 3.37716052072415e-08 2.0170182112183e-08 6.66866782466191e-09 1.46871621825064e-08 3.28091348813408e-08 9.10323941295018e-09
"1823" 33753 2.42509127357436e-08 1.05534154573269e-08 3.37679910666865e-08 2.01729639766476e-08 6.66944340666458e-09 1.46934784028569e-08 3.2476426100631e-08 9.07532197089795e-09
"1824" 33754 2.4310121391236e-08 1.05529580332534e-08 3.37643769261314e-08 2.01757458411123e-08 6.67021898866724e-09 1.46997946232075e-08 3.21437173199213e-08 9.04740452884571e-09
"1825" 33755 2.44244771945555e-08 1.0539175915601e-08 3.36321494687632e-08 2.01725535080112e-08 6.6531498441621e-09 1.45269067339164e-08 3.22018018323095e-08 9.06734192102264e-09
"1826" 33756 2.50426516328861e-08 1.05730999542985e-08 3.3616427828303e-08 2.01836809658698e-08 6.67476151856735e-09 1.45632477559946e-08 3.22121408466084e-08 9.07859251431035e-09
"1827" 33757 2.5016787953519e-08 1.05871771909169e-08 3.36524392590011e-08 2.01900873117535e-08 6.67476151856735e-09 1.45559340294096e-08 3.22052310933584e-08 9.08160413178063e-09
"1828" 33758 2.49526632495821e-08 1.05913708500058e-08 3.36446832841196e-08 2.01954403864442e-08 6.74680446808114e-09 1.45390641659133e-08 3.21959003649134e-08 9.10078384489822e-09
"1829" 33759 2.48885385456453e-08 1.05955645090947e-08 3.36369273092381e-08 2.02007934611349e-08 6.81884741759492e-09 1.4522194302417e-08 3.21865696364684e-08 9.11996355801581e-09
"1830" 33760 2.48244138417084e-08 1.05997581681836e-08 3.36291713343566e-08 2.02061465358256e-08 6.89089036710871e-09 1.45053244389208e-08 3.21772389080233e-08 9.1391432711334e-09
"1831" 33761 2.47602891377716e-08 1.06039518272725e-08 3.36214153594751e-08 2.02114996105164e-08 6.96293331662249e-09 1.44884545754245e-08 3.21679081795783e-08 9.158322984251e-09
"1832" 33762 2.46961644338347e-08 1.06081454863614e-08 3.36136593845935e-08 2.02168526852071e-08 7.03497626613628e-09 1.44715847119282e-08 3.21585774511332e-08 9.17750269736859e-09
"1833" 33763 2.46320397298979e-08 1.06123391454503e-08 3.3605903409712e-08 2.02222057598978e-08 7.10701921565007e-09 1.44547148484319e-08 3.21492467226882e-08 9.19668241048618e-09
"1834" 33764 2.4567915025961e-08 1.06165328045392e-08 3.35981474348305e-08 2.02275588345885e-08 7.17906216516385e-09 1.44378449849356e-08 3.21399159942432e-08 9.21586212360377e-09
"1835" 33765 2.45037903220242e-08 1.06207264636281e-08 3.3590391459949e-08 2.02329119092792e-08 7.25110511467764e-09 1.44209751214393e-08 3.21305852657981e-08 9.23504183672137e-09
"1836" 33766 2.44396656180873e-08 1.0624920122717e-08 3.35826354850675e-08 2.02382649839699e-08 7.32314806419142e-09 1.4404105257943e-08 3.21212545373531e-08 9.25422154983896e-09
"1837" 33767 2.43755409141505e-08 1.06291137818059e-08 3.3574879510186e-08 2.02436180586607e-08 7.39519101370521e-09 1.43872353944467e-08 3.2111923808908e-08 9.27340126295655e-09
"1838" 33768 2.43114162102136e-08 1.06333074408948e-08 3.35671235353045e-08 2.02489711333514e-08 7.46723396321899e-09 1.43703655309504e-08 3.2102593080463e-08 9.29258097607414e-09
"1839" 33769 2.42472915062768e-08 1.06375010999837e-08 3.3559367560423e-08 2.02543242080421e-08 7.53927691273278e-09 1.43534956674541e-08 3.2093262352018e-08 9.31176068919173e-09
"1840" 33770 2.41831668023399e-08 1.06416947590726e-08 3.35516115855415e-08 2.02596772827328e-08 7.61131986224657e-09 1.43366258039578e-08 3.20839316235729e-08 9.33094040230933e-09
"1841" 33771 2.41190420984031e-08 1.06458884181615e-08 3.354385561066e-08 2.02650303574235e-08 7.68336281176035e-09 1.43197559404615e-08 3.20746008951279e-08 9.35012011542692e-09
"1842" 33772 2.40549173944662e-08 1.06500820772504e-08 3.35360996357785e-08 2.02703834321143e-08 7.75540576127414e-09 1.43028860769652e-08 3.20652701666828e-08 9.36929982854451e-09
"1843" 33773 2.39907926905294e-08 1.06542757363393e-08 3.3528343660897e-08 2.0275736506805e-08 7.82744871078792e-09 1.42860162134689e-08 3.20559394382378e-08 9.3884795416621e-09
"1844" 33774 2.39266679865925e-08 1.06584693954282e-08 3.35205876860154e-08 2.02810895814957e-08 7.89949166030171e-09 1.42691463499726e-08 3.20466087097927e-08 9.4076592547797e-09
"1845" 33775 2.38625432826557e-08 1.06626630545171e-08 3.35128317111339e-08 2.02864426561864e-08 7.97153460981549e-09 1.42522764864763e-08 3.20372779813477e-08 9.42683896789729e-09
"1846" 33776 2.37984185787188e-08 1.0666856713606e-08 3.35050757362524e-08 2.02917957308771e-08 8.04357755932928e-09 1.423540662298e-08 3.20279472529027e-08 9.44601868101488e-09
"1847" 33777 2.3734293874782e-08 1.06710503726949e-08 3.34973197613709e-08 2.02971488055678e-08 8.11562050884307e-09 1.42185367594838e-08 3.20186165244576e-08 9.46519839413247e-09
"1848" 33778 2.36701691708451e-08 1.06752440317838e-08 3.34895637864894e-08 2.03025018802586e-08 8.18766345835685e-09 1.42016668959875e-08 3.20092857960126e-08 9.48437810725007e-09
"1849" 33779 2.36060444669083e-08 1.06794376908727e-08 3.34818078116079e-08 2.03078549549493e-08 8.25970640787064e-09 1.41847970324912e-08 3.19999550675675e-08 9.50355782036766e-09
"1850" 33780 2.35419197629714e-08 1.06836313499616e-08 3.34740518367264e-08 2.031320802964e-08 8.33174935738442e-09 1.41679271689949e-08 3.19906243391225e-08 9.52273753348525e-09
"1851" 33781 2.34777950590346e-08 1.06878250090505e-08 3.34662958618449e-08 2.03185611043307e-08 8.40379230689821e-09 1.41510573054986e-08 3.19812936106775e-08 9.54191724660284e-09
"1852" 33782 2.34136703550977e-08 1.06920186681394e-08 3.34585398869634e-08 2.03239141790214e-08 8.47583525641200e-09 1.41341874420023e-08 3.19719628822324e-08 9.56109695972044e-09
"1853" 33783 2.33495456511609e-08 1.06962123272283e-08 3.34507839120819e-08 2.03292672537122e-08 8.54787820592578e-09 1.4117317578506e-08 3.19626321537874e-08 9.58027667283803e-09
"1854" 33784 2.3285420947224e-08 1.07004059863172e-08 3.34430279372004e-08 2.03346203284029e-08 8.61992115543957e-09 1.41004477150097e-08 3.19533014253423e-08 9.59945638595562e-09
"1855" 33785 2.33051571657215e-08 1.07416076876216e-08 3.36662017617035e-08 2.04637633004825e-08 8.61509949103708e-09 1.40931339884247e-08 3.19557781138777e-08 9.6007000856208e-09
"1856" 33786 2.3324893384219e-08 1.0782809388926e-08 3.38893755862067e-08 2.0592906272562e-08 8.61027782663459e-09 1.40858202618397e-08 3.1958254802413e-08 9.60194378528598e-09
"1857" 33787 2.32381119678011e-08 1.07672152284342e-08 3.38555832429712e-08 2.06040337304207e-08 8.62695745092571e-09 1.40795957413801e-08 3.19903035056454e-08 9.65711011791062e-09
"1858" 33788 2.31513305513832e-08 1.07516210679425e-08 3.38217908997357e-08 2.06151611882793e-08 8.64363707521683e-09 1.40733712209205e-08 3.20223522088779e-08 9.71227645053526e-09
"1859" 33789 2.30645491349653e-08 1.07360269074507e-08 3.37879985565003e-08 2.06262886461379e-08 8.66031669950795e-09 1.40671467004608e-08 3.20544009121103e-08 9.76744278315991e-09
"1860" 33790 2.24116775105971e-08 1.07154157245376e-08 3.37692194099106e-08 2.0603124508667e-08 8.65538464939382e-09 1.40702230042506e-08 3.20920257670737e-08 9.82260911578455e-09
"1861" 33791 2.17588058862289e-08 1.06948045416245e-08 3.37504402633209e-08 2.05799603711962e-08 8.65045259927969e-09 1.40732993080404e-08 3.2129650622037e-08 9.87777544840919e-09
"1862" 33792 2.1754317650166e-08 1.06861014399589e-08 3.37384195853784e-08 2.05846814831711e-08 8.67178744479948e-09 1.40836932958174e-08 3.21583985679517e-08 9.92993016356356e-09
"1863" 33793 2.17498294141032e-08 1.06773983382934e-08 3.37263989074358e-08 2.05894025951461e-08 8.69312229031928e-09 1.40940872835944e-08 3.21871465138664e-08 9.98208487871792e-09
"1864" 33794 2.17453411780404e-08 1.06686952366278e-08 3.37143782294932e-08 2.0594123707121e-08 8.71445713583907e-09 1.41044812713713e-08 3.22158944597811e-08 1.00342395938723e-08
"1865" 33795 2.16170923121587e-08 1.06684916024765e-08 3.37327887698791e-08 2.04761081929e-08 8.70952508572494e-09 1.41044812713713e-08 3.2220657322349e-08 1.0078199896999e-08
"1866" 33796 2.14888434462771e-08 1.06682879683253e-08 3.37511993102649e-08 2.03580926786791e-08 8.7045930356108e-09 1.41044812713713e-08 3.2225420184917e-08 1.01221602001257e-08
"1867" 33797 2.13605945803954e-08 1.06680843341741e-08 3.37696098506508e-08 2.02400771644581e-08 8.69966098549667e-09 1.41044812713713e-08 3.22301830474849e-08 1.01661205032523e-08
"1868" 33798 2.12323457145137e-08 1.06678807000228e-08 3.37880203910366e-08 2.01220616502371e-08 8.69472893538254e-09 1.41044812713713e-08 3.22349459100529e-08 1.0210080806379e-08
"1869" 33799 2.11179899111942e-08 1.06736827677999e-08 3.37762021256125e-08 1.99933508264755e-08 8.70143580294644e-09 1.41004833316293e-08 3.226311153284e-08 1.02467168785989e-08
"1870" 33800 2.10036341078747e-08 1.06794848355769e-08 3.37643838601883e-08 1.98646400027138e-08 8.70814267051034e-09 1.40964853918873e-08 3.22912771556271e-08 1.02833529508187e-08
"1871" 33801 2.08892783045552e-08 1.0685286903354e-08 3.37525655947641e-08 1.97359291789522e-08 8.71484953807425e-09 1.40924874521453e-08 3.23194427784143e-08 1.03199890230385e-08
"1872" 33802 2.07749225012357e-08 1.0691088971131e-08 3.37407473293399e-08 1.96072183551905e-08 8.72155640563815e-09 1.40884895124033e-08 3.23476084012014e-08 1.03566250952584e-08
"1873" 33803 2.06605666979161e-08 1.06968910389081e-08 3.37289290639158e-08 1.94785075314289e-08 8.72826327320205e-09 1.40844915726612e-08 3.23757740239885e-08 1.03932611674782e-08
"1874" 33804 2.05462108945966e-08 1.07026931066851e-08 3.37171107984916e-08 1.93497967076672e-08 8.73497014076595e-09 1.40804936329192e-08 3.24039396467757e-08 1.0429897239698e-08
"1875" 33805 2.04874273415257e-08 1.06961591603903e-08 3.37049383111602e-08 1.93461722262482e-08 8.74555491834317e-09 1.40658661797493e-08 3.22308956895869e-08 1.03100691664548e-08
"1876" 33806 2.04803029164136e-08 1.06839146311332e-08 3.35654681883853e-08 1.9366842598133e-08 8.72361035759030e-09 1.40741774125687e-08 3.21832616181779e-08 1.0323119508826e-08
"1877" 33807 2.04727506789199e-08 1.06713749829101e-08 3.34102403783781e-08 1.93597051652121e-08 8.70643140377774e-09 1.40678611922181e-08 3.2146191229672e-08 1.02894823215651e-08
"1878" 33808 2.03150001024512e-08 1.06588353346871e-08 3.34014146316572e-08 1.93397658803646e-08 8.71058729548498e-09 1.39971062050526e-08 3.15383244217204e-08 1.01230558462692e-08
"1879" 33809 2.02844326548543e-08 1.0646936080167e-08 3.33011579769198e-08 1.93409740408376e-08 8.71529742136736e-09 1.3952972490283e-08 3.12774423873197e-08 1.01213133934868e-08
"1880" 33810 2.02538652072574e-08 1.06350368256469e-08 3.32009013221824e-08 1.93421822013106e-08 8.72000754724974e-09 1.39088387755135e-08 3.1016560352919e-08 1.01195709407044e-08
"1881" 33811 2.02232977596605e-08 1.06231375711269e-08 3.3100644667445e-08 1.93433903617836e-08 8.72471767313212e-09 1.38647050607439e-08 3.07556783185184e-08 1.0117828487922e-08
"1882" 33812 2.01927303120636e-08 1.06112383166068e-08 3.30003880127076e-08 1.93445985222566e-08 8.72942779901451e-09 1.38205713459744e-08 3.04947962841177e-08 1.01160860351397e-08
"1883" 33813 2.01621628644667e-08 1.05993390620867e-08 3.29001313579702e-08 1.93458066827296e-08 8.73413792489689e-09 1.37764376312048e-08 3.0233914249717e-08 1.01143435823573e-08
"1884" 33814 2.01404310915083e-08 1.06037658465762e-08 3.28119170436508e-08 1.93459507321689e-08 8.74494462670586e-09 1.37838351428764e-08 2.99646262027148e-08 1.01226080231974e-08
"1885" 33815 2.01712091933438e-08 1.05927726134758e-08 3.27237027293314e-08 1.93471588926419e-08 8.75270332875365e-09 1.37343866713928e-08 2.97219347287571e-08 1.01607339885132e-08
"1886" 33816 2.03383640543199e-08 1.0581076993107e-08 3.26538989553978e-08 1.93483670531149e-08 8.75741345463603e-09 1.36911745925755e-08 2.94549499328382e-08 1.02887501075285e-08
"1887" 33817 2.05055189152959e-08 1.05693813727382e-08 3.25840951814642e-08 1.93495752135879e-08 8.76212358051842e-09 1.36479625137582e-08 2.91879651369193e-08 1.04167662265437e-08
"1888" 33818 2.06726737762719e-08 1.05576857523693e-08 3.25142914075306e-08 1.93507833740609e-08 8.7668337064008e-09 1.36047504349408e-08 2.89209803410004e-08 1.0544782345559e-08
"1889" 33819 2.0839828637248e-08 1.05459901320005e-08 3.24444876335971e-08 1.93519915345339e-08 8.77154383228318e-09 1.35615383561235e-08 2.86539955450815e-08 1.06727984645742e-08
"1890" 33820 2.1006983498224e-08 1.05342945116317e-08 3.23746838596635e-08 1.93531996950069e-08 8.77625395816556e-09 1.35183262773061e-08 2.83870107491625e-08 1.08008145835895e-08
"1891" 33821 2.11741383592e-08 1.05225988912629e-08 3.23048800857299e-08 1.93544078554799e-08 8.78096408404795e-09 1.34751141984888e-08 2.81200259532436e-08 1.09288307026047e-08
"1892" 33822 2.13412932201761e-08 1.05109032708941e-08 3.22350763117964e-08 1.93556160159529e-08 8.78567420993033e-09 1.34319021196714e-08 2.78530411573247e-08 1.105684682162e-08
"1893" 33823 2.13472825935188e-08 1.04556833154699e-08 3.22451019772701e-08 1.9356469472748e-08 8.78999654481138e-09 1.33862602733437e-08 2.7538496895631e-08 1.11865862946506e-08
"1894" 33824 2.13532719668616e-08 1.04004633600457e-08 3.22551276427438e-08 1.93573229295431e-08 8.79431887969243e-09 1.3340618427016e-08 2.72239526339373e-08 1.13163257676812e-08
"1895" 33825 2.14055701034328e-08 1.03942038681951e-08 3.21761367940643e-08 1.92882518256077e-08 8.79864121457348e-09 1.3340618427016e-08 2.72061323228803e-08 1.13844278500748e-08
"1896" 33826 2.14578682400039e-08 1.03879443763445e-08 3.20971459453848e-08 1.92191807216723e-08 8.80296354945453e-09 1.3340618427016e-08 2.71883120118233e-08 1.14525299324685e-08
"1897" 33827 2.15101663765751e-08 1.03816848844938e-08 3.20181550967053e-08 1.91501096177369e-08 8.80728588433558e-09 1.3340618427016e-08 2.71704917007663e-08 1.15206320148621e-08
"1898" 33828 2.15624645131462e-08 1.03754253926432e-08 3.19391642480257e-08 1.90810385138015e-08 8.81160821921663e-09 1.3340618427016e-08 2.71526713897094e-08 1.15887340972557e-08
"1899" 33829 2.16147626497174e-08 1.03691659007926e-08 3.18601733993462e-08 1.90119674098661e-08 8.81593055409768e-09 1.3340618427016e-08 2.71348510786524e-08 1.16568361796494e-08
"1900" 33830 2.16670607862885e-08 1.03629064089419e-08 3.17811825506667e-08 1.89428963059307e-08 8.82025288897873e-09 1.3340618427016e-08 2.71170307675954e-08 1.1724938262043e-08
"1901" 33831 2.17193589228597e-08 1.03566469170913e-08 3.17021917019872e-08 1.88738252019953e-08 8.82457522385978e-09 1.3340618427016e-08 2.70992104565385e-08 1.17930403444366e-08
"1902" 33832 2.17716570594309e-08 1.03503874252407e-08 3.16232008533077e-08 1.88047540980599e-08 8.82889755874083e-09 1.3340618427016e-08 2.70813901454815e-08 1.18611424268303e-08
"1903" 33833 2.1823955196002e-08 1.034412793339e-08 3.15442100046281e-08 1.87356829941245e-08 8.83321989362188e-09 1.3340618427016e-08 2.70635698344245e-08 1.19292445092239e-08
"1904" 33834 2.18762533325732e-08 1.03378684415394e-08 3.14652191559486e-08 1.86666118901891e-08 8.83754222850293e-09 1.3340618427016e-08 2.70457495233675e-08 1.19973465916175e-08
"1905" 33835 2.19285514691443e-08 1.03316089496888e-08 3.13862283072691e-08 1.85975407862537e-08 8.84186456338398e-09 1.3340618427016e-08 2.70279292123106e-08 1.20654486740111e-08
"1906" 33836 2.19006889833641e-08 1.03289528789951e-08 3.12808758089826e-08 1.85276162255231e-08 8.86336585207759e-09 1.3340618427016e-08 2.71837864127221e-08 1.20078076745675e-08
"1907" 33837 2.1758899048638e-08 1.03521611501033e-08 3.12526855126532e-08 1.85076893462711e-08 8.90908584849528e-09 1.33327182048251e-08 2.72242195693173e-08 1.19439163455196e-08
"1908" 33838 2.16171091139119e-08 1.03753694212115e-08 3.12244952163238e-08 1.84877624670191e-08 8.95480584491297e-09 1.33248179826342e-08 2.72646527259124e-08 1.18800250164716e-08
"1909" 33839 2.14753191791858e-08 1.03985776923197e-08 3.11963049199944e-08 1.84678355877671e-08 9.00052584133066e-09 1.33169177604432e-08 2.73050858825076e-08 1.18161336874237e-08
"1910" 33840 2.14558688915988e-08 1.04273430680101e-08 3.12736695344698e-08 1.85178332692456e-08 9.02917784605167e-09 1.3239184187039e-08 2.7340340993428e-08 1.18038919541573e-08
"1911" 33841 2.14434710044042e-08 1.04316193851863e-08 3.13538748582597e-08 1.85530681716058e-08 9.03710414408174e-09 1.29731614183836e-08 2.72628949769103e-08 1.18029008141785e-08
"1912" 33842 2.14310731172096e-08 1.04358957023624e-08 3.14340801820497e-08 1.85883030739659e-08 9.0450304421118e-09 1.27071386497283e-08 2.71854489603927e-08 1.18019096741998e-08
"1913" 33843 2.1418675230015e-08 1.04401720195386e-08 3.15142855058396e-08 1.86235379763261e-08 9.05295674014187e-09 1.2441115881073e-08 2.7108002943875e-08 1.18009185342211e-08
"1914" 33844 2.14062773428204e-08 1.04444483367147e-08 3.15944908296295e-08 1.86587728786862e-08 9.06088303817193e-09 1.21750931124176e-08 2.70305569273573e-08 1.17999273942423e-08
"1915" 33845 2.13938794556258e-08 1.04487246538909e-08 3.16746961534194e-08 1.86940077810463e-08 9.068809336202e-09 1.19090703437623e-08 2.69531109108396e-08 1.17989362542636e-08
"1916" 33846 2.13814815684312e-08 1.0453000971067e-08 3.17549014772093e-08 1.87292426834065e-08 9.07673563423206e-09 1.16430475751069e-08 2.68756648943219e-08 1.17979451142849e-08
"1917" 33847 2.13690836812366e-08 1.04572772882432e-08 3.18351068009992e-08 1.87644775857666e-08 9.08466193226213e-09 1.13770248064516e-08 2.67982188778043e-08 1.17969539743061e-08
"1918" 33848 2.1356685794042e-08 1.04615536054193e-08 3.19153121247891e-08 1.87997124881267e-08 9.09258823029219e-09 1.11110020377962e-08 2.67207728612866e-08 1.17959628343274e-08
"1919" 33849 2.13442879068474e-08 1.04658299225955e-08 3.19955174485791e-08 1.88349473904869e-08 9.10051452832226e-09 1.08449792691409e-08 2.66433268447689e-08 1.17949716943487e-08
"1920" 33850 2.13318900196529e-08 1.04701062397716e-08 3.2075722772369e-08 1.8870182292847e-08 9.10844082635233e-09 1.05789565004855e-08 2.65658808282512e-08 1.17939805543699e-08
"1921" 33851 2.13194921324583e-08 1.04743825569478e-08 3.21559280961589e-08 1.89054171952071e-08 9.11636712438239e-09 1.03129337318302e-08 2.64884348117335e-08 1.17929894143912e-08
"1922" 33852 2.13070942452637e-08 1.04786588741239e-08 3.22361334199488e-08 1.89406520975673e-08 9.12429342241246e-09 1.00469109631749e-08 2.64109887952159e-08 1.17919982744125e-08
"1923" 33853 2.13070942452637e-08 1.05023245693057e-08 3.22749132943563e-08 1.87480884692076e-08 9.14241497780572e-09 1.0014998678478e-08 2.64187783305884e-08 1.17798011049358e-08
"1924" 33854 2.13070942452637e-08 1.05259902644875e-08 3.23136931687639e-08 1.85555248408479e-08 9.16053653319898e-09 9.98308639378108e-09 2.6426567865961e-08 1.17676039354591e-08
"1925" 33855 2.13070942452637e-08 1.05496559596693e-08 3.23524730431714e-08 1.83629612124882e-08 9.17865808859225e-09 9.95117410908419e-09 2.64343574013336e-08 1.17554067659824e-08
"1926" 33856 2.13070942452637e-08 1.0573321654851e-08 3.2391252917579e-08 1.81703975841286e-08 9.19677964398551e-09 9.9192618243873e-09 2.64421469367062e-08 1.17432095965057e-08
"1927" 33857 2.13156445309838e-08 1.05714889474898e-08 3.23973029424117e-08 1.79467331277857e-08 9.18624919465777e-09 9.88734953969041e-09 2.63862695105283e-08 1.17332663654399e-08
"1928" 33858 2.14295719799297e-08 1.05656868797128e-08 3.24540739758107e-08 1.77189345970659e-08 9.16142192450906e-09 9.85668215908545e-09 2.63489465967482e-08 1.17300276533059e-08
"1929" 33859 2.14252965660736e-08 1.06585169530787e-08 3.27918889237274e-08 1.75263709687062e-08 9.13338021142537e-09 9.82801374835149e-09 2.64463427379541e-08 1.1726827138706e-08
"1930" 33860 2.14210211522175e-08 1.07513470264447e-08 3.31297038716441e-08 1.73338073403466e-08 9.10533849834167e-09 9.79934533761754e-09 2.65437388791601e-08 1.17236266241061e-08
"1931" 33861 2.14167457383614e-08 1.08441770998106e-08 3.34675188195608e-08 1.71412437119869e-08 9.07729678525797e-09 9.77067692688358e-09 2.66411350203661e-08 1.17204261095061e-08
"1932" 33862 2.14124703245053e-08 1.09370071731765e-08 3.38053337674775e-08 1.69486800836272e-08 9.04925507217428e-09 9.74200851614963e-09 2.6738531161572e-08 1.17172255949062e-08
"1933" 33863 2.14081949106492e-08 1.10298372465425e-08 3.41431487153943e-08 1.67561164552676e-08 9.02121335909058e-09 9.71334010541567e-09 2.6835927302778e-08 1.17140250803063e-08
"1934" 33864 2.14039194967931e-08 1.11226673199084e-08 3.4480963663311e-08 1.65635528269079e-08 8.99317164600688e-09 9.68467169468172e-09 2.69333234439839e-08 1.17108245657063e-08
"1935" 33865 2.1399644082937e-08 1.12154973932743e-08 3.48187786112277e-08 1.63709891985482e-08 8.96512993292319e-09 9.65600328394776e-09 2.70307195851899e-08 1.17076240511064e-08
"1936" 33866 2.1395368669081e-08 1.13083274666403e-08 3.51565935591444e-08 1.61784255701885e-08 8.93708821983949e-09 9.62733487321381e-09 2.71281157263959e-08 1.17044235365065e-08
"1937" 33867 2.13910932552249e-08 1.14011575400062e-08 3.54944085070611e-08 1.59858619418289e-08 8.90904650675579e-09 9.59866646247986e-09 2.72255118676018e-08 1.17012230219065e-08
"1938" 33868 2.13868178413688e-08 1.14939876133721e-08 3.58322234549778e-08 1.57932983134692e-08 8.8810047936721e-09 9.5699980517459e-09 2.73229080088078e-08 1.16980225073066e-08
"1939" 33869 2.13825424275127e-08 1.15868176867381e-08 3.61700384028946e-08 1.56007346851095e-08 8.8529630805884e-09 9.54132964101195e-09 2.74203041500137e-08 1.16948219927067e-08
"1940" 33870 2.13782670136566e-08 1.1679647760104e-08 3.65078533508113e-08 1.54081710567498e-08 8.8249213675047e-09 9.51266123027799e-09 2.75177002912197e-08 1.16916214781067e-08
"1941" 33871 2.13742055059913e-08 1.1723160257365e-08 3.65646243842103e-08 1.51709628216024e-08 8.79970572995044e-09 9.5039469016345e-09 2.74761968379992e-08 1.1681678247041e-08
"1942" 33872 2.13701439983261e-08 1.1766672754626e-08 3.66213954176093e-08 1.49337545864549e-08 8.77449009239617e-09 9.495232572991e-09 2.74346933847786e-08 1.16717350159753e-08
"1943" 33873 2.13660824906608e-08 1.1810185251887e-08 3.66781664510083e-08 1.46965463513075e-08 8.7492744548419e-09 9.4865182443475e-09 2.73931899315581e-08 1.16617917849095e-08
"1944" 33874 2.13620209829955e-08 1.1853697749148e-08 3.67349374844073e-08 1.445933811616e-08 8.72405881728764e-09 9.47780391570401e-09 2.73516864783375e-08 1.16518485538438e-08
"1945" 33875 2.13620209829955e-08 1.18990429537702e-08 3.68341820765527e-08 1.4452089153322e-08 8.68221961290442e-09 9.45452613196623e-09 2.73660604512949e-08 1.1629133005116e-08
"1946" 33876 2.12161695406042e-08 1.18839888754393e-08 3.69246009219772e-08 1.44463147701541e-08 8.67784179696543e-09 9.45452613196623e-09 2.73651186584007e-08 1.15315726575287e-08
"1947" 33877 2.10703180982128e-08 1.18689347971084e-08 3.70150197674017e-08 1.44405403869862e-08 8.67346398102644e-09 9.45452613196623e-09 2.73641768655065e-08 1.14340123099415e-08
"1948" 33878 2.09244666558214e-08 1.19021269572882e-08 3.71142643595471e-08 1.4445461313359e-08 8.63162477664323e-09 9.4494548157076e-09 2.73731373445656e-08 1.14272695934757e-08
"1949" 33879 2.08256393459266e-08 1.1891806620207e-08 3.71152112626519e-08 1.44450291650411e-08 8.61500120981427e-09 9.42816412963429e-09 2.74095184654515e-08 1.14902886508621e-08
"1950" 33880 2.07268120360319e-08 1.18814862831258e-08 3.71161581657567e-08 1.44445970167231e-08 8.59837764298532e-09 9.40687344356098e-09 2.74458995863375e-08 1.15533077082484e-08
"1951" 33881 2.06279847261371e-08 1.18711659460446e-08 3.71171050688615e-08 1.44441648684052e-08 8.58175407615637e-09 9.38558275748767e-09 2.74822807072235e-08 1.16163267656348e-08
"1952" 33882 2.05291574162423e-08 1.18608456089634e-08 3.71180519719663e-08 1.44437327200873e-08 8.56513050932742e-09 9.36429207141436e-09 2.75186618281095e-08 1.16793458230212e-08
"1953" 33883 2.04303301063475e-08 1.18505252718822e-08 3.71189988750711e-08 1.44433005717693e-08 8.54850694249847e-09 9.34300138534105e-09 2.75550429489955e-08 1.17423648804076e-08
"1954" 33884 2.03315027964527e-08 1.1840204934801e-08 3.71199457781759e-08 1.44428684234514e-08 8.53188337566952e-09 9.32171069926775e-09 2.75914240698815e-08 1.18053839377939e-08
"1955" 33885 2.02326754865579e-08 1.18298845977198e-08 3.71208926812808e-08 1.44424362751335e-08 8.51525980884056e-09 9.30042001319444e-09 2.76278051907675e-08 1.18684029951803e-08
"1956" 33886 2.01338481766631e-08 1.18195642606386e-08 3.71218395843856e-08 1.44420041268156e-08 8.49863624201161e-09 9.27912932712113e-09 2.76641863116535e-08 1.19314220525667e-08
"1957" 33887 2.00350208667683e-08 1.18092439235574e-08 3.71227864874904e-08 1.44415719784976e-08 8.48201267518266e-09 9.25783864104782e-09 2.77005674325395e-08 1.19944411099531e-08
"1958" 33888 1.99361935568736e-08 1.17989235864763e-08 3.71237333905952e-08 1.44411398301797e-08 8.46538910835371e-09 9.23654795497451e-09 2.77369485534255e-08 1.20574601673394e-08
"1959" 33889 1.98373662469788e-08 1.17886032493951e-08 3.71246802937e-08 1.44407076818618e-08 8.44876554152476e-09 9.21525726890121e-09 2.77733296743115e-08 1.21204792247258e-08
"1960" 33890 1.9738538937084e-08 1.17782829123139e-08 3.71256271968048e-08 1.44402755335439e-08 8.4321419746958e-09 9.1939665828279e-09 2.78097107951974e-08 1.21834982821122e-08
"1961" 33891 1.95948964133523e-08 1.18035068604127e-08 3.72948635911056e-08 1.44708218434513e-08 8.39529087788889e-09 9.18730334992454e-09 2.78287083473721e-08 1.21747478206662e-08
"1962" 33892 1.94512538896205e-08 1.18287308085115e-08 3.74640999854063e-08 1.45013681533587e-08 8.35843978108197e-09 9.18064011702119e-09 2.78477058995468e-08 1.21659973592202e-08
"1963" 33893 1.93107457660632e-08 1.18162118248103e-08 3.74681912166032e-08 1.45582709338381e-08 8.32158868427505e-09 9.15502822306614e-09 2.78432449781621e-08 1.21691978738201e-08
"1964" 33894 1.91702376425059e-08 1.1803692841109e-08 3.74722824478001e-08 1.46151737143175e-08 8.28473758746813e-09 9.1294163291111e-09 2.78387840567773e-08 1.21723983884201e-08
"1965" 33895 1.90297295189486e-08 1.17911738574077e-08 3.74763736789969e-08 1.46720764947968e-08 8.24788649066121e-09 9.10380443515606e-09 2.78343231353926e-08 1.217559890302e-08
"1966" 33896 1.90203246924492e-08 1.17908079181489e-08 3.74782964258607e-08 1.46823629014559e-08 8.21746370332005e-09 9.01966689891249e-09 2.77169876491178e-08 1.21388737032206e-08
"1967" 33897 1.89946732932968e-08 1.1782715718937e-08 3.74760267352685e-08 1.47304430151056e-08 8.21441570355887e-09 8.87479296927149e-09 2.73754810471816e-08 1.21500670002072e-08
"1968" 33898 1.89348212932559e-08 1.17667349546646e-08 3.74158727424261e-08 1.47855722771955e-08 8.2222298866646e-09 8.87578651810373e-09 2.73733233768802e-08 1.2120078150618e-08
"1969" 33899 1.88749692932149e-08 1.17507541903922e-08 3.73557187495836e-08 1.48407015392854e-08 8.23004406977033e-09 8.87678006693596e-09 2.73711657065787e-08 1.20900893010288e-08
"1970" 33900 1.8815117293174e-08 1.17347734261197e-08 3.72955647567412e-08 1.48958308013752e-08 8.23785825287606e-09 8.87777361576820e-09 2.73690080362773e-08 1.20601004514396e-08
"1971" 33901 1.8755265293133e-08 1.17187926618473e-08 3.72354107638988e-08 1.49509600634651e-08 8.24567243598179e-09 8.87876716460043e-09 2.73668503659759e-08 1.20301116018504e-08
"1972" 33902 1.8695413293092e-08 1.17028118975749e-08 3.71752567710563e-08 1.5006089325555e-08 8.25348661908752e-09 8.87976071343267e-09 2.73646926956745e-08 1.20001227522612e-08
"1973" 33903 1.86355612930511e-08 1.16868311333024e-08 3.71151027782139e-08 1.50612185876449e-08 8.26130080219325e-09 8.8807542622649e-09 2.7362535025373e-08 1.1970133902672e-08
"1974" 33904 1.85757092930102e-08 1.167085036903e-08 3.70549487853714e-08 1.51163478497348e-08 8.26911498529898e-09 8.88174781109714e-09 2.73603773550716e-08 1.19401450530828e-08
"1975" 33905 1.85646630737358e-08 1.16570682513776e-08 3.6990927636326e-08 1.51759426444433e-08 8.30142239939732e-09 8.89106050755312e-09 2.73563423964131e-08 1.19181298871132e-08
"1976" 33906 1.85251186120212e-08 1.16679581618689e-08 3.69752059958658e-08 1.51972666587253e-08 8.30186567145659e-09 8.88939667802837e-09 2.73887334923615e-08 1.1900913355186e-08
"1977" 33907 1.84855741503067e-08 1.16788480723602e-08 3.69594843554056e-08 1.52185906730074e-08 8.30230894351586e-09 8.88773284850362e-09 2.74211245883098e-08 1.18836968232589e-08
"1978" 33908 1.84460296885921e-08 1.16897379828515e-08 3.69437627149453e-08 1.52399146872895e-08 8.30275221557513e-09 8.88606901897887e-09 2.74535156842581e-08 1.18664802913317e-08
"1979" 33909 1.84708254629813e-08 1.16907443158134e-08 3.69831569330259e-08 1.52426516266364e-08 8.26961200920349e-09 8.88282514501593e-09 2.72929728938577e-08 1.18891958400595e-08
"1980" 33910 1.84956212373705e-08 1.16917506487753e-08 3.70225511511065e-08 1.52453885659833e-08 8.23647180283185e-09 8.879581271053e-09 2.71324301034573e-08 1.19119113887873e-08
"1981" 33911 1.85204170117596e-08 1.16927569817372e-08 3.7061945369187e-08 1.52481255053302e-08 8.20333159646021e-09 8.87633739709007e-09 2.69718873130569e-08 1.19346269375151e-08
"1982" 33912 1.85452127861488e-08 1.16937633146991e-08 3.71013395872676e-08 1.5250862444677e-08 8.17019139008857e-09 8.87309352312713e-09 2.68113445226565e-08 1.19573424862429e-08
"1983" 33913 1.8570008560538e-08 1.1694769647661e-08 3.71407338053482e-08 1.52535993840239e-08 8.13705118371693e-09 8.86984964916420e-09 2.66508017322561e-08 1.19800580349707e-08
"1984" 33914 1.85948043349272e-08 1.16957759806228e-08 3.71801280234287e-08 1.52563363233708e-08 8.10391097734529e-09 8.86660577520126e-09 2.64902589418557e-08 1.20027735836985e-08
"1985" 33915 1.86104086470159e-08 1.16702775780798e-08 3.71909704450939e-08 1.52408966564189e-08 8.07032749891438e-09 8.947056767636e-09 2.63500922388698e-08 1.20027544849315e-08
"1986" 33916 1.86260129591045e-08 1.16447791755369e-08 3.7201812866759e-08 1.52254569894669e-08 8.03674402048346e-09 9.02750776007074e-09 2.62099255358839e-08 1.20027353861644e-08
"1987" 33917 1.86416172711932e-08 1.16192807729939e-08 3.72126552884242e-08 1.5210017322515e-08 8.00316054205255e-09 9.10795875250547e-09 2.60697588328981e-08 1.20027162873974e-08
"1988" 33918 1.86572215832818e-08 1.15937823704509e-08 3.72234977100894e-08 1.51945776555631e-08 7.96957706362164e-09 9.18840974494021e-09 2.59295921299122e-08 1.20026971886303e-08
"1989" 33919 1.86728258953705e-08 1.15682839679079e-08 3.72343401317545e-08 1.51791379886112e-08 7.93599358519073e-09 9.26886073737495e-09 2.57894254269263e-08 1.20026780898633e-08
"1990" 33920 1.86884302074591e-08 1.15427855653649e-08 3.72451825534197e-08 1.51636983216593e-08 7.90241010675982e-09 9.34931172980969e-09 2.56492587239405e-08 1.20026589910963e-08
"1991" 33921 1.87040345195478e-08 1.15172871628219e-08 3.72560249750848e-08 1.51482586547074e-08 7.86882662832891e-09 9.42976272224442e-09 2.55090920209546e-08 1.20026398923292e-08
"1992" 33922 1.87196388316364e-08 1.14917887602789e-08 3.726686739675e-08 1.51328189877555e-08 7.835243149898e-09 9.51021371467916e-09 2.53689253179687e-08 1.20026207935622e-08
"1993" 33923 1.87352431437251e-08 1.14662903577359e-08 3.72777098184152e-08 1.51173793208035e-08 7.80165967146709e-09 9.5906647071139e-09 2.52287586149829e-08 1.20026016947952e-08
"1994" 33924 1.87501353384977e-08 1.14585640977829e-08 3.72334363815396e-08 1.5057561466261e-08 7.732886069542e-09 9.48817687763113e-09 2.50743185861007e-08 1.20048365344391e-08
"1995" 33925 1.87650275332704e-08 1.145083783783e-08 3.71891629446639e-08 1.49977436117184e-08 7.66411246761692e-09 9.38568904814837e-09 2.49198785572185e-08 1.2007071374083e-08
"1996" 33926 1.87799197280431e-08 1.1443111577877e-08 3.71448895077883e-08 1.49379257571758e-08 7.59533886569183e-09 9.2832012186656e-09 2.47654385283364e-08 1.20093062137269e-08
"1997" 33927 1.89437939714372e-08 1.14866359129323e-08 3.73870161228063e-08 1.50067428475096e-08 7.53133087070706e-09 9.10026239674809e-09 2.457473510268e-08 1.21089931746115e-08
"1998" 33928 1.89611073650843e-08 1.15315325202084e-08 3.76450520623844e-08 1.49651015992658e-08 7.48450182953485e-09 8.93727765692105e-09 2.43636106558883e-08 1.21129959320605e-08
"1999" 33929 1.89784207587313e-08 1.15764291274845e-08 3.79030880019624e-08 1.4923460351022e-08 7.43767278836264e-09 8.774292917094e-09 2.41524862090965e-08 1.21169986895095e-08
"2000" 33930 1.89957341523783e-08 1.16213257347606e-08 3.81611239415404e-08 1.48818191027782e-08 7.39084374719043e-09 8.61130817726696e-09 2.39413617623048e-08 1.21210014469585e-08
"2001" 33931 1.90130475460253e-08 1.16662223420367e-08 3.84191598811185e-08 1.48401778545344e-08 7.34401470601822e-09 8.44832343743991e-09 2.37302373155131e-08 1.21250042044076e-08
"2002" 33932 1.90303609396723e-08 1.17111189493128e-08 3.86771958206965e-08 1.47985366062906e-08 7.29718566484601e-09 8.28533869761286e-09 2.35191128687213e-08 1.21290069618566e-08
"2003" 33933 1.90488142630169e-08 1.17314556777818e-08 3.86403386931528e-08 1.48031694337848e-08 7.24182233962335e-09 8.30853665366626e-09 2.35192305928331e-08 1.21208125498289e-08
"2004" 33934 1.89853280257003e-08 1.17880479054267e-08 3.89374291852618e-08 1.47040383674636e-08 7.25850196391446e-09 8.29182644553873e-09 2.34766289863171e-08 1.21248153072779e-08
"2005" 33935 1.89218417883836e-08 1.18446401330716e-08 3.92345196773708e-08 1.46049073011425e-08 7.27518158820558e-09 8.27511623741121e-09 2.34340273798011e-08 1.21288180647269e-08
"2006" 33936 1.8858355551067e-08 1.19012323607165e-08 3.95316101694797e-08 1.45057762348213e-08 7.2918612124967e-09 8.25840602928369e-09 2.3391425773285e-08 1.21328208221759e-08
"2007" 33937 1.87948693137504e-08 1.19578245883614e-08 3.98287006615887e-08 1.44066451685002e-08 7.30854083678782e-09 8.24169582115616e-09 2.3348824166769e-08 1.21368235796249e-08
"2008" 33938 1.87313830764337e-08 1.20144168160064e-08 4.01257911536977e-08 1.4307514102179e-08 7.32522046107894e-09 8.22498561302864e-09 2.3306222560253e-08 1.2140826337074e-08
"2009" 33939 1.86678968391171e-08 1.20710090436513e-08 4.04228816458067e-08 1.42083830358579e-08 7.34190008537006e-09 8.20827540490112e-09 2.3263620953737e-08 1.2144829094523e-08
"2010" 33940 1.86044106018005e-08 1.21276012712962e-08 4.07199721379157e-08 1.41092519695367e-08 7.35857970966118e-09 8.19156519677359e-09 2.3221019347221e-08 1.2148831851972e-08
"2011" 33941 1.85409243644838e-08 1.21841934989411e-08 4.10170626300247e-08 1.40101209032155e-08 7.3752593339523e-09 8.17485498864607e-09 2.3178417740705e-08 1.2152834609421e-08
"2012" 33942 1.84774381271672e-08 1.2240785726586e-08 4.13141531221336e-08 1.39109898368944e-08 7.39193895824342e-09 8.15814478051855e-09 2.31358161341889e-08 1.215683736687e-08
"2013" 33943 1.84139518898506e-08 1.22973779542309e-08 4.16112436142426e-08 1.38118587705732e-08 7.40861858253454e-09 8.14143457239102e-09 2.30932145276729e-08 1.2160840124319e-08
"2014" 33944 1.83504656525339e-08 1.23539701818758e-08 4.19083341063516e-08 1.37127277042521e-08 7.42529820682566e-09 8.1247243642635e-09 2.30506129211569e-08 1.2164842881768e-08
"2015" 33945 1.82869794152173e-08 1.24105624095208e-08 4.22054245984606e-08 1.36135966379309e-08 7.44197783111678e-09 8.10801415613598e-09 2.30080113146409e-08 1.21688456392171e-08
"2016" 33946 1.82234931779007e-08 1.24671546371657e-08 4.25025150905696e-08 1.35144655716098e-08 7.4586574554079e-09 8.09130394800845e-09 2.29654097081249e-08 1.21728483966661e-08
"2017" 33947 1.8160006940584e-08 1.25237468648106e-08 4.27996055826786e-08 1.34153345052886e-08 7.47533707969902e-09 8.07459373988093e-09 2.29228081016089e-08 1.21768511541151e-08
"2018" 33948 1.81428354284082e-08 1.25246322217085e-08 4.28736595033156e-08 1.32924631037393e-08 7.49811385632096e-09 8.037342954057e-09 2.29165148255879e-08 1.22069907032999e-08
"2019" 33949 1.81256639162323e-08 1.25255175786064e-08 4.29477134239527e-08 1.31695917021901e-08 7.5208906329429e-09 8.00009216823307e-09 2.29102215495669e-08 1.22371302524847e-08
"2020" 33950 1.80668088804338e-08 1.25262199658748e-08 4.29345650928623e-08 1.31649573089411e-08 7.53313696023709e-09 7.96716259029087e-09 2.29086911361139e-08 1.2257301105581e-08
"2021" 33951 1.80079538446352e-08 1.25269223531433e-08 4.29214167617719e-08 1.31603229156922e-08 7.54538328753129e-09 7.93423301234867e-09 2.29071607226608e-08 1.22774719586773e-08
"2022" 33952 1.79490988088366e-08 1.25276247404117e-08 4.29082684306815e-08 1.31556885224433e-08 7.55762961482548e-09 7.90130343440647e-09 2.29056303092078e-08 1.22976428117736e-08
"2023" 33953 1.79383401464489e-08 1.25225250599031e-08 4.27990558823098e-08 1.32237171950265e-08 7.54826426771442e-09 7.90661819112044e-09 2.29449419380255e-08 1.23018790301421e-08
"2024" 33954 1.79275814840611e-08 1.25174253793945e-08 4.26898433339381e-08 1.32917458676097e-08 7.53889892060336e-09 7.91193294783441e-09 2.29842535668432e-08 1.23061152485105e-08
"2025" 33955 1.77725418313215e-08 1.24886600037041e-08 4.26898433339381e-08 1.34093400733535e-08 7.55635470330138e-09 7.91766662998121e-09 2.2934489681803e-08 1.21019426926989e-08
"2026" 33956 1.76175021785818e-08 1.24598946280137e-08 4.26898433339381e-08 1.35269342790973e-08 7.57381048599939e-09 7.923400312128e-09 2.28847257967628e-08 1.18977701368872e-08
"2027" 33957 1.74624625258421e-08 1.24311292523234e-08 4.26898433339381e-08 1.3644528484841e-08 7.59126626869741e-09 7.92913399427479e-09 2.28349619117225e-08 1.16935975810756e-08
"2028" 33958 1.73074228731024e-08 1.2402363876633e-08 4.26898433339381e-08 1.37621226905848e-08 7.60872205139542e-09 7.93486767642158e-09 2.27851980266823e-08 1.1489425025264e-08
"2029" 33959 1.71523832203627e-08 1.23735985009426e-08 4.26898433339381e-08 1.38797168963286e-08 7.62617783409344e-09 7.94060135856837e-09 2.27354341416421e-08 1.12852524694523e-08
"2030" 33960 1.69973435676231e-08 1.23448331252522e-08 4.26898433339381e-08 1.39973111020724e-08 7.64363361679145e-09 7.94633504071516e-09 2.26856702566019e-08 1.10810799136407e-08
"2031" 33961 1.68423039148834e-08 1.23160677495618e-08 4.26898433339381e-08 1.41149053078162e-08 7.66108939948946e-09 7.95206872286195e-09 2.26359063715617e-08 1.08769073578291e-08
"2032" 33962 1.66633961372374e-08 1.2334633764235e-08 4.30201336601459e-08 1.41237279746459e-08 7.66103391843153e-09 7.95074003368346e-09 2.25644327975879e-08 1.06615606037979e-08
"2033" 33963 1.64844883595915e-08 1.23531997789082e-08 4.33504239863537e-08 1.41325506414755e-08 7.66097843737359e-09 7.94941134450497e-09 2.24929592236141e-08 1.04462138497667e-08
"2034" 33964 1.63055805819455e-08 1.23717657935814e-08 4.36807143125615e-08 1.41413733083052e-08 7.66092295631565e-09 7.94808265532647e-09 2.24214856496403e-08 1.02308670957355e-08
"2035" 33965 1.61266728042995e-08 1.23903318082546e-08 4.40110046387693e-08 1.41501959751349e-08 7.66086747525771e-09 7.94675396614798e-09 2.23500120756665e-08 1.00155203417043e-08
"2036" 33966 1.59477650266536e-08 1.24088978229278e-08 4.43412949649771e-08 1.41590186419645e-08 7.66081199419978e-09 7.94542527696949e-09 2.22785385016927e-08 9.8001735876731e-09
"2037" 33967 1.58856358771776e-08 1.23940267142263e-08 4.46271383824451e-08 1.41684841113507e-08 7.66075651314184e-09 7.92814044544255e-09 2.21676418722208e-08 9.8089240491191e-09
"2038" 33968 1.58235067277016e-08 1.23791556055248e-08 4.49129817999131e-08 1.41779495807369e-08 7.6607010320839e-09 7.91085561391562e-09 2.20567452427488e-08 9.8176745105651e-09
"2039" 33969 1.57613775782256e-08 1.23642844968233e-08 4.51988252173811e-08 1.41874150501231e-08 7.66064555102596e-09 7.89357078238868e-09 2.19458486132769e-08 9.82642497201109e-09
"2040" 33970 1.56992484287496e-08 1.23494133881218e-08 4.54846686348491e-08 1.41968805195093e-08 7.66059006996803e-09 7.87628595086174e-09 2.18349519838049e-08 9.83517543345709e-09
"2041" 33971 1.56371192792737e-08 1.23345422794203e-08 4.57705120523171e-08 1.42063459888955e-08 7.66053458891009e-09 7.8590011193348e-09 2.17240553543329e-08 9.84392589490309e-09
"2042" 33972 1.55749901297977e-08 1.23196711707188e-08 4.60563554697851e-08 1.42158114582816e-08 7.66047910785215e-09 7.84171628780787e-09 2.1613158724861e-08 9.85267635634909e-09
"2043" 33973 1.55538280506921e-08 1.22569729296034e-08 4.62307674234797e-08 1.41964050118283e-08 7.60888676535654e-09 7.80172433854039e-09 2.15617592971185e-08 9.83670352408711e-09
"2044" 33974 1.55326659715866e-08 1.2194274688488e-08 4.64051793771743e-08 1.4176998565375e-08 7.55729442286093e-09 7.76173238927291e-09 2.15103598693761e-08 9.82073069182513e-09
"2045" 33975 1.5511503892481e-08 1.21315764473726e-08 4.65795913308689e-08 1.41575921189217e-08 7.50570208036533e-09 7.72174044000543e-09 2.14589604416337e-08 9.80475785956315e-09
"2046" 33976 1.55018125930792e-08 1.20570999278012e-08 4.64674008201515e-08 1.41289308573209e-08 7.45455300992899e-09 7.68216345876859e-09 2.14005227569101e-08 9.78874682976709e-09
"2047" 33977 1.54921212936774e-08 1.19826234082297e-08 4.63552103094341e-08 1.410026959572e-08 7.40340393949265e-09 7.64258647753175e-09 2.13420850721865e-08 9.77273579997104e-09
"2048" 33978 1.54824299942756e-08 1.19081468886582e-08 4.62430197987168e-08 1.40716083341191e-08 7.35225486905631e-09 7.60300949629491e-09 2.12836473874629e-08 9.75672477017498e-09
"2049" 33979 1.54727386948738e-08 1.18336703690868e-08 4.61308292879994e-08 1.40429470725182e-08 7.30110579861997e-09 7.56343251505807e-09 2.12252097027394e-08 9.74071374037892e-09
"2050" 33980 1.54630473954719e-08 1.17591938495153e-08 4.6018638777282e-08 1.40142858109173e-08 7.24995672818363e-09 7.52385553382124e-09 2.11667720180158e-08 9.72470271058287e-09
"2051" 33981 1.54533560960701e-08 1.16847173299439e-08 4.59064482665646e-08 1.39856245493164e-08 7.19880765774729e-09 7.4842785525844e-09 2.11083343332922e-08 9.70869168078681e-09
"2052" 33982 1.54436647966683e-08 1.16102408103724e-08 4.57942577558473e-08 1.39569632877155e-08 7.14765858731095e-09 7.44470157134756e-09 2.10498966485686e-08 9.69268065099076e-09
"2053" 33983 1.54927543403772e-08 1.15190929770544e-08 4.56354664084146e-08 1.39315160388972e-08 7.09606624481535e-09 7.40537594537042e-09 2.09797072602049e-08 9.68364579857992e-09
"2054" 33984 1.55418438840862e-08 1.14279451437364e-08 4.5476675060982e-08 1.39060687900789e-08 7.04447390231974e-09 7.36605031939327e-09 2.09095178718412e-08 9.67461094616909e-09
"2055" 33985 1.55909334277951e-08 1.13367973104184e-08 4.53178837135493e-08 1.38806215412606e-08 6.99288155982413e-09 7.32672469341613e-09 2.08393284834775e-08 9.66557609375825e-09
"2056" 33986 1.56400229715041e-08 1.12456494771004e-08 4.51590923661167e-08 1.38551742924423e-08 6.94128921732852e-09 7.28739906743898e-09 2.07691390951138e-08 9.65654124134741e-09
"2057" 33987 1.5689112515213e-08 1.11545016437824e-08 4.50003010186841e-08 1.3829727043624e-08 6.88969687483291e-09 7.24807344146184e-09 2.06989497067501e-08 9.64750638893658e-09
"2058" 33988 1.5738202058922e-08 1.10633538104644e-08 4.48415096712514e-08 1.38042797948057e-08 6.8381045323373e-09 7.20874781548469e-09 2.06287603183864e-08 9.63847153652574e-09
"2059" 33989 1.57872916026309e-08 1.09722059771463e-08 4.46827183238188e-08 1.37788325459874e-08 6.78651218984170e-09 7.16942218950755e-09 2.05585709300227e-08 9.6294366841149e-09
"2060" 33990 1.58363811463399e-08 1.08810581438283e-08 4.45239269763861e-08 1.37533852971691e-08 6.73491984734609e-09 7.1300965635304e-09 2.0488381541659e-08 9.62040183170407e-09
"2061" 33991 1.58854706900488e-08 1.07899103105103e-08 4.43651356289535e-08 1.37279380483508e-08 6.68332750485048e-09 7.09077093755326e-09 2.04181921532953e-08 9.61136697929323e-09
"2062" 33992 1.59345602337578e-08 1.06987624771923e-08 4.42063442815209e-08 1.37024907995325e-08 6.63173516235487e-09 7.05144531157611e-09 2.03480027649316e-08 9.60233212688239e-09
"2063" 33993 1.59836497774667e-08 1.06076146438743e-08 4.40475529340882e-08 1.36770435507142e-08 6.58014281985926e-09 7.01211968559897e-09 2.02778133765679e-08 9.59329727447156e-09
"2064" 33994 1.60327393211757e-08 1.05164668105563e-08 4.38887615866556e-08 1.36515963018959e-08 6.52855047736365e-09 6.97279405962182e-09 2.02076239882042e-08 9.58426242206072e-09
"2065" 33995 1.60818288648846e-08 1.04253189772383e-08 4.37299702392229e-08 1.36261490530775e-08 6.47695813486804e-09 6.93346843364468e-09 2.01374345998405e-08 9.57522756964989e-09
"2066" 33996 1.61309184085936e-08 1.03341711439203e-08 4.35711788917903e-08 1.36007018042592e-08 6.42536579237244e-09 6.89414280766753e-09 2.00672452114767e-08 9.56619271723905e-09
"2067" 33997 1.60244007736782e-08 1.03369600284723e-08 4.3608072238167e-08 1.36127834089893e-08 6.4327367034189e-09 6.90246195529128e-09 2.00912860081637e-08 9.57048623190858e-09
"2068" 33998 1.60159929114213e-08 1.03375089373606e-08 4.36501193094012e-08 1.3546472489837e-08 6.38895854402902e-09 6.89024052521862e-09 2.01038276264849e-08 9.58971050881592e-09
"2069" 33999 1.60075850491643e-08 1.03380578462489e-08 4.36921663806354e-08 1.34801615706848e-08 6.34518038463914e-09 6.87801909514596e-09 2.0116369244806e-08 9.60893478572327e-09
"2070" 34000 1.59991771869074e-08 1.03386067551372e-08 4.37342134518696e-08 1.34138506515325e-08 6.30140222524926e-09 6.8657976650733e-09 2.01289108631271e-08 9.62815906263062e-09
"2071" 34001 1.59907693246504e-08 1.03391556640255e-08 4.37762605231037e-08 1.33475397323803e-08 6.25762406585938e-09 6.85357623500064e-09 2.01414524814482e-08 9.64738333953796e-09
"2072" 34002 1.59823614623935e-08 1.03397045729138e-08 4.38183075943379e-08 1.3281228813228e-08 6.2138459064695e-09 6.84135480492798e-09 2.01539940997694e-08 9.6666076164453e-09
"2073" 34003 1.59739536001366e-08 1.03402534818021e-08 4.38603546655721e-08 1.32149178940757e-08 6.17006774707962e-09 6.82913337485532e-09 2.01665357180905e-08 9.68583189335265e-09
"2074" 34004 1.59655457378796e-08 1.03408023906904e-08 4.39024017368063e-08 1.31486069749235e-08 6.12628958768975e-09 6.81691194478266e-09 2.01790773364116e-08 9.70505617026e-09
"2075" 34005 1.59571378756227e-08 1.03413512995787e-08 4.39444488080405e-08 1.30822960557712e-08 6.08251142829987e-09 6.80469051470999e-09 2.01916189547327e-08 9.72428044716734e-09
"2076" 34006 1.59483022009841e-08 1.03364552532214e-08 4.39502097704532e-08 1.29942614935412e-08 6.03413352873925e-09 6.79604414154435e-09 2.02368041942764e-08 9.74344742777358e-09
"2077" 34007 1.5939039255956e-08 1.03298593133611e-08 4.39288862551479e-08 1.28969721161636e-08 5.99268211535736e-09 6.77284618549095e-09 2.02253050159105e-08 9.74642084770978e-09
"2078" 34008 1.59297763109278e-08 1.03232633735009e-08 4.39075627398426e-08 1.2799682738786e-08 5.95123070197548e-09 6.74964822943756e-09 2.02138058375447e-08 9.74939426764599e-09
"2079" 34009 1.59186618608781e-08 1.03232633735009e-08 4.39157452022363e-08 1.24439401223736e-08 5.95660602414888e-09 6.74931704649348e-09 2.01053751169886e-08 9.74437490519552e-09
"2080" 34010 1.59075474108284e-08 1.03232633735009e-08 4.392392766463e-08 1.20881975059613e-08 5.96198134632228e-09 6.7489858635494e-09 1.99969443964326e-08 9.73935554274506e-09
"2081" 34011 1.58964329607787e-08 1.03232633735009e-08 4.39321101270237e-08 1.17324548895489e-08 5.96735666849568e-09 6.74865468060533e-09 1.98885136758765e-08 9.73433618029459e-09
"2082" 34012 1.5885318510729e-08 1.03232633735009e-08 4.39402925894174e-08 1.13767122731365e-08 5.97273199066908e-09 6.74832349766125e-09 1.97800829553205e-08 9.72931681784413e-09
"2083" 34013 1.58742040606792e-08 1.03232633735009e-08 4.39484750518111e-08 1.10209696567242e-08 5.97810731284249e-09 6.74799231471717e-09 1.96716522347644e-08 9.72429745539366e-09
"2084" 34014 1.58630896106295e-08 1.03232633735009e-08 4.39566575142048e-08 1.06652270403118e-08 5.98348263501589e-09 6.74766113177309e-09 1.95632215142084e-08 9.7192780929432e-09
"2085" 34015 1.58288191529895e-08 1.03229889190568e-08 4.39458150925397e-08 1.06630213736044e-08 5.99079748860018e-09 6.74441725781016e-09 1.95611087776278e-08 9.70308453227317e-09
"2086" 34016 1.58283918825999e-08 1.03250960808621e-08 4.39539975549334e-08 1.06621679168093e-08 5.98248397597301e-09 6.74441725781016e-09 1.95527926324679e-08 9.7068156312687e-09
"2087" 34017 1.58279646122103e-08 1.03272032426675e-08 4.39621800173271e-08 1.06613144600142e-08 5.97417046334585e-09 6.74441725781016e-09 1.95444764873079e-08 9.71054673026424e-09
"2088" 34018 1.58339501916089e-08 1.03282922337166e-08 4.39859177544346e-08 1.06715884610777e-08 5.95854209713439e-09 6.75539378379089e-09 1.96931840040579e-08 9.73527002397222e-09
"2089" 34019 1.58399357710074e-08 1.03293812247657e-08 4.40096554915422e-08 1.06818624621412e-08 5.94291373092293e-09 6.76637030977162e-09 1.98418915208078e-08 9.75999331768020e-09
"2090" 34020 1.58459213504059e-08 1.03304702158149e-08 4.40333932286497e-08 1.06921364632047e-08 5.92728536471147e-09 6.77734683575235e-09 1.99905990375577e-08 9.78471661138818e-09
"2091" 34021 1.58519069298044e-08 1.0331559206864e-08 4.40571309657572e-08 1.07024104642682e-08 5.91165699850001e-09 6.78832336173309e-09 2.01393065543076e-08 9.80943990509616e-09
"2092" 34022 1.58578925092029e-08 1.03326481979131e-08 4.40808687028648e-08 1.07126844653317e-08 5.89602863228855e-09 6.79929988771382e-09 2.02880140710575e-08 9.83416319880414e-09
"2093" 34023 1.58638780886015e-08 1.02983758734117e-08 4.39490604548299e-08 1.06806527359134e-08 5.8982449925849e-09 6.78376662820037e-09 2.04360152431368e-08 9.83896183284655e-09
"2094" 34024 1.58634508182119e-08 1.02749138123811e-08 4.38350411253292e-08 1.06743129948291e-08 5.89769075840975e-09 6.76050071666913e-09 2.04384919316722e-08 9.81903717318099e-09
"2095" 34025 1.58794829426822e-08 1.02520921450536e-08 4.37084444834602e-08 1.06519465491948e-08 5.9048952262824e-09 6.80316191650013e-09 2.04546874796463e-08 9.80511664968895e-09
"2096" 34026 1.58955150671524e-08 1.02292704777261e-08 4.35818478415913e-08 1.06295801035605e-08 5.91209969415505e-09 6.84582311633114e-09 2.04708830276205e-08 9.7911961261969e-09
"2097" 34027 1.59115471916227e-08 1.02064488103985e-08 4.34552511997223e-08 1.06072136579262e-08 5.9193041620277e-09 6.88848431616214e-09 2.04870785755947e-08 9.77727560270486e-09
"2098" 34028 1.5927579316093e-08 1.0183627143071e-08 4.33286545578533e-08 1.05848472122919e-08 5.92650862990034e-09 6.93114551599314e-09 2.05032741235688e-08 9.76335507921282e-09
"2099" 34029 1.59436114405633e-08 1.01608054757435e-08 4.32020579159844e-08 1.05624807666576e-08 5.93371309777299e-09 6.97380671582414e-09 2.0519469671543e-08 9.74943455572078e-09
"2100" 34030 1.59596435650335e-08 1.0137983808416e-08 4.30754612741154e-08 1.05401143210234e-08 5.94091756564564e-09 7.01646791565514e-09 2.05356652195172e-08 9.73551403222873e-09
"2101" 34031 1.59756756895038e-08 1.01151621410884e-08 4.29488646322465e-08 1.05177478753891e-08 5.94812203351829e-09 7.05912911548614e-09 2.05518607674913e-08 9.72159350873669e-09
"2102" 34032 1.59917078139741e-08 1.00923404737609e-08 4.28222679903775e-08 1.04953814297548e-08 5.95532650139093e-09 7.10179031531715e-09 2.05680563154655e-08 9.70767298524465e-09
"2103" 34033 1.60077399384444e-08 1.00695188064334e-08 4.26956713485086e-08 1.04730149841205e-08 5.96253096926358e-09 7.14445151514815e-09 2.05842518634397e-08 9.6937524617526e-09
"2104" 34034 1.60237720629147e-08 1.00466971391059e-08 4.25690747066396e-08 1.04506485384862e-08 5.96973543713623e-09 7.18711271497915e-09 2.06004474114138e-08 9.67983193826056e-09
"2105" 34035 1.60398041873849e-08 1.00238754717783e-08 4.24424780647707e-08 1.04282820928519e-08 5.97693990500888e-09 7.22977391481015e-09 2.0616642959388e-08 9.66591141476852e-09
"2106" 34036 1.60558363118552e-08 1.00010538044508e-08 4.23158814229017e-08 1.04059156472176e-08 5.98414437288153e-09 7.27243511464115e-09 2.06328385073622e-08 9.65199089127648e-09
"2107" 34037 1.60718684363255e-08 9.9782321371233e-09 4.21892847810328e-08 1.03835492015834e-08 5.99134884075417e-09 7.31509631447215e-09 2.06490340553363e-08 9.63807036778443e-09
"2108" 34038 1.60879005607958e-08 9.95541046979578e-09 4.20626881391638e-08 1.03611827559491e-08 5.99855330862682e-09 7.35775751430316e-09 2.06652296033105e-08 9.62414984429239e-09
"2109" 34039 1.6103932685266e-08 9.93258880246825e-09 4.19360914972949e-08 1.03388163103148e-08 6.00575777649947e-09 7.40041871413416e-09 2.06814251512847e-08 9.61022932080035e-09
"2110" 34040 1.61199648097363e-08 9.90976713514073e-09 4.18094948554259e-08 1.03164498646805e-08 6.01296224437212e-09 7.44307991396516e-09 2.06976206992588e-08 9.59630879730831e-09
"2111" 34041 1.61359969342066e-08 9.8869454678132e-09 4.16828982135569e-08 1.02940834190462e-08 6.02016671224476e-09 7.48574111379616e-09 2.0713816247233e-08 9.58238827381626e-09
"2112" 34042 1.61520290586769e-08 9.86412380048568e-09 4.1556301571688e-08 1.02717169734119e-08 6.02737118011741e-09 7.52840231362716e-09 2.07300117952072e-08 9.56846775032422e-09
"2113" 34043 1.61680611831472e-08 9.84130213315816e-09 4.1429704929819e-08 1.02493505277777e-08 6.03457564799006e-09 7.57106351345816e-09 2.07462073431813e-08 9.55454722683218e-09
"2114" 34044 1.61840933076174e-08 9.81848046583063e-09 4.13031082879501e-08 1.02269840821434e-08 6.04178011586271e-09 7.61372471328917e-09 2.07624028911555e-08 9.54062670334014e-09
"2115" 34045 1.61840933076174e-08 9.82176810349983e-09 4.12695689603626e-08 1.02479874780246e-08 6.04637985603344e-09 7.67757302709602e-09 2.0787738653072e-08 9.54662447325798e-09
"2116" 34046 1.61840933076174e-08 9.82505574116904e-09 4.12360296327751e-08 1.02689908739058e-08 6.05097959620418e-09 7.74142134090287e-09 2.08130744149885e-08 9.55262224317582e-09
"2117" 34047 1.6042374855619e-08 9.78079952759596e-09 4.1122892218953e-08 1.01981121663039e-08 6.04438484356462e-09 7.72689745983038e-09 2.06812687908834e-08 9.52292415080713e-09
"2118" 34048 1.59006564036205e-08 9.73654331402288e-09 4.10097548051308e-08 1.0127233458702e-08 6.03779009092505e-09 7.71237357875788e-09 2.05494631667782e-08 9.49322605843844e-09
"2119" 34049 1.5758937951622e-08 9.6922871004498e-09 4.08966173913086e-08 1.00563547511001e-08 6.03119533828549e-09 7.69784969768539e-09 2.04176575426731e-08 9.46352796606974e-09
"2120" 34050 1.56172194996235e-08 9.64803088687672e-09 4.07834799774864e-08 9.98547604349814e-09 6.02460058564592e-09 7.68332581661289e-09 2.0285851918568e-08 9.43382987370105e-09
"2121" 34051 1.54755010476251e-08 9.60377467330364e-09 4.06703425636642e-08 9.91459733589622e-09 6.01800583300635e-09 7.6688019355404e-09 2.01540462944629e-08 9.40413178133236e-09
"2122" 34052 1.53337825956266e-08 9.55951845973055e-09 4.0557205149842e-08 9.8437186282943e-09 6.01141108036679e-09 7.65427805446791e-09 2.00222406703577e-08 9.37443368896367e-09
"2123" 34053 1.51920641436281e-08 9.51526224615747e-09 4.04440677360198e-08 9.77283992069238e-09 6.00481632772722e-09 7.63975417339541e-09 1.98904350462526e-08 9.34473559659498e-09
"2124" 34054 1.50503456916296e-08 9.47100603258439e-09 4.03309303221976e-08 9.70196121309046e-09 5.99822157508766e-09 7.62523029232292e-09 1.97586294221475e-08 9.31503750422628e-09
"2125" 34055 1.49798043439604e-08 9.42021587271653e-09 4.02241105052137e-08 9.6359259872213e-09 5.98857824628268e-09 7.54153542592525e-09 1.974635110872e-08 9.4348698531845e-09
"2126" 34056 1.48212701674481e-08 9.36362364507161e-09 4.00871847511544e-08 9.54960761266746e-09 5.97583201306282e-09 7.46881708550831e-09 1.97970378943606e-08 9.54263872403528e-09
"2127" 34057 1.46684356394238e-08 9.32661560285611e-09 3.99746039717578e-08 9.45772550918432e-09 6.01301541981313e-09 7.38836609307357e-09 1.97970378943606e-08 9.515648759405e-09
"2128" 34058 1.45156011113995e-08 9.28960756064061e-09 3.98620231923612e-08 9.36584340570118e-09 6.05019882656344e-09 7.30791510063883e-09 1.97970378943606e-08 9.48865879477471e-09
"2129" 34059 1.43627665833752e-08 9.25259951842511e-09 3.97494424129646e-08 9.27396130221804e-09 6.08738223331376e-09 7.22746410820409e-09 1.97970378943606e-08 9.46166883014442e-09
"2130" 34060 1.42099320553509e-08 9.21559147620961e-09 3.9636861633568e-08 9.18207919873489e-09 6.12456564006407e-09 7.14701311576936e-09 1.97970378943606e-08 9.43467886551413e-09
"2131" 34061 1.40570975273266e-08 9.17858343399411e-09 3.95242808541714e-08 9.09019709525175e-09 6.16174904681438e-09 7.06656212333462e-09 1.97970378943606e-08 9.40768890088384e-09
"2132" 34062 1.39042629993023e-08 9.1415753917786e-09 3.94117000747748e-08 8.99831499176861e-09 6.1989324535647e-09 6.98611113089988e-09 1.97970378943606e-08 9.38069893625356e-09
"2133" 34063 1.3751428471278e-08 9.1045673495631e-09 3.92991192953782e-08 8.90643288828547e-09 6.23611586031501e-09 6.90566013846514e-09 1.97970378943606e-08 9.35370897162327e-09
"2134" 34064 1.35985939432537e-08 9.0675593073476e-09 3.91865385159816e-08 8.81455078480233e-09 6.27329926706532e-09 6.82520914603041e-09 1.97970378943606e-08 9.32671900699298e-09
"2135" 34065 1.34457594152294e-08 9.0305512651321e-09 3.9073957736585e-08 8.72266868131918e-09 6.31048267381564e-09 6.74475815359567e-09 1.97970378943606e-08 9.29972904236269e-09
"2136" 34066 1.32929248872051e-08 8.9935432229166e-09 3.89613769571884e-08 8.63078657783604e-09 6.34766608056595e-09 6.66430716116093e-09 1.97970378943606e-08 9.27273907773241e-09
"2137" 34067 1.32482493868711e-08 8.9977368820055e-09 3.89908829348874e-08 8.62651929386052e-09 6.36567494463065e-09 6.62333749266993e-09 1.98210957680983e-08 9.24582550817027e-09
"2138" 34068 1.32912840364221e-08 8.95550517215053e-09 3.88616769368766e-08 8.69203408693097e-09 6.39371665771434e-09 6.61925972524353e-09 1.9759357326057e-08 9.24578094438051e-09
"2139" 34069 1.32833754692744e-08 8.90726776036726e-09 3.86673800179809e-08 8.71502165544027e-09 6.52117726070027e-09 7.08207095879418e-09 1.97191102017764e-08 9.25371006421039e-09
"2140" 34070 1.32754669021267e-08 8.85903034858399e-09 3.84730830990852e-08 8.73800922394957e-09 6.6486378636862e-09 7.54488219234483e-09 1.96788630774958e-08 9.26163918404027e-09
"2141" 34071 1.3267558334979e-08 8.81079293680072e-09 3.82787861801895e-08 8.76099679245887e-09 6.77609846667213e-09 8.00769342589548e-09 1.96386159532152e-08 9.26956830387015e-09
"2142" 34072 1.32596497678313e-08 8.76255552501745e-09 3.80844892612938e-08 8.78398436096817e-09 6.90355906965806e-09 8.47050465944613e-09 1.95983688289346e-08 9.27749742370003e-09
"2143" 34073 1.34067131646399e-08 8.73064415224367e-09 3.79044827109329e-08 8.77684692804721e-09 6.97233267158314e-09 8.47216057416652e-09 1.95366303868933e-08 9.29022517757233e-09
"2144" 34074 1.35537765614486e-08 8.6987327794699e-09 3.7724476160572e-08 8.76970949512625e-09 7.04110627350823e-09 8.47381648888691e-09 1.9474891944852e-08 9.30295293144463e-09
"2145" 34075 1.37008399582572e-08 8.66682140669612e-09 3.75444696102111e-08 8.76257206220529e-09 7.10987987543332e-09 8.47547240360731e-09 1.94131535028107e-08 9.31568068531692e-09
"2146" 34076 1.38479033550658e-08 8.63491003392234e-09 3.73644630598502e-08 8.75543462928434e-09 7.1786534773584e-09 8.4771283183277e-09 1.93514150607694e-08 9.32840843918922e-09
"2147" 34077 1.39949667518745e-08 8.60299866114856e-09 3.71844565094892e-08 8.74829719636338e-09 7.24742707928349e-09 8.47878423304809e-09 1.92896766187281e-08 9.34113619306152e-09
"2148" 34078 1.41420301486831e-08 8.57108728837478e-09 3.70044499591283e-08 8.74115976344242e-09 7.31620068120858e-09 8.48044014776848e-09 1.92279381766868e-08 9.35386394693381e-09
"2149" 34079 1.42890935454917e-08 8.539175915601e-09 3.68244434087674e-08 8.73402233052146e-09 7.38497428313367e-09 8.48209606248887e-09 1.91661997346455e-08 9.36659170080611e-09
"2150" 34080 1.44361569423004e-08 8.50726454282723e-09 3.66444368584065e-08 8.7268848976005e-09 7.45374788505875e-09 8.48375197720927e-09 1.91044612926042e-08 9.3793194546784e-09
"2151" 34081 1.4583220339109e-08 8.47535317005345e-09 3.64644303080456e-08 8.71974746467955e-09 7.52252148698384e-09 8.48540789192966e-09 1.90427228505629e-08 9.3920472085507e-09
"2152" 34082 1.47302837359176e-08 8.44344179727967e-09 3.62844237576847e-08 8.71261003175859e-09 7.59129508890893e-09 8.48706380665005e-09 1.89809844085216e-08 9.404774962423e-09
"2153" 34083 1.48773471327262e-08 8.41153042450589e-09 3.61044172073238e-08 8.70547259883763e-09 7.66006869083401e-09 8.48871972137044e-09 1.89192459664803e-08 9.41750271629529e-09
"2154" 34084 1.50244105295349e-08 8.37961905173211e-09 3.59244106569629e-08 8.69833516591667e-09 7.7288422927591e-09 8.49037563609083e-09 1.8857507524439e-08 9.43023047016759e-09
"2155" 34085 1.51714739263435e-08 8.34770767895833e-09 3.5744404106602e-08 8.69119773299572e-09 7.79761589468419e-09 8.49203155081122e-09 1.87957690823976e-08 9.44295822403989e-09
"2156" 34086 1.53185373231521e-08 8.31579630618455e-09 3.5564397556241e-08 8.68406030007476e-09 7.86638949660928e-09 8.49368746553162e-09 1.87340306403563e-08 9.45568597791218e-09
"2157" 34087 1.54656007199608e-08 8.28388493341078e-09 3.53843910058801e-08 8.6769228671538e-09 7.93516309853436e-09 8.49534338025201e-09 1.8672292198315e-08 9.46841373178448e-09
"2158" 34088 1.56126641167694e-08 8.251973560637e-09 3.52043844555192e-08 8.66978543423284e-09 8.00393670045945e-09 8.4969992949724e-09 1.86105537562737e-08 9.48114148565678e-09
"2159" 34089 1.52749351477165e-08 8.1828918405401e-09 3.52562258390546e-08 8.73885653816825e-09 8.03580084249853e-09 8.50456833421925e-09 1.87143007020841e-08 9.46190447623807e-09
"2160" 34090 1.53401304665915e-08 8.17482030585007e-09 3.52961983540361e-08 8.80342802420804e-09 8.06489381366188e-09 8.48927060035678e-09 1.87255815092771e-08 9.45667711789092e-09
"2161" 34091 1.54053257854665e-08 8.16674877116004e-09 3.53361708690177e-08 8.86799951024783e-09 8.09398678482524e-09 8.47397286649431e-09 1.87368623164702e-08 9.45144975954376e-09
"2162" 34092 1.54705211043415e-08 8.15867723647001e-09 3.53761433839993e-08 8.93257099628762e-09 8.1230797559886e-09 8.45867513263185e-09 1.87481431236632e-08 9.44622240119661e-09
"2163" 34093 1.55357164232165e-08 8.15060570177998e-09 3.54161158989808e-08 8.99714248232741e-09 8.15217272715195e-09 8.44337739876938e-09 1.87594239308562e-08 9.44099504284945e-09
"2164" 34094 1.56009117420915e-08 8.14253416708996e-09 3.54560884139624e-08 9.0617139683672e-09 8.18126569831531e-09 8.42807966490692e-09 1.87707047380493e-08 9.4357676845023e-09
"2165" 34095 1.56661070609665e-08 8.13446263239993e-09 3.54960609289439e-08 9.12628545440699e-09 8.21035866947867e-09 8.41278193104445e-09 1.87819855452423e-08 9.43054032615514e-09
"2166" 34096 1.57313023798415e-08 8.1263910977099e-09 3.55360334439255e-08 9.19085694044678e-09 8.23945164064202e-09 8.39748419718198e-09 1.87932663524354e-08 9.42531296780799e-09
"2167" 34097 1.57366456986755e-08 8.11503192535067e-09 3.55501720030715e-08 9.19349475547213e-09 8.24637812682075e-09 8.37753011509152e-09 1.86798975166162e-08 9.43502910421001e-09
"2168" 34098 1.58101773970798e-08 8.09680235868707e-09 3.55464566562573e-08 9.18793102654282e-09 8.25036757535418e-09 8.41543930940143e-09 1.87957304461081e-08 9.49270193493204e-09
"2169" 34099 1.58837090954842e-08 8.07857279202346e-09 3.5542741309443e-08 9.18236729761351e-09 8.2543570238876e-09 8.45334850371134e-09 1.89115633756e-08 9.55037476565408e-09
"2170" 34100 1.59572407938885e-08 8.06034322535986e-09 3.55390259626287e-08 9.1768035686842e-09 8.25834647242103e-09 8.49125769802125e-09 1.90273963050919e-08 9.60804759637611e-09
"2171" 34101 1.59965020346528e-08 8.04293702202871e-09 3.53685896495752e-08 9.0426048948785e-09 8.22592636699412e-09 8.55178231018078e-09 1.92641072238312e-08 9.67093505293395e-09
"2172" 34102 1.60589192830074e-08 8.03606662772434e-09 3.53606602028295e-08 9.03598789475625e-09 8.2303041829331e-09 8.60756678902576e-09 1.94775843376152e-08 9.73259154233796e-09
"2173" 34103 1.61159915865518e-08 8.01305316403992e-09 3.51490226874483e-08 8.99535655834240e-09 8.22969389129579e-09 8.63676165469217e-09 1.95960071975661e-08 9.77625472198845e-09
"2174" 34104 1.61730638900963e-08 7.99003970035549e-09 3.49373851720671e-08 8.95472522192854e-09 8.22908359965848e-09 8.66595652035858e-09 1.9714430057517e-08 9.81991790163894e-09
"2175" 34105 1.62301361936407e-08 7.96702623667107e-09 3.47257476566859e-08 8.91409388551468e-09 8.22847330802117e-09 8.695151386025e-09 1.98328529174679e-08 9.86358108128942e-09
"2176" 34106 1.62872084971852e-08 7.94401277298664e-09 3.45141101413048e-08 8.87346254910083e-09 8.22786301638385e-09 8.72434625169141e-09 1.99512757774188e-08 9.90724426093991e-09
"2177" 34107 1.63442808007296e-08 7.92099930930221e-09 3.43024726259236e-08 8.83283121268697e-09 8.22725272474654e-09 8.75354111735782e-09 2.00696986373697e-08 9.9509074405904e-09
"2178" 34108 1.64013531042741e-08 7.89798584561779e-09 3.40908351105424e-08 8.79219987627312e-09 8.22664243310923e-09 8.78273598302424e-09 2.01881214973206e-08 9.99457062024088e-09
"2179" 34109 1.64584254078185e-08 7.87497238193336e-09 3.38791975951612e-08 8.75156853985926e-09 8.22603214147192e-09 8.81193084869065e-09 2.03065443572715e-08 1.00382337998914e-08
"2180" 34110 1.6515497711363e-08 7.85195891824894e-09 3.36675600797801e-08 8.71093720344541e-09 8.2254218498346e-09 8.84112571435706e-09 2.04249672172224e-08 1.00818969795419e-08
"2181" 34111 1.65725700149074e-08 7.82894545456451e-09 3.34559225643989e-08 8.67030586703155e-09 8.22481155819729e-09 8.87032058002348e-09 2.05433900771733e-08 1.01255601591923e-08
"2182" 34112 1.66296423184519e-08 7.80593199088008e-09 3.32442850490177e-08 8.62967453061770e-09 8.22420126655998e-09 8.89951544568989e-09 2.06618129371242e-08 1.01692233388428e-08
"2183" 34113 1.66867146219963e-08 7.78291852719566e-09 3.30326475336365e-08 8.58904319420384e-09 8.22359097492267e-09 8.9287103113563e-09 2.07802357970751e-08 1.02128865184933e-08
"2184" 34114 1.67437869255408e-08 7.75990506351123e-09 3.28210100182554e-08 8.54841185778998e-09 8.22298068328535e-09 8.95790517702272e-09 2.08986586570259e-08 1.02565496981438e-08
"2185" 34115 1.68008592290852e-08 7.73689159982681e-09 3.26093725028742e-08 8.50778052137613e-09 8.22237039164804e-09 8.98710004268913e-09 2.10170815169768e-08 1.03002128777943e-08
"2186" 34116 1.67843998342253e-08 7.71566951445996e-09 3.23859167220688e-08 8.47848729705948e-09 8.27357436673809e-09 8.99509592217316e-09 2.09094856448226e-08 1.02822386668078e-08
"2187" 34117 1.67679404393655e-08 7.69444742909312e-09 3.21624609412635e-08 8.44919407274282e-09 8.32477834182813e-09 9.00309180165718e-09 2.08018897726684e-08 1.02642644558213e-08
"2188" 34118 1.69436412501253e-08 7.68884016873985e-09 3.19411013791862e-08 8.42137542809629e-09 8.3450058718061e-09 9.05487438335797e-09 2.06862410602479e-08 1.02689421310058e-08
"2189" 34119 1.71193420608852e-08 7.68323290838657e-09 3.17197418171089e-08 8.39355678344975e-09 8.36523340178407e-09 9.10665696505875e-09 2.05705923478274e-08 1.02736198061904e-08
"2190" 34120 1.72950428716451e-08 7.6776256480333e-09 3.14983822550316e-08 8.36573813880322e-09 8.38546093176203e-09 9.15843954675953e-09 2.04549436354069e-08 1.02782974813749e-08
"2191" 34121 1.74707436824049e-08 7.67201838768003e-09 3.12770226929542e-08 8.33791949415669e-09 8.40568846174e-09 9.21022212846032e-09 2.03392949229864e-08 1.02829751565594e-08
"2192" 34122 1.76464444931648e-08 7.66641112732675e-09 3.10556631308769e-08 8.31010084951015e-09 8.42591599171797e-09 9.2620047101611e-09 2.02236462105659e-08 1.02876528317439e-08
"2193" 34123 1.78221453039247e-08 7.66080386697348e-09 3.08343035687996e-08 8.28228220486362e-09 8.44614352169593e-09 9.31378729186188e-09 2.01079974981455e-08 1.02923305069284e-08
"2194" 34124 1.79978461146845e-08 7.6551966066202e-09 3.06129440067223e-08 8.25446356021709e-09 8.4663710516739e-09 9.36556987356267e-09 1.9992348785725e-08 1.02970081821129e-08
"2195" 34125 1.81735469254444e-08 7.64958934626693e-09 3.0391584444645e-08 8.22664491557055e-09 8.48659858165187e-09 9.41735245526345e-09 1.98767000733045e-08 1.03016858572974e-08
"2196" 34126 1.83492477362043e-08 7.64398208591366e-09 3.01702248825677e-08 8.19882627092402e-09 8.50682611162984e-09 9.46913503696423e-09 1.9761051360884e-08 1.0306363532482e-08
"2197" 34127 1.85249485469641e-08 7.63837482556038e-09 2.99488653204903e-08 8.17100762627748e-09 8.5270536416078e-09 9.52091761866501e-09 1.96454026484635e-08 1.03110412076665e-08
"2198" 34128 1.8700649357724e-08 7.63276756520711e-09 2.9727505758413e-08 8.14318898163095e-09 8.54728117158577e-09 9.5727002003658e-09 1.9529753936043e-08 1.0315718882851e-08
"2199" 34129 1.88763501684839e-08 7.62716030485384e-09 2.95061461963357e-08 8.11537033698442e-09 8.56750870156374e-09 9.62448278206658e-09 1.94141052236225e-08 1.03203965580355e-08
"2200" 34130 1.90520509792437e-08 7.62155304450056e-09 2.92847866342584e-08 8.08755169233788e-09 8.5877362315417e-09 9.67626536376736e-09 1.9298456511202e-08 1.032507423322e-08
"2201" 34131 1.92277517900036e-08 7.61594578414729e-09 2.90634270721811e-08 8.05973304769135e-09 8.60796376151967e-09 9.72804794546815e-09 1.91828077987816e-08 1.03297519084045e-08
"2202" 34132 1.94034526007635e-08 7.61033852379401e-09 2.88420675101038e-08 8.03191440304481e-09 8.62819129149763e-09 9.77983052716893e-09 1.90671590863611e-08 1.03344295835891e-08
"2203" 34133 1.95791534115233e-08 7.60473126344074e-09 2.86207079480264e-08 8.00409575839828e-09 8.6484188214756e-09 9.83161310886971e-09 1.89515103739406e-08 1.03391072587736e-08
"2204" 34134 1.97548542222832e-08 7.59912400308747e-09 2.83993483859491e-08 7.97627711375175e-09 8.66864635145357e-09 9.88339569057050e-09 1.88358616615201e-08 1.03437849339581e-08
"2205" 34135 1.99305550330431e-08 7.59351674273419e-09 2.81779888238718e-08 7.94845846910521e-09 8.68887388143154e-09 9.93517827227128e-09 1.87202129490996e-08 1.03484626091426e-08
"2206" 34136 2.01062558438029e-08 7.58790948238092e-09 2.79566292617945e-08 7.92063982445868e-09 8.7091014114095e-09 9.98696085397206e-09 1.86045642366791e-08 1.03531402843271e-08
"2207" 34137 2.02819566545628e-08 7.58230222202764e-09 2.77352696997172e-08 7.89282117981215e-09 8.72932894138747e-09 1.00387434356728e-08 1.84889155242586e-08 1.03578179595116e-08
"2208" 34138 2.04576574653227e-08 7.57669496167437e-09 2.75139101376399e-08 7.86500253516561e-09 8.74955647136544e-09 1.00905260173736e-08 1.83732668118381e-08 1.03624956346962e-08
"2209" 34139 2.05871935622935e-08 7.62621316086367e-09 2.78541464134766e-08 7.86842720218678e-09 8.78635439273134e-09 1.01411356078625e-08 1.85534730475512e-08 1.04283692437016e-08
"2210" 34140 2.056389513124e-08 7.62641679501492e-09 2.79969559986833e-08 8.03412320126178e-09 8.85047104421506e-09 1.01411356078625e-08 1.85789993239704e-08 1.04221189140973e-08
"2211" 34141 2.05405967001865e-08 7.62662042916616e-09 2.81397655838899e-08 8.19981920033678e-09 8.91458769569878e-09 1.01411356078625e-08 1.86045256003896e-08 1.0415868584493e-08
"2212" 34142 2.0517298269133e-08 7.62682406331741e-09 2.82825751690965e-08 8.36551519941178e-09 8.9787043471825e-09 1.01411356078625e-08 1.86300518768088e-08 1.04096182548887e-08
"2213" 34143 2.03935376393142e-08 7.62102199554036e-09 2.84253341511735e-08 8.52778653146561e-09 9.0442617769599e-09 1.01357410234642e-08 1.8566671594634e-08 1.03737462279839e-08
"2214" 34144 2.02697770094953e-08 7.6152199277633e-09 2.85680931332505e-08 8.69005786351944e-09 9.10981920673731e-09 1.01303464390658e-08 1.85032913124592e-08 1.0337874201079e-08
"2215" 34145 2.01460163796765e-08 7.60941785998625e-09 2.87108521153275e-08 8.85232919557327e-09 9.17537663651471e-09 1.01249518546674e-08 1.84399110302843e-08 1.03020021741742e-08
"2216" 34146 2.00222557498576e-08 7.6036157922092e-09 2.88536110974045e-08 9.0146005276271e-09 9.24093406629212e-09 1.01195572702691e-08 1.83765307481095e-08 1.02661301472694e-08
"2217" 34147 1.98984951200388e-08 7.59781372443215e-09 2.89963700794815e-08 9.17687185968093e-09 9.30649149606952e-09 1.01141626858707e-08 1.83131504659347e-08 1.02302581203646e-08
"2218" 34148 1.977473449022e-08 7.5920116566551e-09 2.91391290615585e-08 9.33914319173476e-09 9.37204892584692e-09 1.01087681014724e-08 1.82497701837599e-08 1.01943860934597e-08
"2219" 34149 1.96509738604011e-08 7.58620958887805e-09 2.92818880436356e-08 9.5014145237886e-09 9.43760635562433e-09 1.0103373517074e-08 1.81863899015851e-08 1.01585140665549e-08
"2220" 34150 1.95272132305823e-08 7.580407521101e-09 2.94246470257126e-08 9.66368585584243e-09 9.50316378540173e-09 1.00979789326757e-08 1.81230096194102e-08 1.01226420396501e-08
"2221" 34151 1.94034526007635e-08 7.57460545332395e-09 2.95674060077896e-08 9.82595718789626e-09 9.56872121517913e-09 1.00925843482773e-08 1.80596293372354e-08 1.00867700127452e-08
"2222" 34152 1.92796919709446e-08 7.5688033855469e-09 2.97101649898666e-08 9.98822851995009e-09 9.63427864495654e-09 1.0087189763879e-08 1.79962490550606e-08 1.00508979858404e-08
"2223" 34153 1.91792297721793e-08 7.57839184411036e-09 2.97222868740684e-08 9.98822851995009e-09 9.63350306295388e-09 1.00771388312526e-08 1.79076507350811e-08 1.00571292166777e-08
"2224" 34154 1.90787675734139e-08 7.58798030267382e-09 2.97344087582701e-08 9.98822851995009e-09 9.63272748095121e-09 1.00670878986263e-08 1.78190524151015e-08 1.00633604475149e-08
"2225" 34155 1.89783053746486e-08 7.59756876123728e-09 2.97465306424719e-08 9.98822851995009e-09 9.63195189894855e-09 1.00570369659999e-08 1.7730454095122e-08 1.00695916783522e-08
"2226" 34156 1.88778431758833e-08 7.60715721980075e-09 2.97586525266737e-08 9.98822851995009e-09 9.63117631694588e-09 1.00469860333736e-08 1.76418557751424e-08 1.00758229091894e-08
"2227" 34157 1.8200673988251e-08 7.5732331811032e-09 2.97225255054197e-08 9.98031507487405e-09 9.60490942131195e-09 9.99668783881788e-09 1.7622494271013e-08 1.0105684433665e-08
"2228" 34158 1.81675429183166e-08 7.55915594448488e-09 2.96346654130075e-08 9.97712274177297e-09 9.60025420008328e-09 9.99004439292542e-09 1.76203815344324e-08 1.01437849339581e-08
"2229" 34159 1.81726728729519e-08 7.55496228539598e-09 2.95905727261749e-08 9.97498367986484e-09 9.52355602934082e-09 9.99295708394427e-09 1.76206897730469e-08 1.01657173386038e-08
"2230" 34160 1.82276775973158e-08 7.5648458629254e-09 2.95432128425157e-08 9.97762149489018e-09 9.46375940712123e-09 9.99960448723891e-09 1.77025472950404e-08 1.01814185124123e-08
"2231" 34161 1.83623436489219e-08 7.56138408235423e-09 2.9492831499499e-08 9.97312187699457e-09 9.39171645760744e-09 1.0045749044086e-08 1.77090760192849e-08 1.0163501597727e-08
"2232" 34162 1.84970097005279e-08 7.55792230178306e-09 2.94424501564823e-08 9.96862225909896e-09 9.31967350809365e-09 1.00918936009331e-08 1.77156047435294e-08 1.01455846830416e-08
"2233" 34163 1.8631675752134e-08 7.55446052121189e-09 2.93920688134656e-08 9.96412264120334e-09 9.24763055857987e-09 1.01380381577802e-08 1.77221334677739e-08 1.01276677683562e-08
"2234" 34164 1.87663418037401e-08 7.55099874064073e-09 2.93416874704489e-08 9.95962302330773e-09 9.17558760906608e-09 1.01841827146273e-08 1.77286621920185e-08 1.01097508536708e-08
"2235" 34165 1.89010078553462e-08 7.54753696006956e-09 2.92913061274322e-08 9.95512340541212e-09 9.1035446595523e-09 1.02303272714744e-08 1.7735190916263e-08 1.00918339389855e-08
"2236" 34166 1.90356739069522e-08 7.54407517949839e-09 2.92409247844155e-08 9.9506237875165e-09 9.03150171003851e-09 1.02764718283215e-08 1.77417196405075e-08 1.00739170243001e-08
"2237" 34167 1.91703399585583e-08 7.54061339892722e-09 2.91905434413988e-08 9.94612416962089e-09 8.95945876052473e-09 1.03226163851686e-08 1.7748248364752e-08 1.00560001096147e-08
"2238" 34168 1.93050060101644e-08 7.53715161835605e-09 2.91401620983821e-08 9.94162455172527e-09 8.88741581101094e-09 1.03687609420157e-08 1.77547770889965e-08 1.00380831949293e-08
"2239" 34169 1.94396720617705e-08 7.53368983778488e-09 2.90897807553654e-08 9.93712493382966e-09 8.81537286149715e-09 1.04149054988627e-08 1.7761305813241e-08 1.00201662802439e-08
"2240" 34170 1.95743381133765e-08 7.53022805721372e-09 2.90393994123487e-08 9.93262531593405e-09 8.74332991198337e-09 1.04610500557098e-08 1.77678345374856e-08 1.00022493655586e-08
"2241" 34171 1.97090041649826e-08 7.52676627664255e-09 2.8989018069332e-08 9.92812569803843e-09 8.67128696246958e-09 1.05071946125569e-08 1.77743632617301e-08 9.98433245087319e-09
"2242" 34172 1.98436702165887e-08 7.52330449607138e-09 2.89386367263153e-08 9.92362608014282e-09 8.5992440129558e-09 1.0553339169404e-08 1.77808919859746e-08 9.96641553618781e-09
"2243" 34173 1.99783362681947e-08 7.51984271550021e-09 2.88882553832986e-08 9.91912646224721e-09 8.52720106344201e-09 1.05994837262511e-08 1.77874207102191e-08 9.94849862150244e-09
"2244" 34174 1.99695726182758e-08 7.5002585300708e-09 2.89042660861788e-08 9.94475184578185e-09 8.47289187832016e-09 1.06502648443153e-08 1.78371225844878e-08 9.92857396183687e-09
"2245" 34175 2.02474474193196e-08 7.48427776579836e-09 2.90042697252682e-08 9.93983091940906e-09 8.40278788381303e-09 1.0660910187352e-08 1.7838237814834e-08 9.93854265792533e-09
