"time" "channel1" "channel2" "channel3" "channel4" "channel5" "channel6" "channel7" "channel8"
"1379" 25413 3.61834339756452e-10 1.52657746733696e-09 9.27755209270861e-09 4.09708984888334e-09 1.04113985510145e-09 7.60699862206928e-09 7.99436997903122e-10 6.42824544627509e-10
"1380" 25414 3.60650653948897e-10 1.51546749061089e-09 9.47178371022807e-09 4.093379720289e-09 1.03796966800411e-09 7.4314925463266e-09 8.06044294323643e-10 6.4075009284198e-10
"1381" 25415 3.59466968141343e-10 1.50435751388482e-09 9.66601532774754e-09 4.08966959169467e-09 1.03479948090677e-09 7.25598647058392e-09 8.12651590744164e-10 6.38675641056452e-10
"1382" 25416 3.61900948125163e-10 1.50435751388482e-09 9.67957542805109e-09 4.07489011688674e-09 1.04712489250794e-09 7.14103162303054e-09 8.14672250298335e-10 6.45918619864456e-10
"1383" 25417 3.64334928108982e-10 1.50435751388482e-09 9.69313552835464e-09 4.06011064207882e-09 1.0594503041091e-09 7.02607677547717e-09 8.16692909852506e-10 6.53161598672459e-10
"1384" 25418 3.66768908092802e-10 1.50435751388482e-09 9.7066956286582e-09 4.0453311672709e-09 1.07177571571026e-09 6.91112192792379e-09 8.18713569406678e-10 6.60404577480462e-10
"1385" 25419 3.69202888076622e-10 1.50435751388482e-09 9.72025572896175e-09 4.03055169246298e-09 1.08410112731142e-09 6.79616708037041e-09 8.20734228960849e-10 6.67647556288466e-10
"1386" 25420 3.71636868060442e-10 1.50435751388482e-09 9.7338158292653e-09 4.01577221765506e-09 1.09642653891258e-09 6.68121223281703e-09 8.2275488851502e-10 6.74890535096469e-10
"1387" 25421 3.74070848044262e-10 1.50435751388482e-09 9.74737592956886e-09 4.00099274284713e-09 1.10875195051374e-09 6.56625738526365e-09 8.24775548069191e-10 6.82133513904473e-10
"1388" 25422 3.77532227063603e-10 1.51642020948087e-09 9.75392276403477e-09 3.97729675149892e-09 1.12291183222218e-09 6.61672849432804e-09 8.26621407555846e-10 6.87234336571145e-10
"1389" 25423 3.80993606082945e-10 1.52848290507692e-09 9.76046959850068e-09 3.9536007601507e-09 1.13707171393061e-09 6.66719960339243e-09 8.284672670425e-10 6.92335159237816e-10
"1390" 25424 3.84454985102286e-10 1.54054560067297e-09 9.76701643296659e-09 3.92990476880248e-09 1.15123159563905e-09 6.71767071245682e-09 8.30313126529155e-10 6.97435981904488e-10
"1391" 25425 3.87916364121627e-10 1.55260829626903e-09 9.7735632674325e-09 3.90620877745426e-09 1.16539147734748e-09 6.76814182152121e-09 8.32158986015809e-10 7.0253680457116e-10
"1392" 25426 3.91377743140969e-10 1.56467099186508e-09 9.78011010189841e-09 3.88251278610604e-09 1.17955135905592e-09 6.8186129305856e-09 8.34004845502464e-10 7.07637627237832e-10
"1393" 25427 3.93745114756078e-10 1.5649427621059e-09 9.77702461683057e-09 3.85788032809284e-09 1.18138582916319e-09 6.78936758632149e-09 8.37521764408256e-10 7.04305234050784e-10
"1394" 25428 3.96112486371187e-10 1.56521453234672e-09 9.77393913176273e-09 3.83324787007963e-09 1.18322029927046e-09 6.76012224205738e-09 8.41038683314048e-10 7.00972840863736e-10
"1395" 25429 3.98293678413156e-10 1.56444400898869e-09 9.77393913176273e-09 3.82686085719097e-09 1.1863904863678e-09 6.75709820631991e-09 8.43583743070769e-10 6.99442729334213e-10
"1396" 25430 4.00474870455124e-10 1.56367348563067e-09 9.77393913176273e-09 3.82047384430231e-09 1.18956067346514e-09 6.75407417058244e-09 8.46128802827491e-10 6.97912617804691e-10
"1397" 25431 4.02656062497093e-10 1.56290296227264e-09 9.77393913176273e-09 3.81408683141365e-09 1.19273086056248e-09 6.75105013484496e-09 8.48673862584212e-10 6.96382506275168e-10
"1398" 25432 4.04837254539062e-10 1.56213243891461e-09 9.77393913176273e-09 3.80769981852499e-09 1.19590104765982e-09 6.74802609910749e-09 8.51218922340934e-10 6.94852394745646e-10
"1399" 25433 4.0701844658103e-10 1.56136191555658e-09 9.77393913176273e-09 3.80131280563633e-09 1.19907123475716e-09 6.74500206337002e-09 8.53763982097655e-10 6.93322283216123e-10
"1400" 25434 4.09199638622999e-10 1.56059139219856e-09 9.77393913176273e-09 3.79492579274767e-09 1.2022414218545e-09 6.74197802763254e-09 8.56309041854377e-10 6.91792171686601e-10
"1401" 25435 4.09199638622999e-10 1.56186066867379e-09 9.76892007861955e-09 3.7887576366329e-09 1.2018860850663e-09 6.74417514110863e-09 8.5718304219196e-10 6.89570576228569e-10
"1402" 25436 4.09013459049858e-10 1.56299558305572e-09 9.76517903035331e-09 3.78265052008756e-09 1.20268879687408e-09 6.78237703012631e-09 8.56360336025063e-10 6.87156249959234e-10
"1403" 25437 4.08827279476718e-10 1.56413049743766e-09 9.76143798208708e-09 3.77654340354222e-09 1.20349150868185e-09 6.82057891914399e-09 8.55537629858166e-10 6.847419236899e-10
"1404" 25438 4.08641099903577e-10 1.56526541181959e-09 9.75769693382084e-09 3.77043628699688e-09 1.20429422048963e-09 6.85878080816167e-09 8.54714923691269e-10 6.82327597420565e-10
"1405" 25439 4.08454920330436e-10 1.56640032620152e-09 9.75395588555461e-09 3.76432917045153e-09 1.2050969322974e-09 6.89698269717935e-09 8.53892217524372e-10 6.79913271151231e-10
"1406" 25440 4.08268740757295e-10 1.56753524058345e-09 9.75021483728837e-09 3.75822205390619e-09 1.20589964410518e-09 6.93518458619703e-09 8.53069511357474e-10 6.77498944881896e-10
"1407" 25441 4.08082561184155e-10 1.56867015496539e-09 9.74647378902214e-09 3.75211493736085e-09 1.20670235591295e-09 6.97338647521472e-09 8.52246805190577e-10 6.75084618612562e-10
"1408" 25442 4.07896381611014e-10 1.56980506934732e-09 9.7427327407559e-09 3.74600782081551e-09 1.20750506772073e-09 7.0115883642324e-09 8.5142409902368e-10 6.72670292343227e-10
"1409" 25443 4.07710202037873e-10 1.57093998372925e-09 9.73899169248967e-09 3.73990070427017e-09 1.2083077795285e-09 7.04979025325008e-09 8.50601392856783e-10 6.70255966073893e-10
"1410" 25444 4.07524022464733e-10 1.57207489811118e-09 9.73525064422343e-09 3.73379358772482e-09 1.20911049133628e-09 7.08799214226776e-09 8.49778686689886e-10 6.67841639804558e-10
"1411" 25445 4.07337842891592e-10 1.57320981249312e-09 9.7315095959572e-09 3.72768647117948e-09 1.20991320314405e-09 7.12619403128544e-09 8.48955980522988e-10 6.65427313535224e-10
"1412" 25446 4.07337842891592e-10 1.57307545039981e-09 9.68540525492512e-09 3.67866128505051e-09 1.20825640143088e-09 7.16816283287737e-09 8.42672637152158e-10 6.65234582723921e-10
"1413" 25447 4.07337842891592e-10 1.57294108830651e-09 9.63930091389303e-09 3.62963609892154e-09 1.2065995997177e-09 7.21013163446929e-09 8.36389293781327e-10 6.65041851912619e-10
"1414" 25448 4.07337842891592e-10 1.57280672621321e-09 9.59319657286095e-09 3.58061091279257e-09 1.20494279800452e-09 7.25210043606122e-09 8.30105950410496e-10 6.64849121101316e-10
"1415" 25449 4.07337842891592e-10 1.57267236411991e-09 9.54709223182887e-09 3.5315857266636e-09 1.20328599629135e-09 7.29406923765314e-09 8.23822607039665e-10 6.64656390290014e-10
"1416" 25450 4.07337842891592e-10 1.57140308764468e-09 9.53418689494934e-09 3.48256054053463e-09 1.19981185050344e-09 7.29608526147813e-09 8.19683429119836e-10 6.64463659478711e-10
"1417" 25451 4.07151663318451e-10 1.57221839836714e-09 9.54980425188958e-09 3.47897249107915e-09 1.19981185050344e-09 7.27346028155271e-09 8.20130888066356e-10 6.635794447389e-10
"1418" 25452 4.06965483745311e-10 1.58110333369378e-09 9.56616853884408e-09 3.49502936846481e-09 1.21124892013412e-09 7.24857515408275e-09 8.18110228512185e-10 6.635794447389e-10
"1419" 25453 4.0677930417217e-10 1.58998826902042e-09 9.58253282579858e-09 3.51108624585046e-09 1.22268598976479e-09 7.22369002661278e-09 8.16089568958014e-10 6.635794447389e-10
"1420" 25454 4.06593124599029e-10 1.59887320434706e-09 9.59889711275308e-09 3.52714312323611e-09 1.23412305939547e-09 7.19880489914282e-09 8.14068909403843e-10 6.635794447389e-10
"1421" 25455 4.06406945025889e-10 1.6077581396737e-09 9.61526139970758e-09 3.54320000062177e-09 1.24556012902615e-09 7.17391977167286e-09 8.12048249849672e-10 6.635794447389e-10
"1422" 25456 4.06220765452748e-10 1.61664307500034e-09 9.63162568666208e-09 3.55925687800742e-09 1.25699719865682e-09 7.14903464420289e-09 8.100275902955e-10 6.635794447389e-10
"1423" 25457 4.06034585879607e-10 1.62552801032698e-09 9.64798997361658e-09 3.57531375539308e-09 1.2684342682875e-09 7.12414951673293e-09 8.08006930741329e-10 6.635794447389e-10
"1424" 25458 4.05848406306467e-10 1.63441294565362e-09 9.66435426057108e-09 3.59137063277873e-09 1.27987133791818e-09 7.09926438926296e-09 8.05986271187158e-10 6.635794447389e-10
"1425" 25459 4.05662226733326e-10 1.64329788098026e-09 9.68071854752558e-09 3.60742751016438e-09 1.29130840754885e-09 7.074379261793e-09 8.03965611632987e-10 6.635794447389e-10
"1426" 25460 4.05476047160185e-10 1.6521828163069e-09 9.69708283448008e-09 3.62348438755004e-09 1.30274547717953e-09 7.04949413432304e-09 8.01944952078816e-10 6.635794447389e-10
"1427" 25461 4.05289867587045e-10 1.66106775163355e-09 9.71344712143458e-09 3.63954126493569e-09 1.31418254681021e-09 7.02460900685307e-09 7.99924292524644e-10 6.635794447389e-10
"1428" 25462 4.05103688013904e-10 1.66995268696019e-09 9.72981140838908e-09 3.65559814232135e-09 1.32561961644088e-09 6.99972387938311e-09 7.97903632970473e-10 6.635794447389e-10
"1429" 25463 4.04917508440763e-10 1.67883762228683e-09 9.74617569534358e-09 3.671655019707e-09 1.33705668607156e-09 6.97483875191315e-09 7.95882973416302e-10 6.635794447389e-10
"1430" 25464 4.04731328867623e-10 1.68772255761347e-09 9.76253998229808e-09 3.68771189709266e-09 1.34849375570224e-09 6.94995362444318e-09 7.93862313862131e-10 6.635794447389e-10
"1431" 25465 4.04545149294482e-10 1.69660749294011e-09 9.77890426925258e-09 3.70376877447831e-09 1.35993082533291e-09 6.92506849697322e-09 7.91841654307959e-10 6.635794447389e-10
"1432" 25466 4.04358969721341e-10 1.70549242826675e-09 9.79526855620708e-09 3.71982565186396e-09 1.37136789496359e-09 6.90018336950325e-09 7.89820994753788e-10 6.635794447389e-10
"1433" 25467 4.03703929832101e-10 1.70254165087373e-09 9.34738985650394e-09 3.69129994654814e-09 1.37012421620491e-09 6.85810701800677e-09 7.83959463244135e-10 6.62389207693183e-10
"1434" 25468 4.03048889942861e-10 1.6995908734807e-09 8.8995111568008e-09 3.66277424123231e-09 1.36888053744623e-09 6.81603066651028e-09 7.78097931734481e-10 6.61198970647467e-10
"1435" 25469 4.0202149090734e-10 1.69632658453664e-09 8.92940482186211e-09 3.68176259775177e-09 1.38013993868281e-09 6.81502265459779e-09 7.75629813233789e-10 6.62083185387278e-10
"1436" 25470 4.00994091871818e-10 1.69306229559258e-09 8.95929848692342e-09 3.70075095427124e-09 1.39139933991939e-09 6.81401464268530e-09 7.73161694733098e-10 6.6296740012709e-10
"1437" 25471 3.99966692836297e-10 1.68979800664851e-09 8.98919215198473e-09 3.71973931079071e-09 1.40265874115597e-09 6.8130066307728e-09 7.70693576232406e-10 6.63851614866902e-10
"1438" 25472 3.98939293800775e-10 1.68653371770445e-09 9.01908581704604e-09 3.73872766731017e-09 1.41391814239255e-09 6.81199861886031e-09 7.68225457731715e-10 6.64735829606714e-10
"1439" 25473 3.99720727660941e-10 1.67633471853814e-09 9.01908581704604e-09 3.7438730156867e-09 1.41792529336275e-09 6.81495962052932e-09 7.67777998785194e-10 6.65620044346526e-10
"1440" 25474 3.98537041853386e-10 1.66418549426744e-09 9.01363105472787e-09 3.74399509482556e-09 1.42193244433294e-09 6.8141957323364e-09 7.65633833334193e-10 6.65620044346526e-10
"1441" 25475 3.97353356045832e-10 1.65203626999674e-09 9.0081762924097e-09 3.74411717396442e-09 1.42593959530314e-09 6.81343184414347e-09 7.63489667883191e-10 6.65620044346526e-10
"1442" 25476 3.96169670238277e-10 1.63988704572603e-09 9.00272153009154e-09 3.74423925310328e-09 1.42994674627334e-09 6.81266795595054e-09 7.6134550243219e-10 6.65620044346526e-10
"1443" 25477 3.94985984430722e-10 1.62773782145533e-09 8.99726676777337e-09 3.74436133224214e-09 1.43395389724354e-09 6.81190406775762e-09 7.59201336981189e-10 6.65620044346526e-10
"1444" 25478 3.93802298623168e-10 1.61558859718463e-09 8.9918120054552e-09 3.74448341138099e-09 1.43796104821374e-09 6.81114017956469e-09 7.57057171530187e-10 6.65620044346526e-10
"1445" 25479 3.92618612815613e-10 1.60343937291392e-09 8.98635724313704e-09 3.74460549051985e-09 1.44196819918393e-09 6.81037629137177e-09 7.54913006079186e-10 6.65620044346526e-10
"1446" 25480 3.91434927008058e-10 1.59129014864322e-09 8.98090248081887e-09 3.74472756965871e-09 1.44597535015413e-09 6.80961240317884e-09 7.52768840628184e-10 6.65620044346526e-10
"1447" 25481 3.91434927008058e-10 1.58743753185308e-09 8.94630098345366e-09 3.74363328578927e-09 1.44998250112433e-09 6.80091048782291e-09 7.52917993610358e-10 6.61403436419666e-10
"1448" 25482 3.91434927008058e-10 1.58358491506294e-09 8.91169948608844e-09 3.74253900191982e-09 1.45398965209453e-09 6.79220857246698e-09 7.53067146592531e-10 6.57186828492806e-10
"1449" 25483 3.91434927008058e-10 1.57973229827281e-09 8.87709798872323e-09 3.74144471805038e-09 1.45799680306473e-09 6.78350665711105e-09 7.53216299574705e-10 6.52970220565946e-10
"1450" 25484 3.91434927008058e-10 1.57587968148267e-09 8.84249649135802e-09 3.74035043418093e-09 1.46200395403492e-09 6.77480474175512e-09 7.53365452556878e-10 6.48753612639086e-10
"1451" 25485 3.91434927008058e-10 1.57202706469253e-09 8.80789499399281e-09 3.73925615031149e-09 1.46601110500512e-09 6.76610282639919e-09 7.53514605539052e-10 6.44537004712226e-10
"1452" 25486 3.91591213780092e-10 1.57202706469253e-09 8.81409828587397e-09 3.73816186644204e-09 1.47001825597532e-09 6.75740091104326e-09 7.54486464688122e-10 6.41204611525179e-10
"1453" 25487 3.91747500552125e-10 1.57202706469253e-09 8.82030157775513e-09 3.7370675825726e-09 1.47402540694552e-09 6.74869899568733e-09 7.55458323837193e-10 6.37872218338131e-10
"1454" 25488 3.91747500552125e-10 1.57587968148267e-09 8.85970387378884e-09 3.68247419946137e-09 1.47585987705279e-09 6.74869899568733e-09 7.55458323837193e-10 6.3856370226664e-10
"1455" 25489 3.91747500552125e-10 1.57973229827281e-09 8.89910616982256e-09 3.62788081635015e-09 1.47769434716006e-09 6.74869899568733e-09 7.55458323837193e-10 6.39255186195149e-10
"1456" 25490 3.91747500552125e-10 1.58358491506294e-09 8.93850846585627e-09 3.57328743323893e-09 1.47952881726734e-09 6.74869899568733e-09 7.55458323837193e-10 6.39946670123659e-10
"1457" 25491 3.91747500552125e-10 1.58743753185308e-09 8.97791076188999e-09 3.5186940501277e-09 1.48136328737461e-09 6.74869899568733e-09 7.55458323837193e-10 6.40638154052168e-10
"1458" 25492 3.91747500552125e-10 1.59129014864322e-09 9.01731305792371e-09 3.46410066701648e-09 1.48319775748188e-09 6.74869899568733e-09 7.55458323837193e-10 6.41329637980678e-10
"1459" 25493 3.91747500552125e-10 1.59514276543336e-09 9.05671535395742e-09 3.40950728390525e-09 1.48503222758916e-09 6.74869899568733e-09 7.55458323837193e-10 6.42021121909187e-10
"1460" 25494 3.91747500552125e-10 1.59899538222349e-09 9.09611764999114e-09 3.35491390079403e-09 1.48686669769643e-09 6.74869899568733e-09 7.55458323837193e-10 6.42712605837697e-10
"1461" 25495 3.92774899587646e-10 1.6111446064942e-09 9.11369929720346e-09 3.30534378692048e-09 1.48517564391817e-09 6.94411317340599e-09 7.56779783121297e-10 6.4363067275541e-10
"1462" 25496 3.93802298623168e-10 1.6232938307649e-09 9.13128094441578e-09 3.25577367304693e-09 1.48348459013991e-09 7.13952735112464e-09 7.58101242405401e-10 6.44548739673124e-10
"1463" 25497 3.94829697658689e-10 1.6354430550356e-09 9.1488625916281e-09 3.20620355917337e-09 1.48179353636165e-09 7.33494152884329e-09 7.59422701689506e-10 6.45466806590837e-10
"1464" 25498 3.95857096694211e-10 1.64759227930631e-09 9.16644423884042e-09 3.15663344529982e-09 1.48010248258339e-09 7.53035570656194e-09 7.6074416097361e-10 6.46384873508551e-10
"1465" 25499 3.96884495729732e-10 1.65974150357701e-09 9.18402588605274e-09 3.10706333142627e-09 1.47841142880513e-09 7.72576988428059e-09 7.62065620257714e-10 6.47302940426264e-10
"1466" 25500 3.97911894765254e-10 1.67189072784771e-09 9.20160753326506e-09 3.05749321755272e-09 1.47672037502687e-09 7.92118406199924e-09 7.63387079541818e-10 6.48221007343978e-10
"1467" 25501 3.98939293800775e-10 1.68403995211842e-09 9.21918918047738e-09 3.00792310367916e-09 1.47502932124861e-09 8.1165982397179e-09 7.64708538825922e-10 6.49139074261691e-10
"1468" 25502 3.99966692836297e-10 1.69618917638912e-09 9.2367708276897e-09 2.95835298980561e-09 1.47333826747035e-09 8.31201241743655e-09 7.66029998110027e-10 6.50057141179405e-10
"1469" 25503 3.97532712852477e-10 1.70856538353621e-09 9.25453920740559e-09 2.95200171498255e-09 1.47298293068215e-09 8.50668371831843e-09 7.68174163561028e-10 6.51167938908421e-10
"1470" 25504 3.95098732868657e-10 1.7209415906833e-09 9.27230758712147e-09 2.94565044015949e-09 1.47262759389396e-09 8.70135501920031e-09 7.70318329012029e-10 6.52278736637437e-10
"1471" 25505 3.95471092014938e-10 1.73304602758957e-09 9.292226989613e-09 2.95145235885769e-09 1.4709365401157e-09 8.88806728156303e-09 7.66924916003067e-10 6.53083512060548e-10
"1472" 25506 3.9584345116122e-10 1.74515046449584e-09 9.31214639210454e-09 2.95725427755589e-09 1.46924548633744e-09 9.07477954392575e-09 7.63531502994105e-10 6.5388828748366e-10
"1473" 25507 3.96215810307501e-10 1.75725490140211e-09 9.33206579459607e-09 2.96305619625408e-09 1.46755443255918e-09 9.26149180628847e-09 7.60138089985144e-10 6.54693062906771e-10
"1474" 25508 3.96588169453782e-10 1.76935933830838e-09 9.35198519708761e-09 2.96885811495228e-09 1.46586337878092e-09 9.44820406865119e-09 7.56744676976181e-10 6.55497838329883e-10
"1475" 25509 3.97741962460229e-10 1.78115026366361e-09 9.35226569573014e-09 3.01111961421424e-09 1.46914273014219e-09 9.43950215329527e-09 7.54574864439837e-10 6.55497838329883e-10
"1476" 25510 3.98895755466676e-10 1.79294118901884e-09 9.35254619437267e-09 3.0533811134762e-09 1.47242208150346e-09 9.43080023793934e-09 7.52405051903492e-10 6.55497838329883e-10
"1477" 25511 3.99268114612958e-10 1.79289640165441e-09 9.42514509523585e-09 3.06510703001145e-09 1.53517293604015e-09 9.43411042010868e-09 7.4856417994801e-10 6.56302613752994e-10
"1478" 25512 3.99640473759239e-10 1.79285161428997e-09 9.49774399609903e-09 3.0768329465467e-09 1.59792379057684e-09 9.43742060227803e-09 7.44723307992527e-10 6.57107389176106e-10
"1479" 25513 4.00012832905521e-10 1.79280682692554e-09 9.5703428969622e-09 3.08855886308195e-09 1.66067464511353e-09 9.44073078444738e-09 7.40882436037045e-10 6.57912164599217e-10
"1480" 25514 4.00385192051802e-10 1.7927620395611e-09 9.64294179782538e-09 3.10028477961721e-09 1.72342549965023e-09 9.44404096661672e-09 7.37041564081563e-10 6.58716940022329e-10
"1481" 25515 4.00757551198083e-10 1.79271725219667e-09 9.71554069868856e-09 3.11201069615246e-09 1.78617635418692e-09 9.44735114878607e-09 7.3320069212608e-10 6.5952171544544e-10
"1482" 25516 4.01129910344365e-10 1.79267246483224e-09 9.78813959955174e-09 3.12373661268771e-09 1.84892720872361e-09 9.45066133095541e-09 7.29359820170598e-10 6.60326490868552e-10
"1483" 25517 4.01502269490646e-10 1.7926276774678e-09 9.86073850041492e-09 3.13546252922296e-09 1.91167806326031e-09 9.45397151312476e-09 7.25518948215115e-10 6.61131266291663e-10
"1484" 25518 4.01874628636927e-10 1.79258289010337e-09 9.9333374012781e-09 3.14718844575821e-09 1.974428917797e-09 9.45728169529411e-09 7.21678076259633e-10 6.61936041714775e-10
"1485" 25519 4.02246987783209e-10 1.79253810273894e-09 1.00059363021413e-08 3.15891436229346e-09 2.03717977233369e-09 9.46059187746345e-09 7.17837204304151e-10 6.62740817137886e-10
"1486" 25520 4.0261934692949e-10 1.7924933153745e-09 1.00785352030045e-08 3.17064027882871e-09 2.09993062687038e-09 9.4639020596328e-09 7.13996332348668e-10 6.63545592560998e-10
"1487" 25521 4.02991706075771e-10 1.79244852801007e-09 1.01511341038676e-08 3.18236619536396e-09 2.16268148140708e-09 9.46721224180215e-09 7.10155460393186e-10 6.64350367984109e-10
"1488" 25522 4.03364065222053e-10 1.79240374064563e-09 1.02237330047308e-08 3.19409211189921e-09 2.22543233594377e-09 9.47052242397149e-09 7.06314588437703e-10 6.65155143407221e-10
"1489" 25523 4.03736424368334e-10 1.7923589532812e-09 1.0296331905594e-08 3.20581802843447e-09 2.28818319048046e-09 9.47383260614084e-09 7.02473716482221e-10 6.65959918830332e-10
"1490" 25524 4.04108783514615e-10 1.79231416591677e-09 1.03689308064572e-08 3.21754394496972e-09 2.35093404501716e-09 9.47714278831019e-09 6.98632844526739e-10 6.66764694253444e-10
"1491" 25525 4.04950002976996e-10 1.77640189958479e-09 1.04327388837142e-08 3.18700836224301e-09 2.41619579117243e-09 9.42564265597715e-09 7.0065350408091e-10 6.66764694253444e-10
"1492" 25526 4.05791222439377e-10 1.76048963325282e-09 1.04965469609712e-08 3.1564727795163e-09 2.4814575373277e-09 9.37414252364411e-09 7.02674163635081e-10 6.66764694253444e-10
"1493" 25527 4.04451249859789e-10 1.75663701646268e-09 1.05571442650503e-08 3.16436648831835e-09 2.54474139704668e-09 9.25435773008982e-09 6.95269808133006e-10 6.65461165713125e-10
"1494" 25528 4.03111277280201e-10 1.75278439967255e-09 1.06177415691294e-08 3.17226019712041e-09 2.60802525676566e-09 9.13457293653553e-09 6.87865452630931e-10 6.64157637172807e-10
"1495" 25529 4.01771304700614e-10 1.74893178288241e-09 1.06783388732085e-08 3.18015390592246e-09 2.67130911648465e-09 9.01478814298124e-09 6.80461097128856e-10 6.62854108632488e-10
"1496" 25530 4.00431332121026e-10 1.74507916609227e-09 1.07389361772876e-08 3.18804761472452e-09 2.73459297620363e-09 8.89500334942694e-09 6.73056741626782e-10 6.6155058009217e-10
"1497" 25531 3.99091359541438e-10 1.7530622620218e-09 1.1147412580957e-08 3.19272994804944e-09 2.73840533274719e-09 8.7639703465403e-09 6.64480079822776e-10 6.59136253822835e-10
"1498" 25532 3.9775138696185e-10 1.76104535795133e-09 1.15558889846265e-08 3.19741228137436e-09 2.74221768929075e-09 8.63293734365366e-09 6.5590341801877e-10 6.56721927553501e-10
"1499" 25533 3.95227728574708e-10 1.75791847715479e-09 1.15477529244443e-08 3.22381045852073e-09 2.74603004583431e-09 8.50984236793002e-09 6.48499062516695e-10 6.54500332095469e-10
"1500" 25534 3.92704070187565e-10 1.75479159635824e-09 1.15396168642622e-08 3.2502086356671e-09 2.74984240237787e-09 8.38674739220638e-09 6.41094707014621e-10 6.52278736637437e-10
"1501" 25535 3.90180411800423e-10 1.7516647155617e-09 1.15314808040801e-08 3.27660681281347e-09 2.75365475892143e-09 8.26365241648274e-09 6.33690351512546e-10 6.50057141179405e-10
"1502" 25536 3.8765675341328e-10 1.74853783476515e-09 1.15233447438979e-08 3.30300498995984e-09 2.75746711546499e-09 8.1405574407591e-09 6.26285996010471e-10 6.47835545721373e-10
"1503" 25537 3.85133095026138e-10 1.74541095396861e-09 1.15152086837158e-08 3.32940316710621e-09 2.76127947200854e-09 8.01746246503546e-09 6.18881640508396e-10 6.45613950263341e-10
"1504" 25538 3.84321768364865e-10 1.73430097724254e-09 1.15129954167723e-08 3.33998862514464e-09 2.76690917262683e-09 8.02414835656641e-09 6.20053946810327e-10 6.45613950263341e-10
"1505" 25539 3.83510441703591e-10 1.72319100051647e-09 1.15107821498288e-08 3.35057408318307e-09 2.77253887324512e-09 8.03083424809736e-09 6.21226253112257e-10 6.45613950263341e-10
"1506" 25540 3.82699115042318e-10 1.71208102379039e-09 1.15085688828853e-08 3.3611595412215e-09 2.77816857386341e-09 8.0375201396283e-09 6.22398559414188e-10 6.45613950263341e-10
"1507" 25541 3.81887788381045e-10 1.70097104706432e-09 1.15063556159418e-08 3.37174499925993e-09 2.7837982744817e-09 8.04420603115925e-09 6.23570865716119e-10 6.45613950263341e-10
"1508" 25542 3.81076461719772e-10 1.68986107033825e-09 1.15041423489983e-08 3.38233045729836e-09 2.78942797509999e-09 8.0508919226902e-09 6.24743172018049e-10 6.45613950263341e-10
"1509" 25543 3.80265135058498e-10 1.67875109361218e-09 1.15019290820548e-08 3.39291591533679e-09 2.79505767571828e-09 8.05757781422115e-09 6.2591547831998e-10 6.45613950263341e-10
"1510" 25544 3.79453808397225e-10 1.6676411168861e-09 1.14997158151113e-08 3.40350137337522e-09 2.80068737633657e-09 8.06426370575209e-09 6.27087784621911e-10 6.45613950263341e-10
"1511" 25545 3.78642481735952e-10 1.65653114016003e-09 1.14975025481678e-08 3.41408683141365e-09 2.80631707695486e-09 8.07094959728304e-09 6.28260090923842e-10 6.45613950263341e-10
"1512" 25546 3.76677362068231e-10 1.65358340882122e-09 1.14650843953237e-08 3.4358026752351e-09 2.80259675864269e-09 8.07588460006473e-09 6.29956797428323e-10 6.45500658768739e-10
"1513" 25547 3.74712242400511e-10 1.65235891971042e-09 1.14666121766464e-08 3.45010869842964e-09 2.80721182699402e-09 8.01285011196747e-09 6.30830797765906e-10 6.45387367274137e-10
"1514" 25548 3.7274712273279e-10 1.65113443059962e-09 1.14681399579691e-08 3.46441472162418e-09 2.81182689534536e-09 7.94981562387021e-09 6.3170479810349e-10 6.45274075779535e-10
"1515" 25549 3.7078200306507e-10 1.64990994148882e-09 1.14696677392919e-08 3.47872074481873e-09 2.81644196369669e-09 7.88678113577295e-09 6.32578798441074e-10 6.45160784284933e-10
"1516" 25550 3.6881688339735e-10 1.64868545237802e-09 1.14711955206146e-08 3.49302676801327e-09 2.82105703204803e-09 7.82374664767569e-09 6.33452798778658e-10 6.45047492790331e-10
"1517" 25551 3.66851763729629e-10 1.64746096326722e-09 1.14727233019373e-08 3.50733279120781e-09 2.82567210039936e-09 7.76071215957843e-09 6.34326799116242e-10 6.44934201295729e-10
"1518" 25552 3.64886644061909e-10 1.64623647415642e-09 1.14742510832601e-08 3.52163881440236e-09 2.83028716875069e-09 7.69767767148117e-09 6.35200799453825e-10 6.44820909801127e-10
"1519" 25553 3.63077811166222e-10 1.65317118437867e-09 1.14729730783831e-08 3.51744036925258e-09 2.8724114770878e-09 7.62595177370606e-09 6.34054140237238e-10 6.44514887495222e-10
"1520" 25554 3.61112691498501e-10 1.65099397639789e-09 1.15190774194152e-08 3.50123611122424e-09 2.88074686375131e-09 7.55495824708964e-09 6.33231434070341e-10 6.4440159600062e-10
"1521" 25555 3.61112691498501e-10 1.65099397639789e-09 1.15372192641382e-08 3.49703766607447e-09 2.89116930111503e-09 7.48297771991689e-09 6.32084774853753e-10 6.44095573694716e-10
"1522" 25556 3.61112691498501e-10 1.65099397639789e-09 1.15553611088612e-08 3.4928392209247e-09 2.90159173847875e-09 7.41099719274414e-09 6.30938115637166e-10 6.43789551388811e-10
"1523" 25557 3.61112691498501e-10 1.65099397639789e-09 1.15735029535843e-08 3.48864077577493e-09 2.91201417584247e-09 7.33901666557138e-09 6.29791456420578e-10 6.43483529082907e-10
"1524" 25558 3.61112691498501e-10 1.65099397639789e-09 1.15916447983073e-08 3.48444233062516e-09 2.92243661320619e-09 7.26703613839863e-09 6.28644797203991e-10 6.43177506777002e-10
"1525" 25559 3.61112691498501e-10 1.65099397639789e-09 1.16097866430303e-08 3.48024388547539e-09 2.93285905056991e-09 7.19505561122587e-09 6.27498137987403e-10 6.42871484471097e-10
"1526" 25560 3.61112691498501e-10 1.65099397639789e-09 1.16279284877533e-08 3.47604544032562e-09 2.94328148793363e-09 7.12307508405312e-09 6.26351478770816e-10 6.42565462165193e-10
"1527" 25561 3.61112691498501e-10 1.65099397639789e-09 1.16460703324763e-08 3.47184699517585e-09 2.95370392529735e-09 7.05109455688037e-09 6.25204819554228e-10 6.42259439859289e-10
"1528" 25562 3.60554152779079e-10 1.65212889077982e-09 1.16181078361673e-08 3.47998486225562e-09 2.9283253024861e-09 7.0508504331608e-09 6.25030019486712e-10 6.42066709047986e-10
"1529" 25563 3.62176806101626e-10 1.6481836532066e-09 1.16344729228961e-08 3.47998486225562e-09 2.93874773984982e-09 7.04190439408531e-09 6.23009359932541e-10 6.36115523819404e-10
"1530" 25564 3.63799459424172e-10 1.64423841563338e-09 1.1650838009625e-08 3.47998486225562e-09 2.94917017721354e-09 7.03295835500981e-09 6.20988700378369e-10 6.30164338590822e-10
"1531" 25565 3.65422112746719e-10 1.64029317806015e-09 1.16672030963539e-08 3.47998486225562e-09 2.95959261457726e-09 7.02401231593432e-09 6.18968040824198e-10 6.24213153362239e-10
"1532" 25566 3.67044766069265e-10 1.63634794048693e-09 1.16835681830827e-08 3.47998486225562e-09 2.97001505194098e-09 7.01506627685882e-09 6.16947381270027e-10 6.18261968133657e-10
"1533" 25567 3.68667419391812e-10 1.63240270291371e-09 1.16999332698116e-08 3.47998486225562e-09 2.9804374893047e-09 7.00612023778333e-09 6.14926721715856e-10 6.12310782905075e-10
"1534" 25568 3.74093918078874e-10 1.62845746534049e-09 1.16996842931402e-08 3.46903759518089e-09 2.98505255765604e-09 7.05320513180804e-09 6.14926721715856e-10 6.07243812416305e-10
"1535" 25569 3.74093918078874e-10 1.647496612469e-09 1.17311065392986e-08 3.46619245712034e-09 2.98421559378318e-09 7.04827012902636e-09 6.14052721378272e-10 6.02403424916739e-10
"1536" 25570 3.73907738505733e-10 1.64368573698908e-09 1.17826349204521e-08 3.45652259262334e-09 2.98738578088052e-09 7.0403110905072e-09 6.12356014873791e-10 5.96452239688157e-10
"1537" 25571 3.73721558932592e-10 1.63987486150916e-09 1.18341633016056e-08 3.44685272812635e-09 2.99055596797785e-09 7.03235205198804e-09 6.1065930836931e-10 5.90501054459574e-10
"1538" 25572 3.73535379359452e-10 1.63606398602924e-09 1.18856916827591e-08 3.43718286362936e-09 2.99372615507519e-09 7.02439301346889e-09 6.08962601864829e-10 5.84549869230992e-10
"1539" 25573 3.73349199786311e-10 1.63225311054932e-09 1.19372200639126e-08 3.42751299913236e-09 2.99689634217253e-09 7.01643397494973e-09 6.07265895360348e-10 5.7859868400241e-10
"1540" 25574 3.7316302021317e-10 1.6284422350694e-09 1.19887484450661e-08 3.41784313463537e-09 3.00006652926987e-09 7.00847493643057e-09 6.05569188855867e-10 5.72647498773828e-10
"1541" 25575 3.7297684064003e-10 1.62463135958948e-09 1.20402768262196e-08 3.40817327013837e-09 3.00323671636721e-09 7.00051589791141e-09 6.03872482351386e-10 5.66696313545246e-10
"1542" 25576 3.72790661066889e-10 1.62082048410956e-09 1.20918052073731e-08 3.39850340564138e-09 3.00640690346455e-09 6.99255685939226e-09 6.02175775846905e-10 5.60745128316663e-10
"1543" 25577 3.72604481493748e-10 1.61700960862964e-09 1.21433335885266e-08 3.38883354114439e-09 3.00957709056189e-09 6.9845978208731e-09 6.00479069342424e-10 5.54793943088081e-10
"1544" 25578 3.72418301920608e-10 1.61319873314972e-09 1.21948619696801e-08 3.37916367664739e-09 3.01274727765923e-09 6.97663878235394e-09 5.98782362837943e-10 5.48842757859499e-10
"1545" 25579 3.72232122347467e-10 1.6093878576698e-09 1.22463903508336e-08 3.3694938121504e-09 3.01591746475657e-09 6.96867974383478e-09 5.97085656333462e-10 5.42891572630917e-10
"1546" 25580 3.72045942774326e-10 1.60557698218988e-09 1.22979187319871e-08 3.3598239476534e-09 3.0190876518539e-09 6.96072070531563e-09 5.95388949828981e-10 5.36940387402335e-10
"1547" 25581 3.71859763201186e-10 1.60176610670996e-09 1.23494471131406e-08 3.35015408315641e-09 3.02225783895124e-09 6.95276166679647e-09 5.936922433245e-10 5.30989202173752e-10
"1548" 25582 3.71673583628045e-10 1.59795523123004e-09 1.24009754942941e-08 3.34048421865942e-09 3.02542802604858e-09 6.94480262827731e-09 5.91995536820019e-10 5.2503801694517e-10
"1549" 25583 3.71487404054904e-10 1.59414435575012e-09 1.24525038754476e-08 3.33081435416242e-09 3.02859821314592e-09 6.93684358975815e-09 5.90298830315538e-10 5.19086831716588e-10
"1550" 25584 3.71487404054904e-10 1.59622894294782e-09 1.24726100104427e-08 3.3292823567452e-09 3.02134596287954e-09 6.90759824549404e-09 5.86334452463226e-10 5.15323389768136e-10
"1551" 25585 3.71301224481764e-10 1.59446091335538e-09 1.2527317642803e-08 3.32553649008526e-09 3.01618076331337e-09 6.90834112233082e-09 5.86334452463226e-10 5.15130658956834e-10
"1552" 25586 3.71301224481764e-10 1.59269288376294e-09 1.24263221360045e-08 3.31586662558827e-09 3.01384754008889e-09 6.90834112233082e-09 5.86658405512916e-10 5.14937928145531e-10
"1553" 25587 3.71301224481764e-10 1.59092485417049e-09 1.2325326629206e-08 3.30619676109127e-09 3.01151431686441e-09 6.90834112233082e-09 5.86982358562606e-10 5.14745197334229e-10
"1554" 25588 3.71301224481764e-10 1.58915682457805e-09 1.22243311224075e-08 3.29652689659428e-09 3.00918109363993e-09 6.90834112233082e-09 5.87306311612296e-10 5.14552466522927e-10
"1555" 25589 3.71301224481764e-10 1.58738879498561e-09 1.2123335615609e-08 3.28685703209728e-09 3.00684787041545e-09 6.90834112233082e-09 5.87630264661987e-10 5.14359735711624e-10
"1556" 25590 3.71487404054904e-10 1.58353617819547e-09 1.1970811727657e-08 3.2757876858837e-09 3.00098912330544e-09 6.90961426931903e-09 5.87805064729503e-10 5.15051219640133e-10
"1557" 25591 3.71487404054904e-10 1.58335702873774e-09 1.18387997614527e-08 3.26406176934845e-09 2.99865590008096e-09 6.9126383050565e-09 5.88653417981744e-10 5.15164511134736e-10
"1558" 25592 3.72514803090426e-10 1.58317787928e-09 1.1682379614702e-08 3.25592390226868e-09 2.99776755811048e-09 6.9318035301957e-09 5.89501771233984e-10 5.14971780323433e-10
"1559" 25593 3.73542202125947e-10 1.58299872982227e-09 1.15259594679513e-08 3.24778603518891e-09 2.99687921613999e-09 6.9509687553349e-09 5.90350124486225e-10 5.14779049512131e-10
"1560" 25594 3.74569601161469e-10 1.58281958036453e-09 1.13695393212006e-08 3.23964816810913e-09 2.9959908741695e-09 6.9701339804741e-09 5.91198477738465e-10 5.14586318700828e-10
"1561" 25595 3.7559700019699e-10 1.5826404309068e-09 1.12131191744499e-08 3.23151030102936e-09 2.99510253219902e-09 6.98929920561329e-09 5.92046830990706e-10 5.14393587889526e-10
"1562" 25596 3.76624399232512e-10 1.58246128144906e-09 1.10566990276992e-08 3.22337243394959e-09 2.99421419022853e-09 7.00846443075249e-09 5.92895184242946e-10 5.14200857078223e-10
"1563" 25597 3.77808085040066e-10 1.57022248244949e-09 1.10449156853898e-08 3.20676620043907e-09 2.99802654677209e-09 7.01643397494973e-09 5.93743537495187e-10 5.13090059349207e-10
"1564" 25598 3.78991770847621e-10 1.55798368344992e-09 1.10331323430804e-08 3.19015996692856e-09 3.00183890331565e-09 7.02440351914696e-09 5.94591890747427e-10 5.11979261620191e-10
"1565" 25599 3.80175456655176e-10 1.54574488445035e-09 1.1021349000771e-08 3.17355373341804e-09 3.00565125985921e-09 7.0323730633442e-09 5.95440243999668e-10 5.10868463891175e-10
"1566" 25600 3.8135914246273e-10 1.53350608545078e-09 1.10095656584616e-08 3.15694749990753e-09 3.00946361640277e-09 7.04034260754143e-09 5.96288597251908e-10 5.09757666162159e-10
"1567" 25601 3.82542828270285e-10 1.5212672864512e-09 1.09977823161522e-08 3.14034126639701e-09 3.01327597294633e-09 7.04831215173867e-09 5.97136950504149e-10 5.08646868433143e-10
"1568" 25602 3.8372651407784e-10 1.50902848745163e-09 1.09859989738428e-08 3.12373503288649e-09 3.01708832948989e-09 7.0562816959359e-09 5.97985303756389e-10 5.07536070704127e-10
"1569" 25603 3.84910199885394e-10 1.49678968845206e-09 1.09742156315334e-08 3.10712879937598e-09 3.02090068603345e-09 7.06425124013314e-09 5.9883365700863e-10 5.06425272975111e-10
"1570" 25604 3.86093885692949e-10 1.48455088945249e-09 1.0962432289224e-08 3.09052256586546e-09 3.02471304257701e-09 7.07222078433037e-09 5.9968201026087e-10 5.05314475246095e-10
"1571" 25605 3.8693510515533e-10 1.48455088945249e-09 1.09626505436987e-08 3.08559607426282e-09 3.02382470060652e-09 7.08336393688195e-09 6.0020641046342e-10 5.04203677517079e-10
"1572" 25606 3.88118790962884e-10 1.47638864406523e-09 1.09330365775056e-08 3.08852755339663e-09 3.02293635863604e-09 7.09950512628368e-09 6.0020641046342e-10 5.03319462777267e-10
"1573" 25607 3.89302476770439e-10 1.46822639867796e-09 1.09034226113124e-08 3.09145903253045e-09 3.02204801666555e-09 7.1156463156854e-09 6.0020641046342e-10 5.02435248037455e-10
"1574" 25608 3.90486162577994e-10 1.4600641532907e-09 1.08738086451193e-08 3.09439051166426e-09 3.02115967469507e-09 7.13178750508713e-09 6.0020641046342e-10 5.01551033297643e-10
"1575" 25609 3.91669848385548e-10 1.45190190790343e-09 1.08441946789261e-08 3.09732199079807e-09 3.02027133272458e-09 7.14792869448885e-09 6.0020641046342e-10 5.00666818557831e-10
"1576" 25610 3.92853534193103e-10 1.44373966251617e-09 1.0814580712733e-08 3.10025346993188e-09 3.01938299075409e-09 7.16406988389058e-09 6.0020641046342e-10 4.9978260381802e-10
"1577" 25611 3.94037220000658e-10 1.4355774171289e-09 1.07849667465399e-08 3.1031849490657e-09 3.01849464878361e-09 7.1802110732923e-09 6.0020641046342e-10 4.98898389078208e-10
"1578" 25612 3.965608783878e-10 1.43235791554928e-09 1.07553527803467e-08 3.104401312074e-09 3.01849464878361e-09 7.18520911014245e-09 5.99532857278697e-10 4.98014174338396e-10
"1579" 25613 3.99084536774942e-10 1.43267142710031e-09 1.09064757746348e-08 3.22483453503682e-09 3.01215427458893e-09 7.2060832013186e-09 6.00705163580627e-10 4.97129959598584e-10
"1580" 25614 3.99427003120116e-10 1.42292030157834e-09 1.08827223575124e-08 3.23633115823641e-09 3.02952500352847e-09 7.25826068329616e-09 6.09281825384633e-10 4.97356542587788e-10
"1581" 25615 3.9976946946529e-10 1.41316917605637e-09 1.08589689403901e-08 3.247827781436e-09 3.046895732468e-09 7.31043816527371e-09 6.17858487188639e-10 4.97583125576992e-10
"1582" 25616 4.00111935810464e-10 1.4034180505344e-09 1.08352155232677e-08 3.25932440463559e-09 3.06426646140753e-09 7.36261564725127e-09 6.26435148992644e-10 4.97809708566196e-10
"1583" 25617 4.00454402155638e-10 1.39366692501243e-09 1.08114621061453e-08 3.27082102783518e-09 3.08163719034707e-09 7.41479312922882e-09 6.3501181079665e-10 4.980362915554e-10
"1584" 25618 4.00796868500812e-10 1.38391579949046e-09 1.07877086890229e-08 3.28231765103477e-09 3.0990079192866e-09 7.46697061120637e-09 6.43588472600655e-10 4.98262874544604e-10
"1585" 25619 4.01139334845985e-10 1.37416467396849e-09 1.07639552719006e-08 3.29381427423435e-09 3.11637864822614e-09 7.51914809318393e-09 6.52165134404661e-10 4.98489457533808e-10
"1586" 25620 4.01139334845985e-10 1.37543395044373e-09 1.07659195621727e-08 3.30531089743394e-09 3.13463771913616e-09 7.57509248773573e-09 6.60741796208667e-10 4.9929423295692e-10
"1587" 25621 4.01139334845985e-10 1.37747375027699e-09 1.07719983657181e-08 3.31559115762523e-09 3.15617614140744e-09 7.6302729940946e-09 6.61636714101708e-10 5.00212299874633e-10
"1588" 25622 4.01139334845985e-10 1.37951355011025e-09 1.07780771692636e-08 3.32587141781651e-09 3.17771456367873e-09 7.68545350045347e-09 6.62531631994748e-10 5.01130366792347e-10
"1589" 25623 4.01139334845985e-10 1.38155334994351e-09 1.0784155972809e-08 3.3361516780078e-09 3.19925298595002e-09 7.74063400681234e-09 6.63426549887789e-10 5.0204843371006e-10
"1590" 25624 4.01139334845985e-10 1.38359314977678e-09 1.07902347763545e-08 3.34643193819908e-09 3.22079140822131e-09 7.79581451317122e-09 6.6432146778083e-10 5.02966500627774e-10
"1591" 25625 4.01139334845985e-10 1.38563294961004e-09 1.07963135798999e-08 3.35671219839037e-09 3.24232983049259e-09 7.85099501953009e-09 6.65216385673871e-10 5.03884567545487e-10
"1592" 25626 4.01139334845985e-10 1.3876727494433e-09 1.08023923834454e-08 3.36699245858165e-09 3.26386825276388e-09 7.90617552588896e-09 6.66111303566912e-10 5.04802634463201e-10
"1593" 25627 4.02761988168532e-10 1.38740097920248e-09 1.08084711869908e-08 3.37684544178694e-09 3.29250910090386e-09 7.90615451453281e-09 6.58429559655947e-10 5.04609903651898e-10
"1594" 25628 4.04384641491079e-10 1.38712920896166e-09 1.08145499905363e-08 3.38669842499222e-09 3.32114994904384e-09 7.90613350317665e-09 6.50747815744982e-10 5.04417172840596e-10
"1595" 25629 4.04853501807178e-10 1.38708442159722e-09 1.08206287940817e-08 3.39093260820759e-09 3.32298441915111e-09 8.01499024398849e-09 6.45909437555086e-10 5.04417172840596e-10
"1596" 25630 4.05322362123278e-10 1.38703963423279e-09 1.08267075976271e-08 3.39516679142296e-09 3.32481888925838e-09 8.12384698480033e-09 6.41071059365189e-10 5.04417172840596e-10
"1597" 25631 4.05791222439377e-10 1.38699484686836e-09 1.08327864011726e-08 3.39940097463833e-09 3.32665335936566e-09 8.23270372561217e-09 6.36232681175293e-10 5.04417172840596e-10
"1598" 25632 4.06260082755476e-10 1.38695005950392e-09 1.0838865204718e-08 3.40363515785371e-09 3.32848782947293e-09 8.34156046642401e-09 6.31394302985397e-10 5.04417172840596e-10
"1599" 25633 4.06728943071576e-10 1.38690527213949e-09 1.08449440082635e-08 3.40786934106908e-09 3.3303222995802e-09 8.45041720723585e-09 6.265559247955e-10 5.04417172840596e-10
"1600" 25634 4.07197803387675e-10 1.38686048477506e-09 1.08510228118089e-08 3.41210352428445e-09 3.33215676968748e-09 8.55927394804769e-09 6.21717546605604e-10 5.04417172840596e-10
"1601" 25635 4.07666663703775e-10 1.38681569741062e-09 1.08571016153544e-08 3.41633770749982e-09 3.33399123979475e-09 8.66813068885953e-09 6.16879168415708e-10 5.04417172840596e-10
"1602" 25636 4.08135524019874e-10 1.38677091004619e-09 1.08631804188998e-08 3.4205718907152e-09 3.33582570990202e-09 8.77698742967137e-09 6.12040790225811e-10 5.04417172840596e-10
"1603" 25637 4.08604384335974e-10 1.38672612268175e-09 1.08692592224453e-08 3.42480607393057e-09 3.33766018000929e-09 8.8858441704832e-09 6.07202412035915e-10 5.04417172840596e-10
"1604" 25638 4.09073244652073e-10 1.38668133531732e-09 1.08753380259907e-08 3.42904025714594e-09 3.33949465011657e-09 8.99470091129504e-09 6.02364033846019e-10 5.04417172840596e-10
"1605" 25639 4.09542104968173e-10 1.38663654795289e-09 1.08814168295362e-08 3.43327444036131e-09 3.34132912022384e-09 9.10355765210688e-09 5.97525655656122e-10 5.04417172840596e-10
"1606" 25640 4.10010965284272e-10 1.38659176058845e-09 1.08874956330816e-08 3.43750862357669e-09 3.34316359033111e-09 9.21241439291872e-09 5.92687277466226e-10 5.04417172840596e-10
"1607" 25641 4.10666005173512e-10 1.38681874346484e-09 1.08897089000251e-08 3.36254827535295e-09 3.33906440112953e-09 9.3132700724991e-09 5.95232337222947e-10 5.04609903651898e-10
"1608" 25642 4.11321045062752e-10 1.38704572634122e-09 1.08919221669686e-08 3.28758792712922e-09 3.33496521192794e-09 9.41412575207947e-09 5.97777396979669e-10 5.04802634463201e-10
"1609" 25643 4.03713354333722e-10 1.38319310955109e-09 1.0873374535493e-08 3.29369504367456e-09 3.33931057365379e-09 9.5239905048038e-09 6.01145162903288e-10 5.04995365274503e-10
"1610" 25644 3.96105663604692e-10 1.37934049276095e-09 1.08548269040174e-08 3.2998021602199e-09 3.34365593537964e-09 9.63385525752813e-09 6.04512928826906e-10 5.05188096085806e-10
"1611" 25645 3.88497972875661e-10 1.37548787597081e-09 1.08362792725418e-08 3.30590927676524e-09 3.34800129710549e-09 9.74372001025246e-09 6.07880694750525e-10 5.05380826897108e-10
"1612" 25646 3.80890282146631e-10 1.37163525918068e-09 1.08177316410662e-08 3.31201639331059e-09 3.35234665883134e-09 9.85358476297679e-09 6.11248460674144e-10 5.05573557708411e-10
"1613" 25647 3.73282591417601e-10 1.36778264239054e-09 1.07991840095905e-08 3.31812350985593e-09 3.35669202055719e-09 9.96344951570112e-09 6.14616226597762e-10 5.05766288519713e-10
"1614" 25648 3.6567490068857e-10 1.3639300256004e-09 1.07806363781149e-08 3.32423062640127e-09 3.36103738228304e-09 1.00733142684255e-08 6.17983992521381e-10 5.05959019331016e-10
"1615" 25649 3.58439569105821e-10 1.36007740881026e-09 1.07569452051604e-08 3.36022719191343e-09 3.37263499427527e-09 1.00983044526762e-08 6.17660039471691e-10 5.07069817060032e-10
"1616" 25650 3.50363018060691e-10 1.35817501712452e-09 1.07527983701415e-08 3.37195310844868e-09 3.37381016890379e-09 1.01005646002207e-08 6.18482745638588e-10 5.07262547871334e-10
"1617" 25651 3.42100287442421e-10 1.35513771105685e-09 1.0748091337612e-08 3.37578531618188e-09 3.3749853435323e-09 1.0112747281719e-08 6.18333592656414e-10 5.08146762611146e-10
"1618" 25652 3.3383755682415e-10 1.35210040498917e-09 1.07433843050825e-08 3.37961752391507e-09 3.37616051816081e-09 1.01249299632173e-08 6.18184439674241e-10 5.09030977350958e-10
"1619" 25653 3.2557482620588e-10 1.34906309892149e-09 1.07386772725529e-08 3.38344973164827e-09 3.37733569278932e-09 1.01371126447156e-08 6.18035286692068e-10 5.0991519209077e-10
"1620" 25654 3.17312095587609e-10 1.34602579285382e-09 1.07339702400234e-08 3.38728193938147e-09 3.37851086741783e-09 1.01492953262139e-08 6.17886133709894e-10 5.10799406830582e-10
"1621" 25655 3.17312095587609e-10 1.34611536758269e-09 1.07381785194357e-08 3.35585005643565e-09 3.37934783129069e-09 1.01524689345683e-08 6.16914274560823e-10 5.11683621570394e-10
"1622" 25656 3.17312095587609e-10 1.34620494231155e-09 1.07423867988481e-08 3.32441817348984e-09 3.38018479516355e-09 1.01556425429226e-08 6.15942415411753e-10 5.12567836310206e-10
"1623" 25657 3.17312095587609e-10 1.34629451704042e-09 1.07465950782604e-08 3.29298629054402e-09 3.38102175903641e-09 1.0158816151277e-08 6.14970556262682e-10 5.13452051050018e-10
"1624" 25658 3.17312095587609e-10 1.34638409176929e-09 1.07508033576727e-08 3.26155440759821e-09 3.38185872290927e-09 1.01619897596313e-08 6.13998697113611e-10 5.1433626578983e-10
"1625" 25659 3.17312095587609e-10 1.34647366649816e-09 1.07550116370851e-08 3.2301225246524e-09 3.38269568678212e-09 1.01651633679857e-08 6.13026837964541e-10 5.15220480529642e-10
"1626" 25660 3.17312095587609e-10 1.34656324122702e-09 1.07592199164974e-08 3.19869064170658e-09 3.38353265065498e-09 1.016833697634e-08 6.1205497881547e-10 5.16104695269453e-10
"1627" 25661 3.17312095587609e-10 1.34665281595589e-09 1.07634281959097e-08 3.16725875876077e-09 3.38436961452784e-09 1.01715105846943e-08 6.11083119666399e-10 5.16988910009265e-10
"1628" 25662 3.17312095587609e-10 1.34674239068476e-09 1.0767636475322e-08 3.13582687581496e-09 3.3852065784007e-09 1.01746841930487e-08 6.10111260517329e-10 5.17873124749077e-10
"1629" 25663 3.17468382359642e-10 1.34683196541363e-09 1.07834413645402e-08 3.13965908354815e-09 3.38387086141064e-09 1.01858588626345e-08 6.09962107535155e-10 5.18757339488889e-10
"1630" 25664 3.17282202786502e-10 1.34397380880369e-09 1.08012097442561e-08 3.14143523924309e-09 3.38387086141064e-09 1.01858588626345e-08 6.09812954552982e-10 5.19448823417399e-10
"1631" 25665 3.17096023213361e-10 1.34111565219375e-09 1.0818978123972e-08 3.14321139493803e-09 3.38387086141064e-09 1.01858588626345e-08 6.09663801570808e-10 5.20140307345908e-10
"1632" 25666 3.1690984364022e-10 1.33825749558381e-09 1.08367465036879e-08 3.14498755063297e-09 3.38387086141064e-09 1.01858588626345e-08 6.09514648588635e-10 5.20831791274418e-10
"1633" 25667 3.1672366406708e-10 1.33539933897387e-09 1.08545148834038e-08 3.14676370632791e-09 3.38387086141064e-09 1.01858588626345e-08 6.09365495606461e-10 5.21523275202927e-10
"1634" 25668 3.16537484493939e-10 1.33254118236393e-09 1.08722832631196e-08 3.14853986202285e-09 3.38387086141064e-09 1.01858588626345e-08 6.09216342624288e-10 5.22214759131436e-10
"1635" 25669 3.16351304920798e-10 1.32968302575399e-09 1.08900516428355e-08 3.15031601771779e-09 3.38387086141064e-09 1.01858588626345e-08 6.09067189642114e-10 5.22906243059946e-10
"1636" 25670 3.16165125347658e-10 1.32682486914405e-09 1.09078200225514e-08 3.15209217341272e-09 3.38387086141064e-09 1.01858588626345e-08 6.08918036659941e-10 5.23597726988455e-10
"1637" 25671 3.24241676392788e-10 1.32387713780524e-09 1.09613118942026e-08 3.15190905470444e-09 3.38303389753778e-09 1.01739308105338e-08 6.08594083610251e-10 5.23597726988455e-10
"1638" 25672 3.29668175079849e-10 1.32024845783727e-09 1.0995444560873e-08 3.17941195228202e-09 3.3934563349015e-09 1.0162756140948e-08 6.10738249061252e-10 5.24289210916965e-10
"1639" 25673 3.36025571632614e-10 1.32042760729501e-09 1.10489364325242e-08 3.18623667871846e-09 3.40387877226522e-09 1.01926498109462e-08 6.10414296011562e-10 5.24402502411567e-10
"1640" 25674 3.4238296818538e-10 1.32060675675274e-09 1.11024283041755e-08 3.1930614051549e-09 3.41430120962894e-09 1.02225434809444e-08 6.10090342961872e-10 5.24515793906169e-10
"1641" 25675 3.48740364738145e-10 1.32078590621048e-09 1.11559201758267e-08 3.19988613159134e-09 3.42472364699266e-09 1.02524371509426e-08 6.09766389912181e-10 5.24629085400771e-10
"1642" 25676 3.5509776129091e-10 1.32096505566821e-09 1.12094120474779e-08 3.20671085802778e-09 3.43514608435638e-09 1.02823308209408e-08 6.09442436862491e-10 5.24742376895373e-10
"1643" 25677 3.61455157843675e-10 1.32114420512595e-09 1.12629039191291e-08 3.21353558446421e-09 3.4455685217201e-09 1.0312224490939e-08 6.09118483812801e-10 5.24855668389975e-10
"1644" 25678 3.66971334934059e-10 1.32427108592249e-09 1.13097559899498e-08 3.21661444424071e-09 3.42232191963801e-09 1.03540567187159e-08 6.09118483812801e-10 5.24855668389975e-10
"1645" 25679 3.71147539444856e-10 1.32835068558902e-09 1.13562345957634e-08 3.21969330401721e-09 3.43194164519396e-09 1.03951250582999e-08 6.05426764839492e-10 5.2516169069588e-10
"1646" 25680 3.75323743955652e-10 1.33215851501472e-09 1.13701374388774e-08 3.22885397883522e-09 3.44271941934587e-09 1.04349727792861e-08 6.01138433937489e-10 5.16150282408252e-10
"1647" 25681 3.79499948466449e-10 1.33596634444042e-09 1.13840402819913e-08 3.23801465365324e-09 3.45349719349779e-09 1.04748205002722e-08 5.96850103035486e-10 5.07138874120625e-10
"1648" 25682 3.83676152977245e-10 1.33977417386613e-09 1.13979431251052e-08 3.24717532847125e-09 3.4642749676497e-09 1.05146682212584e-08 5.92561772133483e-10 4.98127465832998e-10
"1649" 25683 3.87852357488042e-10 1.34358200329183e-09 1.14118459682192e-08 3.25633600328926e-09 3.47505274180161e-09 1.05545159422446e-08 5.88273441231481e-10 4.8911605754537e-10
"1650" 25684 3.92028561998839e-10 1.34738983271753e-09 1.14257488113331e-08 3.26549667810728e-09 3.48583051595353e-09 1.05943636632308e-08 5.83985110329478e-10 4.80104649257743e-10
"1651" 25685 3.90688589419251e-10 1.35324050803072e-09 1.14566076608834e-08 3.26571553488116e-09 3.51616241787177e-09 1.05923896621181e-08 5.80020732477165e-10 4.70787218664211e-10
"1652" 25686 3.88164931032108e-10 1.35319572066628e-09 1.15348811780881e-08 3.29034799289437e-09 3.5211328230113e-09 1.05924211791523e-08 5.76580754827403e-10 4.61662518881982e-10
"1653" 25687 3.91410237677201e-10 1.36176714444189e-09 1.17037693529946e-08 3.29642980793588e-09 3.52031298517098e-09 1.05912005605545e-08 5.74313083479571e-10 4.54419540073979e-10
"1654" 25688 3.94655544322295e-10 1.37033856821749e-09 1.18726575279011e-08 3.3025116229774e-09 3.51949314733066e-09 1.05899799419567e-08 5.7204541213174e-10 4.47176561265975e-10
"1655" 25689 3.97900850967388e-10 1.37890999199309e-09 1.20415457028076e-08 3.30859343801891e-09 3.51867330949034e-09 1.05887593233588e-08 5.69777740783908e-10 4.39933582457972e-10
"1656" 25690 4.01146157612481e-10 1.3874814157687e-09 1.22104338777142e-08 3.31467525306043e-09 3.51785347165003e-09 1.0587538704761e-08 5.67510069436077e-10 4.32690603649968e-10
"1657" 25691 4.04391464257574e-10 1.3960528395443e-09 1.23793220526207e-08 3.32075706810194e-09 3.51703363380971e-09 1.05863180861632e-08 5.65242398088245e-10 4.25447624841965e-10
"1658" 25692 4.07636770902667e-10 1.4046242633199e-09 1.25482102275272e-08 3.32683888314346e-09 3.51621379596939e-09 1.05850974675654e-08 5.62974726740413e-10 4.18204646033961e-10
"1659" 25693 4.1088207754776e-10 1.41319568709551e-09 1.27170984024337e-08 3.33292069818497e-09 3.51539395812908e-09 1.05838768489675e-08 5.60707055392582e-10 4.10961667225958e-10
"1660" 25694 4.14127384192854e-10 1.42176711087111e-09 1.28859865773402e-08 3.33900251322648e-09 3.51457412028876e-09 1.05826562303697e-08 5.5843938404475e-10 4.03718688417954e-10
"1661" 25695 4.17372690837947e-10 1.43033853464671e-09 1.30548747522467e-08 3.345084328268e-09 3.51375428244844e-09 1.05814356117719e-08 5.56171712696919e-10 3.96475709609951e-10
"1662" 25696 4.2061799748304e-10 1.43890995842232e-09 1.32237629271532e-08 3.35116614330951e-09 3.51293444460813e-09 1.05802149931741e-08 5.53904041349087e-10 3.89232730801947e-10
"1663" 25697 4.23863304128133e-10 1.44748138219792e-09 1.33926511020597e-08 3.35724795835103e-09 3.51211460676781e-09 1.05789943745762e-08 5.51636370001255e-10 3.81989751993944e-10
"1664" 25698 4.27108610773226e-10 1.45605280597352e-09 1.35615392769662e-08 3.36332977339254e-09 3.51129476892749e-09 1.05777737559784e-08 5.49368698653424e-10 3.74746773185941e-10
"1665" 25699 4.30353917418319e-10 1.46462422974913e-09 1.37304274518727e-08 3.36941158843406e-09 3.51047493108718e-09 1.05765531373806e-08 5.47101027305592e-10 3.67503794377937e-10
"1666" 25700 4.35311555789282e-10 1.4614047281695e-09 1.39105387715779e-08 3.37527454670168e-09 3.50965509324686e-09 1.05573143724949e-08 5.47975027643176e-10 3.69578246163466e-10
"1667" 25701 4.40269194160244e-10 1.45818522658987e-09 1.40906500912831e-08 3.38113750496931e-09 3.50883525540654e-09 1.05380756076091e-08 5.4884902798076e-10 3.71652697948994e-10
"1668" 25702 4.44854473384925e-10 1.46471685053221e-09 1.42921140288893e-08 3.38506649033753e-09 3.50801541756622e-09 1.05300745463777e-08 5.49723028318344e-10 3.7353441892322e-10
"1669" 25703 4.49439752609606e-10 1.47124847447455e-09 1.44935779664954e-08 3.38899547570576e-09 3.50719557972591e-09 1.05220734851462e-08 5.50597028655927e-10 3.75416139897446e-10
"1670" 25704 4.54025031834287e-10 1.4777800984169e-09 1.46950419041016e-08 3.39292446107399e-09 3.50637574188559e-09 1.05140724239147e-08 5.51471028993511e-10 3.77297860871672e-10
"1671" 25705 4.58610311058968e-10 1.48431172235924e-09 1.48965058417077e-08 3.39685344644221e-09 3.50555590404527e-09 1.05060713626833e-08 5.52345029331095e-10 3.79179581845897e-10
"1672" 25706 4.63195590283649e-10 1.49084334630158e-09 1.50979697793139e-08 3.40078243181044e-09 3.50473606620496e-09 1.04980703014518e-08 5.53219029668679e-10 3.81061302820123e-10
"1673" 25707 4.6778086950833e-10 1.49737497024392e-09 1.529943371692e-08 3.40471141717867e-09 3.50391622836464e-09 1.04900692402203e-08 5.54093030006262e-10 3.82943023794349e-10
"1674" 25708 4.73297046598714e-10 1.50140978254601e-09 1.53201016489745e-08 3.47514724928194e-09 3.50309639052432e-09 1.04900062061519e-08 5.62371385845921e-10 3.89267935684639e-10
"1675" 25709 4.72113360791159e-10 1.50014050607078e-09 1.53130883831369e-08 3.49346859891796e-09 3.50478744430258e-09 1.04820051449204e-08 5.61548679679024e-10 3.90186002602353e-10
"1676" 25710 4.71272141328779e-10 1.49805591887308e-09 1.53285505295447e-08 3.49346859891796e-09 3.52063837978928e-09 1.05367524253543e-08 5.61250373714677e-10 3.91104069520066e-10
"1677" 25711 4.70430921866398e-10 1.49597133167538e-09 1.53440126759525e-08 3.49346859891796e-09 3.53648931527597e-09 1.05914997057882e-08 5.6095206775033e-10 3.9202213643778e-10
"1678" 25712 4.69589702404017e-10 1.49388674447769e-09 1.53594748223602e-08 3.49346859891796e-09 3.55234025076267e-09 1.06462469862222e-08 5.60653761785983e-10 3.92940203355493e-10
"1679" 25713 4.68748482941636e-10 1.49180215727999e-09 1.5374936968768e-08 3.49346859891796e-09 3.56819118624936e-09 1.07009942666561e-08 5.60355455821636e-10 3.93858270273207e-10
"1680" 25714 4.6909094928681e-10 1.4898519321756e-09 1.53502498891278e-08 3.47990548711834e-09 3.58452374882072e-09 1.07584899420737e-08 5.61203809073877e-10 3.92894616216694e-10
"1681" 25715 4.69433415631984e-10 1.4879017070712e-09 1.53255628094876e-08 3.46634237531872e-09 3.60085631139208e-09 1.08159856174913e-08 5.62052162326117e-10 3.91930962160182e-10
"1682" 25716 4.69775881977158e-10 1.48595148196681e-09 1.53008757298474e-08 3.4527792635191e-09 3.61718887396344e-09 1.08734812929089e-08 5.62900515578358e-10 3.9096730810367e-10
"1683" 25717 4.70118348322332e-10 1.48400125686242e-09 1.52761886502072e-08 3.43921615171949e-09 3.6335214365348e-09 1.09309769683265e-08 5.63748868830598e-10 3.90003654047157e-10
"1684" 25718 4.70460814667505e-10 1.48205103175802e-09 1.5251501570567e-08 3.42565303991987e-09 3.64985399910616e-09 1.09884726437441e-08 5.64597222082839e-10 3.89039999990645e-10
"1685" 25719 4.70803281012679e-10 1.48010080665363e-09 1.52268144909268e-08 3.41208992812025e-09 3.66618656167752e-09 1.10459683191617e-08 5.65445575335079e-10 3.88076345934133e-10
"1686" 25720 4.71145747357853e-10 1.47815058154923e-09 1.52021274112866e-08 3.39852681632063e-09 3.68251912424888e-09 1.11034639945793e-08 5.66293928587319e-10 3.8711269187762e-10
"1687" 25721 4.71488213703027e-10 1.47620035644484e-09 1.51774403316464e-08 3.38496370452101e-09 3.69885168682024e-09 1.11609596699968e-08 5.6714228183956e-10 3.86149037821108e-10
"1688" 25722 4.71830680048201e-10 1.47252688911244e-09 1.52018485121928e-08 3.37832209679286e-09 3.65808022150574e-09 1.12207470099932e-08 5.67815835024284e-10 3.87067104738822e-10
"1689" 25723 4.71361819732101e-10 1.47180115311885e-09 1.51771614325526e-08 3.36427066843781e-09 3.67441278407709e-09 1.12722471423263e-08 5.68489388209008e-10 3.87871880161933e-10
"1690" 25724 4.70892959416002e-10 1.47107541712525e-09 1.51524743529124e-08 3.35021924008275e-09 3.69074534664845e-09 1.13237472746593e-08 5.69162941393731e-10 3.88676655585045e-10
"1691" 25725 4.70424099099902e-10 1.47034968113166e-09 1.51277872732722e-08 3.3361678117277e-09 3.70707790921981e-09 1.13752474069923e-08 5.69836494578455e-10 3.89481431008156e-10
"1692" 25726 4.69955238783803e-10 1.46962394513806e-09 1.5103100193632e-08 3.32211638337265e-09 3.72341047179117e-09 1.14267475393254e-08 5.70510047763179e-10 3.90286206431268e-10
"1693" 25727 4.69486378467703e-10 1.46889820914447e-09 1.50784131139918e-08 3.3080649550176e-09 3.73974303436253e-09 1.14782476716584e-08 5.71183600947902e-10 3.91090981854379e-10
"1694" 25728 4.69017518151604e-10 1.46817247315088e-09 1.50537260343516e-08 3.29401352666255e-09 3.75607559693389e-09 1.15297478039914e-08 5.71857154132626e-10 3.9189575727749e-10
"1695" 25729 4.70171311158051e-10 1.47928244987695e-09 1.50950287769409e-08 3.35805791749687e-09 3.76733499817047e-09 1.15334096597849e-08 5.73703013619281e-10 3.91782465782888e-10
"1696" 25730 4.70543670304332e-10 1.47855671388336e-09 1.50941573585909e-08 3.40618237502646e-09 3.7695076790334e-09 1.15334096597849e-08 5.73852166601454e-10 3.91476443476984e-10
"1697" 25731 4.70543670304332e-10 1.4778757652542e-09 1.50509226474751e-08 3.39019697377201e-09 3.77868002956976e-09 1.15221614504526e-08 5.73677366533937e-10 3.97121606399662e-10
"1698" 25732 4.70543670304332e-10 1.47719481662504e-09 1.50076879363592e-08 3.37421157251756e-09 3.78785238010613e-09 1.15109132411202e-08 5.73502566466421e-10 4.02766769322339e-10
"1699" 25733 4.70543670304332e-10 1.47651386799588e-09 1.49644532252434e-08 3.35822617126311e-09 3.79702473064249e-09 1.14996650317879e-08 5.73327766398904e-10 4.08411932245017e-10
"1700" 25734 4.70543670304332e-10 1.47583291936672e-09 1.49212185141276e-08 3.34224077000866e-09 3.80619708117886e-09 1.14884168224555e-08 5.73152966331387e-10 4.14057095167695e-10
"1701" 25735 4.70543670304332e-10 1.47515197073756e-09 1.48779838030118e-08 3.32625536875421e-09 3.81536943171522e-09 1.14771686131232e-08 5.7297816626387e-10 4.19702258090372e-10
"1702" 25736 4.70543670304332e-10 1.4744710221084e-09 1.4834749091896e-08 3.31026996749976e-09 3.82454178225158e-09 1.14659204037908e-08 5.72803366196354e-10 4.2534742101305e-10
"1703" 25737 4.71354996965606e-10 1.47243122227514e-09 1.47851850010145e-08 3.30815287589207e-09 3.83323250570329e-09 1.1465941415147e-08 5.669418346867e-10 4.31298606241632e-10
"1704" 25738 4.71823857281705e-10 1.47052578453518e-09 1.47902040541577e-08 3.30731318686211e-09 3.84156789236679e-09 1.14606887488992e-08 5.669418346867e-10 4.37249791470214e-10
"1705" 25739 4.72292717597805e-10 1.46862034679522e-09 1.47952231073009e-08 3.30647349783216e-09 3.8499032790303e-09 1.14554360826514e-08 5.669418346867e-10 4.43200976698796e-10
"1706" 25740 4.72761577913904e-10 1.46671490905526e-09 1.48002421604441e-08 3.30563380880221e-09 3.8582386656938e-09 1.14501834164036e-08 5.669418346867e-10 4.49152161927379e-10
"1707" 25741 4.73230438230003e-10 1.4648094713153e-09 1.48052612135872e-08 3.30479411977225e-09 3.86657405235731e-09 1.14449307501558e-08 5.669418346867e-10 4.55103347155961e-10
"1708" 25742 4.73699298546103e-10 1.46290403357534e-09 1.48102802667304e-08 3.3039544307423e-09 3.87490943902081e-09 1.1439678083908e-08 5.669418346867e-10 4.61054532384543e-10
"1709" 25743 4.74168158862203e-10 1.46099859583538e-09 1.48152993198736e-08 3.30311474171234e-09 3.88324482568432e-09 1.14344254176602e-08 5.669418346867e-10 4.67005717613125e-10
"1710" 25744 4.73825692517029e-10 1.4588213878546e-09 1.49036731875326e-08 3.30227505268239e-09 3.88206965105581e-09 1.14441668619629e-08 5.71230165588703e-10 4.67889932352937e-10
"1711" 25745 4.73483226171855e-10 1.45664417987382e-09 1.49920470551915e-08 3.30143536365244e-09 3.8808944764273e-09 1.14539083062655e-08 5.75518496490706e-10 4.68774147092749e-10
"1712" 25746 4.73140759826681e-10 1.45446697189304e-09 1.50804209228505e-08 3.30059567462248e-09 3.87971930179879e-09 1.14636497505682e-08 5.79806827392708e-10 4.69658361832561e-10
"1713" 25747 4.72798293481507e-10 1.45228976391225e-09 1.51687947905095e-08 3.29975598559253e-09 3.87854412717028e-09 1.14733911948708e-08 5.84095158294711e-10 4.70542576572373e-10
"1714" 25748 4.72455827136333e-10 1.45011255593147e-09 1.52571686581684e-08 3.29891629656257e-09 3.87736895254176e-09 1.14831326391735e-08 5.88383489196714e-10 4.71426791312185e-10
"1715" 25749 4.72113360791159e-10 1.44793534795069e-09 1.53455425258274e-08 3.29807660753262e-09 3.87619377791325e-09 1.14928740834761e-08 5.92671820098717e-10 4.72311006051997e-10
"1716" 25750 4.71770894445986e-10 1.44575813996991e-09 1.54339163934864e-08 3.29723691850266e-09 3.87501860328474e-09 1.15026155277788e-08 5.9696015100072e-10 4.73195220791809e-10
"1717" 25751 4.71770894445986e-10 1.44970337754314e-09 1.54420209316974e-08 3.31238263072716e-09 3.88228797958367e-09 1.15772474057087e-08 5.98106810217307e-10 4.73501243097713e-10
"1718" 25752 4.71770894445986e-10 1.45364861511636e-09 1.54501254699084e-08 3.32752834295166e-09 3.88955735588259e-09 1.16518792836387e-08 5.99253469433895e-10 4.73807265403618e-10
"1719" 25753 4.71770894445986e-10 1.45759385268958e-09 1.54582300081194e-08 3.34267405517616e-09 3.89682673218151e-09 1.17265111615686e-08 6.00400128650482e-10 4.74113287709522e-10
"1720" 25754 4.71770894445986e-10 1.4615390902628e-09 1.54663345463305e-08 3.35781976740065e-09 3.90409610848044e-09 1.18011430394986e-08 6.01546787867069e-10 4.74419310015427e-10
"1721" 25755 4.71770894445986e-10 1.46548432783602e-09 1.54744390845415e-08 3.37296547962515e-09 3.91136548477936e-09 1.18757749174285e-08 6.02693447083657e-10 4.74725332321331e-10
"1722" 25756 4.71770894445986e-10 1.46942956540924e-09 1.54825436227525e-08 3.38811119184965e-09 3.91863486107828e-09 1.19504067953585e-08 6.03840106300244e-10 4.75031354627236e-10
"1723" 25757 4.71770894445986e-10 1.47324044088916e-09 1.54670814763447e-08 3.36803898802251e-09 3.92691886964416e-09 1.20111471257532e-08 6.00698434614829e-10 4.75144646121838e-10
"1724" 25758 4.71770894445986e-10 1.47832059284432e-09 1.54723802283561e-08 3.38209041637756e-09 3.90051920649728e-09 1.20880286455496e-08 6.01521140781726e-10 4.7456645368793e-10
"1725" 25759 4.71770894445986e-10 1.48421605552194e-09 1.54562956402697e-08 3.39221285936439e-09 3.90698587098843e-09 1.21388044192782e-08 6.02343846948623e-10 4.74872475993835e-10
"1726" 25760 4.71770894445986e-10 1.49011151819955e-09 1.54402110521834e-08 3.40233530235121e-09 3.91345253547958e-09 1.21895801930068e-08 6.0316655311552e-10 4.75178498299739e-10
"1727" 25761 4.71770894445986e-10 1.49600698087717e-09 1.54241264640971e-08 3.41245774533804e-09 3.91991919997072e-09 1.22403559667355e-08 6.03989259282418e-10 4.75484520605644e-10
"1728" 25762 4.71770894445986e-10 1.50190244355478e-09 1.54080418760107e-08 3.42258018832486e-09 3.92638586446187e-09 1.22911317404641e-08 6.04811965449315e-10 4.75790542911548e-10
"1729" 25763 4.71770894445986e-10 1.5077979062324e-09 1.53919572879244e-08 3.43270263131169e-09 3.93285252895302e-09 1.23419075141927e-08 6.05634671616212e-10 4.76096565217453e-10
"1730" 25764 4.71770894445986e-10 1.51369336891002e-09 1.53758726998381e-08 3.44282507429851e-09 3.93931919344417e-09 1.23926832879213e-08 6.06457377783109e-10 4.76402587523357e-10
"1731" 25765 4.71770894445986e-10 1.51958883158763e-09 1.53597881117517e-08 3.45294751728534e-09 3.94578585793532e-09 1.244345906165e-08 6.07280083950007e-10 4.76708609829262e-10
"1732" 25766 4.71770894445986e-10 1.52548429426525e-09 1.53437035236654e-08 3.46306996027216e-09 3.95225252242647e-09 1.24942348353786e-08 6.08102790116904e-10 4.77014632135166e-10
"1733" 25767 4.79847445491115e-10 1.52621003025884e-09 1.53225691602391e-08 3.46085609102945e-09 3.9510944738305e-09 1.24942348353786e-08 6.11470556040523e-10 4.78125429864182e-10
"1734" 25768 4.80316305807215e-10 1.52598304738245e-09 1.52996580388187e-08 3.45477427598793e-09 3.95275127554367e-09 1.24800361300553e-08 6.11994956243073e-10 4.82342037791042e-10
"1735" 25769 4.81157525269596e-10 1.53210244688224e-09 1.52804879656646e-08 3.45084529061971e-09 3.98561760318171e-09 1.25600047196577e-08 6.11994956243073e-10 4.91659468384574e-10
"1736" 25770 4.81529884415877e-10 1.52638613366236e-09 1.52660871692078e-08 3.43307329710854e-09 4.01611645553018e-09 1.2669835462224e-08 6.10298249738592e-10 5.00976898978106e-10
"1737" 25771 4.82713570223432e-10 1.5236205978355e-09 1.52721659727532e-08 3.43522612678183e-09 4.05062245884885e-09 1.27439475756805e-08 6.10298249738592e-10 5.10294329571638e-10
"1738" 25772 4.83897256030986e-10 1.52085506200865e-09 1.52782447762987e-08 3.43737895645512e-09 4.08512846216752e-09 1.28180596891371e-08 6.10298249738592e-10 5.1961176016517e-10
"1739" 25773 4.85080941838541e-10 1.51808952618179e-09 1.52843235798441e-08 3.43953178612841e-09 4.11963446548619e-09 1.28921718025937e-08 6.10298249738592e-10 5.28929190758701e-10
"1740" 25774 4.86264627646096e-10 1.51532399035494e-09 1.52904023833896e-08 3.44168461580169e-09 4.15414046880486e-09 1.29662839160503e-08 6.10298249738592e-10 5.38246621352233e-10
"1741" 25775 4.8744831345365e-10 1.51255845452808e-09 1.5296481186935e-08 3.44383744547498e-09 4.18864647212352e-09 1.30403960295069e-08 6.10298249738592e-10 5.47564051945765e-10
"1742" 25776 4.88631999261205e-10 1.50979291870123e-09 1.53025599904805e-08 3.44599027514827e-09 4.22315247544219e-09 1.31145081429635e-08 6.10298249738592e-10 5.56881482539297e-10
"1743" 25777 4.8981568506876e-10 1.50702738287437e-09 1.53086387940259e-08 3.44814310482156e-09 4.25765847876086e-09 1.318862025642e-08 6.10298249738592e-10 5.66198913132829e-10
"1744" 25778 4.90999370876314e-10 1.50426184704752e-09 1.53147175975714e-08 3.45029593449484e-09 4.29216448207953e-09 1.32627323698766e-08 6.10298249738592e-10 5.7551634372636e-10
"1745" 25779 4.92183056683869e-10 1.50149631122066e-09 1.53207964011168e-08 3.45244876416813e-09 4.3266704853982e-09 1.33368444833332e-08 6.10298249738592e-10 5.84833774319892e-10
"1746" 25780 4.9302427614625e-10 1.49873077539381e-09 1.52175537060806e-08 3.44821458095276e-09 4.34626527329828e-09 1.34459428547408e-08 6.10447402720765e-10 5.93958474102122e-10
"1747" 25781 4.9386549560863e-10 1.49596523956695e-09 1.51143110110444e-08 3.44398039773739e-09 4.36586006119837e-09 1.35550412261484e-08 6.10596555702939e-10 6.03083173884351e-10
"1748" 25782 4.94706715071011e-10 1.49319970374009e-09 1.50110683160082e-08 3.43974621452201e-09 4.38545484909845e-09 1.36641395975561e-08 6.10745708685112e-10 6.1220787366658e-10
"1749" 25783 4.95547934533392e-10 1.49043416791324e-09 1.4907825620972e-08 3.43551203130664e-09 4.40504963699854e-09 1.37732379689637e-08 6.10894861667286e-10 6.2133257344881e-10
"1750" 25784 4.96389153995773e-10 1.48766863208638e-09 1.48045829259358e-08 3.43127784809127e-09 4.42464442489863e-09 1.38823363403713e-08 6.11044014649459e-10 6.30457273231039e-10
"1751" 25785 4.97230373458154e-10 1.48490309625953e-09 1.47013402308995e-08 3.4270436648759e-09 4.44423921279871e-09 1.39914347117789e-08 6.11193167631633e-10 6.39581973013268e-10
"1752" 25786 4.98071592920535e-10 1.48213756043267e-09 1.45980975358633e-08 3.42280948166053e-09 4.46383400069880e-09 1.41005330831865e-08 6.11342320613806e-10 6.48706672795498e-10
"1753" 25787 4.98912812382915e-10 1.47937202460582e-09 1.44948548408271e-08 3.41857529844515e-09 4.48342878859888e-09 1.42096314545941e-08 6.1149147359598e-10 6.57831372577727e-10
"1754" 25788 4.99754031845296e-10 1.47026010640279e-09 1.43919233666302e-08 3.4279042270294e-09 4.48485013575166e-09 1.42126134676193e-08 6.11316673528463e-10 6.57638641766425e-10
"1755" 25789 5.00595251307677e-10 1.46114818819976e-09 1.42889918924333e-08 3.43723315561365e-09 4.48627148290443e-09 1.42155954806444e-08 6.11141873460946e-10 6.57445910955122e-10
"1756" 25790 5.00409071734536e-10 1.45230804023756e-09 1.43010533340621e-08 3.43178260938997e-09 4.47219723135871e-09 1.42148526038077e-08 6.1181542664567e-10 6.58137394883631e-10
"1757" 25791 5.00222892161396e-10 1.44346789227535e-09 1.43131147756909e-08 3.4263320631663e-09 4.45812297981298e-09 1.42141097269709e-08 6.12488979830394e-10 6.58828878812141e-10
"1758" 25792 5.00222892161396e-10 1.42795871222328e-09 1.43438814586509e-08 3.39172454280895e-09 4.45812297981298e-09 1.41655495849507e-08 6.09645614109325e-10 6.55496485625093e-10
"1759" 25793 5.00222892161396e-10 1.41244953217121e-09 1.4374648141611e-08 3.35711702245161e-09 4.45812297981298e-09 1.41169894429305e-08 6.06802248388257e-10 6.52164092438045e-10
"1760" 25794 5.00222892161396e-10 1.41272130241203e-09 1.44936933265422e-08 3.35590065944331e-09 4.45913761207994e-09 1.41013154896118e-08 6.06802248388257e-10 6.49284865229405e-10
"1761" 25795 5.00222892161396e-10 1.41299307265286e-09 1.46127385114735e-08 3.354684296435e-09 4.4601522443469e-09 1.4085641536293e-08 6.06802248388257e-10 6.46405638020765e-10
"1762" 25796 5.00222892161396e-10 1.41326484289368e-09 1.47317836964048e-08 3.3534679334267e-09 4.46116687661385e-09 1.40699675829743e-08 6.06802248388257e-10 6.43526410812125e-10
"1763" 25797 5.00222892161396e-10 1.4135366131345e-09 1.48508288813361e-08 3.3522515704184e-09 4.46218150888081e-09 1.40542936296555e-08 6.06802248388257e-10 6.40647183603485e-10
"1764" 25798 5.00222892161396e-10 1.41380838337532e-09 1.49698740662674e-08 3.3510352074101e-09 4.46319614114776e-09 1.40386196763368e-08 6.06802248388257e-10 6.37767956394846e-10
"1765" 25799 5.00222892161396e-10 1.41408015361614e-09 1.50889192511987e-08 3.34981884440179e-09 4.46421077341472e-09 1.4022945723018e-08 6.06802248388257e-10 6.34888729186206e-10
"1766" 25800 5.00222892161396e-10 1.41435192385696e-09 1.52079644361299e-08 3.34860248139349e-09 4.46522540568168e-09 1.40072717696993e-08 6.06802248388257e-10 6.32009501977566e-10
"1767" 25801 5.00222892161396e-10 1.41462369409778e-09 1.53270096210612e-08 3.34738611838519e-09 4.46624003794863e-09 1.39915978163805e-08 6.06802248388257e-10 6.29130274768926e-10
"1768" 25802 5.00222892161396e-10 1.4148954643386e-09 1.54460548059925e-08 3.34616975537688e-09 4.46725467021559e-09 1.39759238630618e-08 6.06802248388257e-10 6.26251047560286e-10
"1769" 25803 5.02031725057083e-10 1.4148954643386e-09 1.54683434857344e-08 3.35317760052161e-09 4.47660468914605e-09 1.400208213752e-08 6.09645614109325e-10 6.24562057397363e-10
"1770" 25804 5.0384055795277e-10 1.4148954643386e-09 1.54906321654762e-08 3.36018544566633e-09 4.48595470807651e-09 1.40282404119781e-08 6.12488979830394e-10 6.22873067234439e-10
"1771" 25805 5.05649390848457e-10 1.4148954643386e-09 1.55129208452181e-08 3.36719329081106e-09 4.49530472700697e-09 1.40543986864363e-08 6.15332345551462e-10 6.21184077071516e-10
"1772" 25806 5.07458223744145e-10 1.4148954643386e-09 1.55352095249599e-08 3.37420113595579e-09 4.50465474593744e-09 1.40805569608945e-08 6.1817571127253e-10 6.19495086908593e-10
"1773" 25807 5.09267056639832e-10 1.4148954643386e-09 1.55574982047018e-08 3.38120898110051e-09 4.5140047648679e-09 1.41067152353527e-08 6.21019076993599e-10 6.17806096745669e-10
"1774" 25808 5.11075889535519e-10 1.4148954643386e-09 1.55797868844437e-08 3.38821682624524e-09 4.52335478379836e-09 1.41328735098108e-08 6.23862442714667e-10 6.16117106582746e-10
"1775" 25809 5.12103288571041e-10 1.41593775793745e-09 1.55796001519401e-08 3.39245100946061e-09 4.5231942414368e-09 1.41807117863504e-08 6.26705808435736e-10 6.16117106582746e-10
"1776" 25810 5.1447066018615e-10 1.42504967614047e-09 1.56488031466705e-08 3.4328395753926e-09 4.54708301296511e-09 1.41650483387097e-08 6.28325573684187e-10 6.16570272561154e-10
"1777" 25811 5.16838031801259e-10 1.4341615943435e-09 1.57180061414009e-08 3.47322814132459e-09 4.57097178449342e-09 1.4149384891069e-08 6.29945338932638e-10 6.17023438539562e-10
"1778" 25812 5.19205403416369e-10 1.44327351254653e-09 1.57872091361314e-08 3.51361670725658e-09 4.59486055602173e-09 1.41337214434284e-08 6.31565104181089e-10 6.1747660451797e-10
"1779" 25813 5.21572775031478e-10 1.45238543074956e-09 1.58564121308618e-08 3.55400527318857e-09 4.61874932755004e-09 1.41180579957877e-08 6.3318486942954e-10 6.17929770496378e-10
"1780" 25814 5.23940146646587e-10 1.46149734895258e-09 1.59256151255922e-08 3.59439383912057e-09 4.64263809907835e-09 1.4102394548147e-08 6.34804634677991e-10 6.18382936474787e-10
"1781" 25815 5.26463805033729e-10 1.46965654828563e-09 1.58007732353067e-08 3.62492942184728e-09 4.6655122383397e-09 1.40824969518491e-08 6.30665456758162e-10 6.22599544401646e-10
"1782" 25816 5.28987463420872e-10 1.47781574761868e-09 1.56759313450213e-08 3.65546500457399e-09 4.68838637760106e-09 1.40625993555512e-08 6.26526278838333e-10 6.26816152328506e-10
"1783" 25817 5.2789345601664e-10 1.47486497022565e-09 1.57317609719517e-08 3.69706993351428e-09 4.69576491816391e-09 1.3982150531064e-08 6.26973737784853e-10 6.21715329661835e-10
"1784" 25818 5.26799448612408e-10 1.47191419283263e-09 1.57875905988822e-08 3.73867486245458e-09 4.70314345872676e-09 1.39017017065769e-08 6.27421196731374e-10 6.16614506995163e-10
"1785" 25819 5.25705441208176e-10 1.4689634154396e-09 1.58434202258126e-08 3.78027979139487e-09 4.71052199928961e-09 1.38212528820897e-08 6.27868655677894e-10 6.11513684328491e-10
"1786" 25820 5.24611433803944e-10 1.46601263804658e-09 1.5899249852743e-08 3.82188472033516e-09 4.71790053985247e-09 1.37408040576025e-08 6.28316114624414e-10 6.06412861661819e-10
"1787" 25821 5.23517426399712e-10 1.46306186065355e-09 1.59550794796735e-08 3.86348964927546e-09 4.72527908041532e-09 1.36603552331153e-08 6.28763573570935e-10 6.01312038995147e-10
"1788" 25822 5.22423418995479e-10 1.46011108326053e-09 1.60109091066039e-08 3.90509457821575e-09 4.73265762097817e-09 1.35799064086281e-08 6.29211032517455e-10 5.96211216328475e-10
"1789" 25823 5.21329411591247e-10 1.4571603058675e-09 1.60667387335343e-08 3.94669950715605e-09 4.74003616154102e-09 1.34994575841409e-08 6.29658491463976e-10 5.91110393661803e-10
"1790" 25824 5.20235404187015e-10 1.45420952847448e-09 1.61225683604648e-08 3.98830443609634e-09 4.74741470210388e-09 1.34190087596537e-08 6.30105950410496e-10 5.86009570995132e-10
"1791" 25825 5.17429065056914e-10 1.45099002689485e-09 1.62174858634922e-08 4.06761661829403e-09 4.73437861692633e-09 1.33422743193503e-08 6.28260090923842e-10 5.76884871212902e-10
"1792" 25826 5.14622725926813e-10 1.44777052531522e-09 1.63124033665196e-08 4.14692880049171e-09 4.72134253174878e-09 1.3265539879047e-08 6.26414231437187e-10 5.67760171430673e-10
"1793" 25827 5.11005060135438e-10 1.43788503769995e-09 1.62977519938427e-08 4.14599233382673e-09 4.71135034337209e-09 1.31910445749321e-08 6.25241925135256e-10 5.59326955576953e-10
"1794" 25828 5.08481401748296e-10 1.43979047543991e-09 1.62927329406995e-08 4.14599233382673e-09 4.71368356659657e-09 1.31962657241456e-08 6.22398559414188e-10 5.59326955576953e-10
"1795" 25829 5.05957743361153e-10 1.44169591317987e-09 1.62877138875563e-08 4.14599233382673e-09 4.71601678982105e-09 1.32014868733592e-08 6.1955519369312e-10 5.59326955576953e-10
"1796" 25830 5.03434084974011e-10 1.44360135091983e-09 1.62826948344131e-08 4.14599233382673e-09 4.71835001304553e-09 1.32067080225727e-08 6.16711827972051e-10 5.59326955576953e-10
"1797" 25831 5.00910426586869e-10 1.44550678865979e-09 1.627767578127e-08 4.14599233382673e-09 4.72068323627001e-09 1.32119291717863e-08 6.13868462250983e-10 5.59326955576953e-10
"1798" 25832 4.98386768199726e-10 1.44741222639975e-09 1.62726567281268e-08 4.14599233382673e-09 4.72301645949449e-09 1.32171503209999e-08 6.11025096529914e-10 5.59326955576953e-10
"1799" 25833 4.95863109812584e-10 1.44931766413971e-09 1.62676376749836e-08 4.14599233382673e-09 4.72534968271897e-09 1.32223714702134e-08 6.08181730808846e-10 5.59326955576953e-10
"1800" 25834 4.93339451425441e-10 1.45122310187967e-09 1.62626186218404e-08 4.14599233382673e-09 4.72768290594345e-09 1.3227592619427e-08 6.05338365087777e-10 5.59326955576953e-10
"1801" 25835 4.90815793038299e-10 1.45312853961963e-09 1.62575995686972e-08 4.14599233382673e-09 4.73001612916793e-09 1.32328137686405e-08 6.02494999366709e-10 5.59326955576953e-10
"1802" 25836 4.90473326693125e-10 1.45299417752633e-09 1.62575995686972e-08 4.14577347705284e-09 4.73587487627795e-09 1.32328137686405e-08 6.01322693064778e-10 5.60018439505462e-10
"1803" 25837 4.90317039921092e-10 1.45299417752633e-09 1.62563215638203e-08 4.14549358070952e-09 4.74057557479199e-09 1.31968089930989e-08 6.01847093267329e-10 5.60902654245274e-10
"1804" 25838 4.90160753149059e-10 1.45299417752633e-09 1.62550435589433e-08 4.1452136843662e-09 4.74527627330603e-09 1.31608042175573e-08 6.02371493469879e-10 5.61786868985086e-10
"1805" 25839 4.90004466377026e-10 1.45299417752633e-09 1.62537655540664e-08 4.14493378802288e-09 4.74997697182008e-09 1.31247994420157e-08 6.02895893672429e-10 5.62671083724898e-10
"1806" 25840 4.89848179604992e-10 1.45299417752633e-09 1.62524875491895e-08 4.14465389167957e-09 4.75467767033412e-09 1.30887946664741e-08 6.03420293874979e-10 5.6355529846471e-10
"1807" 25841 4.89691892832959e-10 1.45299417752633e-09 1.62512095443125e-08 4.14437399533625e-09 4.75937836884817e-09 1.30527898909325e-08 6.0394469407753e-10 5.64439513204522e-10
"1808" 25842 4.89535606060926e-10 1.45299417752633e-09 1.62499315394356e-08 4.14409409899293e-09 4.76407906736221e-09 1.30167851153909e-08 6.0446909428008e-10 5.65323727944334e-10
"1809" 25843 4.89379319288893e-10 1.45299417752633e-09 1.62486535345586e-08 4.14381420264961e-09 4.76877976587625e-09 1.29807803398493e-08 6.0499349448263e-10 5.66207942684146e-10
"1810" 25844 4.8922303251686e-10 1.45299417752633e-09 1.62473755296817e-08 4.14353430630629e-09 4.7734804643903e-09 1.29447755643078e-08 6.0551789468518e-10 5.67092157423958e-10
"1811" 25845 4.89066745744827e-10 1.45299417752633e-09 1.62460975248047e-08 4.14325440996298e-09 4.77818116290434e-09 1.29087707887662e-08 6.06042294887731e-10 5.6797637216377e-10
"1812" 25846 4.88910458972793e-10 1.45299417752633e-09 1.62448195199278e-08 4.14297451361966e-09 4.78288186141839e-09 1.28727660132246e-08 6.06566695090281e-10 5.68860586903582e-10
"1813" 25847 4.95454035098699e-10 1.45716335192172e-09 1.62780185240803e-08 4.15889887530468e-09 4.78341486660068e-09 1.28555432721638e-08 6.10531072942594e-10 5.68860586903582e-10
"1814" 25848 5.01997611224605e-10 1.46133252631711e-09 1.63112175282329e-08 4.1748232369897e-09 4.78394787178297e-09 1.2838320531103e-08 6.14495450794906e-10 5.68860586903582e-10
"1815" 25849 5.03025010260127e-10 1.46323491800286e-09 1.63645226673806e-08 4.1950175199557e-09 4.78196998534668e-09 1.28050536448671e-08 6.14495450794906e-10 5.7093503868911e-10
"1816" 25850 5.04052409295648e-10 1.4651373096886e-09 1.64178278065282e-08 4.21521180292169e-09 4.7799920989104e-09 1.27717867586311e-08 6.14495450794906e-10 5.73009490474638e-10
"1817" 25851 5.0507980833117e-10 1.46817461575628e-09 1.64379339415233e-08 4.23540608588769e-09 4.77983155654884e-09 1.2778472650162e-08 6.12351285343905e-10 5.75083942260167e-10
"1818" 25852 5.06107207366691e-10 1.47121192182395e-09 1.64580400765184e-08 4.25560036885368e-09 4.77967101418729e-09 1.27851585416929e-08 6.10207119892903e-10 5.77158394045695e-10
"1819" 25853 5.07134606402213e-10 1.46617960328745e-09 1.64773992814992e-08 4.25614972497855e-09 4.76807340219505e-09 1.27941045807684e-08 6.10531072942594e-10 5.78348631091412e-10
"1820" 25854 5.08162005437734e-10 1.46114728475094e-09 1.64967584864801e-08 4.25669908110341e-09 4.75647579020282e-09 1.28030506198439e-08 6.10855025992284e-10 5.79538868137128e-10
"1821" 25855 5.09189404473256e-10 1.45611496621444e-09 1.65161176914609e-08 4.25724843722827e-09 4.74487817821059e-09 1.28119966589194e-08 6.11178979041974e-10 5.80729105182844e-10
"1822" 25856 5.10216803508777e-10 1.45108264767794e-09 1.65354768964418e-08 4.25779779335313e-09 4.73328056621836e-09 1.28209426979949e-08 6.11502932091664e-10 5.81919342228561e-10
"1823" 25857 5.11244202544298e-10 1.44605032914143e-09 1.65548361014226e-08 4.25834714947800e-09 4.72168295422613e-09 1.28298887370704e-08 6.11826885141354e-10 5.83109579274277e-10
"1824" 25858 5.1227160157982e-10 1.44101801060493e-09 1.65741953064034e-08 4.25889650560286e-09 4.7100853422339e-09 1.28388347761459e-08 6.12150838191045e-10 5.84299816319994e-10
"1825" 25859 5.13299000615341e-10 1.43598569206842e-09 1.65935545113843e-08 4.25944586172772e-09 4.69848773024167e-09 1.28477808152214e-08 6.12474791240735e-10 5.8549005336571e-10
"1826" 25860 5.14326399650863e-10 1.43095337353192e-09 1.66129137163651e-08 4.25999521785258e-09 4.68689011824943e-09 1.28567268542969e-08 6.12798744290425e-10 5.86680290411427e-10
"1827" 25861 5.15353798686384e-10 1.42592105499542e-09 1.66322729213459e-08 4.26054457397744e-09 4.6752925062572e-09 1.28656728933724e-08 6.13122697340115e-10 5.87870527457143e-10
"1828" 25862 5.15353798686384e-10 1.42070958700118e-09 1.66212381085995e-08 4.24670156583451e-09 4.66567278070126e-09 1.28679330409169e-08 6.15143356894287e-10 5.87292335023236e-10
"1829" 25863 5.15353798686384e-10 1.41549811900694e-09 1.66102032958531e-08 4.23285855769157e-09 4.65605305514531e-09 1.28701931884615e-08 6.17164016448458e-10 5.86714142589328e-10
"1830" 25864 5.15353798686384e-10 1.4102866510127e-09 1.65991684831067e-08 4.21901554954863e-09 4.64643332958937e-09 1.2872453336006e-08 6.19184676002629e-10 5.86135950155421e-10
"1831" 25865 5.15353798686384e-10 1.40507518301846e-09 1.65881336703603e-08 4.20517254140570e-09 4.63681360403342e-09 1.28747134835506e-08 6.212053355568e-10 5.85557757721513e-10
"1832" 25866 5.15353798686384e-10 1.39986371502422e-09 1.65770988576139e-08 4.19132953326276e-09 4.62719387847747e-09 1.28769736310951e-08 6.23225995110971e-10 5.84979565287606e-10
"1833" 25867 5.15353798686384e-10 1.39465224702998e-09 1.65660640448675e-08 4.17748652511982e-09 4.61757415292153e-09 1.28792337786397e-08 6.25246654665143e-10 5.84401372853699e-10
"1834" 25868 5.15353798686384e-10 1.38576731170334e-09 1.65854232498483e-08 4.16364351697688e-09 4.71781712141146e-09 1.288146240915e-08 6.26095007917383e-10 5.85931484383221e-10
"1835" 25869 5.17162631582072e-10 1.37896696357439e-09 1.66304977629005e-08 4.15251313119387e-09 4.71573007071124e-09 1.28824494097063e-08 6.262698079849e-10 5.85931484383221e-10
"1836" 25870 5.18971464477759e-10 1.37216661544545e-09 1.66755722759527e-08 4.14138274541086e-09 4.71364302001103e-09 1.28834364102627e-08 6.26444608052417e-10 5.85931484383221e-10
"1837" 25871 5.20780297373446e-10 1.3653662673165e-09 1.67206467890049e-08 4.13025235962784e-09 4.71155596931081e-09 1.2884423410819e-08 6.26619408119933e-10 5.85931484383221e-10
"1838" 25872 5.22589130269133e-10 1.35856591918756e-09 1.67657213020571e-08 4.11912197384483e-09 4.7094689186106e-09 1.28854104113753e-08 6.2679420818745e-10 5.85931484383221e-10
"1839" 25873 5.24397963164821e-10 1.35176557105861e-09 1.68107958151093e-08 4.10799158806182e-09 4.70738186791038e-09 1.28863974119317e-08 6.26969008254967e-10 5.85931484383221e-10
"1840" 25874 5.24397963164821e-10 1.35189993315192e-09 1.68857639932228e-08 4.11070421042174e-09 4.71254706747655e-09 1.28834153989065e-08 6.25123148768312e-10 5.85931484383221e-10
"1841" 25875 5.26363082832541e-10 1.35398452034961e-09 1.69661869336545e-08 4.11844010201933e-09 4.71771226704272e-09 1.28841582757433e-08 6.24973995786139e-10 5.86815699123033e-10
"1842" 25876 5.28328202500262e-10 1.35606910754731e-09 1.70466098740861e-08 4.12617599361693e-09 4.72287746660888e-09 1.28849011525801e-08 6.24824842803965e-10 5.87699913862845e-10
"1843" 25877 5.30293322167982e-10 1.358153694745e-09 1.71270328145178e-08 4.13391188521453e-09 4.72804266617505e-09 1.28856440294168e-08 6.24675689821792e-10 5.88584128602657e-10
"1844" 25878 5.32258441835702e-10 1.3602382819427e-09 1.72074557549495e-08 4.14164777681212e-09 4.73320786574122e-09 1.28863869062536e-08 6.24526536839619e-10 5.89468343342469e-10
"1845" 25879 5.34223561503423e-10 1.36232286914039e-09 1.72878786953812e-08 4.14938366840972e-09 4.73837306530738e-09 1.28871297830904e-08 6.24377383857445e-10 5.90352558082281e-10
"1846" 25880 5.36188681171143e-10 1.36440745633809e-09 1.73683016358128e-08 4.15711956000731e-09 4.74353826487355e-09 1.28878726599271e-08 6.24228230875272e-10 5.91236772822093e-10
"1847" 25881 5.38153800838864e-10 1.36649204353579e-09 1.74487245762445e-08 4.16485545160491e-09 4.74870346443972e-09 1.28886155367639e-08 6.24079077893098e-10 5.92120987561905e-10
"1848" 25882 5.40118920506584e-10 1.36857663073348e-09 1.75291475166762e-08 4.1725913432025e-09 4.75386866400588e-09 1.28893584136007e-08 6.23929924910925e-10 5.93005202301717e-10
"1849" 25883 5.42084040174304e-10 1.37066121793118e-09 1.76095704571078e-08 4.1803272348001e-09 4.75903386357205e-09 1.28901012904375e-08 6.23780771928751e-10 5.93889417041528e-10
"1850" 25884 5.42895366835578e-10 1.37147652865364e-09 1.76096949454435e-08 4.19547294702459e-09 4.75832318999566e-09 1.28898571667179e-08 6.23780771928751e-10 5.94082147852831e-10
"1851" 25885 5.46513032626952e-10 1.37759592815342e-09 1.76090401820195e-08 4.19441440122075e-09 4.76557544026204e-09 1.29098598197966e-08 6.32881833935307e-10 5.95192945581847e-10
"1852" 25886 5.47324359288225e-10 1.37759592815342e-09 1.76280243224445e-08 4.1972238012157e-09 4.78222908755651e-09 1.30301983879822e-08 6.34578540439788e-10 5.95192945581847e-10
"1853" 25887 5.47979399177466e-10 1.37374331136329e-09 1.76062036736231e-08 4.20003320121066e-09 4.79888273485098e-09 1.31505369561679e-08 6.35452540777372e-10 5.94308730842035e-10
"1854" 25888 5.48634439066706e-10 1.36989069457315e-09 1.75843830248017e-08 4.20284260120561e-09 4.81553638214545e-09 1.32708755243536e-08 6.36326541114956e-10 5.93424516102223e-10
"1855" 25889 5.49289478955946e-10 1.36603807778301e-09 1.75625623759803e-08 4.20565200120057e-09 4.83219002943992e-09 1.33912140925393e-08 6.37200541452539e-10 5.92540301362411e-10
"1856" 25890 5.49944518845186e-10 1.36218546099288e-09 1.75407417271589e-08 4.20846140119552e-09 4.84884367673439e-09 1.35115526607249e-08 6.38074541790123e-10 5.91656086622599e-10
"1857" 25891 5.50599558734426e-10 1.35833284420274e-09 1.75189210783375e-08 4.21127080119048e-09 4.86549732402886e-09 1.36318912289106e-08 6.38948542127707e-10 5.90771871882787e-10
"1858" 25892 5.51254598623666e-10 1.3544802274126e-09 1.74971004295161e-08 4.21408020118543e-09 4.88215097132333e-09 1.37522297970963e-08 6.39822542465291e-10 5.89887657142975e-10
"1859" 25893 5.51909638512906e-10 1.35062761062246e-09 1.74752797806947e-08 4.21688960118039e-09 4.8988046186178e-09 1.3872568365282e-08 6.40696542802874e-10 5.89003442403163e-10
"1860" 25894 5.52564678402147e-10 1.34677499383233e-09 1.74534591318733e-08 4.21969900117534e-09 4.91545826591227e-09 1.39929069334677e-08 6.41570543140458e-10 5.88119227663351e-10
"1861" 25895 5.53219718291387e-10 1.34292237704219e-09 1.74316384830519e-08 4.2225084011703e-09 4.93211191320674e-09 1.41132455016533e-08 6.42444543478042e-10 5.8723501292354e-10
"1862" 25896 5.52847359145105e-10 1.33077315277149e-09 1.74316384830519e-08 4.22029453192758e-09 4.95229108438674e-09 1.40381698921204e-08 6.41997084531522e-10 5.86124215194524e-10
"1863" 25897 5.52474999998824e-10 1.31862392850078e-09 1.74316384830519e-08 4.21808066268486e-09 4.97247025556674e-09 1.39630942825874e-08 6.41549625585001e-10 5.85013417465508e-10
"1864" 25898 5.52102640852543e-10 1.30647470423008e-09 1.74316384830519e-08 4.21586679344214e-09 4.99264942674675e-09 1.38880186730544e-08 6.41102166638481e-10 5.83902619736492e-10
"1865" 25899 5.51730281706261e-10 1.29432547995938e-09 1.74316384830519e-08 4.21365292419943e-09 5.01282859792675e-09 1.38129430635214e-08 6.4065470769196e-10 5.82791822007476e-10
"1866" 25900 5.5135792255998e-10 1.28217625568867e-09 1.74316384830519e-08 4.21143905495671e-09 5.03300776910675e-09 1.37378674539885e-08 6.4020724874544e-10 5.8168102427846e-10
"1867" 25901 5.50985563413699e-10 1.27002703141797e-09 1.74316384830519e-08 4.20922518571399e-09 5.05318694028675e-09 1.36627918444555e-08 6.39759789798919e-10 5.80570226549444e-10
"1868" 25902 5.50613204267417e-10 1.25787780714727e-09 1.74316384830519e-08 4.20701131647128e-09 5.07336611146676e-09 1.35877162349225e-08 6.39312330852399e-10 5.79459428820428e-10
"1869" 25903 5.50240845121136e-10 1.24572858287656e-09 1.74316384830519e-08 4.20479744722856e-09 5.09354528264676e-09 1.35126406253895e-08 6.38864871905879e-10 5.78348631091412e-10
"1870" 25904 5.49868485974855e-10 1.23357935860586e-09 1.74316384830519e-08 4.20258357798584e-09 5.11372445382676e-09 1.34375650158566e-08 6.38417412959358e-10 5.77237833362396e-10
"1871" 25905 5.49496126828573e-10 1.22143013433516e-09 1.74316384830519e-08 4.20036970874313e-09 5.13390362500676e-09 1.33624894063236e-08 6.37969954012838e-10 5.7612703563338e-10
"1872" 25906 5.61183520898582e-10 1.20905392718807e-09 1.74208833691737e-08 4.19662384208319e-09 5.14468139915868e-09 1.31708421411792e-08 6.36350188764387e-10 5.75016237904364e-10
"1873" 25907 5.72870914968591e-10 1.19667772004098e-09 1.74101282552954e-08 4.19287797542325e-09 5.15545917331059e-09 1.29791948760348e-08 6.34730423515935e-10 5.73905440175347e-10
"1874" 25908 5.71843515933069e-10 1.18452849577027e-09 1.73962876563493e-08 4.19066410618053e-09 5.15715022708885e-09 1.27835365745966e-08 6.32586258064934e-10 5.73678857186143e-10
"1875" 25909 5.70816116897548e-10 1.17237927149957e-09 1.73824470574033e-08 4.18845023693781e-09 5.15884128086711e-09 1.25878782731583e-08 6.30442092613933e-10 5.73452274196939e-10
"1876" 25910 5.69007284001861e-10 1.16054355877991e-09 1.73882453623062e-08 4.14977678713133e-09 5.15556192950584e-09 1.25876341494388e-08 6.27074326690314e-10 5.74030466630847e-10
"1877" 25911 5.67198451106173e-10 1.14870784606024e-09 1.73940436672091e-08 4.11110333732485e-09 5.15228257814458e-09 1.25873900257192e-08 6.23706560766695e-10 5.74608659064754e-10
"1878" 25912 5.66171052070652e-10 1.14870784606024e-09 1.73275235698914e-08 4.10296547024508e-09 5.08953172360788e-09 1.25751338044744e-08 6.22009854262214e-10 5.7438207607555e-10
"1879" 25913 5.6514365303513e-10 1.14870784606024e-09 1.72610034725736e-08 4.09482760316531e-09 5.02678086907119e-09 1.25628775832295e-08 6.20313147757733e-10 5.74155493086346e-10
"1880" 25914 5.64116253999609e-10 1.14870784606024e-09 1.71944833752559e-08 4.08668973608554e-09 4.9640300145345e-09 1.25506213619847e-08 6.18616441253252e-10 5.73928910097142e-10
"1881" 25915 5.63088854964087e-10 1.14870784606024e-09 1.71279632779382e-08 4.07855186900576e-09 4.9012791599978e-09 1.25383651407398e-08 6.16919734748771e-10 5.73702327107938e-10
"1882" 25916 5.62061455928566e-10 1.14870784606024e-09 1.70614431806205e-08 4.07041400192599e-09 4.83852830546111e-09 1.2526108919495e-08 6.1522302824429e-10 5.73475744118734e-10
"1883" 25917 5.61034056893044e-10 1.14870784606024e-09 1.69949230833027e-08 4.06227613484622e-09 4.77577745092442e-09 1.25138526982502e-08 6.13526321739809e-10 5.7324916112953e-10
"1884" 25918 5.60006657857523e-10 1.14870784606024e-09 1.6928402985985e-08 4.05413826776645e-09 4.71302659638773e-09 1.25015964770053e-08 6.11829615235328e-10 5.73022578140326e-10
"1885" 25919 5.58979258822002e-10 1.14870784606024e-09 1.68618828886673e-08 4.04600040068668e-09 4.65027574185103e-09 1.24893402557605e-08 6.10132908730847e-10 5.72795995151122e-10
"1886" 25920 5.5795185978648e-10 1.14870784606024e-09 1.67953627913495e-08 4.03786253360691e-09 4.58752488731434e-09 1.24770840345156e-08 6.08436202226366e-10 5.72569412161917e-10
"1887" 25921 5.56924460750958e-10 1.15238131339264e-09 1.67525961111542e-08 4.02691526653218e-09 4.5338607531513e-09 1.24770104947691e-08 6.07263895924436e-10 5.7353306621843e-10
"1888" 25922 5.55740774943404e-10 1.16421702611231e-09 1.68013801505015e-08 4.06335998215389e-09 4.62668021104943e-09 1.24650089029219e-08 6.05418036437781e-10 5.72728290795318e-10
"1889" 25923 5.54557089135849e-10 1.17605273883197e-09 1.68501641898488e-08 4.0998046977756e-09 4.71949966894755e-09 1.24530073110747e-08 6.03572176951127e-10 5.71923515372207e-10
"1890" 25924 5.53373403328295e-10 1.18788845155164e-09 1.68989482291961e-08 4.13624941339731e-09 4.81231912684568e-09 1.24410057192275e-08 6.01726317464472e-10 5.71118739949095e-10
"1891" 25925 5.5218971752074e-10 1.1997241642713e-09 1.69477322685434e-08 4.17269412901903e-09 4.9051385847438e-09 1.24290041273803e-08 5.99880457977818e-10 5.70313964525984e-10
"1892" 25926 5.51006031713185e-10 1.21155987699097e-09 1.69965163078908e-08 4.20913884464074e-09 4.99795804264193e-09 1.24170025355331e-08 5.98034598491163e-10 5.69509189102872e-10
"1893" 25927 5.53440011697005e-10 1.21228561298456e-09 1.69241356615023e-08 4.31850272138998e-09 4.93467418292294e-09 1.24047463142883e-08 5.96013938936992e-10 5.69509189102872e-10
"1894" 25928 5.55873991680825e-10 1.21301134897816e-09 1.68517550151138e-08 4.42786659813922e-09 4.87139032320396e-09 1.23924900930434e-08 5.93993279382821e-10 5.69509189102872e-10
"1895" 25929 5.58307971664645e-10 1.21373708497175e-09 1.67793743687253e-08 4.53723047488846e-09 4.80810646348497e-09 1.23802338717986e-08 5.9197261982865e-10 5.69509189102872e-10
"1896" 25930 5.60741951648465e-10 1.21446282096534e-09 1.67069937223368e-08 4.6465943516377e-09 4.74482260376599e-09 1.23679776505537e-08 5.89951960274479e-10 5.69509189102872e-10
"1897" 25931 5.63175931632285e-10 1.21518855695894e-09 1.66346130759483e-08 4.75595822838694e-09 4.68153874404701e-09 1.23557214293089e-08 5.87931300720307e-10 5.69509189102872e-10
"1898" 25932 5.65609911616105e-10 1.20407858023287e-09 1.62143533299694e-08 4.86853348061331e-09 4.67772638750345e-09 1.23547134173964e-08 5.87082947468067e-10 5.70619986831888e-10
"1899" 25933 5.68043891599924e-10 1.19296860350679e-09 1.57940935839906e-08 4.98110873283969e-09 4.67391403095989e-09 1.23537054054839e-08 5.86234594215826e-10 5.71730784560904e-10
"1900" 25934 5.71661557391299e-10 1.19296860350679e-09 1.57904463018633e-08 5.07196814124461e-09 4.67010167441633e-09 1.23447593664084e-08 5.84213934661655e-10 5.72648851478618e-10
"1901" 25935 5.75279223182674e-10 1.19296860350679e-09 1.57867990197361e-08 5.16282754964954e-09 4.66628931787277e-09 1.23358133273329e-08 5.82193275107484e-10 5.73566918396331e-10
"1902" 25936 5.78896888974048e-10 1.19296860350679e-09 1.57831517376088e-08 5.25368695805447e-09 4.66247696132921e-09 1.23268672882574e-08 5.80172615553313e-10 5.74484985314045e-10
"1903" 25937 5.82514554765422e-10 1.19296860350679e-09 1.57795044554815e-08 5.3445463664594e-09 4.65866460478565e-09 1.23179212491819e-08 5.78151955999142e-10 5.75403052231758e-10
"1904" 25938 5.86132220556797e-10 1.19296860350679e-09 1.57758571733543e-08 5.43540577486432e-09 4.65485224824209e-09 1.23089752101064e-08 5.7613129644497e-10 5.76321119149472e-10
"1905" 25939 5.89749886348171e-10 1.19296860350679e-09 1.5772209891227e-08 5.52626518326925e-09 4.65103989169853e-09 1.2300029171031e-08 5.74110636890799e-10 5.77239186067185e-10
"1906" 25940 5.93367552139546e-10 1.19296860350679e-09 1.57685626090997e-08 5.61712459167418e-09 4.64722753515498e-09 1.22910831319555e-08 5.72089977336628e-10 5.78157252984899e-10
"1907" 25941 5.96985217930921e-10 1.19296860350679e-09 1.57649153269724e-08 5.70798400007911e-09 4.64341517861142e-09 1.228213709288e-08 5.70069317782457e-10 5.79075319902613e-10
"1908" 25942 6.00602883722295e-10 1.19296860350679e-09 1.57612680448452e-08 5.79884340848404e-09 4.63960282206786e-09 1.22731910538045e-08 5.68048658228285e-10 5.79993386820326e-10
"1909" 25943 6.00602883722295e-10 1.19228765487763e-09 1.57820289432643e-08 5.77472014014981e-09 4.63744726723748e-09 1.22644996441266e-08 5.66351951723805e-10 5.79800656009024e-10
"1910" 25944 6.00602883722295e-10 1.20339763160371e-09 1.59607992141503e-08 5.77975384594926e-09 4.63416791587621e-09 1.25269513336821e-08 5.6450609223715e-10 5.80718722926737e-10
"1911" 25945 6.0422054951367e-10 1.21822586302661e-09 1.5957868939615e-08 5.81259564717344e-09 4.63272303462221e-09 1.25539785531139e-08 5.63632091899566e-10 5.81410206855247e-10
"1912" 25946 6.07838215305044e-10 1.23305409444952e-09 1.59549386650796e-08 5.84543744839761e-09 4.63127815336822e-09 1.25810057725458e-08 5.62758091561983e-10 5.82101690783756e-10
"1913" 25947 6.11455881096419e-10 1.24788232587243e-09 1.59520083905442e-08 5.87827924962179e-09 4.62983327211422e-09 1.26080329919777e-08 5.61884091224399e-10 5.82793174712266e-10
"1914" 25948 6.15073546887793e-10 1.26271055729534e-09 1.59490781160088e-08 5.91112105084597e-09 4.62838839086023e-09 1.26350602114095e-08 5.61010090886815e-10 5.83484658640775e-10
"1915" 25949 6.18691212679168e-10 1.27753878871824e-09 1.59461478414734e-08 5.94396285207015e-09 4.62694350960623e-09 1.26620874308414e-08 5.60136090549231e-10 5.84176142569284e-10
"1916" 25950 6.22308878470542e-10 1.29236702014115e-09 1.5943217566938e-08 5.97680465329433e-09 4.62549862835224e-09 1.26891146502733e-08 5.59262090211647e-10 5.84867626497794e-10
"1917" 25951 6.25926544261917e-10 1.30719525156406e-09 1.59402872924026e-08 6.0096464545185e-09 4.62405374709824e-09 1.27161418697051e-08 5.58388089874064e-10 5.85559110426303e-10
"1918" 25952 6.29544210053291e-10 1.32202348298697e-09 1.59373570178673e-08 6.04248825574268e-09 4.62260886584425e-09 1.2743169089137e-08 5.5751408953648e-10 5.86250594354813e-10
"1919" 25953 6.33161875844666e-10 1.33685171440987e-09 1.59344267433319e-08 6.07533005696686e-09 4.62116398459025e-09 1.27701963085689e-08 5.56640089198896e-10 5.86942078283322e-10
"1920" 25954 6.36623254864007e-10 1.34352074649974e-09 1.59343022549962e-08 6.12667632653535e-09 4.58220986335048e-09 1.28059149376786e-08 5.57786748415484e-10 5.87826293023134e-10
"1921" 25955 6.40240920655382e-10 1.35930169679262e-09 1.58867954207514e-08 6.19002840898241e-09 4.57704466378432e-09 1.28409011956296e-08 5.58609454582381e-10 5.88517776951644e-10
"1922" 25956 6.41893466779036e-10 1.37290543910473e-09 1.58672510828157e-08 6.2413746785509e-09 4.56979241351794e-09 1.2876874454137e-08 5.59756113798968e-10 5.89401991691456e-10
"1923" 25957 6.4354601290269e-10 1.38650918141684e-09 1.58477067448801e-08 6.2927209481194e-09 4.56254016325155e-09 1.29128477126444e-08 5.60902773015556e-10 5.90286206431267e-10
"1924" 25958 6.45198559026344e-10 1.40011292372894e-09 1.58281624069444e-08 6.34406721768789e-09 4.55528791298517e-09 1.29488209711517e-08 5.62049432232143e-10 5.91170421171079e-10
"1925" 25959 6.46851105149998e-10 1.41371666604105e-09 1.58086180690087e-08 6.39541348725638e-09 4.54803566271879e-09 1.29847942296591e-08 5.63196091448731e-10 5.92054635910891e-10
"1926" 25960 6.48503651273652e-10 1.42732040835316e-09 1.57890737310731e-08 6.44675975682487e-09 4.54078341245241e-09 1.30207674881665e-08 5.64342750665318e-10 5.92938850650703e-10
"1927" 25961 6.50156197397306e-10 1.44092415066527e-09 1.57695293931374e-08 6.49810602639336e-09 4.53353116218603e-09 1.30567407466738e-08 5.65489409881905e-10 5.93823065390515e-10
"1928" 25962 6.5180874352096e-10 1.45452789297737e-09 1.57499850552017e-08 6.54945229596185e-09 4.52627891191965e-09 1.30927140051812e-08 5.66636069098493e-10 5.94707280130327e-10
"1929" 25963 6.53461289644614e-10 1.46813163528948e-09 1.5730440717266e-08 6.60079856553035e-09 4.51902666165326e-09 1.31286872636886e-08 5.6778272831508e-10 5.95591494870139e-10
"1930" 25964 6.55113835768268e-10 1.48173537760159e-09 1.57108963793304e-08 6.65214483509884e-09 4.51177441138688e-09 1.31646605221959e-08 5.68929387531668e-10 5.96475709609951e-10
"1931" 25965 6.5567237448769e-10 1.48590455199698e-09 1.56904167793281e-08 6.64107548888525e-09 4.50381148754411e-09 1.32134647879357e-08 5.70950047085839e-10 5.96781731915855e-10
"1932" 25966 6.56230913207112e-10 1.49007372639237e-09 1.56699371793259e-08 6.63000614267167e-09 4.49584856370134e-09 1.32622690536754e-08 5.7297070664001e-10 5.9708775422176e-10
"1933" 25967 6.60965656437331e-10 1.48812350128798e-09 1.56497380779662e-08 6.62408214483461e-09 4.48859631343496e-09 1.32925013984959e-08 5.732946596897e-10 5.98198551950776e-10
"1934" 25968 6.6570039966755e-10 1.48617327618358e-09 1.56295389766065e-08 6.61815814699756e-09 4.48134406316858e-09 1.33227337433163e-08 5.73618612739391e-10 5.99309349679792e-10
"1935" 25969 6.66631297533253e-10 1.48422305107919e-09 1.56259539386471e-08 6.62318141623523e-09 4.47989918191458e-09 1.32969351550366e-08 5.7192190623491e-10 5.99535932668996e-10
"1936" 25970 6.72988694086018e-10 1.45928844127306e-09 1.55906976778578e-08 6.62010255645873e-09 4.48390633288478e-09 1.33231564635632e-08 5.71099200068012e-10 5.99535932668996e-10
"1937" 25971 6.79532270211924e-10 1.45720385407536e-09 1.55353352820735e-08 6.62384842311867e-09 4.48390633288478e-09 1.33524018078273e-08 5.71099200068012e-10 6.00646730398012e-10
"1938" 25972 6.8607584633783e-10 1.45511926687767e-09 1.54799728862892e-08 6.62759428977861e-09 4.48390633288478e-09 1.33816471520914e-08 5.71099200068012e-10 6.01757528127028e-10
"1939" 25973 6.92619422463736e-10 1.45303467967997e-09 1.54246104905048e-08 6.63134015643855e-09 4.48390633288478e-09 1.34108924963555e-08 5.71099200068012e-10 6.02868325856044e-10
"1940" 25974 6.99162998589641e-10 1.45095009248227e-09 1.53692480947205e-08 6.63508602309849e-09 4.48390633288478e-09 1.34401378406196e-08 5.71099200068012e-10 6.0397912358506e-10
"1941" 25975 7.05706574715547e-10 1.44886550528458e-09 1.53138856989361e-08 6.63883188975843e-09 4.48390633288478e-09 1.34693831848837e-08 5.71099200068012e-10 6.05089921314076e-10
"1942" 25976 7.12250150841453e-10 1.44678091808688e-09 1.52585233031518e-08 6.64257775641837e-09 4.48390633288478e-09 1.34986285291478e-08 5.71099200068012e-10 6.06200719043092e-10
"1943" 25977 7.18793726967359e-10 1.44469633088919e-09 1.52031609073675e-08 6.64632362307831e-09 4.48390633288478e-09 1.3527873873412e-08 5.71099200068012e-10 6.07311516772108e-10
"1944" 25978 7.25337303093265e-10 1.44261174369149e-09 1.51477985115831e-08 6.65006948973825e-09 4.48390633288478e-09 1.35571192176761e-08 5.71099200068012e-10 6.08422314501124e-10
"1945" 25979 7.25337303093265e-10 1.44052715649379e-09 1.51009464407624e-08 6.64867000802166e-09 4.48207186277751e-09 1.35563868465174e-08 5.70950047085839e-10 6.08615045312427e-10
"1946" 25980 7.25337303093265e-10 1.4384425692961e-09 1.50540943699417e-08 6.64727052630507e-09 4.48023739267024e-09 1.35556544753587e-08 5.70800894103665e-10 6.08807776123729e-10
"1947" 25981 7.25337303093265e-10 1.4363579820984e-09 1.5007242299121e-08 6.64587104458848e-09 4.47840292256296e-09 1.35549221042e-08 5.70651741121492e-10 6.09000506935032e-10
"1948" 25982 7.25337303093265e-10 1.43427339490071e-09 1.49603902283003e-08 6.64447156287189e-09 4.47656845245569e-09 1.35541897330413e-08 5.70502588139319e-10 6.09193237746334e-10
"1949" 25983 7.25337303093265e-10 1.43218880770301e-09 1.49135381574796e-08 6.64307208115529e-09 4.47473398234842e-09 1.35534573618826e-08 5.70353435157145e-10 6.09385968557637e-10
"1950" 25984 7.25337303093265e-10 1.43010422050532e-09 1.48666860866589e-08 6.6416725994387e-09 4.47289951224114e-09 1.35527249907239e-08 5.70204282174972e-10 6.09578699368939e-10
"1951" 25985 7.25337303093265e-10 1.42801963330762e-09 1.48198340158381e-08 6.64027311772211e-09 4.47106504213387e-09 1.35519926195652e-08 5.70055129192798e-10 6.09771430180241e-10
"1952" 25986 7.26364702128786e-10 1.42788527121432e-09 1.4799727880843e-08 6.67421363119602e-09 4.47250992338787e-09 1.35869788775162e-08 5.72199294643799e-10 6.13988038107101e-10
"1953" 25987 7.27392101164308e-10 1.42775090912102e-09 1.47796217458479e-08 6.70815414466992e-09 4.47395480464186e-09 1.36219651354673e-08 5.74343460094801e-10 6.18204646033961e-10
"1954" 25988 7.28419500199829e-10 1.42761654702771e-09 1.47595156108529e-08 6.74209465814382e-09 4.47539968589586e-09 1.36569513934183e-08 5.76487625545802e-10 6.22421253960821e-10
"1955" 25989 7.29446899235351e-10 1.42748218493441e-09 1.47394094758577e-08 6.77603517161772e-09 4.47684456714985e-09 1.36919376513693e-08 5.78631790996804e-10 6.26637861887681e-10
"1956" 25990 7.30474298270872e-10 1.42734782284111e-09 1.47193033408626e-08 6.80997568509163e-09 4.47828944840385e-09 1.37269239093203e-08 5.80775956447805e-10 6.30854469814541e-10
"1957" 25991 7.31315517733253e-10 1.4292980479455e-09 1.47507255870211e-08 6.84531568028212e-09 4.48325985354337e-09 1.37606370202832e-08 5.8306927488098e-10 6.34186863001589e-10
"1958" 25992 7.32342916768774e-10 1.4275748057175e-09 1.47616359114318e-08 6.88131224579428e-09 4.48470473479737e-09 1.37925992424967e-08 5.84689040129431e-10 6.38097448622545e-10
"1959" 25993 7.32342916768774e-10 1.42585156348949e-09 1.47969544163888e-08 6.91372076185096e-09 4.48470473479737e-09 1.38084202753085e-08 5.86308805377882e-10 6.42314056549405e-10
"1960" 25994 7.32342916768774e-10 1.42412832126148e-09 1.48322729213459e-08 6.94612927790764e-09 4.48470473479737e-09 1.38242413081204e-08 5.87928570626333e-10 6.46530664476264e-10
"1961" 25995 7.32342916768774e-10 1.42240507903348e-09 1.4867591426303e-08 6.97853779396432e-09 4.48470473479737e-09 1.38400623409322e-08 5.89548335874785e-10 6.50747272403124e-10
"1962" 25996 7.32342916768774e-10 1.42068183680547e-09 1.49029099312601e-08 7.010946310021e-09 4.48470473479737e-09 1.3855883373744e-08 5.91168101123236e-10 6.54963880329984e-10
"1963" 25997 7.32342916768774e-10 1.41895859457746e-09 1.49382284362172e-08 7.04335482607768e-09 4.48470473479737e-09 1.38717044065559e-08 5.92787866371687e-10 6.59180488256844e-10
"1964" 25998 7.32342916768774e-10 1.41723535234945e-09 1.49735469411743e-08 7.07576334213436e-09 4.48470473479737e-09 1.38875254393677e-08 5.94407631620138e-10 6.63397096183704e-10
"1965" 25999 7.32342916768774e-10 1.41551211012145e-09 1.50088654461314e-08 7.10817185819104e-09 4.48470473479737e-09 1.39033464721795e-08 5.96027396868589e-10 6.67613704110564e-10
"1966" 26000 7.32342916768774e-10 1.41378886789344e-09 1.50441839510885e-08 7.14058037424772e-09 4.48470473479737e-09 1.39191675049914e-08 5.9764716211704e-10 6.71830312037424e-10
"1967" 26001 7.32342916768774e-10 1.41206562566543e-09 1.50795024560456e-08 7.1729888903044e-09 4.48470473479737e-09 1.39349885378032e-08 5.99266927365491e-10 6.76046919964284e-10
"1968" 26002 7.32342916768774e-10 1.41034238343742e-09 1.51148209610027e-08 7.20539740636108e-09 4.48470473479737e-09 1.3950809570615e-08 6.00886692613943e-10 6.80263527891144e-10
"1969" 26003 7.32342916768774e-10 1.40861914120942e-09 1.51501394659598e-08 7.23780592241776e-09 4.48470473479737e-09 1.39666306034268e-08 6.02506457862394e-10 6.84480135818004e-10
"1970" 26004 7.31970557622493e-10 1.40576098459948e-09 1.51508564735517e-08 7.24965391809187e-09 4.4814253834361e-09 1.39504473913128e-08 6.01658104610153e-10 6.88243577766456e-10
"1971" 26005 7.31598198476212e-10 1.40290282798954e-09 1.51515734811436e-08 7.26150191376598e-09 4.47814603207483e-09 1.39342641791988e-08 6.00809751357913e-10 6.92007019714908e-10
"1972" 26006 7.3122583932993e-10 1.40004467137959e-09 1.51522904887354e-08 7.27334990944009e-09 4.47486668071357e-09 1.39180809670847e-08 5.99961398105672e-10 6.95770461663359e-10
"1973" 26007 7.30853480183649e-10 1.39718651476965e-09 1.51530074963273e-08 7.28519790511419e-09 4.4715873293523e-09 1.39018977549707e-08 5.99113044853432e-10 6.99533903611811e-10
"1974" 26008 7.30481121037368e-10 1.39432835815971e-09 1.51537245039192e-08 7.2970459007883e-09 4.46830797799103e-09 1.38857145428567e-08 5.98264691601191e-10 7.03297345560263e-10
"1975" 26009 7.30108761891086e-10 1.39147020154977e-09 1.51544415115111e-08 7.30889389646241e-09 4.46502862662976e-09 1.38695313307426e-08 5.97416338348951e-10 7.07060787508715e-10
"1976" 26010 7.29736402744805e-10 1.38861204493983e-09 1.5155158519103e-08 7.32074189213652e-09 4.46174927526849e-09 1.38533481186286e-08 5.9656798509671e-10 7.10824229457166e-10
"1977" 26011 7.29364043598524e-10 1.38575388832989e-09 1.51558755266949e-08 7.33258988781063e-09 4.45846992390723e-09 1.38371649065146e-08 5.9571963184447e-10 7.14587671405618e-10
"1978" 26012 7.28991684452242e-10 1.38289573171995e-09 1.51565925342867e-08 7.34443788348474e-09 4.45519057254596e-09 1.38209816944005e-08 5.94871278592229e-10 7.1835111335407e-10
"1979" 26013 7.27279352726373e-10 1.37509483130238e-09 1.51573095418786e-08 7.35800099528436e-09 4.45102287921421e-09 1.38159416348381e-08 5.94696478524712e-10 7.22114555302522e-10
"1980" 26014 7.25567021000504e-10 1.36376091775414e-09 1.49772895889893e-08 7.25234724712946e-09 4.45319556007713e-09 1.37950255209496e-08 5.92675818970541e-10 7.25877997250974e-10
"1981" 26015 7.26035881316603e-10 1.3624916412789e-09 1.49721460475104e-08 7.25563009873779e-09 4.43165713780584e-09 1.37428060162598e-08 5.83250803914295e-10 7.28530641470409e-10
"1982" 26016 7.26504741632703e-10 1.36122236480367e-09 1.49670025060315e-08 7.25891295034612e-09 4.41011871553456e-09 1.36905865115699e-08 5.73825788858049e-10 7.31183285689845e-10
"1983" 26017 7.26973601948802e-10 1.35995308832843e-09 1.49618589645526e-08 7.26219580195446e-09 4.38858029326327e-09 1.363836700688e-08 5.64400773801803e-10 7.33835929909281e-10
"1984" 26018 7.27442462264902e-10 1.3586838118532e-09 1.49567154230737e-08 7.26547865356279e-09 4.36704187099198e-09 1.35861475021902e-08 5.54975758745557e-10 7.36488574128717e-10
"1985" 26019 7.27911322581001e-10 1.35741453537796e-09 1.49515718815948e-08 7.26876150517113e-09 4.34550344872069e-09 1.35339279975003e-08 5.45550743689311e-10 7.39141218348152e-10
"1986" 26020 7.28380182897101e-10 1.35614525890273e-09 1.49464283401159e-08 7.27204435677946e-09 4.32396502644941e-09 1.34817084928104e-08 5.36125728633065e-10 7.41793862567588e-10
"1987" 26021 7.288490432132e-10 1.3548759824275e-09 1.49412847986371e-08 7.27532720838779e-09 4.30242660417812e-09 1.34294889881206e-08 5.26700713576819e-10 7.44446506787024e-10
"1988" 26022 7.293179035293e-10 1.35360670595226e-09 1.49361412571582e-08 7.27861005999613e-09 4.28088818190683e-09 1.33772694834307e-08 5.17275698520572e-10 7.4709915100646e-10
"1989" 26023 7.29786763845399e-10 1.35519558608697e-09 1.51554350188737e-08 7.30792485133426e-09 4.26634942930899e-09 1.33233411127039e-08 5.08174636514017e-10 7.46181084088746e-10
"1990" 26024 7.30255624161499e-10 1.35678446622167e-09 1.53747287805892e-08 7.33723964267238e-09 4.25181067671114e-09 1.32694127419771e-08 4.99073574507461e-10 7.45263017171033e-10
"1991" 26025 7.30724484477598e-10 1.35447289614759e-09 1.54329883293891e-08 7.3500494065153e-09 4.22973924925756e-09 1.32132242237057e-08 4.89823359518731e-10 7.45036434181829e-10
"1992" 26026 7.31193344793697e-10 1.35216132607351e-09 1.5491247878189e-08 7.36285917035823e-09 4.20766782180398e-09 1.31570357054344e-08 4.80573144530002e-10 7.44809851192624e-10
"1993" 26027 7.31662205109797e-10 1.34984975599943e-09 1.55495074269889e-08 7.37566893420115e-09 4.1855963943504e-09 1.3100847187163e-08 4.71322929541273e-10 7.4458326820342e-10
"1994" 26028 7.3050841210335e-10 1.34984975599943e-09 1.56077669757888e-08 7.38890597503007e-09 4.15642254102813e-09 1.30998601866067e-08 4.70649376356549e-10 7.45467482943232e-10
"1995" 26029 7.29354619096903e-10 1.34984975599943e-09 1.56660265245886e-08 7.402143015859e-09 4.12724868770586e-09 1.30988731860503e-08 4.69975823171825e-10 7.46351697683044e-10
"1996" 26030 7.29354619096903e-10 1.34962277312304e-09 1.57242860733885e-08 7.42099885667784e-09 4.1248812124163e-09 1.2989008433326e-08 4.66458904266033e-10 7.47043181611554e-10
"1997" 26031 7.29354619096903e-10 1.34939579024665e-09 1.57825456221884e-08 7.43985469749667e-09 4.12251373712674e-09 1.28791436806017e-08 4.62941985360241e-10 7.47734665540063e-10
"1998" 26032 7.29354619096903e-10 1.34916880737027e-09 1.58408051709883e-08 7.4587105383155e-09 4.12014626183717e-09 1.27692789278773e-08 4.59425066454449e-10 7.48426149468573e-10
"1999" 26033 7.29354619096903e-10 1.34894182449388e-09 1.58990647197882e-08 7.47756637913434e-09 4.11777878654761e-09 1.2659414175153e-08 4.55908147548657e-10 7.49117633397082e-10
"2000" 26034 7.29354619096903e-10 1.34871484161749e-09 1.59573242685881e-08 7.49642221995317e-09 4.11541131125804e-09 1.25495494224287e-08 4.52391228642864e-10 7.49809117325592e-10
"2001" 26035 7.29354619096903e-10 1.34848785874111e-09 1.6015583817388e-08 7.51527806077201e-09 4.11304383596848e-09 1.24396846697043e-08 4.48874309737072e-10 7.50500601254101e-10
"2002" 26036 7.29354619096903e-10 1.34826087586472e-09 1.60738433661878e-08 7.53413390159084e-09 4.11067636067892e-09 1.232981991698e-08 4.4535739083128e-10 7.5119208518261e-10
"2003" 26037 7.29354619096903e-10 1.34803389298833e-09 1.61321029149877e-08 7.55298974240968e-09 4.10830888538935e-09 1.22199551642557e-08 4.41840471925488e-10 7.5188356911112e-10
"2004" 26038 7.29726978243184e-10 1.34780691011195e-09 1.61417352345215e-08 7.55298974240968e-09 4.12801283755337e-09 1.21909829676216e-08 4.38472706001869e-10 7.51996860605722e-10
"2005" 26039 7.30099337389465e-10 1.34757992723556e-09 1.61513675540552e-08 7.55298974240968e-09 4.14771678971738e-09 1.21620107709875e-08 4.35104940078251e-10 7.52110152100324e-10
"2006" 26040 7.30471696535747e-10 1.34735294435917e-09 1.6160999873589e-08 7.55298974240968e-09 4.16742074188139e-09 1.21330385743534e-08 4.31737174154632e-10 7.52223443594926e-10
"2007" 26041 7.30844055682028e-10 1.34712596148279e-09 1.61706321931227e-08 7.55298974240968e-09 4.18712469404541e-09 1.21040663777193e-08 4.28369408231013e-10 7.52336735089528e-10
"2008" 26042 7.31216414828310e-10 1.3468989786064e-09 1.61802645126565e-08 7.55298974240968e-09 4.20682864620942e-09 1.20750941810852e-08 4.25001642307394e-10 7.5245002658413e-10
"2009" 26043 7.31588773974591e-10 1.34667199573001e-09 1.61898968321903e-08 7.55298974240968e-09 4.22653259837344e-09 1.2046121984451e-08 4.21633876383776e-10 7.52563318078732e-10
"2010" 26044 7.35139831397255e-10 1.34671678309445e-09 1.61847532907114e-08 7.54660272952102e-09 4.2388580099746e-09 1.19452663048707e-08 4.18116957477984e-10 7.5237058726743e-10
"2011" 26045 7.35512190543536e-10 1.34648980021806e-09 1.6221223712661e-08 7.60356779907942e-09 4.23533248608907e-09 1.18356456758659e-08 4.16445898058846e-10 7.5237058726743e-10
"2012" 26046 7.35884549689817e-10 1.34626281734167e-09 1.62576941346106e-08 7.66053286863782e-09 4.23180696220353e-09 1.17260250468611e-08 4.14774838639708e-10 7.5237058726743e-10
"2013" 26047 7.36256908836099e-10 1.34603583446529e-09 1.62941645565602e-08 7.71749793819622e-09 4.228281438318e-09 1.16164044178564e-08 4.13103779220571e-10 7.5237058726743e-10
"2014" 26048 7.3662926798238e-10 1.3458088515889e-09 1.63306349785098e-08 7.77446300775462e-09 4.22475591443247e-09 1.15067837888516e-08 4.11432719801433e-10 7.5237058726743e-10
"2015" 26049 7.37001627128661e-10 1.34558186871252e-09 1.63671054004594e-08 7.83142807731302e-09 4.22123039054693e-09 1.13971631598468e-08 4.09761660382295e-10 7.5237058726743e-10
"2016" 26050 7.37001627128661e-10 1.34535488583613e-09 1.64087193638879e-08 7.8585036979046e-09 4.21045261639502e-09 1.13724170993157e-08 4.11782319936466e-10 7.51452520349716e-10
"2017" 26051 7.37842846591042e-10 1.34317767785535e-09 1.64307889893807e-08 7.90984996747310e-09 4.21009727960683e-09 1.13704010754907e-08 4.1265632027405e-10 7.51452520349716e-10
"2018" 26052 7.38870245626564e-10 1.3421353842565e-09 1.64534188123842e-08 7.96908994584364e-09 4.20974194281863e-09 1.1358462517712e-08 4.14502179760705e-10 7.50761036421207e-10
"2019" 26053 7.39897644662085e-10 1.34109309065765e-09 1.64760486353877e-08 8.02832992421419e-09 4.20938660603044e-09 1.13465239599332e-08 4.16348039247359e-10 7.50069552492697e-10
"2020" 26054 7.40925043697607e-10 1.3400507970588e-09 1.64986784583912e-08 8.08756990258474e-09 4.20903126924224e-09 1.13345854021545e-08 4.18193898734013e-10 7.49378068564188e-10
"2021" 26055 7.41952442733128e-10 1.33900850345996e-09 1.65213082813947e-08 8.14680988095528e-09 4.20867593245405e-09 1.13226468443758e-08 4.20039758220668e-10 7.48686584635678e-10
"2022" 26056 7.4297984176865e-10 1.33796620986111e-09 1.65439381043982e-08 8.20604985932583e-09 4.20832059566585e-09 1.1310708286597e-08 4.21885617707322e-10 7.47995100707169e-10
"2023" 26057 7.44007240804171e-10 1.33692391626226e-09 1.65665679274018e-08 8.26528983769638e-09 4.20796525887766e-09 1.12987697288183e-08 4.23731477193977e-10 7.47303616778659e-10
"2024" 26058 7.45034639839693e-10 1.33588162266341e-09 1.65891977504053e-08 8.32452981606692e-09 4.20760992208947e-09 1.12868311710395e-08 4.25577336680631e-10 7.4661213285015e-10
"2025" 26059 7.46062038875214e-10 1.33483932906457e-09 1.66118275734088e-08 8.38376979443747e-09 4.20725458530127e-09 1.12748926132608e-08 4.27423196167286e-10 7.4592064892164e-10
"2026" 26060 7.47089437910736e-10 1.33379703546572e-09 1.66344573964123e-08 8.44300977280802e-09 4.20689924851308e-09 1.12629540554821e-08 4.2926905565394e-10 7.45229164993131e-10
"2027" 26061 7.48898270806423e-10 1.33302651210769e-09 1.67696202909498e-08 8.43995621453534e-09 4.20572407388457e-09 1.12630275952286e-08 4.2926905565394e-10 7.44537681064622e-10
"2028" 26062 7.49084450379564e-10 1.33588466871763e-09 1.70390383410574e-08 8.43799694013212e-09 4.20536873709637e-09 1.12757300412003e-08 4.31114915140595e-10 7.44764264053826e-10
"2029" 26063 7.49270629952704e-10 1.33588466871763e-09 1.70212699613415e-08 8.4377527818544e-09 4.20617144890415e-09 1.1263547359702e-08 4.31114915140595e-10 7.43880049314014e-10
"2030" 26064 7.49456809525845e-10 1.33588466871763e-09 1.70035015816256e-08 8.43750862357668e-09 4.20697416071192e-09 1.12513646782037e-08 4.31114915140595e-10 7.42995834574202e-10
"2031" 26065 7.49642989098986e-10 1.33588466871763e-09 1.69857332019098e-08 8.43726446529897e-09 4.2077768725197e-09 1.12391819967054e-08 4.31114915140595e-10 7.4211161983439e-10
"2032" 26066 7.49829168672126e-10 1.33588466871763e-09 1.69679648221939e-08 8.43702030702125e-09 4.20857958432747e-09 1.12269993152071e-08 4.31114915140595e-10 7.41227405094578e-10
"2033" 26067 7.50015348245267e-10 1.33588466871763e-09 1.6950196442478e-08 8.43677614874353e-09 4.20938229613525e-09 1.12148166337088e-08 4.31114915140595e-10 7.40343190354766e-10
"2034" 26068 7.50201527818408e-10 1.33588466871763e-09 1.69324280627621e-08 8.43653199046582e-09 4.21018500794302e-09 1.12026339522105e-08 4.31114915140595e-10 7.39458975614954e-10
"2035" 26069 7.50387707391548e-10 1.33588466871763e-09 1.69146596830462e-08 8.4362878321881e-09 4.2109877197508e-09 1.11904512707122e-08 4.31114915140595e-10 7.38574760875142e-10
"2036" 26070 7.50573886964689e-10 1.33588466871763e-09 1.68968913033303e-08 8.43604367391039e-09 4.21179043155857e-09 1.11782685892139e-08 4.31114915140595e-10 7.3769054613533e-10
"2037" 26071 7.5076006653783e-10 1.33588466871763e-09 1.68791229236144e-08 8.43579951563267e-09 4.21259314336635e-09 1.11660859077156e-08 4.31114915140595e-10 7.36806331395518e-10
"2038" 26072 7.426835154927e-10 1.3359742434465e-09 1.68256310519632e-08 8.43751463175818e-09 4.21423281904698e-09 1.11658312783179e-08 4.31289715208111e-10 7.36613600584216e-10
"2039" 26073 7.37257016805638e-10 1.33674476680453e-09 1.67914983852928e-08 8.41154373159781e-09 4.20461309349104e-09 1.11648232664054e-08 4.28996396774937e-10 7.35729385844404e-10
"2040" 26074 7.30899620252873e-10 1.33370746073685e-09 1.67380065136416e-08 8.4062510025786e-09 4.19499336793509e-09 1.11227469149089e-08 4.29171196842453e-10 7.35423363538499e-10
"2041" 26075 7.24542223700108e-10 1.33067015466917e-09 1.66845146419904e-08 8.40095827355938e-09 4.18537364237915e-09 1.10806705634125e-08 4.2934599690997e-10 7.35117341232595e-10
"2042" 26076 7.18184827147343e-10 1.3276328486015e-09 1.66310227703392e-08 8.39566554454017e-09 4.1757539168232e-09 1.1038594211916e-08 4.29520796977487e-10 7.3481131892669e-10
"2043" 26077 7.11827430594577e-10 1.32459554253382e-09 1.65775308986879e-08 8.39037281552095e-09 4.16613419126725e-09 1.09965178604195e-08 4.29695597045004e-10 7.34505296620786e-10
