"time" "channel1" "channel2" "channel3" "channel4" "channel5" "channel6" "channel7" "channel8"
"1" 1455 2.27769307720997e-10 5.96549861898507e-10 6.81738069292086e-09 2.69180127532871e-10 1.52769192234373e-10 9.83417469271028e-11 5.75961157927967e-11 9.43597633296407e-11
"2" 1456 2.28393927205762e-10 5.95255807094229e-10 6.78747085497247e-09 2.69180127532871e-10 1.51610690301097e-10 9.87506065774248e-11 5.75961157927967e-11 9.46487294713842e-11
"3" 1457 2.29018546690528e-10 5.93961752289951e-10 6.75756101702409e-09 2.69180127532871e-10 1.5045218836782e-10 9.91594662277469e-11 5.75961157927967e-11 9.49376956131277e-11
"4" 1458 2.29643166175293e-10 5.92667697485673e-10 6.7276511790757e-09 2.69180127532871e-10 1.49293686434543e-10 9.9568325878069e-11 5.75961157927967e-11 9.52266617548712e-11
"5" 1459 2.30267785660058e-10 5.91373642681396e-10 6.69774134112732e-09 2.69180127532871e-10 1.48135184501266e-10 9.99771855283911e-11 5.75961157927967e-11 9.55156278966147e-11
"6" 1460 2.30892405144824e-10 5.90079587877118e-10 6.66783150317893e-09 2.69180127532871e-10 1.4697668256799e-10 1.00386045178713e-10 5.75961157927967e-11 9.58045940383582e-11
"7" 1461 2.31517024629589e-10 5.8878553307284e-10 6.63792166523055e-09 2.69180127532871e-10 1.45818180634713e-10 1.00794904829035e-10 5.75961157927967e-11 9.60935601801017e-11
"8" 1462 2.32141644114354e-10 5.87491478268562e-10 6.60801182728216e-09 2.69180127532871e-10 1.44659678701436e-10 1.01203764479357e-10 5.75961157927967e-11 9.63825263218452e-11
"9" 1463 2.35676442174998e-10 5.86235161073292e-10 6.58218827814148e-09 2.69180127532871e-10 1.43082921500384e-10 1.01612624129679e-10 5.96028024859941e-11 9.85081465998566e-11
"10" 1464 2.39211240235642e-10 5.84978843878023e-10 6.55636472900081e-09 2.69180127532871e-10 1.41506164299331e-10 1.02021483780001e-10 6.16094891791915e-11 1.00633766877868e-10
"11" 1465 2.40915706082184e-10 5.84978843878023e-10 6.55161785750386e-09 2.68884742506964e-10 1.40967162257409e-10 1.01751803379347e-10 6.36161758723889e-11 1.02759387155879e-10
"12" 1466 2.42620171928727e-10 5.84978843878023e-10 6.54687098600692e-09 2.68589357481057e-10 1.40428160215486e-10 1.01482122978692e-10 6.56228625655863e-11 1.04885007433891e-10
"13" 1467 2.4432463777527e-10 5.84978843878023e-10 6.54212411450997e-09 2.68293972455151e-10 1.39889158173563e-10 1.01212442578037e-10 6.76295492587837e-11 1.07010627711902e-10
"14" 1468 2.46029103621812e-10 5.84978843878023e-10 6.53737724301303e-09 2.67998587429244e-10 1.39350156131641e-10 1.00942762177383e-10 6.96362359519811e-11 1.09136247989913e-10
"15" 1469 2.47733569468355e-10 5.84978843878023e-10 6.53263037151608e-09 2.67703202403337e-10 1.38811154089718e-10 1.00673081776728e-10 7.16429226451786e-11 1.11261868267925e-10
"16" 1470 2.49438035314898e-10 5.84978843878023e-10 6.52788350001914e-09 2.6740781737743e-10 1.38272152047795e-10 1.00403401376073e-10 7.3649609338376e-11 1.13387488545936e-10
"17" 1471 2.51142501161441e-10 5.84978843878023e-10 6.52313662852219e-09 2.67112432351523e-10 1.37733150005873e-10 1.00133720975418e-10 7.56562960315734e-11 1.15513108823948e-10
"18" 1472 2.52846967007983e-10 5.84978843878023e-10 6.51838975702525e-09 2.66817047325617e-10 1.3719414796395e-10 9.98640405747636e-11 7.76629827247708e-11 1.17638729101959e-10
"19" 1473 2.54551432854526e-10 5.84978843878023e-10 6.5136428855283e-09 2.6652166229971e-10 1.36655145922027e-10 9.95943601741089e-11 7.96696694179682e-11 1.1976434937997e-10
"20" 1474 2.58376777537455e-10 5.81967456370277e-10 6.50889601403136e-09 2.6652166229971e-10 1.36116143880105e-10 9.95943601741089e-11 8.0919470767078e-11 1.21680182682518e-10
"21" 1475 2.62202122220384e-10 5.78956068862531e-10 6.50414914253441e-09 2.6652166229971e-10 1.35577141838182e-10 9.95943601741089e-11 8.21692721161878e-11 1.23596015985066e-10
"22" 1476 2.60914069363685e-10 5.80988818940367e-10 6.50004750464267e-09 2.66429645365103e-10 1.35577141838182e-10 1.00003219824431e-10 8.2415730118699e-11 1.23675195151346e-10
"23" 1477 2.5875437664013e-10 5.84701164112663e-10 6.48621146408192e-09 2.67223783508217e-10 1.35577141838182e-10 1.00093113291316e-10 8.26621881212101e-11 1.23754374317626e-10
"24" 1478 2.56594683916575e-10 5.88413509284959e-10 6.47237542352116e-09 2.68017921651331e-10 1.35577141838182e-10 1.00183006758201e-10 8.29086461237212e-11 1.23833553483906e-10
"25" 1479 2.5443499119302e-10 5.92125854457256e-10 6.45853938296041e-09 2.68812059794445e-10 1.35577141838182e-10 1.00272900225086e-10 8.31551041262323e-11 1.23912732650186e-10
"26" 1480 2.52275298469465e-10 5.95838199629552e-10 6.44470334239965e-09 2.69606197937558e-10 1.35577141838182e-10 1.00362793691971e-10 8.34015621287435e-11 1.23991911816466e-10
"27" 1481 2.5011560574591e-10 5.99550544801848e-10 6.4308673018389e-09 2.70400336080672e-10 1.35577141838182e-10 1.00452687158856e-10 8.36480201312546e-11 1.24071090982746e-10
"28" 1482 2.47955913022355e-10 6.03262889974144e-10 6.41703126127814e-09 2.71194474223786e-10 1.35577141838182e-10 1.0054258062574e-10 8.38944781337657e-11 1.24150270149026e-10
"29" 1483 2.45796220298801e-10 6.0697523514644e-10 6.40319522071739e-09 2.719886123669e-10 1.35577141838182e-10 1.00632474092625e-10 8.41409361362768e-11 1.24229449315306e-10
"30" 1484 2.43636527575246e-10 6.10687580318736e-10 6.38935918015664e-09 2.72782750510013e-10 1.35577141838182e-10 1.0072236755951e-10 8.4387394138788e-11 1.24308628481586e-10
"31" 1485 2.41476834851691e-10 6.14399925491032e-10 6.37552313959588e-09 2.73576888653127e-10 1.35577141838182e-10 1.00812261026395e-10 8.46338521412991e-11 1.24387807647866e-10
"32" 1486 2.39317142128136e-10 6.18112270663328e-10 6.36168709903513e-09 2.74371026796241e-10 1.35577141838182e-10 1.0090215449328e-10 8.48803101438102e-11 1.24466986814147e-10
"33" 1487 2.37157449404581e-10 6.21824615835625e-10 6.34785105847437e-09 2.75165164939355e-10 1.35577141838182e-10 1.00992047960165e-10 8.51267681463213e-11 1.24546165980427e-10
"34" 1488 2.34997756681026e-10 6.25536961007921e-10 6.33401501791362e-09 2.75959303082469e-10 1.35577141838182e-10 1.0108194142705e-10 8.53732261488324e-11 1.24625345146707e-10
"35" 1489 2.32838063957472e-10 6.29249306180217e-10 6.32017897735286e-09 2.76753441225582e-10 1.35577141838182e-10 1.01171834893935e-10 8.56196841513435e-11 1.24704524312987e-10
"36" 1490 2.30678371233917e-10 6.32961651352513e-10 6.30634293679211e-09 2.77547579368696e-10 1.35577141838182e-10 1.0126172836082e-10 8.58661421538547e-11 1.24783703479267e-10
"37" 1491 2.29390318377218e-10 6.36673996524809e-10 6.29427659810909e-09 2.78157683642597e-10 1.35456395064035e-10 1.0126172836082e-10 8.61126001563658e-11 1.24783703479267e-10
"38" 1492 2.28102265520518e-10 6.40386341697105e-10 6.28221025942607e-09 2.78767787916497e-10 1.35335648289888e-10 1.0126172836082e-10 8.63590581588769e-11 1.24783703479267e-10
"39" 1493 2.26814212663819e-10 6.44098686869401e-10 6.27014392074306e-09 2.79377892190398e-10 1.35214901515741e-10 1.0126172836082e-10 8.6605516161388e-11 1.24783703479267e-10
"40" 1494 2.2552615980712e-10 6.47811032041698e-10 6.25807758206004e-09 2.79987996464298e-10 1.35094154741593e-10 1.0126172836082e-10 8.68519741638992e-11 1.24783703479267e-10
"41" 1495 2.26397799673976e-10 6.47735556823681e-10 6.25807758206004e-09 2.80893485764106e-10 1.35512410009369e-10 1.01171834893935e-10 8.70984321664103e-11 1.24704524312987e-10
"42" 1496 2.26606006168897e-10 6.46719181784763e-10 6.25798131818999e-09 2.81503590038006e-10 1.36887922586843e-10 1.01171834893935e-10 8.70984321664103e-11 1.24704524312987e-10
"43" 1497 2.26814212663819e-10 6.45702806745845e-10 6.25788505431994e-09 2.82113694311907e-10 1.38263435164317e-10 1.01171834893935e-10 8.70984321664103e-11 1.24704524312987e-10
"44" 1498 2.27022419158741e-10 6.44686431706927e-10 6.25778879044989e-09 2.82723798585808e-10 1.39638947741791e-10 1.01171834893935e-10 8.70984321664103e-11 1.24704524312987e-10
"45" 1499 2.27230625653663e-10 6.43670056668008e-10 6.25769252657984e-09 2.83333902859708e-10 1.41014460319264e-10 1.01171834893935e-10 8.70984321664103e-11 1.24704524312987e-10
"46" 1500 2.27438832148584e-10 6.4265368162909e-10 6.25759626270979e-09 2.83944007133609e-10 1.42389972896738e-10 1.01171834893935e-10 8.70984321664103e-11 1.24704524312987e-10
"47" 1501 2.27647038643506e-10 6.41637306590172e-10 6.25749999883974e-09 2.84554111407509e-10 1.43765485474212e-10 1.01171834893935e-10 8.70984321664103e-11 1.24704524312987e-10
"48" 1502 2.27855245138428e-10 6.40620931551254e-10 6.25740373496969e-09 2.8516421568141e-10 1.45140998051686e-10 1.01171834893935e-10 8.70984321664103e-11 1.24704524312987e-10
"49" 1503 2.27855245138428e-10 6.40583193942246e-10 6.25663153932637e-09 2.85958353824524e-10 1.45680000093609e-10 1.01171834893935e-10 8.73507272811061e-11 1.2499349045473e-10
"50" 1504 2.27855245138428e-10 6.40545456333237e-10 6.25585934368304e-09 2.86752491967637e-10 1.46219002135531e-10 1.01171834893935e-10 8.7603022395802e-11 1.25282456596474e-10
"51" 1505 2.27855245138428e-10 6.40507718724229e-10 6.25508714803972e-09 2.87546630110751e-10 1.46758004177454e-10 1.01171834893935e-10 8.78553175104979e-11 1.25571422738217e-10
"52" 1506 2.27855245138428e-10 6.40469981115221e-10 6.2543149523964e-09 2.88340768253865e-10 1.47297006219377e-10 1.01171834893935e-10 8.81076126251937e-11 1.25860388879961e-10
"53" 1507 2.27855245138428e-10 6.40432243506213e-10 6.25354275675307e-09 2.89134906396979e-10 1.47836008261299e-10 1.01171834893935e-10 8.83599077398896e-11 1.26149355021704e-10
"54" 1508 2.27855245138428e-10 6.41152069975267e-10 6.25149961234922e-09 2.90224429565999e-10 1.48375010303222e-10 1.01171834893935e-10 8.86122028545855e-11 1.26149355021704e-10
"55" 1509 2.27855245138428e-10 6.41871896444321e-10 6.24945646794537e-09 2.9131395273502e-10 1.48914012345145e-10 1.01171834893935e-10 8.88644979692813e-11 1.26149355021704e-10
"56" 1510 2.28145791760713e-10 6.47800327437292e-10 6.28333889706445e-09 2.93696367164361e-10 1.50490769546197e-10 1.01171834893935e-10 8.91167930839772e-11 1.26937074280655e-10
"57" 1511 2.28436338382998e-10 6.53728758430264e-10 6.31722132618354e-09 2.96078781593702e-10 1.52067526747249e-10 1.01171834893935e-10 8.9369088198673e-11 1.27724793539605e-10
"58" 1512 2.28726885005284e-10 6.59657189423235e-10 6.35110375530262e-09 2.98461196023044e-10 1.53644283948302e-10 1.01171834893935e-10 8.96213833133689e-11 1.28512512798556e-10
"59" 1513 2.29017431627569e-10 6.65585620416206e-10 6.3849861844217e-09 3.00843610452385e-10 1.55221041149354e-10 1.01171834893935e-10 8.98736784280648e-11 1.29300232057506e-10
"60" 1514 2.29307978249854e-10 6.71514051409178e-10 6.41886861354079e-09 3.03226024881726e-10 1.56797798350406e-10 1.01171834893935e-10 9.01259735427606e-11 1.30087951316457e-10
"61" 1515 2.29598524872139e-10 6.77442482402149e-10 6.45275104265987e-09 3.05608439311068e-10 1.58374555551459e-10 1.01171834893935e-10 9.03782686574565e-11 1.30875670575407e-10
"62" 1516 2.29889071494424e-10 6.8337091339512e-10 6.48663347177895e-09 3.07990853740409e-10 1.59951312752511e-10 1.01171834893935e-10 9.06305637721523e-11 1.31663389834358e-10
"63" 1517 2.29264452009659e-10 6.89318213192596e-10 6.49813549164278e-09 3.08266904544229e-10 1.61109814685788e-10 1.01171834893935e-10 9.08828588868482e-11 1.32451109093308e-10
"64" 1518 2.28639832524894e-10 6.95265512990071e-10 6.50963751150661e-09 3.08542955348049e-10 1.62268316619065e-10 1.01171834893935e-10 9.11351540015441e-11 1.33238828352259e-10
"65" 1519 2.28015213040129e-10 7.01212812787547e-10 6.52113953137044e-09 3.08819006151868e-10 1.63426818552341e-10 1.01171834893935e-10 9.13874491162399e-11 1.34026547611209e-10
"66" 1520 2.27390593555363e-10 7.07160112585022e-10 6.53264155123427e-09 3.09095056955688e-10 1.64585320485618e-10 1.01171834893935e-10 9.16397442309358e-11 1.3481426687016e-10
"67" 1521 2.26765974070598e-10 7.13107412382498e-10 6.5441435710981e-09 3.09371107759508e-10 1.65743822418895e-10 1.01171834893935e-10 9.18920393456316e-11 1.3560198612911e-10
"68" 1522 2.26141354585833e-10 7.19054712179973e-10 6.55564559096193e-09 3.09647158563328e-10 1.66902324352172e-10 1.01171834893935e-10 9.21443344603275e-11 1.3638970538806e-10
"69" 1523 2.25516735101068e-10 7.25002011977449e-10 6.56714761082575e-09 3.09923209367148e-10 1.68060826285448e-10 1.01171834893935e-10 9.23966295750234e-11 1.37177424647011e-10
"70" 1524 2.24892115616302e-10 7.30949311774924e-10 6.57864963068958e-09 3.10199260170967e-10 1.69219328218725e-10 1.01171834893935e-10 9.26489246897192e-11 1.37965143905961e-10
"71" 1525 2.24267496131537e-10 7.3699095559492e-10 6.57393554204363e-09 3.08998385845253e-10 1.68760824026234e-10 1.01171834893935e-10 9.26489246897192e-11 1.37965143905961e-10
"72" 1526 2.23642876646772e-10 7.43032599414917e-10 6.56922145339768e-09 3.07797511519539e-10 1.68302319833743e-10 1.01171834893935e-10 9.26489246897192e-11 1.37965143905961e-10
"73" 1527 2.26882415732104e-10 7.43771294688475e-10 6.54474976780354e-09 3.05986532919924e-10 1.67884064565967e-10 1.0126172836082e-10 9.29012198044151e-11 1.37965143905961e-10
"74" 1528 2.30121954817436e-10 7.44509989962033e-10 6.52027808220941e-09 3.0417555432031e-10 1.67465809298192e-10 1.01351621827705e-10 9.31535149191109e-11 1.37965143905961e-10
"75" 1529 2.33361493902768e-10 7.45248685235592e-10 6.49580639661528e-09 3.02364575720695e-10 1.67047554030416e-10 1.0144151529459e-10 9.34058100338068e-11 1.37965143905961e-10
"76" 1530 2.36601032988101e-10 7.4598738050915e-10 6.47133471102114e-09 3.0055359712108e-10 1.6662929876264e-10 1.01531408761474e-10 9.36581051485027e-11 1.37965143905961e-10
"77" 1531 2.39840572073433e-10 7.46726075782709e-10 6.44686302542701e-09 2.98742618521465e-10 1.66211043494865e-10 1.01621302228359e-10 9.39104002631985e-11 1.37965143905961e-10
"78" 1532 2.43080111158765e-10 7.47464771056267e-10 6.42239133983288e-09 2.96931639921851e-10 1.65792788227089e-10 1.01711195695244e-10 9.41626953778944e-11 1.37965143905961e-10
"79" 1533 2.47234816351148e-10 7.48203466329825e-10 6.34225183285166e-09 2.97227024947757e-10 1.65792788227089e-10 1.01392229511807e-10 9.3423321370361e-11 1.38254110047705e-10
"80" 1534 2.5047435543648e-10 7.48165728720817e-10 6.28672840726965e-09 2.97522409973664e-10 1.65253786185167e-10 1.01482122978692e-10 9.36756164850569e-11 1.38543076189448e-10
"81" 1535 2.53713894521813e-10 7.48127991111809e-10 6.23120498168765e-09 2.97817794999571e-10 1.64714784143244e-10 1.01572016445577e-10 9.39279115997527e-11 1.38832042331192e-10
"82" 1536 2.56953433607145e-10 7.480902535028e-10 6.17568155610564e-09 2.98113180025478e-10 1.64175782101321e-10 1.01661909912462e-10 9.41802067144486e-11 1.39121008472935e-10
"83" 1537 2.60192972692477e-10 7.48052515893792e-10 6.12015813052363e-09 2.98408565051385e-10 1.63636780059398e-10 1.01751803379347e-10 9.44325018291445e-11 1.39409974614679e-10
"84" 1538 2.6343251177781e-10 7.48014778284784e-10 6.06463470494163e-09 2.98703950077291e-10 1.63097778017476e-10 1.01841696846232e-10 9.46847969438403e-11 1.39698940756422e-10
"85" 1539 2.66672050863142e-10 7.47977040675776e-10 6.00911127935962e-09 2.98999335103198e-10 1.62558775975553e-10 1.01931590313117e-10 9.49370920585362e-11 1.39987906898166e-10
"86" 1540 2.69911589948474e-10 7.47939303066767e-10 5.95358785377761e-09 2.99294720129105e-10 1.6201977393363e-10 1.02021483780001e-10 9.5189387173232e-11 1.4027687303991e-10
"87" 1541 2.73151129033806e-10 7.47901565457759e-10 5.8980644281956e-09 2.99590105155012e-10 1.61480771891708e-10 1.02111377246886e-10 9.54416822879279e-11 1.40565839181653e-10
"88" 1542 2.76390668119139e-10 7.4786382784875e-10 5.8425410026136e-09 2.99885490180919e-10 1.60941769849785e-10 1.02201270713771e-10 9.56939774026238e-11 1.40854805323397e-10
"89" 1543 2.79630207204471e-10 7.47826090239742e-10 5.78701757703159e-09 3.00180875206825e-10 1.60402767807862e-10 1.02291164180656e-10 9.59462725173196e-11 1.4114377146514e-10
"90" 1544 2.82869746289803e-10 7.47788352630734e-10 5.73149415144958e-09 3.00476260232732e-10 1.5986376576594e-10 1.02381057647541e-10 9.61985676320155e-11 1.41432737606884e-10
"91" 1545 2.86109285375135e-10 7.47750615021726e-10 5.67597072586758e-09 3.00771645258639e-10 1.59324763724017e-10 1.02470951114426e-10 9.64508627467114e-11 1.41721703748627e-10
"92" 1546 2.89348824460468e-10 7.47712877412717e-10 5.62044730028557e-09 3.01067030284546e-10 1.58785761682094e-10 1.02560844581311e-10 9.67031578614072e-11 1.42010669890371e-10
"93" 1547 2.925883635458e-10 7.47675139803709e-10 5.56492387470356e-09 3.01362415310453e-10 1.58246759640172e-10 1.02650738048196e-10 9.69554529761031e-11 1.42299636032114e-10
"94" 1548 2.925883635458e-10 7.46898706921142e-10 5.5102207766999e-09 3.01657800336359e-10 1.59284514799301e-10 1.03059597698518e-10 9.72077480907989e-11 1.42509423007578e-10
"95" 1549 2.91963744061035e-10 7.4614114284308e-10 5.45469735111790e-09 3.03764163961881e-10 1.58705263832663e-10 1.0346845734884e-10 9.81994172130282e-11 1.42509423007578e-10
"96" 1550 2.91339124576269e-10 7.45383578765017e-10 5.39917392553589e-09 3.05870527587402e-10 1.58126012866025e-10 1.03877316999162e-10 9.91910863352574e-11 1.42509423007578e-10
"97" 1551 2.90714505091504e-10 7.44626014686955e-10 5.34365049995388e-09 3.07976891212924e-10 1.57546761899386e-10 1.04286176649484e-10 1.00182755457487e-10 1.42509423007578e-10
"98" 1552 2.90796845218868e-10 7.42612133413623e-10 5.3186974950095e-09 3.09787869812539e-10 1.57546761899386e-10 1.04605142832921e-10 1.00927966577205e-10 1.42299636032114e-10
"99" 1553 2.90007545479375e-10 7.42870944374478e-10 5.31502904453298e-09 3.1169086534676e-10 1.56967510932748e-10 1.05014002483243e-10 1.01919635699434e-10 1.42299636032114e-10
"100" 1554 2.89218245739883e-10 7.43129755335334e-10 5.31136059405647e-09 3.13593860880981e-10 1.56388259966109e-10 1.05422862133565e-10 1.02911304821663e-10 1.42299636032114e-10
"101" 1555 2.88428946000391e-10 7.43388566296189e-10 5.30769214357995e-09 3.15496856415203e-10 1.55809008999471e-10 1.05831721783887e-10 1.03902973943892e-10 1.42299636032114e-10
"102" 1556 2.87639646260899e-10 7.43647377257045e-10 5.30402369310344e-09 3.17399851949424e-10 1.55229758032833e-10 1.0624058143421e-10 1.04894643066122e-10 1.42299636032114e-10
"103" 1557 2.86850346521407e-10 7.439061882179e-10 5.30035524262692e-09 3.19302847483645e-10 1.54650507066194e-10 1.06649441084532e-10 1.05886312188351e-10 1.42299636032114e-10
"104" 1558 2.86061046781914e-10 7.44164999178756e-10 5.29668679215041e-09 3.21205843017867e-10 1.54071256099556e-10 1.07058300734854e-10 1.0687798131058e-10 1.42299636032114e-10
"105" 1559 2.85271747042422e-10 7.44423810139612e-10 5.29301834167389e-09 3.23108838552088e-10 1.53492005132917e-10 1.07467160385176e-10 1.07869650432809e-10 1.42299636032114e-10
"106" 1560 2.8448244730293e-10 7.44682621100467e-10 5.28934989119738e-09 3.25011834086309e-10 1.52912754166279e-10 1.07876020035498e-10 1.08861319555039e-10 1.42299636032114e-10
"107" 1561 2.83693147563438e-10 7.44941432061323e-10 5.28568144072086e-09 3.26914829620531e-10 1.52333503199641e-10 1.0828487968582e-10 1.09852988677268e-10 1.42299636032114e-10
"108" 1562 2.82903847823946e-10 7.45200243022178e-10 5.28201299024435e-09 3.28817825154752e-10 1.51754252233002e-10 1.08693739336142e-10 1.10844657799497e-10 1.42299636032114e-10
"109" 1563 2.82114548084453e-10 7.45459053983034e-10 5.27834453976783e-09 3.30720820688973e-10 1.51175001266364e-10 1.09102598986464e-10 1.11836326921726e-10 1.42299636032114e-10
"110" 1564 2.81325248344961e-10 7.45717864943889e-10 5.27467608929132e-09 3.32623816223195e-10 1.50595750299726e-10 1.09511458636786e-10 1.12827996043955e-10 1.42299636032114e-10
"111" 1565 2.81407588472325e-10 7.45736733748394e-10 5.17563209579126e-09 3.32623816223195e-10 1.50137246107234e-10 1.08603845869257e-10 1.13819665166185e-10 1.42299636032114e-10
"112" 1566 2.81489928599688e-10 7.45755602552898e-10 5.07658810229121e-09 3.32623816223195e-10 1.49678741914743e-10 1.07696233101728e-10 1.14811334288414e-10 1.42299636032114e-10
"113" 1567 2.81572268727052e-10 7.45774471357402e-10 4.97754410879115e-09 3.32623816223195e-10 1.49220237722252e-10 1.06788620334199e-10 1.15803003410643e-10 1.42299636032114e-10
"114" 1568 2.81654608854415e-10 7.45793340161906e-10 4.8785001152911e-09 3.32623816223195e-10 1.4876173352976e-10 1.0588100756667e-10 1.16794672532872e-10 1.42299636032114e-10
"115" 1569 2.81446402359493e-10 7.45793340161906e-10 4.77923081119995e-09 3.30517452597673e-10 1.48303229337269e-10 1.04654428615704e-10 1.17041130535383e-10 1.42509423007578e-10
"116" 1570 2.81238195864571e-10 7.45793340161906e-10 4.6799615071088e-09 3.28411088972152e-10 1.47844725144778e-10 1.03427849664737e-10 1.17287588537895e-10 1.42719209983041e-10
"117" 1571 2.81238195864571e-10 7.46532035435464e-10 4.58458596408526e-09 3.2630472534663e-10 1.49003227078055e-10 1.02111377246886e-10 1.18290931884493e-10 1.42928996958504e-10
"118" 1572 2.81238195864571e-10 7.47270730709023e-10 4.48921042106172e-09 3.24198361721109e-10 1.50161729011331e-10 1.00794904829035e-10 1.19294275231092e-10 1.43138783933968e-10
"119" 1573 2.81238195864571e-10 7.48009425982581e-10 4.39383487803818e-09 3.22091998095587e-10 1.51320230944608e-10 9.94784324111841e-11 1.20297618577691e-10 1.43348570909431e-10
"120" 1574 2.81238195864571e-10 7.4874812125614e-10 4.29845933501464e-09 3.19985634470065e-10 1.52478732877885e-10 9.8161959993333e-11 1.21300961924289e-10 1.43558357884895e-10
"121" 1575 2.81238195864571e-10 7.49486816529698e-10 4.2030837919911e-09 3.17879270844544e-10 1.53637234811162e-10 9.68454875754818e-11 1.22304305270888e-10 1.43768144860358e-10
"122" 1576 2.81238195864571e-10 7.50225511803256e-10 4.10770824896756e-09 3.15772907219022e-10 1.54795736744438e-10 9.55290151576307e-11 1.23307648617487e-10 1.43977931835822e-10
"123" 1577 2.81238195864571e-10 7.50964207076815e-10 4.01233270594402e-09 3.13666543593501e-10 1.55954238677715e-10 9.42125427397796e-11 1.24310991964086e-10 1.44187718811285e-10
"124" 1578 2.81238195864571e-10 7.51702902350373e-10 3.91695716292048e-09 3.11560179967979e-10 1.57112740610992e-10 9.28960703219284e-11 1.25314335310684e-10 1.44397505786749e-10
"125" 1579 2.81238195864571e-10 7.52441597623932e-10 3.82158161989694e-09 3.09453816342458e-10 1.58271242544269e-10 9.15795979040773e-11 1.26317678657283e-10 1.44607292762212e-10
"126" 1580 2.81238195864571e-10 7.5318029289749e-10 3.7262060768734e-09 3.07347452716936e-10 1.59429744477546e-10 9.02631254862262e-11 1.27321022003882e-10 1.44817079737676e-10
"127" 1581 2.81238195864571e-10 7.541589303274e-10 3.7260135491333e-09 3.0705206769103e-10 1.60588246410822e-10 8.98542658359041e-11 1.28072070235784e-10 1.44817079737676e-10
"128" 1582 2.81238195864571e-10 7.5513756775731e-10 3.7258210213932e-09 3.06756682665123e-10 1.61746748344099e-10 8.9445406185582e-11 1.28823118467687e-10 1.44817079737676e-10
"129" 1583 2.81238195864571e-10 7.56116205187219e-10 3.7256284936531e-09 3.06461297639216e-10 1.62905250277376e-10 8.903654653526e-11 1.2957416669959e-10 1.44817079737676e-10
"130" 1584 2.81238195864571e-10 7.57094842617129e-10 3.725435965913e-09 3.06165912613309e-10 1.64063752210653e-10 8.86276868849379e-11 1.30325214931493e-10 1.44817079737676e-10
"131" 1585 2.81238195864571e-10 7.58073480047039e-10 3.7252434381729e-09 3.05870527587402e-10 1.65222254143929e-10 8.82188272346158e-11 1.31076263163396e-10 1.44817079737676e-10
"132" 1586 2.80366555997716e-10 7.58073480047039e-10 3.69293818319145e-09 3.04781004418382e-10 1.66799011344982e-10 8.82188272346158e-11 1.31833148507483e-10 1.45026866713139e-10
"133" 1587 2.7949491613086e-10 7.58073480047039e-10 3.66063292821e-09 3.03691481249361e-10 1.68375768546034e-10 8.82188272346158e-11 1.32590033851571e-10 1.45236653688603e-10
"134" 1588 2.79412576003497e-10 7.59052117476949e-10 3.65540473736281e-09 3.02601958080341e-10 1.69534270479311e-10 8.82188272346158e-11 1.33346919195659e-10 1.45446440664066e-10
"135" 1589 2.79330235876133e-10 7.60030754906859e-10 3.65017654651561e-09 3.0151243491132e-10 1.70692772412588e-10 8.82188272346158e-11 1.34103804539746e-10 1.4565622763953e-10
"136" 1590 2.79039689253848e-10 7.66217996860686e-10 3.68351209058246e-09 3.0151243491132e-10 1.71851274345864e-10 8.82188272346158e-11 1.34103804539746e-10 1.45945193781273e-10
"137" 1591 2.78749142631563e-10 7.72405238814512e-10 3.71684763464932e-09 3.0151243491132e-10 1.73009776279141e-10 8.82188272346158e-11 1.34103804539746e-10 1.46234159923017e-10
"138" 1592 2.78458596009278e-10 7.78592480768339e-10 3.75018317871617e-09 3.0151243491132e-10 1.74168278212418e-10 8.82188272346158e-11 1.34103804539746e-10 1.4652312606476e-10
"139" 1593 2.78168049386992e-10 7.84779722722166e-10 3.78351872278302e-09 3.0151243491132e-10 1.75326780145695e-10 8.82188272346158e-11 1.34103804539746e-10 1.46812092206504e-10
"140" 1594 2.77877502764707e-10 7.90966964675993e-10 3.81685426684987e-09 3.0151243491132e-10 1.76485282078971e-10 8.82188272346158e-11 1.34103804539746e-10 1.47101058348247e-10
"141" 1595 2.77586956142422e-10 7.9715420662982e-10 3.85018981091672e-09 3.0151243491132e-10 1.77643784012248e-10 8.82188272346158e-11 1.34103804539746e-10 1.47390024489991e-10
"142" 1596 2.77296409520137e-10 8.03341448583647e-10 3.88352535498358e-09 3.0151243491132e-10 1.78802285945525e-10 8.82188272346158e-11 1.34103804539746e-10 1.47678990631734e-10
"143" 1597 2.77921029004902e-10 8.07369211130311e-10 3.87535277736816e-09 3.006262798336e-10 1.78343781753034e-10 8.88973672855926e-11 1.34849015659464e-10 1.48755676032428e-10
"144" 1598 2.78545648489667e-10 8.11396973676975e-10 3.86718019975275e-09 2.99740124755879e-10 1.77885277560542e-10 8.95759073365694e-11 1.35594226779182e-10 1.49832361433122e-10
"145" 1599 2.79170267974433e-10 8.15424736223639e-10 3.85900762213734e-09 2.98853969678159e-10 1.77426773368051e-10 9.02544473875462e-11 1.363394378989e-10 1.50909046833816e-10
"146" 1600 2.79794887459198e-10 8.19452498770304e-10 3.85083504452193e-09 2.97967814600439e-10 1.7696826917556e-10 9.0932987438523e-11 1.37084649018619e-10 1.5198573223451e-10
"147" 1601 2.80419506943963e-10 8.23480261316968e-10 3.84266246690652e-09 2.97081659522718e-10 1.76509764983069e-10 9.16115274894998e-11 1.37829860138337e-10 1.53062417635204e-10
"148" 1602 2.81044126428728e-10 8.27508023863632e-10 3.8344898892911e-09 2.96195504444998e-10 1.76051260790577e-10 9.22900675404766e-11 1.38575071258055e-10 1.54139103035898e-10
"149" 1603 2.81668745913494e-10 8.31535786410296e-10 3.82631731167569e-09 2.95309349367278e-10 1.75592756598086e-10 9.29686075914534e-11 1.39320282377773e-10 1.55215788436592e-10
"150" 1604 2.82293365398259e-10 8.31794597371152e-10 3.81951194669086e-09 2.94423194289557e-10 1.7517450133031e-10 9.33774672417755e-11 1.39320282377773e-10 1.55504754578336e-10
"151" 1605 2.82002818775974e-10 8.31794597371152e-10 3.82277790792022e-09 2.93629056146443e-10 1.74715997137819e-10 9.37863268920975e-11 1.39073824375262e-10 1.5658143997903e-10
"152" 1606 2.81712272153689e-10 8.31794597371152e-10 3.82604386914958e-09 2.9283491800333e-10 1.74257492945328e-10 9.41951865424196e-11 1.38827366372751e-10 1.57658125379724e-10
"153" 1607 2.81421725531403e-10 8.31794597371152e-10 3.82930983037894e-09 2.92040779860216e-10 1.73798988752837e-10 9.46040461927417e-11 1.3858090837024e-10 1.58734810780418e-10
"154" 1608 2.81131178909118e-10 8.31794597371152e-10 3.83257579160829e-09 2.91246641717102e-10 1.73340484560345e-10 9.50129058430638e-11 1.38334450367728e-10 1.59811496181112e-10
"155" 1609 2.80922972414196e-10 8.29578511550476e-10 3.84087741594475e-09 2.91542026743009e-10 1.72761233593707e-10 9.50129058430638e-11 1.38334450367728e-10 1.60888181581806e-10
"156" 1610 2.80714765919275e-10 8.17293019363141e-10 3.85304001849781e-09 2.91837411768916e-10 1.72720984668991e-10 9.53318720265009e-11 1.38087992365217e-10 1.61755080007036e-10
"157" 1611 2.80506559424353e-10 8.05007527175805e-10 3.86520262105088e-09 2.92132796794822e-10 1.72680735744275e-10 9.56508382099381e-11 1.37841534362706e-10 1.62621978432267e-10
"158" 1612 2.80588899551716e-10 7.9272203498847e-10 3.88496021799906e-09 2.92428181820729e-10 1.73219737786198e-10 9.68774171609043e-11 1.37595076360195e-10 1.63488876857497e-10
"159" 1613 2.8067123967908e-10 7.80436542801134e-10 3.90471781494724e-09 2.92723566846636e-10 1.73758739828121e-10 9.81039961118705e-11 1.37348618357684e-10 1.64355775282728e-10
"160" 1614 2.80753579806443e-10 7.68151050613798e-10 3.92447541189542e-09 2.93018951872543e-10 1.74297741870044e-10 9.93305750628368e-11 1.37102160355173e-10 1.65222673707958e-10
"161" 1615 2.80835919933807e-10 7.55865558426463e-10 3.9442330088436e-09 2.9331433689845e-10 1.74836743911966e-10 1.00557154013803e-10 1.36855702352662e-10 1.66089572133189e-10
"162" 1616 2.8091826006117e-10 7.43580066239127e-10 3.96399060579178e-09 2.93609721924356e-10 1.75375745953889e-10 1.01783732964769e-10 1.36609244350151e-10 1.66956470558419e-10
"163" 1617 2.81000600188534e-10 7.31294574051791e-10 3.98374820273996e-09 2.93905106950263e-10 1.75914747995812e-10 1.03010311915735e-10 1.36362786347639e-10 1.6782336898365e-10
"164" 1618 2.81082940315897e-10 7.19009081864456e-10 4.00350579968814e-09 2.9420049197617e-10 1.76453750037734e-10 1.04236890866702e-10 1.36116328345128e-10 1.6869026740888e-10
"165" 1619 2.8116528044326e-10 7.0672358967712e-10 4.02326339663632e-09 2.94495877002077e-10 1.76992752079657e-10 1.05463469817668e-10 1.35869870342617e-10 1.69557165834111e-10
"166" 1620 2.81247620570624e-10 6.94438097489785e-10 4.04302099358449e-09 2.94791262027984e-10 1.7753175412158e-10 1.06690048768634e-10 1.35623412340106e-10 1.70424064259341e-10
"167" 1621 2.81329960697987e-10 6.82152605302449e-10 4.06277859053267e-09 2.9508664705389e-10 1.78070756163502e-10 1.079166277196e-10 1.35376954337595e-10 1.71290962684572e-10
"168" 1622 2.81620507320273e-10 6.82152605302449e-10 4.07640675426930e-09 2.95178663988497e-10 1.78650007130141e-10 1.08824240487129e-10 1.35124659222899e-10 1.72078681943522e-10
"169" 1623 2.80995887835507e-10 6.82152605302449e-10 4.07121134627309e-09 2.94384525845383e-10 1.79189009172063e-10 1.1014071290498e-10 1.35124659222899e-10 1.72945580368753e-10
"170" 1624 2.80371268350742e-10 6.82152605302449e-10 4.06601593827689e-09 2.93590387702269e-10 1.79728011213986e-10 1.11457185322832e-10 1.35124659222899e-10 1.73812478793983e-10
"171" 1625 2.79746648865977e-10 6.82152605302449e-10 4.06082053028068e-09 2.92796249559156e-10 1.80267013255909e-10 1.12773657740683e-10 1.35124659222899e-10 1.74679377219214e-10
"172" 1626 2.79122029381211e-10 6.82152605302449e-10 4.05562512228448e-09 2.92002111416042e-10 1.80806015297831e-10 1.14090130158534e-10 1.35124659222899e-10 1.75546275644445e-10
"173" 1627 2.78497409896446e-10 6.88339847256276e-10 4.03072024927512e-09 2.91115956338322e-10 1.80806015297831e-10 1.14090130158534e-10 1.36128002569498e-10 1.75546275644445e-10
"174" 1628 2.77872790411681e-10 6.94527089210103e-10 4.00581537626576e-09 2.90229801260601e-10 1.80806015297831e-10 1.14090130158534e-10 1.37131345916096e-10 1.75546275644445e-10
"175" 1629 2.77248170926916e-10 6.95543464249021e-10 4.00533405691551e-09 2.91246641717102e-10 1.80806015297831e-10 1.14768670209511e-10 1.37131345916096e-10 1.75625454810725e-10
"176" 1630 2.7662355144215e-10 6.96559839287939e-10 4.00485273756526e-09 2.92263482173603e-10 1.80806015297831e-10 1.15447210260487e-10 1.37131345916096e-10 1.75704633977005e-10
"177" 1631 2.75998931957385e-10 6.97576214326857e-10 4.00437141821501e-09 2.93280322630104e-10 1.80806015297831e-10 1.16125750311464e-10 1.37131345916096e-10 1.75783813143285e-10
"178" 1632 2.7537431247262e-10 6.98592589365775e-10 4.00389009886476e-09 2.94297163086605e-10 1.80806015297831e-10 1.16804290362441e-10 1.37131345916096e-10 1.75862992309565e-10
"179" 1633 2.74749692987855e-10 6.99608964404693e-10 4.00340877951451e-09 2.95314003543106e-10 1.80806015297831e-10 1.17482830413418e-10 1.37131345916096e-10 1.75942171475845e-10
"180" 1634 2.7504023961014e-10 7.0038539728726e-10 4.02810577569974e-09 2.9651487786882e-10 1.79229258096779e-10 1.16844898046544e-10 1.36884887913585e-10 1.76231137617588e-10
"181" 1635 2.75330786232425e-10 7.01161830169827e-10 4.05280277188496e-09 2.97715752194534e-10 1.77652500895727e-10 1.16206965679669e-10 1.36638429911074e-10 1.76520103759332e-10
"182" 1636 2.7562133285471e-10 7.01938263052394e-10 4.07749976807019e-09 2.98916626520248e-10 1.76075743694674e-10 1.15569033312795e-10 1.36391971908563e-10 1.76809069901075e-10
"183" 1637 2.75911879476995e-10 7.0271469593496e-10 4.10219676425541e-09 3.00117500845963e-10 1.74498986493622e-10 1.14931100945921e-10 1.36145513906052e-10 1.77098036042819e-10
"184" 1638 2.76202426099281e-10 7.03491128817527e-10 4.12689376044064e-09 3.01318375171677e-10 1.7292222929257e-10 1.14293168579046e-10 1.35899055903541e-10 1.77387002184562e-10
"185" 1639 2.76492972721566e-10 7.04267561700094e-10 4.15159075662586e-09 3.02519249497391e-10 1.71345472091517e-10 1.13655236212172e-10 1.3565259790103e-10 1.77675968326306e-10
"186" 1640 2.76783519343851e-10 7.0504399458266e-10 4.17628775281108e-09 3.03720123823105e-10 1.69768714890465e-10 1.13017303845298e-10 1.35406139898519e-10 1.77964934468049e-10
"187" 1641 2.77074065966136e-10 7.05820427465227e-10 4.20098474899631e-09 3.04920998148819e-10 1.68191957689413e-10 1.12379371478423e-10 1.35159681896008e-10 1.78253900609793e-10
"188" 1642 2.77282272461058e-10 7.05580485308876e-10 4.23089458694469e-09 3.04218876940312e-10 1.6661520048836e-10 1.11152792527457e-10 1.35904893015726e-10 1.78542866751536e-10
"189" 1643 2.76410632594202e-10 7.05580485308876e-10 4.25975878672364e-09 3.00248186224743e-10 1.66076198446438e-10 1.09926213576491e-10 1.36644267023259e-10 1.77755147492586e-10
"190" 1644 2.76410632594202e-10 7.09532772637523e-10 4.30792787758566e-09 2.97163650586895e-10 1.65537196404515e-10 1.09926213576491e-10 1.36391971908563e-10 1.76678462091892e-10
"191" 1645 2.77199932333695e-10 7.13245117809819e-10 4.35324884554951e-09 2.98253173755915e-10 1.65537196404515e-10 1.11152792527457e-10 1.36145513906052e-10 1.76389495950148e-10
"192" 1646 2.77989232073187e-10 7.16957462982115e-10 4.39856981351337e-09 2.99342696924936e-10 1.65537196404515e-10 1.12379371478423e-10 1.35899055903541e-10 1.76100529808405e-10
"193" 1647 2.78778531812679e-10 7.20669808154412e-10 4.44389078147722e-09 3.00432220093956e-10 1.65537196404515e-10 1.13605950429389e-10 1.3565259790103e-10 1.75811563666661e-10
"194" 1648 2.79567831552171e-10 7.24382153326708e-10 4.48921174944107e-09 3.01521743262977e-10 1.65537196404515e-10 1.14832529380356e-10 1.35406139898519e-10 1.75522597524918e-10
"195" 1649 2.80357131291663e-10 7.28094498499004e-10 4.53453271740493e-09 3.02611266431997e-10 1.65537196404515e-10 1.16059108331322e-10 1.35159681896008e-10 1.75233631383174e-10
"196" 1650 2.81146431031156e-10 7.318068436713e-10 4.57985368536878e-09 3.03700789601018e-10 1.65537196404515e-10 1.17285687282288e-10 1.34913223893496e-10 1.74944665241431e-10
"197" 1651 2.81935730770648e-10 7.35519188843596e-10 4.62517465333263e-09 3.04790312770039e-10 1.65537196404515e-10 1.18512266233254e-10 1.34666765890985e-10 1.74655699099687e-10
"198" 1652 2.8272503051014e-10 7.39231534015892e-10 4.67049562129649e-09 3.05879835939059e-10 1.65537196404515e-10 1.19738845184221e-10 1.34420307888474e-10 1.74366732957944e-10
"199" 1653 2.83514330249632e-10 7.42943879188188e-10 4.71581658926034e-09 3.0696935910808e-10 1.65537196404515e-10 1.20965424135187e-10 1.34173849885963e-10 1.740777668162e-10
"200" 1654 2.84303629989124e-10 7.46656224360485e-10 4.76113755722419e-09 3.080588822771e-10 1.65537196404515e-10 1.22192003086153e-10 1.33927391883452e-10 1.73788800674457e-10
"201" 1655 2.85092929728617e-10 7.50368569532781e-10 4.80645852518805e-09 3.09148405446121e-10 1.65537196404515e-10 1.23418582037119e-10 1.33680933880941e-10 1.73499834532713e-10
"202" 1656 2.85882229468109e-10 7.54080914705077e-10 4.8517794931519e-09 3.10237928615141e-10 1.65537196404515e-10 1.24645160988085e-10 1.3343447587843e-10 1.7321086839097e-10
"203" 1657 2.86671529207601e-10 7.57793259877373e-10 4.89710046111575e-09 3.11327451784162e-10 1.65537196404515e-10 1.25871739939052e-10 1.33188017875919e-10 1.72921902249226e-10
"204" 1658 2.87460828947093e-10 7.61505605049669e-10 4.94242142907961e-09 3.12416974953183e-10 1.65537196404515e-10 1.27098318890018e-10 1.32941559873407e-10 1.72632936107483e-10
"205" 1659 2.88250128686585e-10 7.65217950221965e-10 4.98774239704346e-09 3.13506498122203e-10 1.65537196404515e-10 1.28324897840984e-10 1.32695101870896e-10 1.72343969965739e-10
"206" 1660 2.89039428426078e-10 7.68930295394261e-10 5.03306336500731e-09 3.14596021291224e-10 1.65537196404515e-10 1.2955147679195e-10 1.32448643868385e-10 1.72055003823996e-10
"207" 1661 2.89911068292933e-10 7.72642640566558e-10 5.08200465151266e-09 3.15685544460244e-10 1.65537196404515e-10 1.30867949209801e-10 1.32196348753689e-10 1.70978318423302e-10
"208" 1662 2.90782708159789e-10 7.76354985738854e-10 5.130945938018e-09 3.16775067629265e-10 1.65537196404515e-10 1.32184421627653e-10 1.31944053638993e-10 1.69901633022608e-10
"209" 1663 2.94646866729887e-10 7.67692847003496e-10 5.09408842396263e-09 3.1468803822583e-10 1.65537196404515e-10 1.32184421627653e-10 1.32935722761223e-10 1.69034734597377e-10
"210" 1664 2.94646866729887e-10 7.59011839463634e-10 5.05204876631217e-09 3.12508991887789e-10 1.65955451672291e-10 1.32593281277975e-10 1.32935722761223e-10 1.67958049196683e-10
"211" 1665 2.94646866729887e-10 7.52363582001609e-10 4.98568390355557e-09 3.10126577458448e-10 1.66494453714213e-10 1.32593281277975e-10 1.32935722761223e-10 1.66881363795989e-10
"212" 1666 2.94646866729887e-10 7.45715324539583e-10 4.91931904079898e-09 3.07744163029106e-10 1.67033455756136e-10 1.32593281277975e-10 1.32935722761223e-10 1.65804678395295e-10
"213" 1667 2.94646866729887e-10 7.39067067077558e-10 4.85295417804238e-09 3.05361748599765e-10 1.67572457798059e-10 1.32593281277975e-10 1.32935722761223e-10 1.64727992994601e-10
"214" 1668 2.94646866729887e-10 7.32418809615532e-10 4.78658931528578e-09 3.02979334170424e-10 1.68111459839981e-10 1.32593281277975e-10 1.32935722761223e-10 1.63651307593907e-10
"215" 1669 2.94646866729887e-10 7.25770552153506e-10 4.72022445252919e-09 3.00596919741083e-10 1.68650461881904e-10 1.32593281277975e-10 1.32935722761223e-10 1.62574622193213e-10
"216" 1670 2.94646866729887e-10 7.19122294691481e-10 4.65385958977259e-09 2.98214505311741e-10 1.69189463923827e-10 1.32593281277975e-10 1.32935722761223e-10 1.61497936792519e-10
"217" 1671 2.94646866729887e-10 7.12474037229455e-10 4.58749472701599e-09 2.958320908824e-10 1.69728465965749e-10 1.32593281277975e-10 1.32935722761223e-10 1.60421251391825e-10
"218" 1672 2.94646866729887e-10 7.0582577976743e-10 4.5211298642594e-09 2.93449676453059e-10 1.70267468007672e-10 1.32593281277975e-10 1.32935722761223e-10 1.59344565991131e-10
"219" 1673 2.9472920685725e-10 7.07082096962699e-10 4.52724394838692e-09 2.93246308361758e-10 1.7084671897431e-10 1.31914741226998e-10 1.32683427646527e-10 1.59134779015668e-10
"220" 1674 2.94811546984613e-10 7.08338414157969e-10 4.53335803251445e-09 2.93042940270458e-10 1.71425969940949e-10 1.31236201176021e-10 1.32431132531831e-10 1.58924992040204e-10
"221" 1675 2.94893887111977e-10 7.09594731353238e-10 4.53947211664197e-09 2.92839572179158e-10 1.72005220907587e-10 1.30557661125044e-10 1.32178837417135e-10 1.58715205064741e-10
"222" 1676 2.9497622723934e-10 7.10851048548508e-10 4.54558620076949e-09 2.92636204087858e-10 1.72584471874225e-10 1.29879121074067e-10 1.31926542302439e-10 1.58505418089277e-10
"223" 1677 2.95058567366704e-10 7.12107365743777e-10 4.55170028489702e-09 2.92432835996558e-10 1.73163722840864e-10 1.29200581023091e-10 1.31674247187743e-10 1.58295631113814e-10
"224" 1678 2.95140907494067e-10 7.13363682939047e-10 4.55781436902455e-09 2.92229467905257e-10 1.73742973807502e-10 1.28522040972114e-10 1.31421952073048e-10 1.5808584413835e-10
"225" 1679 2.95223247621431e-10 7.14620000134316e-10 4.56392845315207e-09 2.92026099813957e-10 1.74322224774141e-10 1.27843500921137e-10 1.31169656958352e-10 1.57876057162887e-10
"226" 1680 2.95305587748794e-10 7.15876317329586e-10 4.57004253727959e-09 2.91822731722657e-10 1.74901475740779e-10 1.2716496087016e-10 1.30917361843656e-10 1.57666270187423e-10
"227" 1681 2.95387927876158e-10 7.17132634524855e-10 4.57615662140712e-09 2.91619363631357e-10 1.75480726707417e-10 1.26486420819183e-10 1.3066506672896e-10 1.5745648321196e-10
"228" 1682 2.95387927876158e-10 7.19165384602692e-10 4.58132133123526e-09 2.90713874331549e-10 1.76059977674056e-10 1.26396527352299e-10 1.3066506672896e-10 1.56538156143826e-10
"229" 1683 2.95387927876158e-10 7.21198134680528e-10 4.58648604106339e-09 2.89808385031742e-10 1.76639228640694e-10 1.26306633885414e-10 1.3066506672896e-10 1.55619829075692e-10
"230" 1684 2.95387927876158e-10 7.23230884758364e-10 4.59165075089153e-09 2.88902895731935e-10 1.77218479607333e-10 1.26216740418529e-10 1.3066506672896e-10 1.54701502007558e-10
"231" 1685 2.95387927876158e-10 7.252636348362e-10 4.59681546071966e-09 2.87997406432127e-10 1.77797730573971e-10 1.26126846951644e-10 1.3066506672896e-10 1.53783174939424e-10
"232" 1686 2.95387927876158e-10 7.27296384914037e-10 4.6019801705478e-09 2.8709191713232e-10 1.78376981540609e-10 1.26036953484759e-10 1.3066506672896e-10 1.5286484787129e-10
"233" 1687 2.95387927876158e-10 7.29329134991873e-10 4.60714488037593e-09 2.86186427832513e-10 1.78956232507248e-10 1.25947060017874e-10 1.3066506672896e-10 1.51946520803156e-10
"234" 1688 2.95387927876158e-10 7.31361885069709e-10 4.61230959020407e-09 2.85280938532705e-10 1.79535483473886e-10 1.25857166550989e-10 1.3066506672896e-10 1.51028193735022e-10
"235" 1689 2.95387927876158e-10 7.33394635147545e-10 4.6174743000322e-09 2.84375449232898e-10 1.80114734440524e-10 1.25767273084104e-10 1.3066506672896e-10 1.50109866666888e-10
"236" 1690 2.95387927876158e-10 7.35427385225382e-10 4.62263900986034e-09 2.83469959933091e-10 1.80693985407163e-10 1.25677379617219e-10 1.3066506672896e-10 1.49191539598754e-10
"237" 1691 2.95387927876158e-10 7.37460135303218e-10 4.62780371968848e-09 2.82564470633283e-10 1.81273236373801e-10 1.25587486150334e-10 1.3066506672896e-10 1.48273212530621e-10
"238" 1692 2.95387927876158e-10 7.39492885381054e-10 4.63296842951661e-09 2.81658981333476e-10 1.8185248734044e-10 1.25497592683449e-10 1.3066506672896e-10 1.47354885462487e-10
"239" 1693 2.95387927876158e-10 7.4152563545889e-10 4.63813313934475e-09 2.80753492033668e-10 1.82431738307078e-10 1.25407699216565e-10 1.3066506672896e-10 1.46436558394353e-10
"240" 1694 2.9617722761565e-10 7.4152563545889e-10 4.67280519787411e-09 2.80937525902882e-10 1.83010989273716e-10 1.25726665400002e-10 1.30911524731471e-10 1.45518231326219e-10
"241" 1695 2.95886680993365e-10 7.4152563545889e-10 4.67208113416581e-09 2.80327421628981e-10 1.83051238198432e-10 1.25636771933117e-10 1.31163819846167e-10 1.44888870399828e-10
"242" 1696 2.95596134371079e-10 7.4152563545889e-10 4.67135707045752e-09 2.79717317355081e-10 1.83091487123148e-10 1.25546878466232e-10 1.31416114960863e-10 1.44259509473438e-10
"243" 1697 2.95305587748794e-10 7.40749202576324e-10 4.65953139144962e-09 2.79809334289687e-10 1.83091487123148e-10 1.25546878466232e-10 1.31416114960863e-10 1.44548475615181e-10
"244" 1698 2.95015041126509e-10 7.39972769693757e-10 4.64770571244173e-09 2.79901351224294e-10 1.83091487123148e-10 1.25546878466232e-10 1.31416114960863e-10 1.44837441756925e-10
"245" 1699 2.94724494504224e-10 7.37996626029433e-10 4.64384473422512e-09 2.79901351224294e-10 1.83091487123148e-10 1.25456984999347e-10 1.31668410075559e-10 1.45126407898668e-10
"246" 1700 2.94433947881939e-10 7.36020482365109e-10 4.6399837560085e-09 2.79901351224294e-10 1.83091487123148e-10 1.25367091532462e-10 1.31920705190254e-10 1.45415374040412e-10
"247" 1701 2.94143401259653e-10 7.34044338700786e-10 4.63612277779189e-09 2.79901351224294e-10 1.83091487123148e-10 1.25277198065577e-10 1.3217300030495e-10 1.45704340182155e-10
"248" 1702 2.93852854637368e-10 7.32068195036462e-10 4.63226179957527e-09 2.79901351224294e-10 1.83091487123148e-10 1.25187304598692e-10 1.32425295419646e-10 1.45993306323899e-10
"249" 1703 2.93562308015083e-10 7.30092051372138e-10 4.62840082135866e-09 2.79901351224294e-10 1.83091487123148e-10 1.25097411131807e-10 1.32677590534342e-10 1.46282272465642e-10
"250" 1704 2.93271761392798e-10 7.28115907707814e-10 4.62453984314204e-09 2.79901351224294e-10 1.83091487123148e-10 1.25007517664922e-10 1.32929885649038e-10 1.46571238607386e-10
"251" 1705 2.92981214770512e-10 7.26139764043491e-10 4.62067886492543e-09 2.79901351224294e-10 1.83091487123148e-10 1.24917624198038e-10 1.33182180763734e-10 1.46860204749129e-10
"252" 1706 2.92690668148227e-10 7.24163620379167e-10 4.61681788670881e-09 2.79901351224294e-10 1.83091487123148e-10 1.24827730731153e-10 1.3343447587843e-10 1.47149170890873e-10
"253" 1707 2.93479967887719e-10 7.37983109527132e-10 4.61273159790111e-09 2.79605966198387e-10 1.8363048916507e-10 1.2514669691459e-10 1.3343447587843e-10 1.47149170890873e-10
"254" 1708 2.93397627760356e-10 7.36025834667312e-10 4.6086453090934e-09 2.7931058117248e-10 1.83590240240355e-10 1.2514669691459e-10 1.33680933880941e-10 1.47358957866336e-10
"255" 1709 2.93315287632993e-10 7.46095241033972e-10 4.66030775645879e-09 2.79920685446381e-10 1.83590240240355e-10 1.26373275865556e-10 1.3467260300317e-10 1.4764792400808e-10
"256" 1710 2.93232947505629e-10 7.56164647400633e-10 4.71197020382419e-09 2.80530789720281e-10 1.83590240240355e-10 1.27599854816522e-10 1.35664272125399e-10 1.47936890149823e-10
"257" 1711 2.93150607378266e-10 7.66234053767293e-10 4.76363265118958e-09 2.81140893994182e-10 1.83590240240355e-10 1.28826433767488e-10 1.36655941247628e-10 1.48225856291567e-10
"258" 1712 2.93068267250902e-10 7.76303460133954e-10 4.81529509855497e-09 2.81750998268082e-10 1.83590240240355e-10 1.30053012718455e-10 1.37647610369858e-10 1.4851482243331e-10
"259" 1713 2.92985927123539e-10 7.86372866500614e-10 4.86695754592036e-09 2.82361102541983e-10 1.83590240240355e-10 1.31279591669421e-10 1.38639279492087e-10 1.48803788575054e-10
"260" 1714 2.92903586996175e-10 7.96442272867275e-10 4.91861999328575e-09 2.82971206815884e-10 1.83590240240355e-10 1.32506170620387e-10 1.39630948614316e-10 1.49092754716797e-10
"261" 1715 2.92821246868812e-10 8.06511679233935e-10 4.97028244065115e-09 2.83581311089784e-10 1.83590240240355e-10 1.33732749571353e-10 1.40622617736545e-10 1.49381720858541e-10
"262" 1716 2.92738906741448e-10 8.16581085600596e-10 5.02194488801654e-09 2.84191415363685e-10 1.83590240240355e-10 1.3495932852232e-10 1.41614286858775e-10 1.49670687000284e-10
"263" 1717 2.92656566614085e-10 8.26650491967256e-10 5.07360733538193e-09 2.84801519637585e-10 1.83590240240355e-10 1.36185907473286e-10 1.42605955981004e-10 1.49959653142028e-10
"264" 1718 2.92574226486721e-10 8.36719898333916e-10 5.12526978274732e-09 2.85411623911486e-10 1.83590240240355e-10 1.37412486424252e-10 1.43597625103233e-10 1.50248619283771e-10
"265" 1719 2.92491886359358e-10 8.46789304700577e-10 5.17693223011272e-09 2.86021728185386e-10 1.83590240240355e-10 1.38639065375218e-10 1.44589294225462e-10 1.50537585425515e-10
"266" 1720 2.92409546231994e-10 8.56858711067237e-10 5.22859467747811e-09 2.86631832459287e-10 1.83590240240355e-10 1.39865644326184e-10 1.45580963347691e-10 1.50826551567258e-10
"267" 1721 2.92327206104631e-10 8.66928117433898e-10 5.2802571248435e-09 2.87241936733188e-10 1.83590240240355e-10 1.41092223277151e-10 1.46572632469921e-10 1.51115517709002e-10
"268" 1722 2.92244865977267e-10 8.76997523800558e-10 5.33191957220889e-09 2.87852041007088e-10 1.83590240240355e-10 1.42318802228117e-10 1.4756430159215e-10 1.51404483850745e-10
"269" 1723 2.92162525849904e-10 8.87066930167219e-10 5.38358201957429e-09 2.88462145280989e-10 1.83590240240355e-10 1.43545381179083e-10 1.48555970714379e-10 1.51693449992489e-10
"270" 1724 2.92080185722541e-10 8.97136336533879e-10 5.43524446693968e-09 2.88278111411776e-10 1.82013483039302e-10 1.44183313545957e-10 1.49547639836608e-10 1.51982416134233e-10
"271" 1725 2.92288392217462e-10 9.03234586767388e-10 5.49071976058666e-09 2.88980232620283e-10 1.82053731964018e-10 1.45499785963809e-10 1.50539308958838e-10 1.52271382275976e-10
"272" 1726 2.88671254029455e-10 8.99484503986083e-10 5.51655865881137e-09 2.83881350291519e-10 1.82093980888734e-10 1.4681625838166e-10 1.51284520078556e-10 1.52350561442256e-10
"273" 1727 2.85054115841448e-10 8.95734421204779e-10 5.54239755703609e-09 2.78782467962756e-10 1.8213422981345e-10 1.48132730799511e-10 1.52029731198274e-10 1.52429740608536e-10
"274" 1728 2.81436977653441e-10 8.91984338423474e-10 5.5682364552608e-09 2.73683585633992e-10 1.82174478738165e-10 1.49449203217362e-10 1.52774942317992e-10 1.52508919774816e-10
"275" 1729 2.77819839465434e-10 8.8823425564217e-10 5.59407535348551e-09 2.68584703305229e-10 1.82214727662881e-10 1.50765675635213e-10 1.5352015343771e-10 1.52588098941096e-10
"276" 1730 2.77819839465434e-10 8.89490572837439e-10 5.53451377103082e-09 2.68584703305229e-10 1.82214727662881e-10 1.51673288402742e-10 1.5352015343771e-10 1.5287706508284e-10
"277" 1731 2.77819839465434e-10 8.90746890032709e-10 5.47495218857614e-09 2.68584703305229e-10 1.82214727662881e-10 1.52580901170271e-10 1.5352015343771e-10 1.53166031224583e-10
"278" 1732 2.78691479332289e-10 8.95917756947618e-10 5.42061879696864e-09 2.7076374964327e-10 1.82753729704804e-10 1.52172041519949e-10 1.53766611440221e-10 1.53375818200047e-10
"279" 1733 2.79563119199145e-10 9.01088623862526e-10 5.36628540536115e-09 2.72942795981311e-10 1.83292731746726e-10 1.51763181869627e-10 1.54013069442732e-10 1.5358560517551e-10
"280" 1734 2.80434759066001e-10 9.06259490777435e-10 5.31195201375366e-09 2.75121842319352e-10 1.83831733788649e-10 1.51354322219305e-10 1.54259527445243e-10 1.53795392150974e-10
"281" 1735 2.81306398932856e-10 9.11430357692344e-10 5.25761862214616e-09 2.77300888657394e-10 1.84370735830572e-10 1.50945462568983e-10 1.54505985447755e-10 1.54005179126437e-10
"282" 1736 2.82178038799712e-10 9.16601224607253e-10 5.20328523053867e-09 2.79479934995435e-10 1.84909737872494e-10 1.50536602918661e-10 1.54752443450266e-10 1.54214966101901e-10
"283" 1737 2.83049678666568e-10 9.21772091522162e-10 5.14895183893118e-09 2.81658981333476e-10 1.85448739914417e-10 1.50127743268339e-10 1.54998901452777e-10 1.54424753077364e-10
"284" 1738 2.83921318533423e-10 9.2694295843707e-10 5.09461844732368e-09 2.83838027671517e-10 1.8598774195634e-10 1.49718883618017e-10 1.55245359455288e-10 1.54634540052827e-10
"285" 1739 2.84792958400279e-10 9.32113825351979e-10 5.04028505571619e-09 2.86017074009558e-10 1.86526743998262e-10 1.49310023967695e-10 1.55491817457799e-10 1.54844327028291e-10
"286" 1740 2.85664598267135e-10 9.37284692266888e-10 4.9859516641087e-09 2.88196120347599e-10 1.87065746040185e-10 1.48901164317373e-10 1.5573827546031e-10 1.55054114003754e-10
"287" 1741 2.8653623813399e-10 9.42455559181797e-10 4.9316182725012e-09 2.9037516668564e-10 1.87604748082108e-10 1.4849230466705e-10 1.55984733462821e-10 1.55263900979218e-10
"288" 1742 2.87407878000846e-10 9.47626426096705e-10 4.87728488089371e-09 2.92554213023681e-10 1.8814375012403e-10 1.48083445016728e-10 1.56231191465332e-10 1.55473687954681e-10
"289" 1743 2.88279517867702e-10 9.52797293011614e-10 4.82295148928622e-09 2.94733259361723e-10 1.88682752165953e-10 1.47674585366406e-10 1.56477649467843e-10 1.55683474930145e-10
"290" 1744 2.89151157734557e-10 9.57968159926523e-10 4.76861809767872e-09 2.96912305699764e-10 1.89221754207876e-10 1.47265725716084e-10 1.56724107470355e-10 1.55893261905608e-10
"291" 1745 2.89151157734557e-10 9.5721059584846e-10 4.70516275415643e-09 2.96708937608464e-10 1.89760756249798e-10 1.46856866065762e-10 1.5697640258505e-10 1.56969947306302e-10
"292" 1746 2.89359364229479e-10 9.57229464652965e-10 4.67998443862096e-09 2.95619414439443e-10 1.89760756249798e-10 1.46856866065762e-10 1.57228697699746e-10 1.57757666565253e-10
"293" 1747 2.88487724362623e-10 9.57248333457469e-10 4.67609067755335e-09 2.93237000010102e-10 1.88723001090669e-10 1.46856866065762e-10 1.57228697699746e-10 1.57757666565253e-10
"294" 1748 2.87616084495768e-10 9.57267202261973e-10 4.67219691648575e-09 2.9085458558076e-10 1.87685245931539e-10 1.46856866065762e-10 1.57228697699746e-10 1.57757666565253e-10
"295" 1749 2.86744444628912e-10 9.57286071066477e-10 4.66830315541814e-09 2.88472171151419e-10 1.86647490772409e-10 1.46856866065762e-10 1.57228697699746e-10 1.57757666565253e-10
"296" 1750 2.85872804762056e-10 9.57304939870981e-10 4.66440939435053e-09 2.86089756722078e-10 1.8560973561328e-10 1.46856866065762e-10 1.57228697699746e-10 1.57757666565253e-10
"297" 1751 2.85083505022564e-10 9.5706499771463e-10 4.67666826077365e-09 2.83707342292736e-10 1.8457198045415e-10 1.46856866065762e-10 1.57222860587562e-10 1.57757666565253e-10
"298" 1752 2.84294205283072e-10 9.56825055558278e-10 4.68892712719677e-09 2.81324927863395e-10 1.8353422529502e-10 1.46856866065762e-10 1.57217023475377e-10 1.57757666565253e-10
"299" 1753 2.8350490554358e-10 9.56585113401927e-10 4.70118599361989e-09 2.78942513434054e-10 1.82496470135891e-10 1.46856866065762e-10 1.57211186363192e-10 1.57757666565253e-10
"300" 1754 2.82715605804088e-10 9.55606475972017e-10 4.70821666919581e-09 2.78739145342754e-10 1.83075721102529e-10 1.46766972598877e-10 1.57457644365703e-10 1.58545385824203e-10
"301" 1755 2.82797945931451e-10 9.55366533815666e-10 4.72047553561893e-09 2.78443760316847e-10 1.83075721102529e-10 1.46358112948555e-10 1.57457644365703e-10 1.58545385824203e-10
"302" 1756 2.82797945931451e-10 9.55366533815666e-10 4.73273440204204e-09 2.7814837529094e-10 1.83614723144452e-10 1.46358112948555e-10 1.56712433245985e-10 1.58703744156763e-10
"303" 1757 2.82797945931451e-10 9.55366533815666e-10 4.7412285541186e-09 2.77852990265033e-10 1.84153725186375e-10 1.46358112948555e-10 1.55967222126267e-10 1.57785417088629e-10
"304" 1758 2.82797945931451e-10 9.55366533815666e-10 4.74972270619515e-09 2.77557605239126e-10 1.84692727228297e-10 1.46358112948555e-10 1.55222011006549e-10 1.56867090020496e-10
"305" 1759 2.82797945931451e-10 9.55366533815666e-10 4.7582168582717e-09 2.7726222021322e-10 1.8523172927022e-10 1.46358112948555e-10 1.54476799886831e-10 1.55948762952362e-10
"306" 1760 2.82797945931451e-10 9.55366533815666e-10 4.76671101034825e-09 2.76966835187313e-10 1.85770731312143e-10 1.46358112948555e-10 1.53731588767113e-10 1.55030435884228e-10
"307" 1761 2.82797945931451e-10 9.55366533815666e-10 4.77520516242481e-09 2.76671450161406e-10 1.86309733354065e-10 1.46358112948555e-10 1.52986377647395e-10 1.54112108816094e-10
"308" 1762 2.82797945931451e-10 9.55366533815666e-10 4.78369931450136e-09 2.76376065135499e-10 1.86848735395988e-10 1.46358112948555e-10 1.52241166527677e-10 1.5319378174796e-10
"309" 1763 2.82797945931451e-10 9.55366533815666e-10 4.79219346657791e-09 2.76080680109592e-10 1.87387737437911e-10 1.46358112948555e-10 1.51495955407958e-10 1.52275454679826e-10
"310" 1764 2.82715605804088e-10 9.59318821144313e-10 4.79465444931296e-09 2.76874818252706e-10 1.87387737437911e-10 1.4644800641544e-10 1.51495955407958e-10 1.51646093753435e-10
"311" 1765 2.82633265676724e-10 9.63271108472961e-10 4.797115432048e-09 2.7766895639582e-10 1.87387737437911e-10 1.46537899882325e-10 1.51495955407958e-10 1.51016732827045e-10
"312" 1766 2.82550925549361e-10 9.67223395801608e-10 4.79957641478304e-09 2.78463094538934e-10 1.87387737437911e-10 1.4662779334921e-10 1.51495955407958e-10 1.50387371900655e-10
"313" 1767 2.82468585421997e-10 9.71175683130256e-10 4.80203739751809e-09 2.79257232682048e-10 1.87387737437911e-10 1.46717686816095e-10 1.51495955407958e-10 1.49758010974264e-10
"314" 1768 2.82386245294634e-10 9.75127970458903e-10 4.80449838025313e-09 2.80051370825161e-10 1.87387737437911e-10 1.4680758028298e-10 1.51495955407958e-10 1.49128650047874e-10
"315" 1769 2.8230390516727e-10 9.79080257787551e-10 4.80695936298818e-09 2.80845508968275e-10 1.87387737437911e-10 1.46897473749865e-10 1.51495955407958e-10 1.48499289121483e-10
"316" 1770 2.82221565039907e-10 9.83032545116199e-10 4.80942034572322e-09 2.81639647111389e-10 1.87387737437911e-10 1.4698736721675e-10 1.51495955407958e-10 1.47869928195093e-10
"317" 1771 2.82139224912543e-10 9.86984832444846e-10 4.81188132845826e-09 2.82433785254503e-10 1.87387737437911e-10 1.47077260683634e-10 1.51495955407958e-10 1.47240567268702e-10
"318" 1772 2.8205688478518e-10 9.90937119773494e-10 4.81434231119331e-09 2.83227923397616e-10 1.87387737437911e-10 1.47167154150519e-10 1.51495955407958e-10 1.46611206342312e-10
"319" 1773 2.81974544657816e-10 9.94889407102141e-10 4.81680329392835e-09 2.8402206154073e-10 1.87387737437911e-10 1.47257047617404e-10 1.51495955407958e-10 1.45981845415922e-10
"320" 1774 2.81892204530453e-10 9.98841694430789e-10 4.81926427666340e-09 2.84816199683844e-10 1.87387737437911e-10 1.47346941084289e-10 1.51495955407958e-10 1.45352484489531e-10
"321" 1775 2.82100411025375e-10 1.00255403960308e-09 4.77640429143459e-09 2.83523308423523e-10 1.86848735395988e-10 1.47027974900852e-10 1.52235329415492e-10 1.45641450631275e-10
"322" 1776 2.82308617520297e-10 1.00626638477538e-09 4.73354430620578e-09 2.82230417163202e-10 1.86309733354065e-10 1.46709008717415e-10 1.52974703423025e-10 1.45930416773018e-10
"323" 1777 2.82226277392933e-10 1.00619090955736e-09 4.73885341183899e-09 2.82414451032416e-10 1.86309733354065e-10 1.467989021843e-10 1.53966372545254e-10 1.45930416773018e-10
"324" 1778 2.8214393726557e-10 1.00611543433935e-09 4.7441625174722e-09 2.82598484901629e-10 1.86309733354065e-10 1.46888795651185e-10 1.54958041667484e-10 1.45930416773018e-10
"325" 1779 2.82061597138206e-10 1.00603995912133e-09 4.74947162310541e-09 2.82782518770842e-10 1.86309733354065e-10 1.4697868911807e-10 1.55949710789713e-10 1.45930416773018e-10
"326" 1780 2.82686216622971e-10 1.01104635909791e-09 4.74937535923536e-09 2.82782518770842e-10 1.86848735395988e-10 1.4697868911807e-10 1.55949710789713e-10 1.45851237606738e-10
"327" 1781 2.82603876495608e-10 1.00725853870759e-09 4.74855503165701e-09 2.82782518770842e-10 1.86808486471272e-10 1.47657229169046e-10 1.56196168792224e-10 1.46480598533129e-10
"328" 1782 2.82521536368244e-10 1.00420941359084e-09 4.74982598041754e-09 2.81877029471035e-10 1.86768237546557e-10 1.48066088819368e-10 1.56442626794735e-10 1.46480598533129e-10
"329" 1783 2.82439196240881e-10 1.00116028847408e-09 4.75109692917807e-09 2.80971540171227e-10 1.86727988621841e-10 1.48474948469691e-10 1.56689084797246e-10 1.46480598533129e-10
"330" 1784 2.82356856113518e-10 9.98111163357329e-10 4.7523678779386e-09 2.8006605087142e-10 1.86687739697125e-10 1.48883808120013e-10 1.56935542799757e-10 1.46480598533129e-10
"331" 1785 2.82274515986154e-10 9.95062038240575e-10 4.75363882669913e-09 2.79160561571613e-10 1.86647490772409e-10 1.49292667770335e-10 1.57182000802268e-10 1.46480598533129e-10
"332" 1786 2.82192175858791e-10 9.92012913123821e-10 4.75490977545966e-09 2.78255072271805e-10 1.86607241847694e-10 1.49701527420657e-10 1.5742845880478e-10 1.46480598533129e-10
"333" 1787 2.82109835731427e-10 9.88963788007066e-10 4.75618072422019e-09 2.77349582971998e-10 1.86566992922978e-10 1.50110387070979e-10 1.57674916807291e-10 1.46480598533129e-10
"334" 1788 2.82027495604064e-10 9.85914662890312e-10 4.75745167298072e-09 2.7644409367219e-10 1.86526743998262e-10 1.50519246721301e-10 1.57921374809802e-10 1.46480598533129e-10
"335" 1789 2.819451554767e-10 9.86634489359366e-10 4.75587449884308e-09 2.7624072558089e-10 1.84909737872494e-10 1.50519246721301e-10 1.58167832812313e-10 1.46559777699409e-10
"336" 1790 2.81862815349337e-10 9.8735431582842e-10 4.75429732470545e-09 2.7603735748959e-10 1.83292731746726e-10 1.50519246721301e-10 1.58414290814824e-10 1.46638956865689e-10
"337" 1791 2.81780475221973e-10 9.88074142297475e-10 4.75272015056781e-09 2.7583398939829e-10 1.81675725620958e-10 1.50519246721301e-10 1.58660748817335e-10 1.46718136031969e-10
"338" 1792 2.8169813509461e-10 9.88793968766529e-10 4.75114297643017e-09 2.7563062130699e-10 1.8005871949519e-10 1.50519246721301e-10 1.58907206819846e-10 1.46797315198249e-10
"339" 1793 2.81615794967246e-10 9.89513795235583e-10 4.74956580229254e-09 2.75427253215689e-10 1.78441713369422e-10 1.50519246721301e-10 1.59153664822357e-10 1.46876494364529e-10
"340" 1794 2.81533454839883e-10 9.90233621704637e-10 4.7479886281549e-09 2.75223885124389e-10 1.76824707243654e-10 1.50519246721301e-10 1.59400122824869e-10 1.46955673530809e-10
"341" 1795 2.81451114712519e-10 9.90953448173692e-10 4.74641145401726e-09 2.75020517033089e-10 1.75207701117886e-10 1.50519246721301e-10 1.5964658082738e-10 1.47034852697089e-10
"342" 1796 2.81368774585156e-10 9.91673274642746e-10 4.74483427987962e-09 2.74817148941789e-10 1.73590694992118e-10 1.50519246721301e-10 1.59893038829891e-10 1.47114031863369e-10
"343" 1797 2.81286434457793e-10 9.923931011118e-10 4.74325710574199e-09 2.74613780850489e-10 1.7197368886635e-10 1.50519246721301e-10 1.60139496832402e-10 1.47193211029649e-10
"344" 1798 2.81204094330429e-10 9.923931011118e-10 4.74452805450252e-09 2.74410412759189e-10 1.7197368886635e-10 1.50928106371623e-10 1.60133659720217e-10 1.47272390195929e-10
"345" 1799 2.81121754203066e-10 9.923931011118e-10 4.74579900326305e-09 2.74207044667888e-10 1.7197368886635e-10 1.51336966021945e-10 1.60127822608032e-10 1.47351569362209e-10
"346" 1800 2.81039414075702e-10 9.923931011118e-10 4.74706995202358e-09 2.74003676576588e-10 1.7197368886635e-10 1.51745825672267e-10 1.60121985495848e-10 1.47430748528489e-10
"347" 1801 2.80957073948339e-10 9.923931011118e-10 4.74834090078411e-09 2.73800308485288e-10 1.7197368886635e-10 1.52154685322589e-10 1.60116148383663e-10 1.47509927694769e-10
"348" 1802 2.80874733820975e-10 9.923931011118e-10 4.74961184954464e-09 2.73596940393988e-10 1.7197368886635e-10 1.52563544972911e-10 1.60110311271478e-10 1.47589106861049e-10
"349" 1803 2.80792393693612e-10 9.923931011118e-10 4.75088279830517e-09 2.73393572302688e-10 1.7197368886635e-10 1.52972404623233e-10 1.60104474159293e-10 1.47668286027329e-10
"350" 1804 2.80710053566248e-10 9.923931011118e-10 4.7521537470657e-09 2.73190204211387e-10 1.7197368886635e-10 1.53381264273555e-10 1.60098637047109e-10 1.47747465193609e-10
"351" 1805 2.80627713438885e-10 9.923931011118e-10 4.75342469582623e-09 2.72986836120087e-10 1.7197368886635e-10 1.53790123923878e-10 1.60092799934924e-10 1.47826644359889e-10
"352" 1806 2.80545373311521e-10 9.923931011118e-10 4.75469564458676e-09 2.72783468028787e-10 1.7197368886635e-10 1.541989835742e-10 1.60086962822739e-10 1.47905823526169e-10
"353" 1807 2.80463033184158e-10 9.923931011118e-10 4.75596659334729e-09 2.72580099937487e-10 1.7197368886635e-10 1.54607843224522e-10 1.60081125710555e-10 1.47985002692449e-10
"354" 1808 2.80463033184158e-10 9.97601705635717e-10 4.77533705013234e-09 2.72376731846187e-10 1.73590694992118e-10 1.55286383275498e-10 1.6007528859837e-10 1.48064181858729e-10
"355" 1809 2.84327191754256e-10 9.96623068205807e-10 4.77818517303051e-09 2.72468748780793e-10 1.74169945958756e-10 1.55286383275498e-10 1.60814662605903e-10 1.48143361025009e-10
"356" 1810 2.8403664513197e-10 9.96660805814816e-10 4.7832536189886e-09 2.731708699893e-10 1.74628450151248e-10 1.55376276742383e-10 1.60814662605903e-10 1.47933574049546e-10
"357" 1811 2.83746098509685e-10 9.96698543423824e-10 4.78832206494668e-09 2.73872991197808e-10 1.75086954343739e-10 1.55466170209268e-10 1.60814662605903e-10 1.47723787074082e-10
"358" 1812 2.834555518874e-10 9.96736281032832e-10 4.79339051090477e-09 2.74575112406315e-10 1.7554545853623e-10 1.55556063676153e-10 1.60814662605903e-10 1.47514000098619e-10
"359" 1813 2.82540385780349e-10 9.85467163884415e-10 4.79314985122964e-09 2.75277233614822e-10 1.75424711762083e-10 1.54329484725187e-10 1.60820499718088e-10 1.47225033956875e-10
"360" 1814 2.82540385780349e-10 9.86243596766982e-10 4.7969473484272e-09 2.76182722914629e-10 1.75303964987936e-10 1.54419378192072e-10 1.61072794832784e-10 1.46306706888741e-10
"361" 1815 2.82332179285428e-10 9.87020029649548e-10 4.80283612196363e-09 2.7679282718853e-10 1.75722220255712e-10 1.54100412008635e-10 1.6132508994748e-10 1.46306706888741e-10
"362" 1816 2.84244851626892e-10 9.87796462532115e-10 4.80492739830251e-09 2.7740293146243e-10 1.75722220255712e-10 1.53781445825198e-10 1.62328433294078e-10 1.48432327166753e-10
"363" 1817 2.86157523968357e-10 9.88572895414682e-10 4.80701867464139e-09 2.78013035736331e-10 1.75722220255712e-10 1.5346247964176e-10 1.63331776640677e-10 1.50557947444764e-10
"364" 1818 2.88070196309821e-10 9.89349328297248e-10 4.80910995098027e-09 2.78623140010232e-10 1.75722220255712e-10 1.53143513458323e-10 1.64335119987276e-10 1.52683567722775e-10
"365" 1819 2.89982868651285e-10 9.90125761179815e-10 4.81120122731914e-09 2.79233244284132e-10 1.75722220255712e-10 1.52824547274886e-10 1.65338463333874e-10 1.54809188000787e-10
"366" 1820 2.9189554099275e-10 9.90902194062382e-10 4.81329250365802e-09 2.79843348558033e-10 1.75722220255712e-10 1.52505581091449e-10 1.66341806680473e-10 1.56934808278798e-10
"367" 1821 2.93808213334214e-10 9.91678626944948e-10 4.8153837799969e-09 2.80453452831933e-10 1.75722220255712e-10 1.52186614908012e-10 1.67345150027072e-10 1.5906042855681e-10
"368" 1822 2.95720885675679e-10 9.92455059827515e-10 4.81747505633578e-09 2.81063557105834e-10 1.75722220255712e-10 1.51867648724575e-10 1.68348493373671e-10 1.61186048834821e-10
"369" 1823 2.97633558017143e-10 9.93231492710082e-10 4.81956633267466e-09 2.81673661379734e-10 1.75722220255712e-10 1.51548682541137e-10 1.69351836720269e-10 1.63311669112832e-10
"370" 1824 2.97633558017143e-10 9.93250361514586e-10 4.83172893522772e-09 2.81673661379734e-10 1.76261222297634e-10 1.51548682541137e-10 1.70355180066868e-10 1.63521456088296e-10
"371" 1825 2.97633558017143e-10 9.9326923031909e-10 4.84389153778079e-09 2.81673661379734e-10 1.76800224339557e-10 1.51548682541137e-10 1.71358523413467e-10 1.63731243063759e-10
"372" 1826 2.97633558017143e-10 9.93288099123594e-10 4.85605414033386e-09 2.81673661379734e-10 1.7733922638148e-10 1.51548682541137e-10 1.72361866760065e-10 1.63941030039223e-10
"373" 1827 2.97633558017143e-10 9.93306967928098e-10 4.86821674288693e-09 2.81673661379734e-10 1.77878228423402e-10 1.51548682541137e-10 1.73365210106664e-10 1.64150817014686e-10
"374" 1828 2.97633558017143e-10 9.93325836732603e-10 4.88037934543999e-09 2.81673661379734e-10 1.78417230465325e-10 1.51548682541137e-10 1.74368553453263e-10 1.6436060399015e-10
"375" 1829 2.97633558017143e-10 9.93344705537107e-10 4.89254194799306e-09 2.81673661379734e-10 1.78956232507248e-10 1.51548682541137e-10 1.75371896799861e-10 1.64570390965613e-10
"376" 1830 2.97633558017143e-10 9.93363574341611e-10 4.90470455054613e-09 2.81673661379734e-10 1.7949523454917e-10 1.51548682541137e-10 1.7637524014646e-10 1.64780177941077e-10
"377" 1831 2.97633558017143e-10 9.93382443146115e-10 4.9168671530992e-09 2.81673661379734e-10 1.80034236591093e-10 1.51548682541137e-10 1.77378583493059e-10 1.6498996491654e-10
"378" 1832 2.97633558017143e-10 9.93401311950619e-10 4.92902975565226e-09 2.81673661379734e-10 1.80573238633016e-10 1.51548682541137e-10 1.78381926839658e-10 1.65199751892004e-10
"379" 1833 2.97633558017143e-10 9.93420180755123e-10 4.94119235820533e-09 2.81673661379734e-10 1.81112240674938e-10 1.51548682541137e-10 1.79385270186256e-10 1.65409538867467e-10
"380" 1834 2.97633558017143e-10 9.93439049559628e-10 4.9533549607584e-09 2.81673661379734e-10 1.81651242716861e-10 1.51548682541137e-10 1.80388613532855e-10 1.65619325842931e-10
"381" 1835 2.97633558017143e-10 9.93457918364132e-10 4.96551756331147e-09 2.81673661379734e-10 1.82190244758784e-10 1.51548682541137e-10 1.81391956879454e-10 1.65829112818394e-10
"382" 1836 2.97633558017143e-10 9.93476787168636e-10 4.97768016586453e-09 2.81673661379734e-10 1.82729246800706e-10 1.51548682541137e-10 1.82395300226052e-10 1.66038899793858e-10
"383" 1837 2.97425351522222e-10 9.95509537246472e-10 4.97840422957283e-09 2.83484639979349e-10 1.82729246800706e-10 1.52456295308666e-10 1.82647595340748e-10 1.66038899793858e-10
"384" 1838 2.972171450273e-10 9.97485680910796e-10 4.98730087089654e-09 2.84278778122463e-10 1.82729246800706e-10 1.52137329125229e-10 1.82647595340748e-10 1.66038899793858e-10
"385" 1839 2.97008938532378e-10 9.9946182457512e-10 4.99619751222025e-09 2.85072916265577e-10 1.82729246800706e-10 1.51818362941792e-10 1.82647595340748e-10 1.66038899793858e-10
"386" 1840 2.96800732037456e-10 1.00143796823944e-09 5.00509415354396e-09 2.8586705440869e-10 1.82729246800706e-10 1.51499396758355e-10 1.82647595340748e-10 1.66038899793858e-10
"387" 1841 2.96592525542535e-10 1.00341411190377e-09 5.01399079486767e-09 2.86661192551804e-10 1.82729246800706e-10 1.51180430574918e-10 1.82647595340748e-10 1.66038899793858e-10
"388" 1842 2.95512679180757e-10 1.00167791039579e-09 5.02216337248308e-09 2.86661192551804e-10 1.82190244758784e-10 1.51180430574918e-10 1.82647595340748e-10 1.65749933652114e-10
"389" 1843 2.9314477996228e-10 1.00363518525561e-09 5.02493058059523e-09 2.86661192551804e-10 1.82190244758784e-10 1.51270324041803e-10 1.82401137338237e-10 1.65749933652114e-10
"390" 1844 2.92064933600503e-10 1.00585127107629e-09 5.03405253251003e-09 2.87547347629525e-10 1.82190244758784e-10 1.50951357858366e-10 1.82154679335726e-10 1.65749933652114e-10
"391" 1845 2.90985087238726e-10 1.00686764611521e-09 5.03500190680942e-09 2.87343979538224e-10 1.82190244758784e-10 1.5122103825902e-10 1.82911564679814e-10 1.65749933652114e-10
"392" 1846 2.89905240876948e-10 1.00788402115413e-09 5.03595128110881e-09 2.87140611446924e-10 1.82190244758784e-10 1.51490718659675e-10 1.83668450023901e-10 1.65749933652114e-10
"393" 1847 2.88825394515171e-10 1.00890039619304e-09 5.0369006554082e-09 2.86937243355624e-10 1.82190244758784e-10 1.5176039906033e-10 1.84425335367989e-10 1.65749933652114e-10
"394" 1848 2.8791022840812e-10 1.00893813380205e-09 5.03785002970759e-09 2.86937243355624e-10 1.81771989491008e-10 1.52030079460984e-10 1.85182220712076e-10 1.6546096751037e-10
"395" 1849 2.8699506230107e-10 1.00897587141106e-09 5.03879940400698e-09 2.86937243355624e-10 1.81353734223233e-10 1.52299759861639e-10 1.85939106056164e-10 1.65172001368627e-10
"396" 1850 2.86079896194019e-10 1.00901360902007e-09 5.03974877830637e-09 2.86937243355624e-10 1.80935478955457e-10 1.52569440262294e-10 1.86695991400251e-10 1.64883035226883e-10
"397" 1851 2.85164730086969e-10 1.00905134662908e-09 5.04069815260576e-09 2.86937243355624e-10 1.80517223687681e-10 1.52839120662949e-10 1.87452876744339e-10 1.6459406908514e-10
"398" 1852 2.84249563979918e-10 1.00908908423809e-09 5.04164752690515e-09 2.86937243355624e-10 1.80098968419906e-10 1.53108801063603e-10 1.88209762088427e-10 1.64305102943396e-10
"399" 1853 2.83334397872868e-10 1.00912682184709e-09 5.04259690120453e-09 2.86937243355624e-10 1.7968071315213e-10 1.53378481464258e-10 1.88966647432514e-10 1.64016136801653e-10
"400" 1854 2.82419231765817e-10 1.0091645594561e-09 5.04354627550392e-09 2.86937243355624e-10 1.79262457884355e-10 1.53648161864913e-10 1.89723532776602e-10 1.63727170659909e-10
"401" 1855 2.81504065658767e-10 1.00920229706511e-09 5.04449564980331e-09 2.86937243355624e-10 1.78844202616579e-10 1.53917842265568e-10 1.90480418120689e-10 1.63438204518166e-10
"402" 1856 2.80588899551716e-10 1.00924003467412e-09 5.0454450241027e-09 2.86937243355624e-10 1.78425947348804e-10 1.54187522666222e-10 1.91237303464777e-10 1.63149238376422e-10
"403" 1857 2.79673733444666e-10 1.00927777228313e-09 5.04639439840209e-09 2.86937243355624e-10 1.78007692081028e-10 1.54457203066877e-10 1.91994188808865e-10 1.62860272234679e-10
"404" 1858 2.78758567337615e-10 1.00931550989214e-09 5.04734377270148e-09 2.86937243355624e-10 1.77589436813252e-10 1.54726883467532e-10 1.92751074152952e-10 1.62571306092935e-10
"405" 1859 2.7813394785285e-10 1.00931550989214e-09 5.04756908329257e-09 2.87232628381531e-10 1.77130932620761e-10 1.5431802381721e-10 1.92751074152952e-10 1.62571306092935e-10
"406" 1860 2.77509328368085e-10 1.00931550989214e-09 5.04779439388366e-09 2.87528013407438e-10 1.7667242842827e-10 1.53909164166888e-10 1.92751074152952e-10 1.62571306092935e-10
"407" 1861 2.76884708883319e-10 1.00931550989214e-09 5.04801970447475e-09 2.87823398433344e-10 1.76213924235779e-10 1.53500304516565e-10 1.92751074152952e-10 1.62571306092935e-10
"408" 1862 2.76260089398554e-10 1.00931550989214e-09 5.04824501506584e-09 2.88118783459251e-10 1.75755420043287e-10 1.53091444866243e-10 1.92751074152952e-10 1.62571306092935e-10
"409" 1863 2.75635469913789e-10 1.00931550989214e-09 5.04847032565693e-09 2.88414168485158e-10 1.75296915850796e-10 1.52682585215921e-10 1.92751074152952e-10 1.62571306092935e-10
"410" 1864 2.72100671853145e-10 1.00927777228313e-09 5.04460934744032e-09 2.88709553511065e-10 1.7525666692608e-10 1.52273725565599e-10 1.90744387459755e-10 1.60734651956668e-10
"411" 1865 2.68565873792501e-10 1.00924003467412e-09 5.0407483692237e-09 2.89004938536972e-10 1.75216418001365e-10 1.51864865915277e-10 1.88737700766557e-10 1.588979978204e-10
"412" 1866 2.65031075731858e-10 1.00920229706511e-09 5.03688739100709e-09 2.89300323562878e-10 1.75176169076649e-10 1.51456006264955e-10 1.8673101407336e-10 1.57061343684132e-10
"413" 1867 2.61496277671214e-10 1.0091645594561e-09 5.03302641279048e-09 2.89595708588785e-10 1.75135920151933e-10 1.51047146614633e-10 1.84724327380163e-10 1.55224689547864e-10
"414" 1868 2.5796147961057e-10 1.00912682184709e-09 5.02916543457386e-09 2.89891093614692e-10 1.75095671227217e-10 1.50638286964311e-10 1.82717640686965e-10 1.53388035411596e-10
"415" 1869 2.54426681549927e-10 1.00908908423809e-09 5.02530445635725e-09 2.90186478640599e-10 1.75055422302502e-10 1.50229427313989e-10 1.80710953993768e-10 1.51551381275328e-10
"416" 1870 2.50891883489283e-10 1.00905134662908e-09 5.02144347814063e-09 2.90481863666506e-10 1.75015173377786e-10 1.49820567663667e-10 1.7870426730057e-10 1.4971472713906e-10
"417" 1871 2.47357085428639e-10 1.00901360902007e-09 5.01758249992402e-09 2.90777248692412e-10 1.7497492445307e-10 1.49411708013345e-10 1.76697580607373e-10 1.47878073002792e-10
"418" 1872 2.43822287367995e-10 1.00897587141106e-09 5.0137215217074e-09 2.91072633718319e-10 1.74934675528355e-10 1.49002848363023e-10 1.74690893914175e-10 1.46041418866525e-10
"419" 1873 2.40287489307352e-10 1.00893813380205e-09 5.00986054349079e-09 2.91368018744226e-10 1.74894426603639e-10 1.48593988712701e-10 1.72684207220978e-10 1.44204764730257e-10
"420" 1874 2.36752691246708e-10 1.00890039619304e-09 5.00599956527417e-09 2.91663403770133e-10 1.74854177678923e-10 1.48185129062379e-10 1.70677520527781e-10 1.42368110593989e-10
"421" 1875 2.33217893186064e-10 1.00886265858404e-09 5.00213858705756e-09 2.9195878879604e-10 1.74813928754208e-10 1.47776269412056e-10 1.68670833834583e-10 1.40531456457721e-10
"422" 1876 2.2968309512542e-10 1.00882492097503e-09 4.99827760884094e-09 2.92254173821946e-10 1.74773679829492e-10 1.47367409761734e-10 1.66664147141386e-10 1.38694802321453e-10
"423" 1877 2.28893795385928e-10 1.00753086617075e-09 4.98645192983305e-09 2.92346190756553e-10 1.74194428862853e-10 1.46958550111412e-10 1.66664147141386e-10 1.38694802321453e-10
"424" 1878 2.28976135513292e-10 1.00455721627201e-09 4.98436065349417e-09 2.91552052613439e-10 1.73615177896215e-10 1.46868656644527e-10 1.66664147141386e-10 1.38694802321453e-10
"425" 1879 2.29058475640655e-10 1.00158356637327e-09 4.98226937715529e-09 2.90757914470325e-10 1.73035926929577e-10 1.46778763177642e-10 1.66664147141386e-10 1.38694802321453e-10
"426" 1880 2.29140815768019e-10 9.98609916474536e-10 4.98017810081642e-09 2.89963776327212e-10 1.72456675962938e-10 1.46688869710758e-10 1.66664147141386e-10 1.38694802321453e-10
"427" 1881 2.29223155895382e-10 9.95636266575799e-10 4.97808682447754e-09 2.89169638184098e-10 1.718774249963e-10 1.46598976243873e-10 1.66664147141386e-10 1.38694802321453e-10
"428" 1882 2.29305496022746e-10 9.91942790208007e-10 4.97604368007368e-09 2.88283483106377e-10 1.71298174029662e-10 1.47825555194839e-10 1.67409358261104e-10 1.3840583617971e-10
"429" 1883 2.29305496022746e-10 9.94177744833186e-10 4.97589928426861e-09 2.87489344963264e-10 1.71298174029662e-10 1.48144521378276e-10 1.67162900258593e-10 1.3832665701343e-10
"430" 1884 2.29305496022746e-10 9.96412699458365e-10 4.97575488846353e-09 2.8669520682015e-10 1.71298174029662e-10 1.48463487561713e-10 1.66916442256082e-10 1.3824747784715e-10
"431" 1885 2.29305496022746e-10 9.98647654083545e-10 4.97561049265846e-09 2.85901068677036e-10 1.71298174029662e-10 1.4878245374515e-10 1.66669984253571e-10 1.3816829868087e-10
"432" 1886 2.29305496022746e-10 1.00088260870872e-09 4.97546609685338e-09 2.85106930533922e-10 1.71298174029662e-10 1.49101419928588e-10 1.66423526251059e-10 1.38089119514589e-10
"433" 1887 2.29305496022746e-10 1.0031175633339e-09 4.97532170104831e-09 2.84312792390809e-10 1.71298174029662e-10 1.49420386112025e-10 1.66177068248548e-10 1.38009940348309e-10
"434" 1888 2.29305496022746e-10 1.00535251795908e-09 4.97517730524323e-09 2.83518654247695e-10 1.71298174029662e-10 1.49739352295462e-10 1.65930610246037e-10 1.37930761182029e-10
"435" 1889 2.29305496022746e-10 1.00758747258426e-09 4.97503290943816e-09 2.82724516104581e-10 1.71298174029662e-10 1.50058318478899e-10 1.65684152243526e-10 1.37851582015749e-10
"436" 1890 2.29305496022746e-10 1.00982242720944e-09 4.97488851363308e-09 2.81930377961467e-10 1.71298174029662e-10 1.50377284662336e-10 1.65437694241015e-10 1.37772402849469e-10
"437" 1891 2.29305496022746e-10 1.01205738183462e-09 4.97474411782801e-09 2.81136239818353e-10 1.71298174029662e-10 1.50696250845773e-10 1.65191236238504e-10 1.37693223683189e-10
"438" 1892 2.2843385615589e-10 1.0142923364598e-09 4.9728300201452e-09 2.80526135544453e-10 1.71418920803809e-10 1.51105110496095e-10 1.64944778235993e-10 1.37693223683189e-10
"439" 1893 2.27562216289034e-10 1.01652729108498e-09 4.97091592246239e-09 2.79916031270552e-10 1.71539667577956e-10 1.51513970146418e-10 1.64698320233482e-10 1.37693223683189e-10
"440" 1894 2.26690576422179e-10 1.01876224571016e-09 4.96900182477957e-09 2.79305926996652e-10 1.71660414352103e-10 1.5192282979674e-10 1.6445186223097e-10 1.37693223683189e-10
"441" 1895 2.25818936555323e-10 1.02099720033534e-09 4.96708772709676e-09 2.78695822722751e-10 1.7178116112625e-10 1.52331689447062e-10 1.64205404228459e-10 1.37693223683189e-10
"442" 1896 2.25029636815831e-10 1.01926099882737e-09 5.00545893427071e-09 2.84254789724548e-10 1.71901907900397e-10 1.52740549097384e-10 1.63958946225948e-10 1.37772402849469e-10
"443" 1897 2.25736596427959e-10 1.02147708464804e-09 5.00555519814076e-09 2.8334930042474e-10 1.71065397364846e-10 1.53419089148361e-10 1.64211241340644e-10 1.38690729917603e-10
"444" 1898 2.26443556040088e-10 1.02369317046872e-09 5.00565146201081e-09 2.82443811124933e-10 1.70228886829295e-10 1.54097629199337e-10 1.6446353645534e-10 1.39609056985737e-10
"445" 1899 2.27150515652217e-10 1.02590925628939e-09 5.00574772588086e-09 2.81538321825126e-10 1.69392376293744e-10 1.54776169250314e-10 1.64715831570036e-10 1.40527384053871e-10
"446" 1900 2.27857475264346e-10 1.02812534211007e-09 5.00584398975091e-09 2.80632832525318e-10 1.68555865758192e-10 1.55454709301291e-10 1.64968126684732e-10 1.41445711122005e-10
"447" 1901 2.28564434876474e-10 1.03034142793074e-09 5.00594025362096e-09 2.79727343225511e-10 1.67719355222641e-10 1.56133249352268e-10 1.65220421799428e-10 1.42364038190139e-10
"448" 1902 2.29271394488603e-10 1.03255751375142e-09 5.00603651749101e-09 2.78821853925703e-10 1.6688284468709e-10 1.56811789403245e-10 1.65472716914123e-10 1.43282365258273e-10
"449" 1903 2.29978354100732e-10 1.03477359957209e-09 5.00613278136106e-09 2.77916364625896e-10 1.66046334151539e-10 1.57490329454221e-10 1.65725012028819e-10 1.44200692326407e-10
"450" 1904 2.30893520207782e-10 1.03601104796286e-09 5.00690497700438e-09 2.76826841456875e-10 1.66046334151539e-10 1.58168869505198e-10 1.65725012028819e-10 1.44830053252797e-10
"451" 1905 2.31808686314833e-10 1.03724849635362e-09 5.0076771726477e-09 2.75737318287855e-10 1.66046334151539e-10 1.58847409556175e-10 1.65725012028819e-10 1.45459414179188e-10
"452" 1906 2.32723852421883e-10 1.03848594474439e-09 5.00844936829103e-09 2.74647795118834e-10 1.66046334151539e-10 1.59525949607152e-10 1.65725012028819e-10 1.46088775105578e-10
"453" 1907 2.33639018528934e-10 1.03972339313515e-09 5.00922156393435e-09 2.73558271949814e-10 1.66046334151539e-10 1.60204489658129e-10 1.65725012028819e-10 1.46718136031969e-10
"454" 1908 2.34554184635984e-10 1.04096084152592e-09 5.00999375957767e-09 2.72468748780793e-10 1.66046334151539e-10 1.60883029709105e-10 1.65725012028819e-10 1.47347496958359e-10
"455" 1909 2.35469350743035e-10 1.04219828991668e-09 5.010765955221e-09 2.71379225611773e-10 1.66046334151539e-10 1.61561569760082e-10 1.65725012028819e-10 1.47976857884749e-10
"456" 1910 2.36384516850085e-10 1.04343573830745e-09 5.01153815086432e-09 2.70289702442752e-10 1.66046334151539e-10 1.62240109811059e-10 1.65725012028819e-10 1.4860621881114e-10
"457" 1911 2.37009136334851e-10 1.0394645821743e-09 4.9763847729847e-09 2.67907288013411e-10 1.65008578992409e-10 1.62918649862036e-10 1.65725012028819e-10 1.4844786047858e-10
"458" 1912 2.37633755819616e-10 1.03549342604115e-09 4.94123139510509e-09 2.65524873584069e-10 1.6397082383328e-10 1.63597189913013e-10 1.65725012028819e-10 1.4828950214602e-10
"459" 1913 2.38258375304381e-10 1.03152226990799e-09 4.90607801722548e-09 2.63142459154728e-10 1.6293306867415e-10 1.64275729963989e-10 1.65725012028819e-10 1.4813114381346e-10
"460" 1914 2.38882994789147e-10 1.02755111377484e-09 4.87092463934586e-09 2.60760044725387e-10 1.6189531351502e-10 1.64954270014966e-10 1.65725012028819e-10 1.479727854809e-10
"461" 1915 2.39507614273912e-10 1.02357995764169e-09 4.83577126146625e-09 2.58377630296045e-10 1.60857558355891e-10 1.65632810065943e-10 1.65725012028819e-10 1.4781442714834e-10
"462" 1916 2.40132233758677e-10 1.01960880150854e-09 4.80061788358664e-09 2.55995215866704e-10 1.59819803196761e-10 1.6631135011692e-10 1.65725012028819e-10 1.4765606881578e-10
"463" 1917 2.40756853243442e-10 1.01563764537539e-09 4.76546450570702e-09 2.53612801437363e-10 1.58782048037631e-10 1.66989890167897e-10 1.65725012028819e-10 1.47497710483219e-10
"464" 1918 2.41546152982935e-10 1.00969034557791e-09 4.73537957378550e-09 2.51230387008022e-10 1.57165041911863e-10 1.66989890167897e-10 1.66464386036353e-10 1.46709991224269e-10
"465" 1919 2.42335452722427e-10 1.00374304578044e-09 4.70529464186397e-09 2.4884797257868e-10 1.55548035786095e-10 1.66989890167897e-10 1.67203760043886e-10 1.45922271965319e-10
"466" 1920 2.43124752461919e-10 9.97795745982961e-10 4.67520970994244e-09 2.46465558149339e-10 1.53931029660327e-10 1.66989890167897e-10 1.67943134051419e-10 1.45134552706368e-10
"467" 1921 2.43914052201411e-10 9.91848446185486e-10 4.64512477802091e-09 2.44083143719998e-10 1.52314023534559e-10 1.66989890167897e-10 1.68682508058953e-10 1.44346833447418e-10
"468" 1922 2.44703351940903e-10 9.8590114638801e-10 4.61503984609938e-09 2.41700729290656e-10 1.50697017408791e-10 1.66989890167897e-10 1.69421882066486e-10 1.43559114188467e-10
"469" 1923 2.45492651680396e-10 9.79953846590535e-10 4.58495491417786e-09 2.39318314861315e-10 1.49080011283023e-10 1.66989890167897e-10 1.70161256074019e-10 1.42771394929517e-10
"470" 1924 2.46281951419888e-10 9.74006546793059e-10 4.55486998225633e-09 2.36935900431974e-10 1.47463005157255e-10 1.66989890167897e-10 1.70900630081553e-10 1.41983675670566e-10
"471" 1925 2.4707125115938e-10 9.7009199707342e-10 4.54858080415566e-09 2.34848871028539e-10 1.45886247956203e-10 1.68306362585748e-10 1.71640004089086e-10 1.41983675670566e-10
"472" 1926 2.47860550898872e-10 9.6608310333126e-10 4.55850773456477e-09 2.34238766754639e-10 1.45926496880918e-10 1.69622835003599e-10 1.72631673211315e-10 1.42771394929517e-10
"473" 1927 2.48649850638365e-10 9.620742095891e-10 4.56843466497389e-09 2.33628662480738e-10 1.45966745805634e-10 1.7093930742145e-10 1.73623342333545e-10 1.43559114188467e-10
"474" 1928 2.45574991807759e-10 9.63368264393378e-10 4.59811919233118e-09 2.33628662480738e-10 1.45966745805634e-10 1.72165886372416e-10 1.74362716341078e-10 1.44346833447418e-10
"475" 1929 2.42500132977154e-10 9.64662319197656e-10 4.62780371968848e-09 2.33628662480738e-10 1.45966745805634e-10 1.73392465323382e-10 1.75102090348611e-10 1.45134552706368e-10
"476" 1930 2.39425274146548e-10 9.65956374001934e-10 4.65748824704577e-09 2.33628662480738e-10 1.45966745805634e-10 1.74619044274349e-10 1.75841464356145e-10 1.45922271965319e-10
"477" 1931 2.36350415315943e-10 9.67250428806211e-10 4.68717277440307e-09 2.33628662480738e-10 1.45966745805634e-10 1.75845623225315e-10 1.76580838363678e-10 1.46709991224269e-10
"478" 1932 2.33110876230611e-10 9.66530602337157e-10 4.69084122487958e-09 2.33333277454831e-10 1.45926496880918e-10 1.7575572975843e-10 1.76575001251493e-10 1.46630812057989e-10
"479" 1933 2.29871337145278e-10 9.65810775868103e-10 4.69450967535610e-09 2.33037892428924e-10 1.45886247956203e-10 1.75665836291545e-10 1.76569164139309e-10 1.46551632891709e-10
"480" 1934 2.26631798059946e-10 9.65090949399049e-10 4.69817812583261e-09 2.32742507403018e-10 1.45845999031487e-10 1.7557594282466e-10 1.76563327027124e-10 1.46472453725429e-10
"481" 1935 2.23392258974614e-10 9.64371122929995e-10 4.70184657630912e-09 2.32447122377111e-10 1.45805750106771e-10 1.75486049357775e-10 1.76557489914939e-10 1.46393274559149e-10
"482" 1936 2.20152719889282e-10 9.6365129646094e-10 4.70551502678564e-09 2.32151737351204e-10 1.45765501182055e-10 1.7539615589089e-10 1.76551652802754e-10 1.46314095392869e-10
"483" 1937 2.16913180803949e-10 9.62931469991886e-10 4.70918347726215e-09 2.31856352325297e-10 1.4572525225734e-10 1.75306262424005e-10 1.7654581569057e-10 1.46234916226589e-10
"484" 1938 2.13673641718617e-10 9.62211643522832e-10 4.71285192773867e-09 2.3156096729939e-10 1.45685003332624e-10 1.7521636895712e-10 1.76539978578385e-10 1.46155737060309e-10
"485" 1939 2.10434102633285e-10 9.61491817053778e-10 4.71652037821518e-09 2.31265582273484e-10 1.45644754407908e-10 1.75126475490236e-10 1.765341414662e-10 1.46076557894029e-10
"486" 1940 2.06279397440902e-10 9.60771990584723e-10 4.71629506762409e-09 2.31173565338877e-10 1.45644754407908e-10 1.75445441673673e-10 1.765341414662e-10 1.46076557894029e-10
"487" 1941 2.02124692248519e-10 9.60052164115669e-10 4.716069757033e-09 2.3108154840427e-10 1.45644754407908e-10 1.7576440785711e-10 1.765341414662e-10 1.46076557894029e-10
"488" 1942 1.97969987056136e-10 9.59332337646615e-10 4.71584444644191e-09 2.30989531469664e-10 1.45644754407908e-10 1.76083374040547e-10 1.765341414662e-10 1.46076557894029e-10
"489" 1943 1.93815281863754e-10 9.58612511177561e-10 4.71561913585082e-09 2.30897514535057e-10 1.45644754407908e-10 1.76402340223984e-10 1.765341414662e-10 1.46076557894029e-10
"490" 1944 1.89660576671371e-10 9.57892684708506e-10 4.71539382525973e-09 2.30805497600451e-10 1.45644754407908e-10 1.76721306407421e-10 1.765341414662e-10 1.46076557894029e-10
"491" 1945 1.85505871478988e-10 9.57172858239452e-10 4.71516851466864e-09 2.30713480665844e-10 1.45644754407908e-10 1.77040272590859e-10 1.765341414662e-10 1.46076557894029e-10
"492" 1946 1.81351166286605e-10 9.56453031770398e-10 4.71494320407755e-09 2.30621463731237e-10 1.45644754407908e-10 1.77359238774296e-10 1.765341414662e-10 1.46076557894029e-10
"493" 1947 1.77196461094223e-10 9.55733205301344e-10 4.71471789348646e-09 2.30529446796631e-10 1.45644754407908e-10 1.77678204957733e-10 1.765341414662e-10 1.46076557894029e-10
"494" 1948 1.7304175590184e-10 9.55013378832289e-10 4.71449258289537e-09 2.30437429862024e-10 1.45644754407908e-10 1.7799717114117e-10 1.765341414662e-10 1.46076557894029e-10
"495" 1949 1.72126589794789e-10 9.55032247636794e-10 4.71344694472593e-09 2.30345412927418e-10 1.44067997206856e-10 1.7799717114117e-10 1.765341414662e-10 1.46155737060309e-10
"496" 1950 1.71836043172504e-10 9.55032247636794e-10 4.71322163413484e-09 2.28442417393196e-10 1.44108246131572e-10 1.7799717114117e-10 1.75794767458667e-10 1.46444703202052e-10
"497" 1951 1.71545496550219e-10 9.55032247636794e-10 4.71299632354374e-09 2.26539421858975e-10 1.44148495056287e-10 1.7799717114117e-10 1.75055393451133e-10 1.46733669343796e-10
"498" 1952 1.71254949927934e-10 9.55032247636794e-10 4.71277101295265e-09 2.24636426324754e-10 1.44188743981003e-10 1.7799717114117e-10 1.743160194436e-10 1.47022635485539e-10
"499" 1953 1.70964403305648e-10 9.55032247636794e-10 4.71254570236156e-09 2.22733430790532e-10 1.44228992905719e-10 1.7799717114117e-10 1.73576645436067e-10 1.47311601627283e-10
"500" 1954 1.70673856683363e-10 9.55032247636794e-10 4.71232039177047e-09 2.20830435256311e-10 1.44269241830435e-10 1.7799717114117e-10 1.72837271428533e-10 1.47600567769026e-10
"501" 1955 1.70383310061078e-10 9.55032247636794e-10 4.71209508117938e-09 2.1892743972209e-10 1.4430949075515e-10 1.7799717114117e-10 1.72097897421e-10 1.4788953391077e-10
"502" 1956 1.70092763438793e-10 9.55032247636794e-10 4.71186977058829e-09 2.17024444187868e-10 1.44349739679866e-10 1.7799717114117e-10 1.71358523413467e-10 1.48178500052513e-10
"503" 1957 1.69802216816508e-10 9.55032247636794e-10 4.7116444599972e-09 2.15121448653647e-10 1.44389988604582e-10 1.7799717114117e-10 1.70619149405933e-10 1.48467466194257e-10
"504" 1958 1.69511670194222e-10 9.55032247636794e-10 4.71141914940611e-09 2.13218453119426e-10 1.44430237529297e-10 1.7799717114117e-10 1.698797753984e-10 1.48756432336e-10
"505" 1959 1.69221123571937e-10 9.55032247636794e-10 4.71119383881502e-09 2.11315457585204e-10 1.44470486454013e-10 1.7799717114117e-10 1.69140401390867e-10 1.49045398477744e-10
"506" 1960 1.68930576949652e-10 9.55032247636794e-10 4.71096852822393e-09 2.09412462050983e-10 1.44510735378729e-10 1.7799717114117e-10 1.68401027383333e-10 1.49334364619487e-10
"507" 1961 1.68640030327367e-10 9.55032247636794e-10 4.71074321763283e-09 2.07509466516762e-10 1.44550984303444e-10 1.7799717114117e-10 1.676616533758e-10 1.49623330761231e-10
"508" 1962 1.69429330066859e-10 9.56989522496613e-10 4.71687265084439e-09 2.07785517320581e-10 1.45130235270083e-10 1.77588311490848e-10 1.67673327600169e-10 1.49623330761231e-10
"509" 1963 1.69429330066859e-10 9.57747086574676e-10 4.71769297842274e-09 2.0567915369506e-10 1.45170484194799e-10 1.77857991891503e-10 1.66928116480451e-10 1.49623330761231e-10
"510" 1964 1.69429330066859e-10 9.58504650652738e-10 4.71851330600109e-09 2.03572790069538e-10 1.45210733119514e-10 1.78127672292157e-10 1.66182905360733e-10 1.49623330761231e-10
"511" 1965 1.69429330066859e-10 9.59262214730801e-10 4.71933363357944e-09 2.01466426444017e-10 1.4525098204423e-10 1.78397352692812e-10 1.65437694241015e-10 1.49623330761231e-10
"512" 1966 1.69429330066859e-10 9.60019778808863e-10 4.72015396115779e-09 1.99360062818495e-10 1.45291230968946e-10 1.78667033093467e-10 1.64692483121297e-10 1.49623330761231e-10
"513" 1967 1.69429330066859e-10 9.60777342886926e-10 4.72097428873613e-09 1.97253699192974e-10 1.45331479893661e-10 1.78936713494122e-10 1.63947272001579e-10 1.49623330761231e-10
"514" 1968 1.69429330066859e-10 9.61534906964989e-10 4.72179461631448e-09 1.95147335567452e-10 1.45371728818377e-10 1.79206393894776e-10 1.63202060881861e-10 1.49623330761231e-10
"515" 1969 1.69429330066859e-10 9.62292471043051e-10 4.72261494389283e-09 1.93040971941931e-10 1.45411977743093e-10 1.79476074295431e-10 1.62456849762143e-10 1.49623330761231e-10
"516" 1970 1.69719876689144e-10 9.63068903925618e-10 4.72366058206227e-09 1.93040971941931e-10 1.45452226667808e-10 1.80064720879523e-10 1.62456849762143e-10 1.49413543785767e-10
"517" 1971 1.70010423311429e-10 9.63845336808184e-10 4.72470622023171e-09 1.93040971941931e-10 1.45492475592524e-10 1.80653367463615e-10 1.62456849762143e-10 1.49203756810304e-10
"518" 1972 1.70092763438793e-10 9.63883074417193e-10 4.72185809733354e-09 1.93040971941931e-10 1.43915718391472e-10 1.81331907514592e-10 1.61699964418055e-10 1.4899396983484e-10
"519" 1973 1.70175103566156e-10 9.63920812026201e-10 4.71900997443537e-09 1.93040971941931e-10 1.42338961190419e-10 1.82010447565568e-10 1.60943079073967e-10 1.48784182859377e-10
"520" 1974 1.7025744369352e-10 9.63958549635209e-10 4.71616185153721e-09 1.93040971941931e-10 1.40762203989367e-10 1.82688987616545e-10 1.6018619372988e-10 1.48574395883913e-10
"521" 1975 1.70339783820883e-10 9.63996287244218e-10 4.71331372863904e-09 1.93040971941931e-10 1.39185446788315e-10 1.83367527667522e-10 1.59429308385792e-10 1.4836460890845e-10
"522" 1976 1.70422123948247e-10 9.64034024853226e-10 4.71046560574087e-09 1.93040971941931e-10 1.37608689587262e-10 1.84046067718499e-10 1.58672423041705e-10 1.48154821932987e-10
"523" 1977 1.70213917453325e-10 9.6708314996998e-10 4.70684528719938e-09 1.93040971941931e-10 1.35991683461494e-10 1.84454927368821e-10 1.57921374809802e-10 1.48234001099267e-10
"524" 1978 1.7108555732018e-10 9.67120887578989e-10 4.72336762108627e-09 1.93336356967838e-10 1.34414926260442e-10 1.84454927368821e-10 1.57164489465714e-10 1.50387371900655e-10
"525" 1979 1.71957197187036e-10 9.67158625187997e-10 4.73988995497316e-09 1.93631741993744e-10 1.3283816905939e-10 1.84454927368821e-10 1.56407604121627e-10 1.52540742702043e-10
"526" 1980 1.72828837053892e-10 9.67196362797005e-10 4.75641228886005e-09 1.93927127019651e-10 1.31261411858337e-10 1.84454927368821e-10 1.55650718777539e-10 1.54694113503431e-10
"527" 1981 1.73700476920747e-10 9.67234100406014e-10 4.77293462274694e-09 1.94222512045558e-10 1.29684654657285e-10 1.84454927368821e-10 1.54893833433451e-10 1.56847484304819e-10
"528" 1982 1.74572116787603e-10 9.67271838015022e-10 4.78945695663383e-09 1.94517897071465e-10 1.28107897456233e-10 1.84454927368821e-10 1.54136948089364e-10 1.59000855106207e-10
"529" 1983 1.75443756654459e-10 9.6730957562403e-10 4.80597929052072e-09 1.94813282097372e-10 1.2653114025518e-10 1.84454927368821e-10 1.53380062745276e-10 1.61154225907594e-10
"530" 1984 1.76315396521314e-10 9.67347313233039e-10 4.82250162440761e-09 1.95108667123278e-10 1.24954383054128e-10 1.84454927368821e-10 1.52623177401189e-10 1.63307596708982e-10
"531" 1985 1.7718703638817e-10 9.67385050842047e-10 4.8390239582945e-09 1.95404052149185e-10 1.23377625853076e-10 1.84454927368821e-10 1.51866292057101e-10 1.6546096751037e-10
"532" 1986 1.78058676255026e-10 9.67422788451055e-10 4.85554629218139e-09 1.95699437175092e-10 1.21800868652023e-10 1.84454927368821e-10 1.51109406713014e-10 1.67614338311758e-10
"533" 1987 1.78930316121881e-10 9.67460526060063e-10 4.87206862606828e-09 1.95994822200999e-10 1.20224111450971e-10 1.84454927368821e-10 1.50352521368926e-10 1.69767709113146e-10
"534" 1988 1.79801955988737e-10 9.67498263669072e-10 4.88859095995517e-09 1.96290207226905e-10 1.18647354249919e-10 1.84454927368821e-10 1.49595636024838e-10 1.71921079914534e-10
"535" 1989 1.80673595855593e-10 9.6753600127808e-10 4.90511329384206e-09 1.96585592252812e-10 1.17070597048866e-10 1.84454927368821e-10 1.48838750680751e-10 1.74074450715922e-10
"536" 1990 1.81545235722448e-10 9.67573738887089e-10 4.92163562772894e-09 1.96880977278719e-10 1.15493839847814e-10 1.84454927368821e-10 1.48081865336663e-10 1.7622782151731e-10
"537" 1991 1.82625082084226e-10 9.6240287197218e-10 4.89959422670179e-09 1.96086839135605e-10 1.13917082646761e-10 1.84454927368821e-10 1.48081865336663e-10 1.78302013152418e-10
"538" 1992 1.83704928446003e-10 9.57232005057271e-10 4.87755282567463e-09 1.95292700992492e-10 1.12340325445709e-10 1.84454927368821e-10 1.48081865336663e-10 1.80376204787526e-10
"539" 1993 1.84784774807781e-10 9.52061138142362e-10 4.85551142464747e-09 1.94498562849378e-10 1.10763568244657e-10 1.84454927368821e-10 1.48081865336663e-10 1.82450396422634e-10
"540" 1994 1.85864621169558e-10 9.46890271227453e-10 4.83347002362032e-09 1.93704424706264e-10 1.09186811043604e-10 1.84454927368821e-10 1.48081865336663e-10 1.84524588057742e-10
"541" 1995 1.86944467531336e-10 9.41719404312545e-10 4.81142862259316e-09 1.9291028656315e-10 1.07610053842552e-10 1.84454927368821e-10 1.48081865336663e-10 1.8659877969285e-10
"542" 1996 1.88024313893113e-10 9.36548537397636e-10 4.789387221566e-09 1.92116148420036e-10 1.060332966415e-10 1.84454927368821e-10 1.48081865336663e-10 1.88672971327958e-10
"543" 1997 1.88314860515398e-10 9.31339932873719e-10 4.76269729759487e-09 1.91026625251016e-10 1.04416290515732e-10 1.84863787019143e-10 1.47835407334152e-10 1.88672971327958e-10
"544" 1998 1.87399694408348e-10 9.33593756303402e-10 4.76279356146492e-09 1.91026625251016e-10 1.0499554148237e-10 1.85501719386017e-10 1.46843738211923e-10 1.87596285927264e-10
"545" 1999 1.86484528301297e-10 9.35847579733086e-10 4.76288982533497e-09 1.91026625251016e-10 1.05574792449008e-10 1.86139651752892e-10 1.45852069089694e-10 1.8651960052657e-10
"546" 2000 1.85569362194247e-10 9.38101403162769e-10 4.76298608920502e-09 1.91026625251016e-10 1.06154043415647e-10 1.86777584119766e-10 1.44860399967464e-10 1.85442915125876e-10
"547" 2001 1.84654196087196e-10 9.40355226592453e-10 4.76308235307507e-09 1.91026625251016e-10 1.06733294382285e-10 1.8741551648664e-10 1.43868730845235e-10 1.84366229725182e-10
"548" 2002 1.83739029980146e-10 9.42609050022136e-10 4.76317861694512e-09 1.91026625251016e-10 1.07312545348924e-10 1.88053448853515e-10 1.42877061723006e-10 1.83289544324488e-10
"549" 2003 1.82823863873095e-10 9.4486287345182e-10 4.76327488081517e-09 1.91026625251016e-10 1.07891796315562e-10 1.88691381220389e-10 1.41885392600777e-10 1.82212858923794e-10
"550" 2004 1.81908697766045e-10 9.47116696881503e-10 4.76337114468522e-09 1.91026625251016e-10 1.084710472822e-10 1.89329313587263e-10 1.40893723478548e-10 1.811361735231e-10
"551" 2005 1.80993531658994e-10 9.53139471896995e-10 4.76210019592469e-09 1.91026625251016e-10 1.09010049324123e-10 1.90236926354792e-10 1.40647265476036e-10 1.80847207381357e-10
"552" 2006 1.80993531658994e-10 9.59421057873343e-10 4.75075792094997e-09 1.90934608316409e-10 1.09589300290761e-10 1.91144539122321e-10 1.40647265476036e-10 1.79770521980663e-10
"553" 2007 1.80993531658994e-10 9.65702643849691e-10 4.73941564597525e-09 1.90842591381803e-10 1.101685512574e-10 1.9205215188985e-10 1.40647265476036e-10 1.78693836579969e-10
"554" 2008 1.80993531658994e-10 9.71984229826038e-10 4.72807337100053e-09 1.90750574447196e-10 1.10747802224038e-10 1.92959764657380e-10 1.40647265476036e-10 1.77617151179275e-10
"555" 2009 1.80993531658994e-10 9.78265815802386e-10 4.71673109602581e-09 1.90658557512589e-10 1.11327053190677e-10 1.93867377424909e-10 1.40647265476036e-10 1.76540465778581e-10
"556" 2010 1.80993531658994e-10 9.84547401778734e-10 4.70538882105109e-09 1.90566540577983e-10 1.11906304157315e-10 1.94774990192438e-10 1.40647265476036e-10 1.75463780377887e-10
"557" 2011 1.80993531658994e-10 9.90828987755081e-10 4.69404654607637e-09 1.90474523643376e-10 1.12485555123953e-10 1.95682602959967e-10 1.40647265476036e-10 1.74387094977193e-10
"558" 2012 1.80993531658994e-10 9.91807625184991e-10 4.6937096225312e-09 1.91084627917277e-10 1.13064806090592e-10 1.95682602959967e-10 1.40647265476036e-10 1.73310409576499e-10
"559" 2013 1.80993531658994e-10 9.94023711005666e-10 4.67762047605954e-09 1.9078924289137e-10 1.12485555123953e-10 1.94774990192438e-10 1.40893723478548e-10 1.72522690317548e-10
"560" 2014 1.80993531658994e-10 9.96239796826342e-10 4.66153132958787e-09 1.90493857865463e-10 1.11906304157315e-10 1.93867377424909e-10 1.41140181481059e-10 1.71734971058598e-10
"561" 2015 1.80993531658994e-10 9.98455882647017e-10 4.64544218311621e-09 1.90198472839556e-10 1.11327053190677e-10 1.92959764657380e-10 1.4138663948357e-10 1.70947251799647e-10
"562" 2016 1.80993531658994e-10 1.00067196846769e-09 4.62935303664454e-09 1.8990308781365e-10 1.10747802224038e-10 1.9205215188985e-10 1.41633097486081e-10 1.70159532540697e-10
"563" 2017 1.80993531658994e-10 1.00288805428837e-09 4.61326389017288e-09 1.89607702787743e-10 1.101685512574e-10 1.91144539122321e-10 1.41879555488592e-10 1.69371813281746e-10
"564" 2018 1.80993531658994e-10 1.00510414010904e-09 4.59717474370121e-09 1.89312317761836e-10 1.09589300290761e-10 1.90236926354792e-10 1.42126013491103e-10 1.68584094022796e-10
"565" 2019 1.80993531658994e-10 1.00732022592972e-09 4.58108559722955e-09 1.89016932735929e-10 1.09010049324123e-10 1.89329313587263e-10 1.42372471493614e-10 1.67796374763845e-10
"566" 2020 1.80993531658994e-10 1.00953631175039e-09 4.56499645075788e-09 1.88721547710022e-10 1.08430798357485e-10 1.88421700819734e-10 1.42618929496125e-10 1.67008655504895e-10
"567" 2021 1.80993531658994e-10 1.01175239757107e-09 4.54890730428622e-09 1.88426162684116e-10 1.07851547390846e-10 1.87514088052205e-10 1.42865387498636e-10 1.66220936245944e-10
"568" 2022 1.80993531658994e-10 1.01396848339174e-09 4.53281815781456e-09 1.88130777658209e-10 1.07272296424208e-10 1.86606475284676e-10 1.43111845501148e-10 1.65433216986994e-10
"569" 2023 1.80993531658994e-10 1.01618456921242e-09 4.51672901134289e-09 1.87835392632302e-10 1.0669304545757e-10 1.85698862517147e-10 1.43358303503659e-10 1.64645497728043e-10
"570" 2024 1.80993531658994e-10 1.01840065503309e-09 4.50063986487123e-09 1.87540007606395e-10 1.06113794490931e-10 1.84791249749618e-10 1.4360476150617e-10 1.63857778469093e-10
"571" 2025 1.80993531658994e-10 1.02061674085377e-09 4.48455071839956e-09 1.87244622580489e-10 1.05534543524293e-10 1.83883636982089e-10 1.43851219508681e-10 1.63070059210142e-10
"572" 2026 1.80993531658994e-10 1.02283282667444e-09 4.4684615719279e-09 1.86949237554582e-10 1.04955292557654e-10 1.8297602421456e-10 1.44097677511192e-10 1.62282339951192e-10
"573" 2027 1.80993531658994e-10 1.02504891249512e-09 4.45237242545623e-09 1.86653852528675e-10 1.04376041591016e-10 1.82068411447031e-10 1.44344135513703e-10 1.61494620692241e-10
"574" 2028 1.80993531658994e-10 1.02107775636197e-09 4.45599274399772e-09 1.86450484437375e-10 1.043357926663e-10 1.82477271097353e-10 1.43587250169616e-10 1.61573799858521e-10
"575" 2029 1.80993531658994e-10 1.01710660022882e-09 4.45961306253921e-09 1.86247116346075e-10 1.04295543741585e-10 1.82886130747675e-10 1.42830364825528e-10 1.61652979024801e-10
"576" 2030 1.80993531658994e-10 1.01830631101057e-09 4.43880982742159e-09 1.84140752720553e-10 1.04255294816869e-10 1.8261645034702e-10 1.43076822828039e-10 1.61652979024801e-10
"577" 2031 1.80993531658994e-10 1.01950602179233e-09 4.41800659230398e-09 1.82034389095032e-10 1.04215045892153e-10 1.82346769946366e-10 1.4332328083055e-10 1.61652979024801e-10
"578" 2032 1.80993531658994e-10 1.02070573257409e-09 4.39720335718636e-09 1.7992802546951e-10 1.04174796967437e-10 1.82077089545711e-10 1.43569738833061e-10 1.61652979024801e-10
"579" 2033 1.80993531658994e-10 1.02190544335584e-09 4.37640012206874e-09 1.77821661843988e-10 1.04134548042722e-10 1.81807409145056e-10 1.43816196835573e-10 1.61652979024801e-10
"580" 2034 1.80993531658994e-10 1.0231051541376e-09 4.35559688695112e-09 1.75715298218467e-10 1.04094299118006e-10 1.81537728744401e-10 1.44062654838084e-10 1.61652979024801e-10
"581" 2035 1.80993531658994e-10 1.02234759005954e-09 4.33973305107055e-09 1.73608934592945e-10 1.04094299118006e-10 1.80859188693425e-10 1.44062654838084e-10 1.61573799858521e-10
"582" 2036 1.80993531658994e-10 1.02159002598148e-09 4.32386921518997e-09 1.71502570967424e-10 1.04094299118006e-10 1.80180648642448e-10 1.44062654838084e-10 1.61494620692241e-10
"583" 2037 1.80993531658994e-10 1.02083246190341e-09 4.3080053793094e-09 1.69396207341902e-10 1.04094299118006e-10 1.79502108591471e-10 1.44062654838084e-10 1.61415441525961e-10
"584" 2038 1.80993531658994e-10 1.02007489782535e-09 4.29214154342883e-09 1.67289843716381e-10 1.04094299118006e-10 1.78823568540494e-10 1.44062654838084e-10 1.61336262359681e-10
"585" 2039 1.80993531658994e-10 1.01931733374729e-09 4.27627770754825e-09 1.65183480090859e-10 1.04094299118006e-10 1.78145028489517e-10 1.44062654838084e-10 1.61257083193401e-10
"586" 2040 1.80993531658994e-10 1.01855976966923e-09 4.26041387166768e-09 1.63077116465338e-10 1.04094299118006e-10 1.77466488438541e-10 1.44062654838084e-10 1.61177904027121e-10
"587" 2041 1.80993531658994e-10 1.01780220559116e-09 4.24455003578711e-09 1.60970752839816e-10 1.04094299118006e-10 1.76787948387564e-10 1.44062654838084e-10 1.61098724860841e-10
"588" 2042 1.80993531658994e-10 1.0170446415131e-09 4.22868619990653e-09 1.58864389214295e-10 1.04094299118006e-10 1.76109408336587e-10 1.44062654838084e-10 1.61019545694561e-10
"589" 2043 1.81075871786358e-10 1.01730345247396e-09 4.2076095222628e-09 1.58661021122995e-10 1.04094299118006e-10 1.76019514869702e-10 1.43070985715854e-10 1.60940366528281e-10
"590" 2044 1.81158211913721e-10 1.01756226343481e-09 4.18653284461906e-09 1.58457653031694e-10 1.04094299118006e-10 1.75929621402817e-10 1.42079316593625e-10 1.60861187362001e-10
"591" 2045 1.80368912174229e-10 1.01386878706702e-09 4.14615127589226e-09 1.57368129862674e-10 1.04094299118006e-10 1.74613148984966e-10 1.42079316593625e-10 1.61070974337465e-10
"592" 2046 1.79579612434737e-10 1.01017531069923e-09 4.10576970716545e-09 1.56278606693653e-10 1.04094299118006e-10 1.73296676567115e-10 1.42079316593625e-10 1.61280761312928e-10
"593" 2047 1.79579612434737e-10 1.00646296552693e-09 4.07270760562471e-09 1.56278606693653e-10 1.04633301159929e-10 1.72070097616149e-10 1.43070985715854e-10 1.62357446713622e-10
"594" 2048 1.79579612434737e-10 1.00275062035464e-09 4.03964550408398e-09 1.56278606693653e-10 1.05172303201851e-10 1.70843518665182e-10 1.44062654838084e-10 1.63434132114316e-10
"595" 2049 1.79579612434737e-10 9.99038275182339e-10 4.00658340254324e-09 1.56278606693653e-10 1.05711305243774e-10 1.69616939714216e-10 1.45054323960313e-10 1.6451081751501e-10
"596" 2050 1.79579612434737e-10 9.95325930010043e-10 3.9735213010025e-09 1.56278606693653e-10 1.06250307285697e-10 1.6839036076325e-10 1.46045993082542e-10 1.65587502915704e-10
"597" 2051 1.79579612434737e-10 9.91613584837747e-10 3.94045919946177e-09 1.56278606693653e-10 1.06789309327619e-10 1.67163781812284e-10 1.47037662204771e-10 1.66664188316398e-10
"598" 2052 1.79579612434737e-10 9.87901239665451e-10 3.90739709792103e-09 1.56278606693653e-10 1.07328311369542e-10 1.65937202861318e-10 1.48029331327001e-10 1.67740873717092e-10
"599" 2053 1.79579612434737e-10 9.84188894493155e-10 3.8743349963803e-09 1.56278606693653e-10 1.07867313411465e-10 1.64710623910351e-10 1.4902100044923e-10 1.68817559117786e-10
"600" 2054 1.79579612434737e-10 9.80476549320859e-10 3.84127289483956e-09 1.56278606693653e-10 1.08406315453388e-10 1.63484044959385e-10 1.50012669571459e-10 1.6989424451848e-10
"601" 2055 1.7941493218001e-10 9.78796954226399e-10 3.84059904774921e-09 1.61193455153203e-10 1.08824570721163e-10 1.62167572541534e-10 1.5025912757397e-10 1.6989424451848e-10
"602" 2056 1.79250251925283e-10 9.77117359131939e-10 3.83992520065886e-09 1.66108303612754e-10 1.09242825988939e-10 1.60851100123683e-10 1.50505585576481e-10 1.6989424451848e-10
"603" 2057 1.79085571670556e-10 9.75437764037479e-10 3.83925135356851e-09 1.71023152072304e-10 1.09661081256714e-10 1.59534627705832e-10 1.50752043578992e-10 1.6989424451848e-10
"604" 2058 1.78920891415829e-10 9.73758168943019e-10 3.83857750647816e-09 1.75938000531854e-10 1.1007933652449e-10 1.58218155287981e-10 1.50998501581504e-10 1.6989424451848e-10
"605" 2059 1.78756211161102e-10 9.72078573848559e-10 3.83790365938781e-09 1.80852848991404e-10 1.10497591792265e-10 1.56901682870129e-10 1.51244959584015e-10 1.6989424451848e-10
"606" 2060 1.78591530906375e-10 9.70398978754099e-10 3.83722981229746e-09 1.85767697450955e-10 1.10915847060041e-10 1.55585210452278e-10 1.51491417586526e-10 1.6989424451848e-10
"607" 2061 1.78426850651648e-10 9.68719383659639e-10 3.83655596520711e-09 1.90682545910505e-10 1.11334102327817e-10 1.54268738034427e-10 1.51737875589037e-10 1.6989424451848e-10
"608" 2062 1.78262170396921e-10 9.67039788565179e-10 3.83588211811676e-09 1.95597394370055e-10 1.11752357595592e-10 1.52952265616576e-10 1.51984333591548e-10 1.6989424451848e-10
"609" 2063 1.78097490142194e-10 9.6536019347072e-10 3.83520827102641e-09 2.00512242829605e-10 1.12170612863368e-10 1.51635793198725e-10 1.52230791594059e-10 1.6989424451848e-10
"610" 2064 1.74857951056862e-10 9.67374074744052e-10 3.84812772013877e-09 2.06221229432269e-10 1.12588868131143e-10 1.51635793198725e-10 1.51485580474341e-10 1.69684457543017e-10
"611" 2065 1.75482570541627e-10 9.69406824821888e-10 3.86622931284622e-09 2.1202223296954e-10 1.12588868131143e-10 1.51226933548403e-10 1.51732038476852e-10 1.69684457543017e-10
"612" 2066 1.76107190026393e-10 9.69406824821888e-10 3.9086561106598e-09 2.18026604598111e-10 1.12468121356996e-10 1.51226933548403e-10 1.51978496479363e-10 1.69684457543017e-10
"613" 2067 1.76731809511158e-10 9.69406824821888e-10 3.95108290847339e-09 2.24030976226681e-10 1.12347374582849e-10 1.51226933548403e-10 1.52224954481874e-10 1.69684457543017e-10
"614" 2068 1.77356428995923e-10 9.69406824821888e-10 3.99350970628697e-09 2.30035347855252e-10 1.12226627808702e-10 1.51226933548403e-10 1.52471412484385e-10 1.69684457543017e-10
"615" 2069 1.77981048480689e-10 9.69406824821888e-10 4.03593650410056e-09 2.36039719483823e-10 1.12105881034555e-10 1.51226933548403e-10 1.52717870486897e-10 1.69684457543017e-10
"616" 2070 1.78605667965454e-10 9.69406824821888e-10 4.07836330191414e-09 2.42044091112394e-10 1.11985134260408e-10 1.51226933548403e-10 1.52964328489408e-10 1.69684457543017e-10
"617" 2071 1.79230287450219e-10 9.69406824821888e-10 4.12079009972773e-09 2.48048462740965e-10 1.11864387486261e-10 1.51226933548403e-10 1.53210786491919e-10 1.69684457543017e-10
"618" 2072 1.79854906934984e-10 9.69406824821888e-10 4.16321689754131e-09 2.54052834369535e-10 1.11743640712114e-10 1.51226933548403e-10 1.5345724449443e-10 1.69684457543017e-10
"619" 2073 1.8047952641975e-10 9.69406824821888e-10 4.20564369535489e-09 2.60057205998106e-10 1.11622893937967e-10 1.51226933548403e-10 1.53703702496941e-10 1.69684457543017e-10
"620" 2074 1.81104145904515e-10 9.69406824821888e-10 4.24807049316848e-09 2.66061577626677e-10 1.11502147163819e-10 1.51226933548403e-10 1.53950160499452e-10 1.69684457543017e-10
"621" 2075 1.8172876538928e-10 9.69406824821888e-10 4.29049729098206e-09 2.72065949255248e-10 1.11381400389672e-10 1.51226933548403e-10 1.54196618501963e-10 1.69684457543017e-10
"622" 2076 1.82353384874046e-10 9.69406824821888e-10 4.33292408879565e-09 2.78070320883818e-10 1.11260653615525e-10 1.51226933548403e-10 1.54443076504474e-10 1.69684457543017e-10
"623" 2077 1.82978004358811e-10 9.69406824821888e-10 4.37535088660923e-09 2.84074692512389e-10 1.11139906841378e-10 1.51226933548403e-10 1.54689534506986e-10 1.69684457543017e-10
"624" 2078 1.82687457736526e-10 9.68150507626618e-10 4.37806996278636e-09 2.84370077538296e-10 1.11139906841378e-10 1.51635793198725e-10 1.54935992509497e-10 1.70761142943711e-10
"625" 2079 1.84764810332717e-10 9.68150507626618e-10 4.37412806978373e-09 2.84573445629596e-10 1.1056065587474e-10 1.51635793198725e-10 1.55188287624193e-10 1.70761142943711e-10
"626" 2080 1.86842162928908e-10 9.68150507626618e-10 4.3701861767811e-09 2.84776813720896e-10 1.09981404908101e-10 1.51635793198725e-10 1.55440582738888e-10 1.70761142943711e-10
"627" 2081 1.889195155251e-10 9.68150507626618e-10 4.36624428377847e-09 2.84980181812197e-10 1.09402153941463e-10 1.51635793198725e-10 1.55692877853584e-10 1.70761142943711e-10
"628" 2082 1.90996868121291e-10 9.68150507626618e-10 4.36230239077584e-09 2.85183549903497e-10 1.08822902974825e-10 1.51635793198725e-10 1.5594517296828e-10 1.70761142943711e-10
"629" 2083 1.93074220717483e-10 9.68150507626618e-10 4.3583604977732e-09 2.85386917994797e-10 1.08243652008186e-10 1.51635793198725e-10 1.56197468082976e-10 1.70761142943711e-10
"630" 2084 1.95151573313674e-10 9.68150507626618e-10 4.35441860477057e-09 2.85590286086097e-10 1.07664401041548e-10 1.51635793198725e-10 1.56449763197672e-10 1.70761142943711e-10
"631" 2085 1.97228925909865e-10 9.68150507626618e-10 4.35047671176794e-09 2.85793654177397e-10 1.07085150074909e-10 1.51635793198725e-10 1.56702058312368e-10 1.70761142943711e-10
"632" 2086 1.99306278506057e-10 9.68150507626618e-10 4.34653481876531e-09 2.85997022268698e-10 1.06505899108271e-10 1.51635793198725e-10 1.56954353427064e-10 1.70761142943711e-10
"633" 2087 2.01383631102248e-10 9.68150507626618e-10 4.34259292576268e-09 2.86200390359998e-10 1.05926648141633e-10 1.51635793198725e-10 1.57206648541759e-10 1.70761142943711e-10
"634" 2088 2.0346098369844e-10 9.68150507626618e-10 4.33865103276005e-09 2.86403758451298e-10 1.05347397174994e-10 1.51635793198725e-10 1.57458943656455e-10 1.70761142943711e-10
"635" 2089 2.05538336294631e-10 9.68150507626618e-10 4.33470913975742e-09 2.86607126542598e-10 1.04768146208356e-10 1.51635793198725e-10 1.57711238771151e-10 1.70761142943711e-10
"636" 2090 2.07615688890822e-10 9.68150507626618e-10 4.33076724675479e-09 2.86810494633898e-10 1.04188895241718e-10 1.51635793198725e-10 1.57963533885847e-10 1.70761142943711e-10
"637" 2091 2.07533348763459e-10 9.6685645282234e-10 4.32696974955723e-09 2.87900017802919e-10 1.04188895241718e-10 1.52952265616576e-10 1.58209991888358e-10 1.70761142943711e-10
"638" 2092 2.07451008636095e-10 9.65562398018063e-10 4.32317225235968e-09 2.88989540971939e-10 1.04188895241718e-10 1.54268738034427e-10 1.58456449890869e-10 1.70761142943711e-10
"639" 2093 2.07368668508732e-10 9.64268343213785e-10 4.31937475516212e-09 2.9007906414096e-10 1.04188895241718e-10 1.55585210452278e-10 1.5870290789338e-10 1.70761142943711e-10
"640" 2094 2.07286328381368e-10 9.62974288409507e-10 4.31557725796457e-09 2.91168587309981e-10 1.04188895241718e-10 1.56901682870129e-10 1.58949365895892e-10 1.70761142943711e-10
"641" 2095 2.06414688514513e-10 9.63712983683065e-10 4.28227241206578e-09 2.91168587309981e-10 1.04188895241718e-10 1.57809295637658e-10 1.58949365895892e-10 1.70761142943711e-10
"642" 2096 2.06622895009435e-10 9.64451678956624e-10 4.28436368840466e-09 2.91962725453094e-10 1.0472789728364e-10 1.5912576805551e-10 1.58943528783707e-10 1.70472176801967e-10
"643" 2097 2.06831101504356e-10 9.65190374230182e-10 4.28645496474354e-09 2.92756863596208e-10 1.05266899325563e-10 1.60442240473361e-10 1.58937691671522e-10 1.70183210660224e-10
"644" 2098 2.07039307999278e-10 9.65929069503741e-10 4.28854624108242e-09 2.93551001739322e-10 1.05805901367486e-10 1.61758712891212e-10 1.58931854559337e-10 1.6989424451848e-10
"645" 2099 2.072475144942e-10 9.66667764777299e-10 4.29063751742129e-09 2.94345139882436e-10 1.06344903409408e-10 1.63075185309063e-10 1.58926017447153e-10 1.69605278376737e-10
"646" 2100 2.07455720989122e-10 9.67406460050857e-10 4.29272879376017e-09 2.95139278025549e-10 1.06883905451331e-10 1.64391657726914e-10 1.58920180334968e-10 1.69316312234993e-10
"647" 2101 2.07663927484043e-10 9.68145155324416e-10 4.29482007009905e-09 2.95933416168663e-10 1.07422907493254e-10 1.65708130144765e-10 1.58914343222783e-10 1.6902734609325e-10
"648" 2102 2.07872133978965e-10 9.68883850597974e-10 4.29691134643793e-09 2.96727554311777e-10 1.07961909535176e-10 1.67024602562616e-10 1.58908506110598e-10 1.68738379951506e-10
"649" 2103 2.08080340473887e-10 9.69622545871532e-10 4.2990026227768e-09 2.97521692454891e-10 1.08500911577099e-10 1.68341074980468e-10 1.58902668998414e-10 1.68449413809763e-10
"650" 2104 2.08288546968809e-10 9.70361241145091e-10 4.30109389911568e-09 2.98315830598005e-10 1.09039913619022e-10 1.69657547398319e-10 1.58896831886229e-10 1.68160447668019e-10
"651" 2105 2.0849675346373e-10 9.71099936418649e-10 4.30318517545456e-09 2.99109968741118e-10 1.09578915660944e-10 1.7097401981617e-10 1.58890994774044e-10 1.67871481526276e-10
"652" 2106 2.08704959958652e-10 9.71838631692208e-10 4.30527645179344e-09 2.99904106884232e-10 1.10117917702867e-10 1.72290492234021e-10 1.58885157661859e-10 1.67582515384532e-10
"653" 2107 2.08913166453574e-10 9.72577326965766e-10 4.30736772813232e-09 3.00698245027346e-10 1.1065691974479e-10 1.73606964651872e-10 1.58879320549675e-10 1.67293549242789e-10
"654" 2108 2.08041526586718e-10 9.57520389427036e-10 4.30968431506229e-09 3.01787768196366e-10 1.1065691974479e-10 1.74514577419401e-10 1.59125778552186e-10 1.67293549242789e-10
"655" 2109 2.08041526586718e-10 9.5824021589609e-10 4.31200090199225e-09 3.02877291365387e-10 1.11236170711428e-10 1.75741156370367e-10 1.59125778552186e-10 1.67083762267325e-10
"656" 2110 2.08041526586718e-10 9.46933361138664e-10 4.25856875274912e-09 3.030613252346e-10 1.11775172753351e-10 1.75741156370367e-10 1.58380567432468e-10 1.66794796125582e-10
"657" 2111 2.08041526586718e-10 9.35626506381238e-10 4.205136603506e-09 3.03245359103813e-10 1.12314174795274e-10 1.75741156370367e-10 1.5763535631275e-10 1.66505829983838e-10
"658" 2112 2.08041526586718e-10 9.24319651623813e-10 4.15170445426287e-09 3.03429392973027e-10 1.12853176837196e-10 1.75741156370367e-10 1.56890145193031e-10 1.66216863842095e-10
"659" 2113 2.08041526586718e-10 9.13012796866387e-10 4.09690509238916e-09 3.03429392973027e-10 1.13392178879119e-10 1.74833543602838e-10 1.56901819417401e-10 1.66137684675815e-10
"660" 2114 2.08123866714082e-10 9.00967246835403e-10 4.05027830813086e-09 3.02523903673219e-10 1.13931180921042e-10 1.73517071184987e-10 1.55910150295172e-10 1.66137684675815e-10
"661" 2115 2.08206206841445e-10 8.88921696804418e-10 4.00365152387256e-09 3.01618414373412e-10 1.14470182962964e-10 1.72200598767136e-10 1.54918481172943e-10 1.66137684675815e-10
"662" 2116 2.08288546968809e-10 8.76876146773434e-10 3.95702473961427e-09 3.00712925073604e-10 1.15009185004887e-10 1.70884126349285e-10 1.53926812050713e-10 1.66137684675815e-10
"663" 2117 2.08370887096172e-10 8.6483059674245e-10 3.91039795535597e-09 2.99807435773797e-10 1.1554818704681e-10 1.69567653931434e-10 1.52935142928484e-10 1.66137684675815e-10
"664" 2118 2.08453227223536e-10 8.52785046711466e-10 3.86377117109767e-09 2.9890194647399e-10 1.16087189088732e-10 1.68251181513583e-10 1.51943473806255e-10 1.66137684675815e-10
"665" 2119 2.08535567350899e-10 8.40739496680482e-10 3.81714438683937e-09 2.97996457174182e-10 1.16626191130655e-10 1.66934709095732e-10 1.50951804684026e-10 1.66137684675815e-10
"666" 2120 2.08617907478262e-10 8.28693946649497e-10 3.77051760258108e-09 2.97090967874375e-10 1.17165193172578e-10 1.6561823667788e-10 1.49960135561796e-10 1.66137684675815e-10
"667" 2121 2.08700247605626e-10 8.16648396618513e-10 3.72389081832278e-09 2.96185478574568e-10 1.177041952145e-10 1.64301764260029e-10 1.48968466439567e-10 1.66137684675815e-10
"668" 2122 2.08782587732989e-10 8.04602846587529e-10 3.67726403406448e-09 2.9527998927476e-10 1.18243197256423e-10 1.62985291842178e-10 1.47976797317338e-10 1.66137684675815e-10
"669" 2123 2.08864927860353e-10 7.92557296556545e-10 3.63063724980618e-09 2.94374499974953e-10 1.18782199298346e-10 1.61668819424327e-10 1.46985128195109e-10 1.66137684675815e-10
"670" 2124 2.08947267987716e-10 7.80511746525561e-10 3.58401046554788e-09 2.93469010675146e-10 1.19321201340268e-10 1.60352347006476e-10 1.45993459072879e-10 1.66137684675815e-10
"671" 2125 2.0902960811508e-10 7.68466196494576e-10 3.53738368128959e-09 2.92563521375338e-10 1.19860203382191e-10 1.59035874588625e-10 1.4500178995065e-10 1.66137684675815e-10
"672" 2126 2.09111948242443e-10 7.56420646463592e-10 3.49075689703129e-09 2.91658032075531e-10 1.20399205424114e-10 1.57719402170774e-10 1.44010120828421e-10 1.66137684675815e-10
"673" 2127 2.09194288369807e-10 7.44375096432608e-10 3.44413011277299e-09 2.90752542775723e-10 1.20938207466036e-10 1.56402929752922e-10 1.43018451706192e-10 1.66137684675815e-10
