time,channel1,channel2,channel3,channel4,channel5,channel6,channel7,channel8,class
31910,4.959340641641826e-7,6.414234068648674e-8,5.013532530234717e-9,2.19439429886783e-8,3.6051455587845596e-8,2.0185895475774816e-8,7.214664642032998e-9,2.5318326001267327e-8,0
31911,4.960513626612804e-7,6.409916826628443e-8,5.0483624163434714e-9,2.1919728309820786e-8,3.5964190830155695e-8,2.0191507739889137e-8,7.205063897063641e-9,2.5260794228400245e-8,0
31912,4.96168661158378e-7,6.405599584608211e-8,5.083192302452226e-9,2.1895513630963276e-8,3.5876926072465793e-8,2.019712000400346e-8,7.195463152094284e-9,2.5203262455533163e-8,0
31913,4.962859596554758e-7,6.40128234258798e-8,5.118022188560981e-9,2.1871298952105763e-8,3.5789661314775885e-8,2.020273226811778e-8,7.185862407124927e-9,2.514573068266608e-8,0
31914,4.964032581525735e-7,6.396965100567748e-8,5.152852074669735e-9,2.1847084273248253e-8,3.5702396557085984e-8,2.0208344532232105e-8,7.1762616621555695e-9,2.5088198909798998e-8,0
31915,4.969820085260275e-7,6.379863431674188e-8,5.152852074669735e-9,2.1776663960971252e-8,3.5702396557085984e-8,2.0218195336812188e-8,7.178464404244274e-9,2.510014778113473e-8,0
31916,4.974987670896612e-7,6.372595864812162e-8,5.184724941544848e-9,2.174140808122729e-8,3.568856362114949e-8,2.009899161973873e-8,7.171979603573075e-9,2.5121859680042248e-8,0
31917,4.977725184884148e-7,6.54694784436216e-8,5.252727826526134e-9,2.187277239655436e-8,3.567336657720668e-8,1.9983994517659524e-8,7.179293302428765e-9,2.5244951219176587e-8,0
31918,4.980462698871685e-7,6.721299823912156e-8,5.320730711507419e-9,2.200413671188143e-8,3.5658169533263864e-8,1.9868997415580317e-8,7.186607001284456e-9,2.536804275831093e-8,0
31919,4.979526003902129e-7,6.716036919313806e-8,5.317007812863167e-9,2.20033131241867e-8,3.564419592707141e-8,1.9744181434392535e-8,7.1897229455826136e-9,2.5353929246688486e-8,0
31920,4.978589308932571e-7,6.710774014715456e-8,5.313284914218915e-9,2.2002489536491972e-8,3.563022232087896e-8,1.9619365453204753e-8,7.1928388898807706e-9,2.533981573506604e-8,0
31921,4.977652613963015e-7,6.705511110117105e-8,5.309562015574663e-9,2.2001665948797242e-8,3.5616248714686503e-8,1.949454947201697e-8,7.195954834178928e-9,2.5325702223443595e-8,0
31922,4.973171157072479e-7,6.705964566776944e-8,5.297544608135561e-9,2.189269989393844e-8,3.5593250662299006e-8,1.947631219673691e-8,7.195288483159307e-9,2.5315838715056027e-8,0
31923,4.968689700181943e-7,6.706418023436781e-8,5.28552720069646e-9,2.1783733839079638e-8,3.55702526099115e-8,1.945807492145685e-8,7.194622132139685e-9,2.530597520666846e-8,0
31924,4.964208243291407e-7,6.706871480096618e-8,5.273509793257359e-9,2.1674767784220834e-8,3.5547254557524e-8,1.943983764617679e-8,7.193955781120065e-9,2.5296111698280895e-8,0
31925,4.959726786400871e-7,6.707324936756456e-8,5.261492385818257e-9,2.1565801729362034e-8,3.55242565051365e-8,1.942160037089673e-8,7.193289430100443e-9,2.5286248189893327e-8,0
31926,4.955245329510335e-7,6.707778393416293e-8,5.249474978379155e-9,2.145683567450323e-8,3.5501258452749e-8,1.940336309561667e-8,7.192623079080822e-9,2.527638468150576e-8,0
31927,4.950763872619799e-7,6.70823185007613e-8,5.237457570940054e-9,2.134786961964443e-8,3.54782604003615e-8,1.938512582033661e-8,7.191956728061201e-9,2.5266521173118192e-8,0
31928,4.946282415729263e-7,6.708685306735969e-8,5.225440163500953e-9,2.1238903564785626e-8,3.5455262347974e-8,1.936688854505655e-8,7.191290377041579e-9,2.5256657664730624e-8,0
31929,4.941800958838727e-7,6.709138763395807e-8,5.213422756061851e-9,2.1129937509926822e-8,3.54322642955865e-8,1.934865126977649e-8,7.190624026021958e-9,2.5246794156343057e-8,0
31930,4.937319501948191e-7,6.709592220055644e-8,5.20140534862275e-9,2.102097145506802e-8,3.5409266243198996e-8,1.933041399449643e-8,7.189957675002337e-9,2.523693064795549e-8,0
31931,4.932838045057655e-7,6.710045676715481e-8,5.189387941183648e-9,2.0912005400209218e-8,3.53862681908115e-8,1.931217671921637e-8,7.189291323982716e-9,2.522706713956792e-8,0
31932,4.946163035390302e-7,6.774581719572289e-8,5.1781127468420904e-9,2.0856913845489744e-8,3.53862681908115e-8,1.93230871589129e-8,7.175117496933534e-9,2.5235853864382526e-8,0
31933,4.943158848617492e-7,6.783127237035502e-8,5.166107172559522e-9,2.071266442044406e-8,3.5555950845275197e-8,1.93141717316852e-8,7.2155586514397805e-9,2.5475509802368706e-8,0
31934,4.94015466184468e-7,6.791672754498715e-8,5.154101598276954e-9,2.0568414995398377e-8,3.57256334997389e-8,1.93052563044575e-8,7.255999805946026e-9,2.5715165740354884e-8,0
31935,4.937150475071869e-7,6.800218271961929e-8,5.142096023994387e-9,2.0424165570352693e-8,3.58953161542026e-8,1.9296340877229803e-8,7.296440960452273e-9,2.5954821678341064e-8,0
31936,4.934146288299059e-7,6.808763789425143e-8,5.130090449711819e-9,2.027991614530701e-8,3.60649988086663e-8,1.9287425450002104e-8,7.336882114958519e-9,2.619447761632724e-8,0
31937,4.934257203649996e-7,6.819141448945112e-8,5.130102282868352e-9,2.025033411981406e-8,3.621801371656754e-8,1.9296747298054466e-8,7.389793107542449e-9,2.6447965884161407e-8,0
31938,4.93506765456878e-7,6.828798451915379e-8,5.121415519365097e-9,2.0170368866002233e-8,3.636431890242915e-8,1.930637979051696e-8,7.440084888650411e-9,2.667883509733298e-8,0
31939,4.935878105487565e-7,6.838455454885645e-8,5.1127287558618415e-9,2.0090403612190405e-8,3.651062408829076e-8,1.9316012282979457e-8,7.490376669758372e-9,2.6909704310504553e-8,0
31940,4.936688556406349e-7,6.848112457855912e-8,5.1040419923585865e-9,2.0010438358378577e-8,3.6656929274152374e-8,1.9325644775441954e-8,7.540668450866333e-9,2.7140573523676125e-8,0
31941,4.937499007325133e-7,6.857769460826179e-8,5.0953552288553315e-9,1.993047310456675e-8,3.680323446001398e-8,1.9335277267904447e-8,7.590960231974295e-9,2.73714427368477e-8,0
31942,4.938309458243918e-7,6.867426463796445e-8,5.0866684653520765e-9,1.985050785075492e-8,3.694953964587559e-8,1.9344909760366944e-8,7.641252013082256e-9,2.7602311950019274e-8,0
31943,4.939119909162703e-7,6.877083466766712e-8,5.0779817018488215e-9,1.9770542596943093e-8,3.70958448317372e-8,1.9354542252829438e-8,7.691543794190218e-9,2.7833181163190847e-8,0
31944,4.939930360081487e-7,6.886740469736978e-8,5.0692949383455665e-9,1.9690577343131265e-8,3.724215001759881e-8,1.9364174745291935e-8,7.74183557529818e-9,2.806405037636242e-8,0
31945,4.940740811000271e-7,6.8963974727072455e-08,5.0606081748423115e-9,1.961061208931944e-8,3.7388455203460424e-8,1.9373807237754432e-8,7.792127356406141e-9,2.8294919589533992e-8,0
31946,4.941551261919056e-7,6.906054475677511e-8,5.0519214113390565e-9,1.9530646835507612e-8,3.753476038932203e-8,1.9383439730216926e-8,7.842419137514103e-9,2.8525788802705564e-8,0
31947,4.942361712837841e-7,6.915711478647779e-8,5.0432346478358015e-9,1.9450681581695784e-8,3.768106557518364e-8,1.9393072222679423e-8,7.892710918622064e-9,2.8756658015877137e-8,0
31948,4.943172163756625e-7,6.925368481618044e-8,5.0345478843325465e-9,1.9370716327883956e-8,3.782737076104525e-8,1.9402704715141917e-8,7.943002699730026e-9,2.8987527229048713e-8,0
31949,4.943982614675409e-7,6.935025484588312e-8,5.0258611208292915e-9,1.929075107407213e-8,3.797367594690686e-8,1.9412337207604414e-8,7.993294480837988e-9,2.9218396442220286e-8,0
31950,4.944793065594194e-7,6.944682487558578e-8,5.0171743573260365e-09,1.92107858202603e-8,3.811998113276847e-8,1.942196970006691e-8,8.04358626194595e-9,2.944926565539186e-8,0
31951,4.945603516512979e-7,6.954339490528845e-8,5.0084875938227814e-9,1.9130820566448473e-8,3.826628631863008e-8,1.9431602192529405e-8,8.093878043053911e-9,2.968013486856343e-8,0
31952,4.951785401220225e-7,6.954634163544818e-8,5.008558592761982e-9,1.905298758972126e-8,3.872377930183282e-8,1.9431602192529405e-8,8.088349606752153e-9,2.9655542004909245e-8,0
31953,4.978878997544019e-7,7.022879786972504e-8,5.055815010481644e-9,1.9334211039978205e-08,3.879541219036934e-8,1.9434687043525193e-8,8.084276287937045e-9,2.96347427983272e-8,0
31954,4.979698416889104e-7,7.022159130422802e-8,5.050886645092241e-9,1.9260093558957073e-8,3.879541219036934e-8,1.9464890949496237e-8,8.080202969121935e-9,2.9622204823394926e-8,0
31955,4.98051783623419e-7,7.0214384738731e-8,5.045958279702838e-9,1.918597607793594e-8,3.879541219036934e-8,1.949509485546728e-8,8.076129650306828e-9,2.960966684846265e-8,0
31956,4.981337255579274e-7,7.020717817323397e-8,5.041029914313436e-9,1.911185859691481e-8,3.879541219036934e-8,1.9525298761438326e-8,8.07205633149172e-9,2.9597128873530376e-8,0
31957,4.982156674924359e-7,7.019997160773695e-8,5.036101548924034e-9,1.9037741115893677e-8,3.879541219036934e-8,1.955550266740937e-8,8.06798301267661e-9,2.9584590898598098e-8,0
31958,4.982976094269444e-7,7.019276504223991e-8,5.031173183534631e-9,1.8963623634872544e-8,3.879541219036934e-8,1.9585706573380415e-8,8.063909693861502e-9,2.9572052923665823e-8,0
31959,4.983795513614529e-7,7.018555847674289e-8,5.026244818145228e-9,1.8889506153851412e-8,3.879541219036934e-8,1.961591047935146e-8,8.059836375046394e-9,2.9559514948733548e-8,0
31960,4.985220437551624e-7,6.998178263193849e-8,5.029249170005004e-9,1.8894640113120247e-8,3.851992572377249e-8,1.9553064142461396e-8,8.04591242962957e-9,2.9535771166973127e-8,0
31961,4.9629976001175e-7,6.924365262277934e-8,4.977241884243942e-9,1.880163864595314e-8,3.8568475298661535e-8,1.8964352521633058e-8,7.905640388247002e-9,2.9379761922103124e-8,0
31962,4.940774762683377e-7,6.850552261362019e-8,4.92523459848288e-9,1.870863717878604e-8,3.861702487355057e-8,1.8375640900804723e-8,7.765368346864432e-9,2.9223752677233124e-8,0
31963,4.918551925249254e-7,6.776739260446103e-8,4.873227312721818e-9,1.8615635711618937e-8,3.866557444843962e-8,1.7786929279976384e-8,7.625096305481865e-9,2.906774343236312e-8,0
31964,4.89632908781513e-7,6.702926259530188e-8,4.821220026960757e-9,1.852263424445183e-8,3.8714124023328655e-8,1.719821765914805e-8,7.484824264099295e-9,2.8911734187493118e-8,0
31965,4.874106250381007e-7,6.629113258614273e-8,4.769212741199695e-9,1.842963277728473e-8,3.87626735982177e-8,1.660950603831971e-8,7.3445522227167265e-09,2.8755724942623118e-8,0
31966,4.850769408949681e-7,6.564863565157965e-8,4.7154539029501424e-9,1.8350459132783634e-8,3.876498832237311e-8,1.605605314969949e-8,7.2060674641831086e-9,2.8603466947870785e-8,0
31967,4.827432567518357e-7,6.500613871701657e-8,4.6616950647005895e-9,1.8271285488282535e-8,3.876730304652852e-8,1.5502600261079266e-8,7.067582705649491e-9,2.8451208953118452e-8,0
31968,4.804095726087032e-7,6.43636417824535e-8,4.607936226451037e-9,1.819211184378144e-8,3.8769617770683935e-8,1.4949147372459046e-8,6.929097947115873e-9,2.8298950958366122e-8,0
31969,4.780758884655706e-7,6.372114484789042e-8,4.554177388201484e-9,1.8112938199280345e-8,3.8771932494839344e-8,1.4395694483838824e-8,6.790613188582255e-9,2.814669296361379e-8,0
31970,4.757422043224381e-7,6.307864791332734e-8,4.500418549951931e-9,1.803376455477925e-8,3.877424721899476e-8,1.3842241595218603e-8,6.652128430048637e-9,2.799443496886146e-8,0
31971,4.725704868316426e-7,6.317292209420233e-8,4.502680688714163e-9,1.7989265753174962e-8,3.793901901248232e-8,1.3913783325157784e-8,6.606824180112745e-9,2.790028218366591e-8,0
31972,4.7260916993985494e-7,6.325023374823085e-8,4.504687534339524e-9,1.8005029119482875e-8,3.7730928144615046e-8,1.3960698043646749e-8,6.610980792805306e-9,2.7916327097325477e-8,0
31973,4.726478530480673e-7,6.332754540225937e-8,4.506694379964885e-9,1.8020792485790792e-8,3.7522837276747775e-8,1.4007612762135714e-8,6.6151374054978675e-9,2.7932372010985042e-8,0
31974,4.726865361562796e-7,6.34048570562879e-8,4.508701225590247e-9,1.8036555852098706e-8,3.7314746408880504e-8,1.405452748062468e-8,6.619294018190429e-9,2.7948416924644608e-8,0
31975,4.727816653067653e-7,6.372035359934666e-8,4.508445932453376e-9,1.803349470108757e-8,3.742837685834372e-8,1.4030960104290906e-8,6.628021692667796e-9,2.8080093284157644e-8,0
31976,4.7287679445725094e-7,6.403585014240542e-8,4.508190639316506e-9,1.8030433550076433e-8,3.754200730780693e-8,1.4007392727957133e-8,6.636749367145164e-9,2.8211769643670684e-8,0
31977,4.7297192360773663e-7,6.435134668546418e-8,4.5079353461796355e-9,1.80273723990653e-8,3.7655637757270136e-8,1.398382535162336e-8,6.6454770416225315e-9,2.834344600318372e-8,0
31978,4.730339154175568e-7,6.452192517241041e-8,4.495674478760198e-9,1.7980041158276583e-8,3.7943482233805207e-8,1.390464614169051e-8,6.641693736157244e-9,2.8474883587876773e-8,0
31979,4.7309590722737704e-7,6.469250365935663e-8,4.483413611340759e-9,1.7932709917487863e-8,3.823132671034027e-8,1.3825466931757664e-8,6.637910430691957e-9,2.8606321172569825e-8,0
31980,4.731578990371972e-7,6.486308214630286e-8,4.471152743921321e-9,1.7885378676699147e-8,3.851917118687534e-8,1.3746287721824815e-8,6.634127125226669e-9,2.8737758757262878e-8,0
31981,4.732198908470174e-7,6.503366063324908e-8,4.458891876501883e-9,1.7838047435910428e-8,3.8807015663410405e-8,1.3667108511891968e-8,6.630343819761381e-9,2.8869196341955927e-8,0
31982,4.7328188265683764e-7,6.520423912019531e-8,4.446631009082445e-9,1.779071619512171e-8,3.9094860139945475e-8,1.358792930195912e-8,6.626560514296093e-9,2.900063392664898e-8,0
31983,4.733438744666578e-7,6.537481760714153e-8,4.434370141663006e-9,1.7743384954332995e-8,3.938270461648054e-8,1.3508750092026272e-8,6.622777208830806e-9,2.9132071511342033e-8,0
31984,4.7340586627647805e-7,6.554539609408776e-8,4.4221092742435685e-9,1.7696053713544276e-8,3.96705490930156e-8,1.3429570882093425e-8,6.6189939033655184e-9,2.9263509096035086e-8,0
31985,4.7346785808629823e-7,6.571597458103398e-8,4.40984840682413e-9,1.764872247275556e-8,3.9958393569550674e-8,1.3350391672160576e-8,6.61521059790023e-9,2.939494668072814e-8,0
31986,4.7352984989611847e-7,6.588655306798021e-8,4.3975875394046915e-9,1.7601391231966844e-8,4.024623804608574e-8,1.3271212462227729e-8,6.611427292434943e-9,2.9526384265421188e-8,0
31987,4.7359184170593865e-7,6.605713155492643e-8,4.385326671985254e-9,1.7554059991178124e-8,4.053408252262081e-8,1.3192033252294882e-8,6.607643986969656e-9,2.965782185011424e-8,0
31988,4.7365383351575883e-7,6.622771004187266e-8,4.373065804565815e-9,1.7506728750389408e-8,4.082192699915587e-8,1.3112854042362033e-8,6.6038606815043674e-9,2.9789259434807293e-8,0
31989,4.7371582532557906e-7,6.639828852881888e-8,4.360804937146378e-9,1.745939750960069e-8,4.110977147569094e-8,1.3033674832429186e-8,6.60007737603908e-9,2.9920697019500346e-8,0
31990,4.748859138621221e-7,6.691990405484381e-8,4.35077070901957e-9,1.7413141570835253e-8,4.107453052688921e-8,1.3024977717319076e-8,6.644300825863105e-9,2.998446827150074e-8,0
31991,4.75027362989915e-7,6.676183526350984e-8,4.342476200224721e-9,1.742803553204357e-8,4.132582113223357e-8,1.2960947487548519e-8,6.6516145247187955e-9,3.0104694512795254e-8,0
31992,4.7516881211770795e-7,6.660376647217587e-8,4.334181691429871e-9,1.7442929493251885e-8,4.1577111737577935e-8,1.2896917257777962e-8,6.658928223574486e-9,3.0224920754089764e-8,0
31993,4.753102612455009e-7,6.644569768084189e-8,4.325887182635022e-9,1.74578234544602e-8,4.18284023429223e-8,1.2832887028007404e-8,6.666241922430176e-9,3.0345146995384275e-8,0
31994,4.754833880604293e-7,6.639033116397049e-8,4.313846108882854e-9,1.746449032700455e-8,4.206667847713396e-8,1.2793451884215552e-8,6.55318852213657e-9,3.0321716672016333e-8,0
31995,4.737064679780571e-7,6.629986877472053e-8,4.3055516000880046e-09,1.7527781667543893e-8,4.211378297828873e-8,1.2805794732320681e-8,6.552438877239496e-9,3.0022545021835034e-8,0
31996,4.7192954789568484e-7,6.620940638547058e-8,4.297257091293155e-9,1.759107300808323e-8,4.2160887479443495e-8,1.281813758042581e-8,6.551689232342422e-9,2.9723373371653735e-8,0
31997,4.7015262781331263e-7,6.611894399622063e-8,4.288962582498306e-9,1.7654364348622572e-8,4.220799198059826e-8,1.2830480428530939e-8,6.550939587445348e-9,2.9424201721472436e-8,0
31998,4.6837570773094037e-7,6.602848160697068e-8,4.2806680737034565e-9,1.7717655689161914e-8,4.225509648175303e-8,1.2842823276636068e-8,6.550189942548274e-9,2.9125030071291138e-8,0
31999,4.6659878764856815e-7,6.593801921772072e-8,4.272373564908607e-9,1.7780947029701255e-8,4.2302200982907793e-8,1.2855166124741197e-8,6.5494402976512e-9,2.882585842110984e-8,0
32000,4.648218675661959e-7,6.584755682847078e-8,4.264079056113758e-9,1.7844238370240597e-8,4.234930548406256e-8,1.2867508972846328e-8,6.548690652754126e-9,2.8526686770928536e-8,0
32001,4.630449474838237e-7,6.575709443922082e-8,4.255784547318909e-9,1.7907529710779935e-8,4.239640998521733e-8,1.2879851820951457e-8,6.547941007857052e-9,2.8227515120747237e-8,0
32002,4.612680274014514e-7,6.566663204997087e-8,4.24749003852406e-9,1.7970821051319276e-8,4.24435144863721e-8,1.2892194669056586e-8,6.5471913629599784e-9,2.7928343470565938e-8,0
32003,4.594911073190792e-7,6.557616966072091e-8,4.2391955297292106e-9,1.8034112391858618e-8,4.2490618987526865e-8,1.2904537517161715e-8,6.5464417180629045e-9,2.762917182038464e-8,0
32004,4.5771418723670694e-7,6.548570727147095e-8,4.230901020934361e-9,1.809740373239796e-8,4.253772348868163e-8,1.2916880365266844e-8,6.545692073165831e-9,2.7330000170203337e-8,0
32005,4.5593726715433473e-7,6.539524488222101e-8,4.222606512139512e-9,1.81606950729373e-8,4.25848279898364e-8,1.2929223213371973e-8,6.544942428268757e-9,2.7030828520022038e-8,0
32006,4.5416034707196246e-7,6.530478249297105e-8,4.2143120033446625e-9,1.822398641347664e-8,4.2631932490991164e-8,1.2941566061477102e-8,6.544192783371683e-9,2.673165686984074e-8,0
32007,4.5238342698959025e-7,6.52143201037211e-8,4.206017494549813e-9,1.828727775401598e-8,4.267903699214593e-8,1.2953908909582231e-8,6.543443138474609e-9,2.643248521965944e-8,0
32008,4.50606506907218e-7,6.512385771447114e-8,4.197722985754964e-9,1.8350569094555322e-8,4.2726141493300696e-8,1.296625175768736e-8,6.542693493577535e-9,2.6133313569478138e-8,0
32009,4.5270654122337194e-7,6.522939053769923e-8,4.185705578315862e-9,1.835442185487719e-8,4.253431339904932e-8,1.3043743155439532e-8,6.528145349153571e-9,2.5715953097425625e-8,0
32010,4.548065755395259e-7,6.533492336092731e-8,4.173688170876761e-9,1.8358274615199056e-8,4.234248530479794e-8,1.3121234553191705e-8,6.5135972047296064e-9,2.5298592625373113e-8,0
32011,4.5427790639395724e-7,6.523983482799196e-8,4.165440994708045e-9,1.8413869598575638e-8,4.2106191440765815e-8,1.3117368786018103e-8,6.495392210877798e-9,2.4887869904755333e-8,0
32012,4.537492372483886e-7,6.51447462950566e-8,4.15719381853933e-9,1.8469464581952217e-8,4.186989757673369e-8,1.31135030188445e-8,6.477187217025988e-9,2.4477147184137553e-8,0
32013,4.5322056810281993e-7,6.504965776212125e-8,4.148946642370615e-9,1.8525059565328795e-8,4.1633603712701565e-8,1.3109637251670899e-8,6.458982223174179e-9,2.4066424463519773e-8,0
32014,4.5269189895725127e-7,6.49545692291859e-8,4.1406994662019e-9,1.8580654548705377e-8,4.1397309848669434e-8,1.3105771484497297e-8,6.4407772293223695e-9,2.3655701742901993e-8,0
32015,4.521632298116826e-7,6.485948069625054e-8,4.132452290033184e-9,1.8636249532081956e-8,4.116101598463731e-8,1.3101905717323695e-8,6.42257223547056e-9,2.3244979022284217e-8,0
32016,4.529741795028252e-7,6.485843740147262e-8,4.12745292570458e-9,1.8559135044416506e-8,4.1055617073297335e-8,1.3095826625563674e-8,6.422822117102918e-9,2.3251680384150656e-8,0
32017,4.5438665291009075e-7,6.464069646938642e-8,4.115459184578546e-9,1.8608667194597734e-8,4.073735287999127e-8,1.3060289174416934e-8,6.418748798287809e-9,2.3251680384150656e-8,0
32018,4.557991263173563e-7,6.442295553730023e-8,4.103465443452511e-9,1.8658199344778962e-8,4.041908868668521e-8,1.3024751723270191e-8,6.414675479472701e-9,2.3251680384150656e-8,0
32019,4.5721159972462184e-7,6.420521460521403e-8,4.091471702326477e-9,1.870773149496019e-8,4.0100824493379155e-8,1.2989214272123451e-8,6.410602160657593e-9,2.3251680384150656e-8,0
32020,4.586240731318874e-7,6.398747367312783e-8,4.079477961200442e-9,1.8757263645141415e-8,3.978256030007309e-8,1.295367682097671e-8,6.406528841842484e-9,2.3251680384150656e-8,0
32021,4.6003654653915293e-7,6.376973274104164e-8,4.067484220074408e-9,1.8806795795322643e-8,3.946429610676703e-8,1.2918139369829969e-8,6.402455523027375e-9,2.3251680384150656e-8,0
32022,4.614490199464185e-7,6.355199180895545e-8,4.055490478948373e-9,1.885632794550387e-8,3.914603191346097e-8,1.2882601918683228e-8,6.3983822042122666e-9,2.3251680384150656e-8,0
32023,4.6207549962131264e-7,6.333370633520852e-8,4.039483046571616e-9,1.8898662491639546e-8,3.882776772015491e-8,1.2847999844888874e-8,6.3960961682461095e-9,2.3242766438472637e-8,0
32024,4.6270197929620675e-7,6.31154208614616e-8,4.023475614194859e-9,1.8940997037775217e-8,3.850950352684885e-8,1.2813397771094519e-8,6.3938101322799515e-9,2.3233852492794617e-8,0
32025,4.6332845897110085e-7,6.289713538771469e-8,4.007468181818101e-9,1.8983331583910892e-8,3.819123933354279e-8,1.2778795697300166e-8,6.391524096313794e-9,2.3224938547116598e-8,0
32026,4.63954938645995e-7,6.267884991396778e-8,3.991460749441344e-9,1.9025666130046567e-8,3.787297514023673e-8,1.2744193623505811e-8,6.389238060347636e-9,2.3216024601438582e-8,0
32027,4.644966531683999e-7,6.263939770830348e-8,3.985196752584923e-9,1.9032364980974914e-8,3.7777777222756835e-8,1.2634501585252776e-8,6.3220328455621355e-9,2.3212076983455396e-8,0
32028,4.6495794031855876e-7,6.223229748247779e-8,3.965050500542441e-9,1.907983348637942e-8,3.7769477461194936e-8,1.2504231245247226e-8,6.2907789970805104e-9,2.3170070167653437e-8,0
32029,4.6541922746871764e-7,6.18251972566521e-8,3.944904248499959e-9,1.9127301991783923e-8,3.7761177699633045e-8,1.2373960905241676e-8,6.2595251485988846e-9,2.3128063351851478e-8,0
32030,4.6588051461887647e-7,6.141809703082641e-8,3.924757996457477e-9,1.917477049718843e-8,3.7752877938071146e-8,1.2243690565236126e-8,6.228271300117259e-9,2.308605653604952e-8,0
32031,4.6634180176903535e-7,6.101099680500071e-8,3.904611744414994e-9,1.9222239002592935e-8,3.7744578176509255e-8,1.2113420225230576e-8,6.197017451635633e-9,2.304404972024756e-8,0
32032,4.66462381052074e-7,6.060385079063151e-8,3.884720785509382e-9,1.9257632146952684e-8,3.7736278414947356e-8,1.1991378450628446e-8,6.161898013958776e-9,2.3011084070987032e-8,0
32033,4.653731042392837e-7,6.058181899724881e-8,3.883990405568372e-9,1.928477071220554e-8,3.7728306883982705e-8,1.2000261952384634e-8,6.159819707612496e-9,2.299006729306224e-8,0
32034,4.6428382742649346e-7,6.055978720386612e-8,3.8832600256273624e-09,1.9311909277458402e-8,3.772033535301805e-8,1.2009145454140824e-8,6.157741401266215e-9,2.2969050515137445e-8,0
32035,4.6319455061370316e-7,6.053775541048342e-8,3.882529645686352e-9,1.933904784271126e-8,3.77123638220534e-8,1.2018028955897014e-8,6.155663094919935e-9,2.2948033737212653e-8,0
32036,4.621052738009129e-7,6.051572361710072e-8,3.881799265745342e-9,1.936618640796412e-8,3.7704392291088746e-8,1.2026912457653204e-8,6.153584788573654e-9,2.2927016959287857e-8,0
32037,4.610159969881226e-7,6.049369182371802e-8,3.8810688858043314e-9,1.939332497321698e-8,3.769642076012409e-8,1.2035795959409393e-8,6.151506482227374e-9,2.2906000181363062e-8,0
32038,4.5992672017533236e-7,6.047166003033533e-8,3.880338505863321e-9,1.942046353846984e-8,3.768844922915944e-8,1.2044679461165583e-8,6.149428175881093e-9,2.288498340343827e-8,0
32039,4.588374433625421e-7,6.044962823695263e-8,3.879608125922311e-9,1.94476021037227e-8,3.7680477698194786e-08,1.2053562962921773e-8,6.147349869534812e-9,2.2863966625513474e-8,0
32040,4.577481665497518e-7,6.042759644356993e-8,3.8788777459813004e-9,1.9474740668975558e-8,3.7672506167230136e-8,1.2062446464677961e-8,6.145271563188532e-9,2.284294984758868e-8,0
32041,4.5665888973696155e-7,6.040556465018724e-8,3.87814736604029e-9,1.950187923422842e-8,3.766453463626548e-8,1.2071329966434151e-8,6.143193256842251e-9,2.2821933069663887e-8,0
32042,4.5556961292417125e-7,6.038353285680455e-8,3.87741698609928e-9,1.9529017799481276e-8,3.765656310530083e-8,1.2080213468190341e-8,6.1411149504959705e-9,2.280091629173909e-8,0
32043,4.54480336111381e-7,6.036150106342184e-8,3.8766866061582694e-9,1.9556156364734137e-8,3.7648591574336176e-8,1.2089096969946531e-8,6.1390366441496895e-9,2.2779899513814296e-8,0
32044,4.543006934746324e-7,6.085778501934998e-8,3.891708365457147e-9,1.9595370291031752e-8,3.811829767384253e-8,1.2144460288017497e-8,6.136875043925956e-9,2.2769945654947392e-8,0
32045,4.534535910418749e-7,6.08692203942251e-8,3.8946890510038544e-9,1.959259283273317e-8,3.8362354175144685e-8,1.214829412971959e-8,6.256120201098415e-9,2.2743920142373294e-8,0
32046,4.526064886091174e-7,6.088065576910022e-8,3.897669736550563e-9,1.9589815374434583e-8,3.860641067644684e-8,1.2152127971421682e-8,6.375365358270874e-9,2.2717894629799193e-8,0
32047,4.517593861763599e-7,6.089209114397534e-8,3.900650422097271e-9,1.9587037916135997e-8,3.885046717774899e-8,1.2155961813123775e-8,6.4946105154433325e-9,2.2691869117225092e-8,0
32048,4.509122837436024e-7,6.090352651885046e-8,3.90363110764398e-9,1.9584260457837414e-8,3.9094523679051144e-8,1.2159795654825867e-8,6.6138556726157905e-9,2.2665843604650994e-8,0
32049,4.5006518131084494e-7,6.091496189372558e-8,3.906611793190688e-9,1.9581482999538827e-8,3.93385801803533e-8,1.216362949652796e-8,6.733100829788249e-9,2.2639818092076893e-8,0
32050,4.4921807887808746e-7,6.09263972686007e-8,3.909592478737397e-9,1.957870554124024e-8,3.958263668165545e-8,1.2167463338230054e-8,6.852345986960708e-9,2.2613792579502795e-8,0
32051,4.4837097644533e-7,6.093783264347581e-8,3.912573164284105e-9,1.9575928082941654e-8,3.98266931829576e-8,1.2171297179932146e-8,6.971591144133167e-9,2.2587767066928694e-8,0
32052,4.475238740125725e-7,6.094926801835093e-8,3.915553849830814e-9,1.957315062464307e-8,4.0070749684259755e-8,1.2175131021634239e-8,7.0908363013056255e-9,2.2561741554354593e-8,0
32053,4.46676771579815e-7,6.096070339322605e-8,3.918534535377522e-9,1.9570373166344485e-8,4.03148061855619e-8,1.2178964863336333e-8,7.2100814584780835e-9,2.2535716041780495e-8,0
32054,4.458296691470575e-7,6.097213876810119e-8,3.9215152209242305e-9,1.95675957080459e-8,4.0558862686864055e-8,1.2182798705038424e-8,7.329326615650542e-9,2.2509690529206394e-8,0
32055,4.449825667143e-7,6.09835741429763e-8,3.924495906470939e-9,1.9564818249747312e-8,4.080291918816621e-8,1.2186632546740518e-8,7.448571772823001e-9,2.2483665016632296e-8,0
32056,4.4413546428154254e-7,6.099500951785142e-8,3.9274765920176474e-9,1.956204079144873e-8,4.104697568946836e-8,1.219046638844261e-8,7.56781692999546e-9,2.2457639504058195e-8,0
32057,4.4328836184878507e-7,6.100644489272654e-8,3.930457277564356e-9,1.9559263333150143e-8,4.129103219077051e-8,1.2194300230144703e-8,7.687062087167919e-9,2.2431613991484098e-8,0
32058,4.437215495188476e-7,6.079106528145727e-8,3.932161497426713e-9,1.95618165675631e-8,4.1546871206544355e-8,1.2192335421086393e-8,7.759215711555534e-9,2.23933639623702e-8,0
32059,4.4415473718891015e-7,6.057568567018801e-8,3.933865717289071e-9,1.9564369801976053e-8,4.180271022231819e-8,1.2190370612028082e-8,7.831369335943151e-9,2.2355113933256306e-8,0
32060,4.406415065077287e-7,5.995014142074854e-8,3.895764353027137e-9,1.9568428459221603e-8,4.192744109617323e-8,1.2164652039989918e-8,7.903522960330766e-9,2.2238214872534753e-8,0
32061,4.371282758265473e-7,5.932459717130906e-8,3.857662988765204e-9,1.9572487116467154e-8,4.205217197002827e-8,1.2138933467951753e-8,7.975676584718383e-9,2.21213158118132e-8,0
32062,4.3361504514536585e-7,5.8699052921869584e-8,3.81956162450327e-9,1.95765457737127e-8,4.217690284388331e-8,1.2113214895913588e-8,8.047830209105999e-9,2.2004416751091646e-8,0
32063,4.301018144641844e-7,5.807350867243011e-8,3.781460260241336e-9,1.958060443095825e-8,4.230163371773835e-8,1.2087496323875424e-8,8.119983833493616e-9,2.188751769037009e-8,0
32064,4.26588583783003e-7,5.744796442299063e-8,3.743358895979403e-9,1.9584663088203802e-8,4.242636459159339e-8,1.206177775183726e-8,8.192137457881231e-9,2.1770618629648536e-8,0
32065,4.2307535310182154e-7,5.6822420173551154e-8,3.7052575317174694e-9,1.9588721745449353e-8,4.255109546544843e-8,1.2036059179799095e-8,8.264291082268846e-9,2.1653719568926983e-8,0
32066,4.192413189281465e-7,5.616821313285188e-8,3.6634332688112835e-9,1.9986749547883547e-8,4.258890262665349e-8,1.2041763776205961e-8,8.227341199583049e-9,2.15327880763133e-8,0
32067,4.1540728475447144e-7,5.5514006092152604e-8,3.6216090059050976e-9,2.0384777350317744e-8,4.2626709787858556e-8,1.204746837261283e-8,8.190391316897252e-9,2.141185658369962e-8,0
32068,4.114413784258348e-7,5.485979905145333e-8,3.583554974269298e-9,2.048286695934881e-8,4.2501680463516886e-8,1.2033844133151685e-8,8.156557378509612e-9,2.1294957522978066e-8,0
32069,4.105203552936011e-7,5.470131816322774e-8,3.587325205539684e-9,2.056341325000779e-8,4.2338843977970145e-8,1.2049834436312827e-8,8.15235962395208e-9,2.1074869104285584e-8,0
32070,4.095993321613675e-7,5.454283727500215e-8,3.5910954368100703e-9,2.0643959540666765e-8,4.217600749242341e-8,1.2065824739473968e-8,8.148161869394546e-9,2.0854780685593103e-8,0
32071,4.076409071198685e-7,5.3507258912881295e-8,3.5311740638060315e-9,2.062294327743618e-8,4.217324090523611e-8,1.20820333547527e-8,8.151277813692703e-9,2.0849771950943797e-8,0
32072,4.0568248207836947e-7,5.247168055076044e-8,3.4712526908019927e-9,2.060192701420559e-8,4.2170474318048813e-8,1.2098241970031431e-8,8.154393757990861e-9,2.084476321629449e-8,0
32073,4.037240570368704e-7,5.143610218863958e-8,3.411331317797954e-9,2.0580910750975002e-8,4.216770773086151e-8,1.2114450585310162e-8,8.157509702289019e-9,2.0839754481645186e-8,0
32074,4.017656319953714e-7,5.040052382651873e-8,3.351409944793915e-9,2.0559894487744417e-8,4.2164941143674217e-8,1.2130659200588893e-8,8.160625646587175e-9,2.083474574699588e-8,0
32075,3.998072069538724e-7,4.9364945464397875e-8,3.2914885717898764e-9,2.053887822451383e-8,4.2162174556486915e-8,1.2146867815867624e-8,8.163741590885333e-9,2.0829737012346575e-8,0
32076,3.9784878191237334e-7,4.832936710227702e-8,3.231567198785838e-9,2.051786196128324e-8,4.215940796929962e-8,1.2163076431146355e-8,8.166857535183491e-9,2.0824728277697272e-8,0
32077,3.9589035687087433e-7,4.729378874015617e-8,3.1716458257817992e-9,2.0496845698052655e-8,4.215664138211232e-8,1.2179285046425088e-8,8.169973479481649e-9,2.0819719543047967e-8,0
32078,3.9393193182937527e-7,4.6258210378035315e-8,3.1117244527777604e-9,2.0475829434822066e-8,4.2153874794925017e-8,1.2195493661703819e-8,8.173089423779805e-9,2.081471080839866e-8,0
32079,3.9197350678787627e-7,4.522263201591446e-8,3.0518030797737217e-9,2.0454813171591478e-8,4.215110820773772e-8,1.221170227698255e-8,8.176205368077963e-9,2.0809702073749355e-8,0
32080,3.911326730852378e-7,4.434319932630003e-8,2.9900946548115915e-9,2.0353250617701914e-8,4.217190664949379e-8,1.222791089226128e-8,8.163985411632637e-9,2.080066090720792e-8,0
32081,3.9029183938259937e-7,4.3463766636685605e-8,2.928386229849461e-9,2.0251688063812347e-8,4.219270509124987e-8,1.2244119507540011e-8,8.151765455187312e-9,2.079161974066649e-8,0
32082,3.894510056799609e-7,4.2584333947071174e-8,2.866677804887331e-9,2.0150125509922783e-8,4.221350353300594e-8,1.2260328122818742e-8,8.139545498741987e-9,2.078257857412506e-8,0
32083,3.8861017197732247e-7,4.170490125745675e-8,2.8049693799252008e-9,2.0048562956033216e-8,4.2234301974762015e-8,1.2276536738097473e-8,8.127325542296661e-9,2.0773537407583624e-8,0
32084,3.8981046024456017e-7,4.186299615388849e-8,2.8049338804556e-9,2.0011829143899584e-8,4.224380813625295e-8,1.2292464912376588e-8,8.063109815771875e-9,2.0717268655818574e-8,0
32085,3.9101074851179787e-7,4.202109105032023e-8,2.8048983809859996e-9,1.9975095331765953e-8,4.225331429774388e-8,1.2308393086655702e-8,7.99889408924709e-9,2.066099990405352e-8,0
32086,3.9221103677903557e-7,4.217918594675197e-8,2.8048628815163993e-9,1.993836151963232e-8,4.226282045923482e-8,1.2324321260934817e-8,7.934678362722305e-9,2.060473115228847e-8,0
32087,3.9315012483614336e-7,4.25101945458491e-8,2.8066144340048907e-9,1.988779988483268e-8,4.2342629476898596e-8,1.2404279664984488e-8,7.87046263619752e-9,2.060473115228847e-8,0
32088,3.940892128932511e-7,4.284120314494623e-8,2.8083659864933816e-9,1.9837238250033042e-8,4.242243849456237e-8,1.248423806903416e-8,7.806246909672736e-9,2.060473115228847e-8,0
32089,3.950283009503589e-7,4.317221174404336e-8,2.810117538981873e-9,1.97866766152334e-8,4.250224751222615e-8,1.2564196473083831e-8,7.74203118314795e-9,2.060473115228847e-8,0
32090,3.948663571802681e-7,4.350085902232356e-8,2.813887770252259e-9,1.9780279783979552e-8,4.257255036839899e-8,1.2553820156098004e-8,7.726695282404466e-9,2.0612270522907885e-8,0
32091,3.9470441341017727e-7,4.382950630060376e-8,2.817658001522645e-9,1.9773882952725706e-8,4.264285322457183e-8,1.2543443839112178e-8,7.711359381660983e-9,2.06198098935273e-8,0
32092,3.9454246964008643e-7,4.415815357888395e-8,2.8214282327930308e-9,1.9767486121471857e-8,4.271315608074467e-8,1.2533067522126349e-8,7.6960234809175e-9,2.062734926414672e-8,0
32093,3.9438052586999565e-7,4.448680085716415e-8,2.825198464063417e-9,1.9761089290218008e-8,4.278345893691751e-8,1.2522691205140522e-8,7.680687580174018e-9,2.0634888634766136e-8,0
32094,3.942185820999048e-7,4.481544813544435e-8,2.828968695333803e-9,1.975469245896416e-8,4.285376179309035e-8,1.2512314888154693e-8,7.665351679430535e-9,2.0642428005385553e-8,0
32095,3.9405663832981404e-7,4.5144095413724545e-8,2.832738926604189e-9,1.974829562771031e-8,4.292406464926319e-8,1.2501938571168867e-8,7.650015778687052e-9,2.0649967376004972e-8,0
32096,3.938946945597232e-7,4.5472742692004745e-8,2.8365091578745753e-9,1.9741898796456464e-8,4.299436750543603e-8,1.249156225418304e-8,7.634679877943569e-9,2.0657506746624388e-8,0
32097,3.9373275078963237e-7,4.5801389970284946e-8,2.840279389144961e-9,1.9735501965202615e-8,4.3064670361608877e-8,1.2481185937197211e-8,7.619343977200086e-9,2.0665046117243804e-8,0
32098,3.935708070195416e-7,4.613003724856514e-8,2.844049620415347e-9,1.9729105133948766e-8,4.3134973217781717e-8,1.2470809620211384e-8,7.604008076456602e-9,2.0672585487863223e-8,0
32099,3.9340886324945076e-7,4.645868452684534e-8,2.8478198516857334e-9,1.9722708302694917e-8,4.3205276073954557e-8,1.2460433303225557e-8,7.58867217571312e-9,2.068012485848264e-8,0
32100,3.9324691947936e-7,4.678733180512554e-8,2.8515900829561194e-9,1.9716311471441068e-8,4.3275578930127397e-8,1.2450056986239729e-8,7.573336274969636e-9,2.0687664229102055e-8,0
32101,3.9308497570926914e-7,4.711597908340573e-8,2.8553603142265053e-9,1.970991464018722e-8,4.3345881786300237e-8,1.2439680669253902e-8,7.558000374226153e-9,2.0695203599721475e-8,0
32102,3.927226613112471e-7,4.7187896030232e-8,2.864058910886294e-9,1.9745852355069044e-8,4.337242651950416e-8,1.2404709266289368e-8,7.542581179605217e-9,2.0646474218575837e-8,0
32103,3.9206985296408076e-7,4.719632412381957e-8,2.8640707440428275e-9,1.9782750922261387e-8,4.338434970423181e-8,1.2317959871427853e-8,7.556670702629439e-9,2.062780278189643e-8,0
32104,3.914170446169144e-7,4.720475221740714e-8,2.8640825771993606e-9,1.981964948945373e-8,4.339627288895946e-8,1.223121047656634e-8,7.570760225653658e-9,2.060913134521702e-8,0
32105,3.9076423626974807e-7,4.721318031099471e-8,2.8640944103558942e-9,1.985654805664607e-8,4.3408196073687105e-8,1.2144461081704825e-8,7.584849748677878e-9,2.0590459908537613e-8,0
32106,3.901114279225817e-7,4.722160840458228e-8,2.864106243512428e-9,1.9893446623838417e-8,4.342011925841475e-8,1.2057711686843312e-8,7.598939271702098e-9,2.0571788471858205e-8,0
32107,3.894586195754154e-7,4.7230036498169846e-8,2.8641180766689614e-9,1.993034519103076e-8,4.34320424431424e-8,1.1970962291981797e-8,7.613028794726318e-9,2.0553117035178797e-8,0
32108,3.88805811228249e-7,4.723846459175742e-8,2.8641299098254946e-9,1.9967243758223102e-8,4.344396562787005e-8,1.1884212897120282e-8,7.627118317750539e-9,2.053444559849939e-8,0
32109,3.881530028810827e-7,4.724689268534499e-8,2.864141742982028e-9,2.0004142325415444e-8,4.3455888812597696e-8,1.1797463502258769e-8,7.641207840774759e-9,2.051577416181998e-8,0
32110,3.875001945339163e-7,4.7255320778932555e-8,2.8641535761385618e-9,2.0041040892607787e-8,4.3467811997325343e-8,1.1710714107397254e-8,7.655297363798978e-9,2.049710272514057e-8,0
32111,3.8684738618675e-7,4.726374887252013e-8,2.864165409295095e-9,2.007793945980013e-8,4.347973518205299e-8,1.162396471253574e-8,7.669386886823198e-9,2.047843128846116e-8,0
32112,3.861945778395837e-7,4.727217696610769e-8,2.8641772424516285e-9,2.011483802699247e-8,4.349165836678064e-8,1.1537215317674226e-8,7.683476409847418e-9,2.0459759851781753e-8,0
32113,3.855417694924173e-7,4.7280605059695264e-8,2.864189075608162e-9,2.0151736594184814e-8,4.3503581551508286e-8,1.1450465922812711e-8,7.697565932871638e-9,2.0441088415102345e-8,0
32114,3.84888961145251e-7,4.7289033153282836e-8,2.8642009087646953e-9,2.0188635161377156e-8,4.3515504736235934e-8,1.1363716527951196e-8,7.711655455895859e-9,2.0422416978422937e-8,0
32115,3.8423615279808463e-7,4.72974612468704e-8,2.864212741921229e-9,2.02255337285695e-8,4.3527427920963575e-8,1.1276967133089683e-8,7.725744978920079e-9,2.040374554174353e-8,0
32116,3.835833444509183e-7,4.730588934045797e-8,2.8642245750777625e-9,2.026243229576184e-8,4.353935110569122e-8,1.1190217738228168e-8,7.739834501944298e-9,2.038507410506412e-8,0
32117,3.8293053610375194e-7,4.731431743404554e-8,2.864236408234296e-9,2.0299330862954183e-8,4.355127429041887e-8,1.1103468343366655e-8,7.753924024968518e-9,2.036640266838471e-8,0
32118,3.822777277565856e-7,4.732274552763311e-8,2.8642482413908293e-9,2.0336229430146526e-8,4.356319747514652e-8,1.101671894850514e-8,7.768013547992738e-9,2.0347731231705302e-8,0
32119,3.8201614319013874e-7,4.7318801291238966e-8,2.864260074547363e-9,2.0376816002602028e-8,4.359591910163024e-8,1.1004873131456225e-8,7.796649195145905e-9,2.0368748009630097e-8,0
32120,3.822653229960586e-7,4.726534805147223e-8,2.8635296946063525e-9,2.0422046944690126e-8,4.3625703618406695e-8,1.1007679263513388e-8,7.796649195145905e-9,2.0363022950520834e-8,0
32121,3.825145028019785e-7,4.721189481170549e-8,2.862799314665342e-9,2.0467277886778224e-8,4.3655488135183156e-8,1.1010485395570549e-8,7.796649195145905e-9,2.035729789141157e-8,0
32122,3.827636826078984e-7,4.715844157193876e-8,2.862068934724332e-9,2.0512508828866322e-8,4.368527265195961e-8,1.101329152762771e-8,7.796649195145905e-9,2.0351572832302308e-8,0
32123,3.8301286241381826e-7,4.710498833217202e-8,2.861338554783322e-9,2.0557739770954424e-8,4.371505716873607e-8,1.101609765968487e-8,7.796649195145905e-9,2.034584777319305e-8,0
32124,3.8326204221973814e-7,4.7051535092405283e-8,2.8606081748423116e-9,2.0602970713042522e-8,4.374484168551253e-8,1.1018903791742031e-8,7.796649195145905e-9,2.0340122714083785e-8,0
32125,3.83511222025658e-7,4.699808185263855e-8,2.8598777949013013e-9,2.064820165513062e-8,4.3774626202288984e-8,1.1021709923799192e-8,7.796649195145905e-9,2.0334397654974522e-8,0
32126,3.827465740089119e-7,4.688680919809644e-8,2.8576866550782703e-9,2.0409614583085025e-8,4.377620772290059e-8,1.0960830118028431e-8,7.800431490463683e-9,2.035577489201232e-8,0
32127,3.819819259921658e-7,4.6775536543554336e-8,2.8554955152552397e-9,2.0171027511039426e-8,4.377778924351219e-8,1.0899950312257671e-8,7.804213785781462e-9,2.037715212905012e-8,0
32128,3.801796061066376e-7,4.6804240202496207e-8,2.8595092065059624e-9,2.016717475071756e-8,4.3682403765691017e-08,1.0946242019865375e-8,7.808579138241409e-9,2.038239963851941e-8,0
32129,3.7837728622110946e-7,4.6832943861438084e-8,2.863522897756685e-9,2.0163321990395692e-8,4.3587018287869836e-8,1.099253372747308e-8,7.812944490701357e-9,2.0387647147988703e-8,0
32130,3.7694283108048564e-7,4.683973833004349e-8,2.863766357737022e-9,2.0382878648198556e-8,4.450768246659129e-8,1.100659114704742e-8,7.809744242378238e-9,2.036655109272536e-8,0
32131,3.7550837593986176e-7,4.68465327986489e-8,2.8640098177173586e-9,2.060243530600142e-8,4.5428346645312745e-8,1.102064856662176e-8,7.806543994055118e-9,2.0345455037462018e-8,0
32132,3.7407392079923794e-7,4.685332726725431e-8,2.8642532776976954e-9,2.082199196380428e-8,4.63490108240342e-8,1.10347059861961e-8,7.803343745732e-9,2.0324358982198675e-8,0
32133,3.726394656586141e-7,4.686012173585972e-8,2.864496737678032e-9,2.1041548621607145e-8,4.7269675002755654e-8,1.1048763405770441e-8,7.80014349740888e-9,2.0303262926935333e-8,0
32134,3.7120501051799024e-7,4.686691620446513e-8,2.864740197658369e-9,2.1261105279410005e-8,4.819033918147711e-8,1.1062820825344781e-8,7.796943249085761e-9,2.028216687167199e-8,0
32135,3.697705553773664e-7,4.687371067307054e-8,2.8649836576387058e-9,2.148066193721287e-8,4.9111003360198564e-8,1.1076878244919121e-8,7.793743000762642e-9,2.0261070816408647e-8,0
32136,3.683361002367426e-7,4.688050514167595e-8,2.8652271176190425e-9,2.1700218595015733e-8,5.003166753892002e-8,1.1090935664493462e-8,7.790542752439523e-9,2.0239974761145305e-8,0
32137,3.679990895527972e-7,4.7182322671227456e-8,2.8853733696615246e-9,2.1751960818070445e-8,5.0021965298177145e-8,1.1138097176449542e-8,7.787342504116404e-9,2.023976272637295e-8,0
32138,3.6766207886885185e-7,4.748414020077896e-8,2.905519621704007e-9,2.1803703041125156e-8,5.0012263057434266e-8,1.1185258688405625e-8,7.784142255793285e-9,2.0239550691600595e-8,0
32139,3.6732506818490644e-7,4.7785957730330466e-8,2.925665873746489e-9,2.1855445264179868e-8,5.000256081669139e-8,1.1232420200361707e-8,7.780942007470166e-9,2.023933865682824e-8,0
32140,3.688137821771763e-7,4.805907160094009e-8,2.933551258369533e-9,2.190997410901414e-8,5.0072151802673764e-8,1.1275653816262159e-8,7.632768159352194e-9,1.956310965003846e-8,0
32141,3.686880872329694e-7,4.8312519919845394e-8,2.9415194750883113e-9,2.1956797433204675e-8,5.0125539719568257e-8,1.1316175354458987e-8,7.629567911029074e-9,1.9432345982850894e-8,0
32142,3.685623922887625e-7,4.856596823875069e-8,2.9494876918070895e-9,2.2003620757395213e-8,5.017892763646275e-8,1.1356696892655815e-8,7.626367662705955e-9,1.9301582315663327e-8,0
32143,3.684366973445556e-7,4.8819416557655995e-8,2.957455908525868e-9,2.205044408158575e-8,5.023231555335724e-8,1.1397218430852644e-8,7.623167414382836e-9,1.9170818648475764e-8,0
32144,3.6831100240034867e-7,4.907286487656129e-8,2.965424125244646e-9,2.2097267405776287e-8,5.0285703470251734e-8,1.1437739969049472e-8,7.619967166059717e-9,1.9040054981288197e-8,0
32145,3.681853074561418e-7,4.9326313195466595e-8,2.9733923419634243e-9,2.2144090729966822e-8,5.033909138714622e-8,1.14782615072463e-8,7.616766917736598e-9,1.890929131410063e-8,0
32146,3.676139468600816e-7,4.985148546530124e-8,2.967419137713474e-9,2.2360787458142333e-8,5.042411386749801e-8,1.1481472338067132e-8,7.614066432678194e-9,1.8757728440331018e-8,0
32147,3.687146355016896e-7,5.023199964770011e-8,2.9613631013677894e-9,2.256574749887148e-8,5.0509699028873646e-8,1.1429136908292899e-8,7.621174422209027e-9,1.876152209740316e-8,0
32148,3.698153241432976e-7,5.0612513830098983e-8,2.9553070650221046e-9,2.2770707539600627e-8,5.059528419024928e-8,1.1376801478518667e-8,7.628282411739858e-9,1.8765315754475302e-8,0
32149,3.709160127849056e-7,5.099302801249785e-8,2.94925102867642e-9,2.2975667580329774e-8,5.068086935162491e-8,1.1324466048744434e-8,7.635390401270689e-9,1.8769109411547444e-8,0
32150,3.7201670142651356e-7,5.137354219489673e-8,2.9431949923307354e-9,2.318062762105892e-8,5.0766454513000547e-8,1.1272130618970201e-8,7.64249839080152e-9,1.8772903068619586e-8,0
32151,3.7311739006812157e-7,5.17540563772956e-8,2.937138955985051e-9,2.338558766178807e-8,5.085203967437618e-8,1.1219795189195969e-8,7.649606380332351e-9,1.8776696725691728e-8,0
32152,3.7421807870972953e-7,5.213457055969447e-8,2.931082919639366e-9,2.359054770251722e-8,5.0937624835751814e-8,1.1167459759421736e-8,7.656714369863182e-9,1.8780490382763866e-8,0
32153,3.7531876735133754e-7,5.2515084742093345e-8,2.9250268832936818e-9,2.3795507743246366e-8,5.1023209997127454e-8,1.1115124329647504e-8,7.663822359394014e-9,1.8784284039836008e-8,0
32154,3.764194559929455e-7,5.2895598924492215e-8,2.918970846947997e-9,2.4000467783975513e-8,5.110879515850309e-8,1.1062788899873271e-8,7.670930348924845e-9,1.878807769690815e-8,0
32155,3.775201446345535e-7,5.327611310689109e-8,2.9129148106023125e-9,2.420542782470466e-8,5.119438031987872e-8,1.1010453470099038e-8,7.678038338455676e-9,1.8791871353980292e-8,0
32156,3.786208332761615e-7,5.365662728928996e-8,2.9068587742566277e-9,2.4410387865433807e-8,5.1279965481254354e-8,1.0958118040324806e-8,7.685146327986507e-9,1.8795665011052434e-8,0
32157,3.797215219177695e-7,5.403714147168883e-8,2.9008027379109433e-9,2.4615347906162955e-8,5.136555064262999e-8,1.0905782610550573e-8,7.692254317517338e-9,1.8799458668124573e-8,0
32158,3.8082221055937745e-7,5.4417655654087706e-8,2.8947467015652585e-9,2.4820307946892102e-8,5.145113580400562e-8,1.085344718077634e-8,7.699362307048169e-9,1.8803252325196715e-8,0
32159,3.8192289920098546e-7,5.4798169836486576e-8,2.888690665219574e-9,2.502526798762125e-8,5.1536720965381254e-8,1.080111175100211e-8,7.706470296579002e-9,1.8807045982268857e-8,0
32160,3.830235878425934e-7,5.517868401888545e-8,2.8826346288738897e-9,2.52302280283504e-8,5.162230612675689e-8,1.0748776321227877e-8,7.713578286109833e-9,1.8810839639341e-8,0
32161,3.8416121625098146e-7,5.5027918290996966e-8,2.872635900216683e-9,2.5299092612448857e-8,5.15930288820083e-8,1.0685498526285607e-8,7.713578286109833e-9,1.886655156412753e-8,0
32162,3.853692054547173e-7,5.487715256310848e-8,2.8613843721881923e-9,2.5278799326221107e-8,5.162986838924295e-8,1.0662901896897713e-8,7.736812963146192e-9,1.8868525373119124e-8,0
32163,3.8633046286324736e-7,5.486159963938804e-8,2.8623937115791398e-9,2.5276872946060175e-8,5.155925856367282e-8,1.0604270785306862e-8,7.742342409595458e-9,1.8869761654173524e-8,0
32164,3.856550870895766e-7,5.490101097737027e-8,2.8543899953907607e-9,2.513262352101449e-8,5.160129449577417e-8,1.0490927847875832e-8,7.755185554900416e-9,1.8807964211164722e-8,0
32165,3.8497971131590576e-7,5.494042231535249e-8,2.846386279202382e-9,2.4988374095968805e-8,5.164333042787551e-8,1.0377584910444802e-8,7.768028700205372e-9,1.8746166768155924e-8,0
32166,3.84304335542235e-7,5.497983365333471e-8,2.8383825630140035e-9,2.484412467092312e-8,5.168536635997686e-8,1.0264241973013771e-8,7.78087184551033e-9,1.8684369325147122e-8,0
32167,3.836289597685642e-7,5.501924499131694e-8,2.830378846825625e-9,2.4699875245877438e-8,5.172740229207821e-8,1.0150899035582741e-8,7.793714990815286e-9,1.8622571882138323e-8,0
32168,3.8295358399489345e-7,5.5058656329299166e-8,2.8223751306372462e-9,2.4555625820831754e-8,5.176943822417956e-8,1.003755609815171e-8,7.806558136120244e-9,1.856077443912952e-8,0
32169,3.822782082212227e-7,5.5098067667281385e-8,2.8143714144488676e-9,2.441137639578607e-8,5.1811474156280906e-8,9.92421316072068e-9,7.8194012814252e-9,1.849897699612072e-8,0
32170,3.816028324475519e-7,5.513747900526361e-8,2.806367698260489e-9,2.4267126970740387e-8,5.1853510088382255e-8,9.81087022328965e-9,7.832244426730158e-9,1.843717955311192e-8,0
32171,3.8092745667388114e-7,5.517689034324584e-8,2.7983639820721104e-9,2.4122877545694704e-8,5.1895546020483604e-8,9.69752728585862e-9,7.845087572035115e-9,1.837538211010312e-8,0
32172,3.8025208090021037e-7,5.5216301681228064e-8,2.7903602658837318e-9,2.397862812064902e-8,5.1937581952584946e-8,9.58418434842759e-9,7.857930717340072e-9,1.831358466709432e-8,0
32173,3.795767051265396e-7,5.5255713019210283e-08,2.782356549695353e-9,2.3834378695603333e-8,5.1979617884686295e-8,9.470841410996559e-9,7.870773862645029e-9,1.825178722408552e-8,0
32174,3.7890132935286883e-7,5.529512435719251e-8,2.7743528335069745e-9,2.369012927055765e-8,5.2021653816787643e-8,9.357498473565529e-9,7.883617007949987e-9,1.818998978107672e-8,0
32175,3.7822595357919806e-7,5.5334535695174736e-8,2.766349117318596e-9,2.3545879845511966e-8,5.206368974888899e-8,9.244155536134498e-9,7.896460153254943e-9,1.812819233806792e-8,0
32176,3.775505778055273e-7,5.537394703315696e-8,2.758345401130217e-9,2.3401630420466283e-8,5.210572568099034e-8,9.130812598703468e-9,7.9093032985599e-9,1.8066394895059117e-8,0
32177,3.768752020318565e-7,5.541335837113918e-8,2.7503416849418382e-9,2.32573809954206e-8,5.214776161309169e-8,9.017469661272437e-9,7.922146443864857e-9,1.800459745205032e-8,0
32178,3.761998262581857e-7,5.545276970912141e-8,2.7423379687534596e-9,2.3113131570374916e-8,5.218979754519304e-8,8.904126723841407e-9,7.934989589169815e-9,1.7942800009041517e-8,0
32179,3.7552445048451493e-7,5.5492181047103634e-8,2.734334252565081e-9,2.2968882145329232e-8,5.223183347729438e-8,8.790783786410377e-9,7.947832734474771e-9,1.788100256603272e-8,0
32180,3.7484907471084416e-7,5.553159238508586e-8,2.7263305363767024e-9,2.282463272028355e-8,5.227386940939573e-8,8.677440848979346e-9,7.960675879779729e-9,1.7819205123023917e-8,0
32181,3.741736989371734e-7,5.557100372306808e-8,2.7183268201883238e-9,2.2680383295237862e-8,5.231590534149708e-8,8.564097911548316e-9,7.973519025084685e-9,1.7757407680015115e-8,0
32182,3.734983231635026e-7,5.5610415061050306e-8,2.710323103999945e-9,2.2536133870192178e-8,5.235794127359843e-8,8.450754974117287e-9,7.986362170389643e-9,1.7695610237006317e-8,0
32183,3.7245843664251174e-7,5.581510175586353e-8,2.701553508400956e-9,2.250092380785309e-8,5.2369958238496716e-8,8.315591157293203e-9,7.994425514142406e-9,1.773156286839969e-8,0
32184,3.7337003836944067e-7,5.597285002739291e-8,2.676800146738276e-9,2.11671712007706e-8,5.217202999331487e-8,8.271173648512254e-9,8.011176400655075e-9,1.7827493094721315e-8,0
32185,3.742816400963696e-7,5.6130598298922294e-8,2.6520467850755962e-09,1.983341859368811e-8,5.197410174813302e-8,8.226756139731308e-9,8.027927287167744e-9,1.792342332104294e-8,0
32186,3.732174427930113e-7,5.616038612032417e-8,2.6408544228297728e-9,1.976407358343439e-8,5.2084287815861096e-8,8.23688566325002e-9,8.039564186470901e-9,1.7978052925686118e-8,0
32187,3.72153245489653e-7,5.619017394172606e-8,2.6296620605839497e-9,1.9694728573180672e-8,5.219447388358918e-8,8.24701518676873e-9,8.0512010857740585e-09,1.8032682530329295e-8,0
32188,3.710890481862947e-7,5.6219961763127935e-8,2.618469698338126e-9,1.9625383562926955e-8,5.230465995131726e-8,8.25714471028744e-9,8.062837985077216e-9,1.8087312134972472e-8,0
32189,3.700248508829364e-7,5.6249749584529814e-8,2.6072773360923027e-9,1.9556038552673234e-8,5.2414846019045344e-8,8.267274233806152e-9,8.074474884380373e-9,1.814194173961565e-8,0
32190,3.6896065357957804e-7,5.627953740593169e-8,2.596084973846479e-9,1.9486693542419517e-8,5.252503208677342e-8,8.277403757324864e-9,8.08611178368353e-9,1.8196571344258823e-8,0
32191,3.6789645627621973e-7,5.630932522733358e-8,2.5848926116006557e-9,1.9417348532165796e-8,5.263521815450151e-8,8.287533280843575e-9,8.097748682986687e-9,1.8251200948902e-8,0
32192,3.6683225897286143e-7,5.6339113048735455e-8,2.573700249354832e-9,1.934800352191208e-8,5.2745404222229586e-8,8.297662804362287e-9,8.109385582289844e-9,1.8305830553545177e-8,0
32193,3.6576806166950313e-7,5.6368900870137334e-8,2.5625078871090087e-9,1.927865851165836e-8,5.285559028995767e-8,8.307792327880998e-9,8.121022481593e-9,1.8360460158188354e-8,0
32194,3.652394886130137e-7,5.692268372103624e-8,2.5705826022365885e-9,1.9496618111818887e-8,5.277151842575497e-8,8.303864431825368e-9,8.133242438038326e-9,1.8351678969944142e-8,0
32195,3.647109155565243e-7,5.747646657193515e-8,2.578657317364168e-9,1.9714577711979413e-8,5.2687446561552275e-8,8.29993653576974e-9,8.145462394483651e-9,1.834289778169993e-8,0
32196,3.6418234250003483e-7,5.803024942283406e-8,2.586732032491747e-9,1.993253731213994e-8,5.2603374697349584e-8,8.29600863971411e-9,8.157682350928978e-9,1.8334116593455722e-8,0
32197,3.6365376944354543e-7,5.858403227373297e-8,2.594806747619327e-9,2.0150496912300467e-8,5.2519302833146887e-8,8.292080743658482e-9,8.169902307374304e-9,1.832533540521151e-8,0
32198,3.6405035138817845e-7,5.9032466956368435e-8,2.602798630651172e-9,2.029547847782996e-8,5.24789890919131e-8,8.278023324084142e-9,8.139727238709526e-9,1.822563272529498e-8,0
32199,3.6444693333281153e-7,5.948090163900389e-8,2.610790513683017e-9,2.044046004335946e-8,5.243867535067932e-8,8.263965904509801e-9,8.10955217004475e-9,1.8125930045378447e-8,0
32200,3.6484351527744455e-7,5.992933632163936e-8,2.6187823967148624e-9,2.0585441608888953e-8,5.2398361609445536e-8,8.249908484935461e-9,8.079377101379972e-9,1.8026227365461916e-8,0
32201,3.6524009722207763e-7,6.037777100427482e-8,2.6267742797467074e-9,2.073042317441845e-8,5.235804786821175e-8,8.235851065361121e-9,8.049202032715195e-9,1.7926524685545387e-8,0
32202,3.6563667916671065e-7,6.082620568691028e-8,2.6347661627785525e-9,2.0875404739947945e-8,5.231773412697797e-8,8.22179364578678e-9,8.019026964050419e-9,1.7826822005628856e-8,0
32203,3.660332611113437e-7,6.127464036954575e-8,2.642758045810398e-9,2.102038630547744e-8,5.2277420385744185e-8,8.20773622621244e-9,7.988851895385641e-9,1.7727119325712324e-8,0
32204,3.6642984305597675e-7,6.172307505218121e-8,2.650749928842243e-9,2.1165367871006937e-8,5.22371066445104e-8,8.1936788066381e-9,7.958676826720865e-9,1.7627416645795793e-8,0
32205,3.6682642500060977e-7,6.217150973481667e-8,2.6587418118740884e-9,2.131034943653643e-8,5.219679290327662e-8,8.17962138706376e-9,7.928501758056088e-9,1.752771396587926e-8,0
32206,3.6722300694524284e-7,6.261994441745214e-8,2.6667336949059334e-9,2.1455331002065925e-8,5.2156479162042834e-8,8.16556396748942e-9,7.898326689391312e-9,1.742801128596273e-8,0
32207,3.6761958888987587e-7,6.30683791000876e-8,2.6747255779377784e-9,2.1600312567595423e-8,5.211616542080905e-8,8.15150654791508e-9,7.868151620726534e-9,1.73283086060462e-8,0
32208,3.6801617083450894e-7,6.351681378272306e-8,2.682717460969624e-9,2.1745294133124917e-8,5.2075851679575266e-8,8.13744912834074e-9,7.837976552061756e-9,1.722860592612967e-8,0
32209,3.6841275277914196e-7,6.396524846535853e-8,2.690709344001469e-9,2.1890275698654412e-8,5.203553793834148e-8,8.123391708766399e-9,7.80780148339698e-9,1.7128903246213138e-8,0
32210,3.707403329183528e-7,6.404029037565714e-8,2.694455908958788e-9,2.1776363254488514e-8,5.1999065032878734e-8,8.107183093487668e-9,7.771558083448266e-9,1.7053984261245912e-8,0
32211,3.7306791305756366e-7,6.411533228595576e-8,2.698202473916107e-9,2.1662450810322612e-8,5.1962592127415986e-8,8.090974478208937e-9,7.735314683499554e-9,1.6979065276278685e-8,0
32212,3.753954931967745e-7,6.419037419625437e-8,2.7019490388734264e-9,2.154853836615671e-8,5.192611922195324e-8,8.074765862930206e-9,7.69907128355084e-9,1.6904146291311463e-8,0
32213,3.777230733359853e-7,6.426541610655297e-8,2.7056956038307455e-9,2.1434625921990813e-8,5.188964631649049e-8,8.058557247651475e-9,7.662827883602127e-9,1.6829227306344236e-8,0
32214,3.8005065347519613e-7,6.434045801685159e-8,2.7094421687880647e-9,2.132071347782491e-8,5.185317341102775e-8,8.042348632372744e-9,7.626584483653413e-9,1.675430832137701e-8,0
32215,3.8237823361440695e-7,6.44154999271502e-8,2.7131887337453834e-9,2.120680103365901e-8,5.1816700505565e-8,8.026140017094012e-9,7.5903410837047e-9,1.6679389336409787e-8,0
32216,3.8187252998485556e-7,6.510578066301669e-8,2.7497228397164956e-9,2.113382299902798e-8,5.1824454623924364e-8,8.022368304273947e-9,7.563281959338081e-9,1.6678965266865074e-8,0
32217,3.823639894089378e-7,6.491656023569832e-8,2.7397241110592888e-9,2.0993485803131085e-8,5.176826604419994e-8,8.02187127321773e-9,7.521676710842515e-9,1.6591296272193218e-8,0
32218,3.8191648432176275e-7,6.472733980837994e-8,2.7364762992191768e-9,2.113846736866058e-8,5.243772065545838e-8,8.026141739155004e-9,7.47919839185496e-9,1.649157238879945e-8,0
32219,3.8030004377661596e-7,6.390610118282127e-8,2.7153798735684144e-9,2.1415934181346472e-8,5.302055845131074e-8,7.956005658335892e-9,7.478491909117875e-9,1.647966592441819e-8,0
32220,3.80429477074724e-7,6.383116069133256e-8,2.715450872507615e-9,2.1656982852995283e-8,5.364719274130668e-8,7.96448273926742e-9,7.469971964260386e-9,1.646775946003693e-8,0
32221,3.8055891037283206e-7,6.375622019984385e-8,2.715521871446816e-9,2.1898031524644093e-8,5.427382703130262e-8,7.972959820198947e-9,7.461452019402894e-9,1.645585299565567e-8,0
32222,3.7733480091767343e-7,6.326098445955509e-8,2.7042821765748588e-9,2.218141474242858e-8,5.4979754548023806e-8,7.984647731951306e-9,7.461659749022771e-9,1.6453879186664076e-8,0
32223,3.7411069146251474e-7,6.276574871926632e-8,2.6930424817029013e-9,2.246479796021306e-8,5.568568206474499e-8,7.996335643703665e-9,7.461867478642648e-9,1.6451905377672483e-8,0
32224,3.708865820073561e-7,6.227051297897755e-8,2.681802786830944e-9,2.2748181177997546e-8,5.639160958146618e-8,8.008023555456023e-9,7.462075208262525e-9,1.644993156868089e-8,0
32225,3.676624725521974e-7,6.177527723868878e-8,2.670563091958987e-9,2.3031564395782028e-8,5.709753709818737e-8,8.019711467208382e-9,7.462282937882404e-9,1.6447957759689298e-8,0
32226,3.644383630970388e-7,6.128004149840002e-8,2.6593233970870294e-9,2.3314947613566514e-8,5.780346461490856e-8,8.031399378960741e-9,7.46249066750228e-9,1.6445983950697708e-8,0
32227,3.612142536418801e-7,6.078480575811125e-8,2.648083702215072e-9,2.3598330831350996e-8,5.8509392131629744e-8,8.043087290713102e-9,7.462698397122158e-9,1.6444010141706115e-8,0
32228,3.5799014418672146e-7,6.02895700178225e-8,2.636844007343115e-9,2.388171404913548e-8,5.921531964835094e-8,8.054775202465461e-9,7.462906126742035e-9,1.6442036332714523e-8,0
32229,3.547660347315628e-7,5.979433427753373e-8,2.6256043124711575e-9,2.4165097266919967e-8,5.992124716507212e-8,8.06646311421782e-9,7.463113856361912e-9,1.644006252372293e-8,0
32230,3.5154192527640414e-7,5.929909853724495e-8,2.6143646175992e-9,2.444848048470445e-8,6.062717468179331e-8,8.078151025970179e-9,7.463321585981789e-9,1.6438088714731337e-8,0
32231,3.4831781582124545e-7,5.880386279695619e-8,2.603124922727243e-9,2.4731863702488934e-8,6.13331021985145e-8,8.089838937722538e-9,7.463529315601666e-9,1.6436114905739744e-8,0
32232,3.4509370636608676e-7,5.8308627056667424e-8,2.5918852278552856e-9,2.5015246920273416e-8,6.203902971523568e-8,8.101526849474897e-9,7.463737045221543e-9,1.643414109674815e-8,0
32233,3.4186959691092813e-7,5.7813391316378656e-8,2.580645532983328e-9,2.5298630138057902e-8,6.274495723195688e-8,8.113214761227256e-9,7.463944774841421e-9,1.643216728775656e-8,0
32234,3.3864548745576944e-7,5.731815557608989e-8,2.569405838111371e-9,2.5582013355842384e-8,6.345088474867807e-8,8.124902672979615e-9,7.464152504461298e-9,1.643019347876497e-8,0
32235,3.354213780006108e-7,5.682291983580112e-8,2.5581661432394136e-9,2.586539657362687e-8,6.415681226539925e-8,8.136590584731975e-9,7.464360234081175e-9,1.6428219669773377e-8,0
32236,3.321972685454521e-7,5.6327684095512353e-8,2.546926448367456e-9,2.614877979141135e-8,6.486273978212044e-8,8.148278496484334e-9,7.464567963701052e-9,1.6426245860781784e-8,0
32237,3.298149216524278e-7,5.6263207577762115e-8,2.532937694772594e-9,2.616799777561582e-8,6.48518695126232e-8,8.203824757079399e-9,7.5061711919016e-9,1.6428065708862333e-8,0
32238,3.274325747594034e-7,5.619873106001188e-8,2.5189489411777316e-9,2.6187215759820288e-8,6.484099924312593e-8,8.259371017674463e-9,7.547774420102148e-9,1.6429885556942882e-8,0
32239,3.25050227866379e-7,5.613425454226164e-8,2.504960187582869e-9,2.6206433744024757e-8,6.483012897362868e-8,8.314917278269527e-9,7.589377648302695e-9,1.643170540502343e-8,0
32240,3.226678809733547e-7,5.6069778024511394e-8,2.4909714339880066e-9,2.6225651728229222e-8,6.481925870413142e-8,8.370463538864592e-9,7.630980876503243e-9,1.643352525310398e-8,0
32241,3.202855340803303e-7,5.6005301506761155e-8,2.476982680393144e-9,2.624486971243369e-8,6.480838843463418e-8,8.426009799459656e-9,7.67258410470379e-9,1.6435345101184526e-8,0
32242,3.169319913270636e-7,5.558660885698406e-8,2.457739269332808e-9,2.6258697535099697e-8,6.518834023424322e-8,8.42329772175603e-9,7.676740717396353e-9,1.6489401269138e-8,0
32243,3.1357844857379686e-7,5.5167916207206964e-8,2.438495858272472e-9,2.6272525357765704e-8,6.556829203385228e-8,8.420585644052405e-9,7.680897330088913e-9,1.6543457437091475e-8,0
32244,3.135164567639767e-7,5.524187395504557e-8,2.438495858272472e-9,2.6211000317868485e-8,6.562596835401767e-8,8.406744814534664e-9,7.654421262864461e-9,1.656943500614071e-8,0
32245,3.134544649541565e-7,5.5315831702884185e-8,2.438495858272472e-9,2.6149475277971266e-8,6.568364467418305e-8,8.392903985016922e-9,7.627945195640012e-9,1.6595412575189945e-8,0
32246,3.1339247314433627e-7,5.538978945072279e-8,2.438495858272472e-9,2.6087950238074047e-8,6.574132099434844e-8,8.37906315549918e-9,7.60146912841556e-9,1.6621390144239178e-8,0
32247,3.133304813345161e-7,5.54637471985614e-8,2.438495858272472e-9,2.602642519817683e-8,6.579899731451382e-8,8.365222325981439e-9,7.574993061191109e-9,1.6647367713288415e-8,0
32248,3.1326848952469585e-7,5.5537704946400006e-8,2.438495858272472e-9,2.596490015827961e-8,6.585667363467922e-8,8.351381496463698e-9,7.548516993966659e-9,1.6673345282337648e-8,0
32249,3.1320649771487567e-7,5.561166269423862e-8,2.438495858272472e-9,2.590337511838239e-8,6.59143499548446e-8,8.337540666945956e-9,7.522040926742207e-9,1.669932285138688e-8,0
32250,3.131445059050555e-7,5.5685620442077226e-8,2.438495858272472e-9,2.5841850078485172e-8,6.597202627500999e-8,8.323699837428215e-9,7.495564859517758e-9,1.6725300420436115e-8,0
32251,3.1308251409523526e-7,5.5759578189915833e-8,2.438495858272472e-9,2.5780325038587953e-8,6.602970259517537e-8,8.309859007910473e-9,7.469088792293306e-9,1.675127798948535e-8,0
32252,3.103943629186756e-7,5.574281850068916e-8,2.4355388390388304e-9,2.5783981065467112e-8,6.642732816649195e-8,8.303501197211828e-9,7.457618480745054e-9,1.6791501827590837e-8,0
32253,3.0770621174211586e-7,5.5726058811462484e-8,2.432581819805189e-9,2.5787637092346274e-8,6.682495373780854e-8,8.297143386513182e-9,7.4461481691968026e-9,1.6831725665696325e-8,0
32254,3.050180605655562e-7,5.5709299122235806e-8,2.4296248005715475e-9,2.5791293119225433e-8,6.722257930912512e-8,8.290785575814537e-9,7.434677857648551e-9,1.687194950380181e-8,0
32255,3.023299093889965e-7,5.5692539433009135e-8,2.4266677813379062e-9,2.579494914610459e-8,6.76202048804417e-8,8.284427765115892e-9,7.4232075461003e-9,1.6912173341907296e-8,0
32256,2.9961168660211787e-7,5.6090397213186896e-8,2.4266677813379062e-9,2.5780855957687983e-8,6.76340378163782e-8,8.29723916292771e-9,7.478942449337548e-9,1.6900076046230916e-8,0
32257,3.0069163809868266e-7,5.599790878550891e-8,2.4428476747557995e-9,2.601888480778945e-8,6.763172309222278e-8,8.2911919966392e-9,7.583097546808846e-9,1.7004496148685848e-8,0
32258,3.0177158959524746e-7,5.5905420357830926e-8,2.459027568173693e-9,2.625691365789092e-8,6.762940836806737e-8,8.285144830350689e-9,7.687252644280144e-9,1.710891625114078e-8,0
32259,3.0285154109181225e-7,5.581293193015294e-8,2.475207461591586e-9,2.649494250799239e-8,6.762709364391197e-8,8.279097664062178e-9,7.791407741751441e-9,1.7213336353595715e-8,0
32260,3.0393149258837705e-7,5.572044350247496e-8,2.4913873550094794e-9,2.6732971358093858e-8,6.762477891975655e-8,8.273050497773667e-9,7.895562839222739e-9,1.7317756456050647e-8,0
32261,3.050114440849419e-7,5.5627955074796976e-8,2.5075672484273723e-9,2.697100020819533e-8,6.762246419560113e-8,8.267003331485156e-9,7.999717936694036e-9,1.742217655850558e-8,0
32262,3.060913955815067e-7,5.553546664711899e-8,2.5237471418452656e-9,2.7209029058296796e-8,6.762014947144573e-8,8.260956165196645e-9,8.103873034165334e-9,1.752659666096051e-8,0
32263,3.071713470780715e-7,5.5442978219441006e-8,2.539927035263159e-9,2.7447057908398267e-8,6.761783474729031e-8,8.254908998908134e-9,8.208028131636633e-9,1.7631016763415446e-8,0
32264,3.082512985746363e-7,5.535048979176302e-8,2.556106928681052e-9,2.7685086758499737e-8,6.76155200231349e-8,8.248861832619623e-9,8.31218322910793e-9,1.7735436865870377e-8,0
32265,3.0933125007120107e-7,5.525800136408504e-8,2.5722868220989455e-9,2.7923115608601204e-8,6.761320529897948e-8,8.242814666331112e-9,8.416338326579228e-9,1.783985696832531e-8,0
32266,3.1041120156776587e-7,5.5165512936407055e-8,2.5884667155168388e-9,2.8161144458702675e-8,6.761089057482408e-8,8.236767500042603e-9,8.520493424050526e-9,1.794427707078024e-8,0
32267,3.1149115306433066e-7,5.507302450872907e-8,2.604646608934732e-9,2.8399173308804146e-8,6.760857585066866e-8,8.230720333754092e-9,8.624648521521823e-9,1.8048697173235176e-8,0
32268,3.1422135964959774e-7,5.5066673162974484e-8,2.623807187899334e-9,2.8597841804511233e-8,6.719033510240527e-8,8.13798073530312e-9,8.738404363962479e-9,1.8069623600680632e-8,0
32269,3.132651538300225e-7,5.5064133608844935e-8,2.7037260182177858e-9,2.9326213413536238e-8,6.68206439290309e-8,8.087294303994087e-9,8.813925834575628e-9,1.8225785863657337e-8,0
32270,3.1329808983866896e-7,5.5056830545399446e-8,2.718653112264395e-9,2.9610745241191796e-8,6.64087548199459e-8,7.988164969372961e-9,8.807899655304172e-9,1.817497665613393e-8,0
32271,3.131408910921947e-7,5.517425170807634e-8,2.7298454745102183e-9,2.9570835828334266e-8,6.620091966370518e-8,7.895114726511854e-9,8.806030088725278e-9,1.808435201314291e-8,0
32272,3.129836923457204e-7,5.5291672870753236e-8,2.7410378367560414e-9,2.9530926415476732e-8,6.599308450746445e-8,7.802064483650745e-9,8.804160522146383e-9,1.7993727370151887e-8,0
32273,3.128264935992461e-7,5.5409094033430134e-8,2.752230199001865e-9,2.94910170026192e-8,6.578524935122374e-8,7.709014240789639e-9,8.802290955567489e-9,1.7903102727160865e-8,0
32274,3.1266929485277185e-7,5.552651519610703e-8,2.7634225612476884e-9,2.9451107589761666e-8,6.557741419498303e-8,7.615963997928532e-9,8.800421388988595e-9,1.7812478084169844e-8,0
32275,3.1251209610629757e-7,5.5643936358783924e-8,2.774614923493512e-9,2.9411198176904133e-8,6.536957903874231e-8,7.522913755067425e-9,8.7985518224097e-9,1.7721853441178822e-8,0
32276,3.130746118363386e-7,5.5643936358783924e-8,2.7665402083659326e-9,2.929417427638115e-8,6.544860366724493e-8,7.528057469475058e-9,8.790197455159606e-9,1.772979108409966e-8,0
32277,3.1229269049921884e-7,5.569358272778706e-8,2.7784747837092996e-9,2.929417427638115e-8,6.533497321778172e-8,7.534136561235078e-9,8.794354067852166e-9,1.7689678799950748e-8,0
32278,3.115107691620991e-7,5.574322909679019e-8,2.790409359052667e-9,2.929417427638115e-8,6.52213427683185e-8,7.540215652995097e-9,8.798510680544728e-9,1.7649566515801835e-8,0
32279,3.1072884782497936e-7,5.579287546579333e-8,2.802343934396034e-9,2.929417427638115e-8,6.51077123188553e-8,7.546294744755118e-9,8.80266729323729e-9,1.7609454231652918e-8,0
32280,3.099469264878596e-7,5.584252183479646e-8,2.814278509739401e-9,2.929417427638115e-8,6.499408186939208e-8,7.552373836515137e-9,8.80682390592985e-9,1.7569341947504005e-8,0
32281,3.0916500515073983e-7,5.589216820379959e-8,2.8262130850827684e-9,2.929417427638115e-8,6.488045141992887e-8,7.558452928275157e-9,8.810980518622412e-9,1.752922966335509e-8,0
32282,3.083830838136201e-7,5.594181457280273e-8,2.8381476604261354e-9,2.929417427638115e-8,6.476682097046567e-8,7.564532020035176e-9,8.815137131314972e-9,1.7489117379206175e-8,0
32283,3.0760116247650035e-7,5.599146094180586e-8,2.850082235769503e-9,2.929417427638115e-8,6.465319052100245e-8,7.570611111795197e-9,8.819293744007534e-9,1.744900509505726e-8,0
32284,3.068192411393806e-7,5.604110731080899e-8,2.86201681111287e-9,2.929417427638115e-8,6.453956007153925e-8,7.576690203555217e-9,8.823450356700095e-9,1.7408892810908348e-8,0
32285,3.060373198022608e-7,5.6090753679812126e-8,2.873951386456237e-9,2.929417427638115e-8,6.442592962207604e-8,7.582769295315236e-9,8.827606969392657e-9,1.7368780526759434e-8,0
32286,3.052553984651411e-7,5.614040004881526e-8,2.8858859617996043e-9,2.929417427638115e-8,6.431229917261282e-8,7.588848387075257e-9,8.831763582085217e-9,1.7328668242610518e-8,0
32287,3.0447347712802134e-7,5.6190046417818394e-8,2.8978205371429713e-9,2.929417427638115e-8,6.419866872314962e-8,7.594927478835277e-9,8.835920194777779e-9,1.7288555958461604e-8,0
32288,3.036915557909016e-7,5.6239692786821525e-8,2.9097551124863387e-9,2.929417427638115e-8,6.40850382736864e-8,7.601006570595296e-9,8.840076807470339e-9,1.724844367431269e-8,0
32289,3.0290963445378186e-7,5.6289339155824655e-8,2.9216896878297057e-9,2.929417427638115e-8,6.397140782422319e-8,7.607085662355317e-9,8.844233420162901e-9,1.7208331390163774e-8,0
32290,3.0136306509991595e-7,5.628241716331158e-8,2.9237083666116006e-9,2.939843200483936e-8,6.368356334768813e-8,7.615876831818962e-9,8.848390032855461e-9,1.7447944921195483e-8,0
32291,2.998164957460501e-7,5.6275495170798504e-8,2.9257270453934956e-9,2.9502689733297565e-8,6.339571887115306e-8,7.624668001282607e-9,8.852546645548023e-9,1.768755845222719e-8,0
32292,3.008420282441069e-7,5.6286121114474704e-8,2.9614648087912624e-9,3.0386818742987914e-8,6.36236575646273e-8,7.660205452429347e-9,8.974161132564092e-9,1.8166700700381663e-8,0
32293,3.0186756074216363e-7,5.6296747058150896e-8,2.997202572189029e-9,3.127094775267826e-8,6.385159625810157e-8,7.695742903576088e-9,9.095775619580161e-9,1.8645842948536134e-8,0
32294,3.0289309324022043e-7,5.630737300182709e-8,3.0329403355867957e-9,3.21550767623686e-8,6.407953495157581e-8,7.73128035472283e-9,9.21739010659623e-9,1.912498519669061e-8,0
32295,3.039186257382772e-7,5.631799894550329e-8,3.0686780989845626e-9,3.303920577205895e-8,6.430747364505006e-8,7.76681780586957e-9,9.3390045936123e-9,1.960412744484508e-8,0
32296,3.04944158236334e-7,5.632862488917948e-8,3.1044158623823295e-9,3.392333478174929e-8,6.453541233852432e-8,7.802355257016312e-9,9.460619080628369e-9,2.0083269692999554e-8,0
32297,3.059696907343908e-7,5.633925083285568e-8,3.1401536257800963e-9,3.4807463791439634e-8,6.476335103199856e-8,7.837892708163053e-9,9.582233567644438e-9,2.0562411941154025e-8,0
32298,3.0835946858034554e-7,5.637367956052727e-8,3.1739082098655686e-9,3.5526409396583656e-8,6.530897412778031e-8,7.690795908180486e-9,9.67932686818742e-9,2.1081666473457413e-8,0
32299,3.1046886938345126e-7,5.645698117282371e-8,3.17405020774397e-9,3.642515783825074e-8,6.585863413858505e-8,7.71433135904275e-9,9.794915175932034e-9,2.1567828135636858e-8,0
32300,3.1257827018655703e-7,5.6540282785120145e-8,3.174192205622372e-9,3.732390627991782e-8,6.640829414938977e-8,7.737866809905013e-9,9.910503483676647e-9,2.2053989797816306e-8,0
32301,3.146876709896628e-7,5.662358439741659e-8,3.1743342035007733e-9,3.8222654721584906e-8,6.69579541601945e-8,7.761402260767279e-9,1.002609179142126e-8,2.2540151459995755e-8,0
32302,3.167970717927685e-7,5.670688600971302e-8,3.1744762013791748e-9,3.912140316325199e-8,6.750761417099924e-8,7.784937711629542e-9,1.0141680099165874e-8,2.30263131221752e-8,0
32303,3.189064725958743e-7,5.6790187622009464e-8,3.1746181992575766e-9,4.002015160491908e-8,6.805727418180396e-8,7.808473162491806e-9,1.0257268406910487e-8,2.3512474784354648e-8,0
32304,3.2101587339898006e-7,5.6873489234305906e-8,3.174760197135978e-9,4.091890004658616e-8,6.86069341926087e-8,7.832008613354071e-9,1.03728567146551e-8,2.3998636446534093e-8,0
32305,3.231252742020858e-7,5.695679084660234e-8,3.17490219501438e-9,4.181764848825324e-8,6.915659420341343e-8,7.855544064216335e-9,1.0488445022399714e-8,2.448479810871354e-8,0
32306,3.2523467500519154e-7,5.704009245889878e-8,3.1750441928927814e-9,4.2716396929920326e-8,6.970625421421815e-8,7.8790795150786e-9,1.0604033330144327e-8,2.497095977089299e-8,0
32307,3.2734407580829726e-7,5.712339407119522e-8,3.175186190771183e-9,4.361514537158741e-8,7.025591422502289e-8,7.902614965940864e-9,1.071962163788894e-8,2.5457121433072434e-8,0
32308,3.2945347661140303e-7,5.720669568349166e-8,3.1753281886495847e-9,4.45138938132545e-8,7.080557423582761e-8,7.926150416803128e-9,1.0835209945633554e-8,2.5943283095251883e-8,0
32309,3.315628774145088e-7,5.7289997295788095e-8,3.175470186527986e-9,4.541264225492158e-8,7.135523424663235e-8,7.949685867665393e-9,1.0950798253378167e-8,2.642944475743133e-8,0
32310,3.336722782176145e-7,5.737329890808454e-8,3.175612184406388e-9,4.631139069658866e-8,7.190489425743708e-8,7.973221318527657e-9,1.1066386561122781e-8,2.6915606419610776e-8,0
32311,3.357816790207203e-7,5.745660052038098e-8,3.1757541822847894e-9,4.721013913825575e-8,7.24545542682418e-8,7.99675676938992e-9,1.1181974868867394e-8,2.7401768081790224e-8,0
32312,3.3789107982382606e-7,5.7539902132677414e-8,3.1758961801631913e-9,4.810888757992283e-8,7.300421427904654e-8,8.020292220252186e-9,1.1297563176612007e-8,2.788792974396967e-8,0
32313,3.3831778828270026e-7,5.778589375913179e-8,3.1440233132880782e-9,4.8288690416445896e-8,7.301428312156131e-8,8.0989053820028245e-09,1.129174472696043e-8,2.78817059317432e-8,0
32314,3.3858979176068625e-7,5.798425029242676e-8,3.112150446412965e-9,4.829960351619753e-8,7.3301044830602e-8,8.091017664420059e-9,1.1286009571186302e-8,2.803491348920508e-8,0
32315,3.3886179523867224e-7,5.818260682572173e-8,3.080277579537852e-9,4.8310516615949164e-8,7.358780653964266e-8,8.083129946837291e-9,1.1280274415412177e-8,2.8188121046666962e-8,0
32316,3.3913379871665817e-7,5.838096335901669e-8,3.048404712662739e-9,4.83214297157008e-8,7.387456824868333e-8,8.075242229254523e-9,1.1274539259638052e-8,2.8341328604128843e-8,0
32317,3.3940580219464416e-7,5.857931989231166e-8,3.016531845787626e-9,4.833234281545243e-8,7.416132995772401e-8,8.067354511671758e-9,1.1268804103863925e-8,2.849453616159072e-8,0
32318,3.399208128375102e-7,5.696148096148642e-8,2.9485289608063405e-9,4.817663572013304e-8,7.4449455774771e-8,8.055260179094736e-9,1.1249270448562909e-8,2.8546364078825776e-8,0
32319,3.404358234803763e-7,5.534364203066118e-8,2.880526075825055e-9,4.802092862481364e-8,7.473758159181798e-8,8.043165846517714e-9,1.1229736793261893e-8,2.859819199606083e-8,0
32320,3.413182550189517e-7,5.55219519413194e-8,2.884248974469307e-9,4.7997409432516044e-8,7.502448397111461e-8,8.04089039304927e-9,1.121440089251841e-8,2.8787224964052673e-8,0
32321,3.4220068655752707e-7,5.5700261851977624e-8,2.8879718731135593e-9,4.797389024021845e-8,7.531138635041125e-8,8.038614939580824e-9,1.1199064991774927e-8,2.8976257932044512e-8,0
32322,3.4308311809610246e-7,5.5878571762635854e-8,2.8916947717578112e-9,4.7950371047920854e-8,7.559828872970788e-8,8.03633948611238e-9,1.1183729091031444e-8,2.9165290900036355e-8,0
32323,3.4396554963467785e-7,5.605688167329408e-8,2.8954176704020636e-9,4.7926851855623256e-8,7.588519110900451e-8,8.034064032643935e-9,1.116839319028796e-8,2.9354323868028194e-8,0
32324,3.4484798117325323e-7,5.62351915839523e-8,2.8991405690463156e-9,4.7903332663325664e-8,7.617209348830115e-8,8.031788579175489e-9,1.1153057289544479e-8,2.9543356836020036e-8,0
32325,3.457304127118286e-7,5.6413501494610524e-8,2.902863467690568e-9,4.7879813471028066e-8,7.645899586759777e-8,8.029513125707045e-9,1.1137721388800996e-8,2.9732389804011875e-8,0
32326,3.46612844250404e-7,5.6591811405268754e-8,2.90658636633482e-9,4.785629427873047e-8,7.674589824689441e-8,8.0272376722386e-9,1.1122385488057513e-8,2.992142277200372e-8,0
32327,3.474952757889794e-7,5.677012131592698e-8,2.9103092649790723e-9,4.783277508643287e-8,7.703280062619104e-8,8.024962218770154e-9,1.110704958731403e-8,3.011045573999556e-8,0
32328,3.4837770732755483e-7,5.69484312265852e-8,2.9140321636233243e-9,4.780925589413528e-8,7.731970300548768e-8,8.02268676530171e-9,1.1091713686570546e-8,3.0299488707987396e-8,0
32329,3.492601388661302e-7,5.7126741137243424e-8,2.9177550622675767e-9,4.778573670183768e-8,7.76066053847843e-8,8.020411311833266e-9,1.1076377785827063e-8,3.048852167597924e-8,0
32330,3.501425704047056e-7,5.7305051047901654e-8,2.9214779609118286e-9,4.776221750954008e-8,7.789350776408094e-8,8.01813585836482e-9,1.106104188508358e-8,3.067755464397108e-8,0
32331,3.5108538767628466e-7,5.7598012123599075e-8,2.9234966396937236e-9,4.774240464946759e-8,7.789228432633058e-8,8.284342321067312e-9,1.1046495760954634e-8,3.068351847790033e-8,0
32332,3.5202820494786376e-7,5.78909731992965e-8,2.9255153184756185e-9,4.7722591789395103e-8,7.789106088858023e-8,8.550548783769803e-9,1.1031949636825688e-8,3.0689482311829574e-8,0
32333,3.5119037749712443e-7,5.754310841302423e-8,2.9267917841599695e-9,4.7648904429183284e-8,7.786683939844237e-8,8.787607531495709e-9,1.1030910988726302e-8,3.067679591255665e-8,0
32334,3.51985467756931e-7,5.775514888068789e-8,2.928798629785331e-9,4.7664374939297675e-8,7.76729352538408e-8,9.04449214614584e-9,1.0975257359071489e-8,3.043324030011215e-8,0
32335,3.5278055801673756e-7,5.796718934835156e-8,2.9308054754106922e-9,4.7679845449412065e-8,7.747903110923925e-8,9.301376760795971e-9,1.0919603729416674e-8,3.0189684687667655e-8,0
32336,3.5357564827654414e-7,5.817922981601522e-8,2.9328123210360536e-9,4.7695315959526456e-8,7.728512696463769e-8,9.558261375446102e-9,1.0863950099761861e-8,2.994612907522316e-8,0
32337,3.5437073853635073e-7,5.839127028367888e-8,2.9348191666614153e-9,4.7710786469640846e-8,7.709122282003614e-8,9.815145990096233e-9,1.0808296470107046e-8,2.9702573462778662e-8,0
32338,3.5516582879615727e-7,5.860331075134255e-8,2.9368260122867767e-9,4.772625697975524e-8,7.689731867543457e-8,1.0072030604746365e-8,1.0752642840452233e-8,2.9459017850334164e-8,0
32339,3.5596091905596385e-7,5.881535121900621e-8,2.938832857912138e-9,4.774172748986963e-8,7.670341453083302e-8,1.0328915219396496e-8,1.069698921079742e-8,2.9215462237889665e-8,0
32340,3.5581221284086775e-7,5.87147045081403e-8,2.9425912560259903e-9,4.774385976695424e-8,7.652433230949171e-8,1.031342194729157e-8,1.0761869268046807e-8,2.9008787616070856e-8,0
32341,3.5566350662577165e-07,5.861405779727439e-8,2.946349654139843e-9,4.774599204403886e-8,7.63452500881504e-8,1.0297928675186644e-8,1.0826749325296197e-8,2.8802112994252043e-8,0
32342,3.555148004106756e-7,5.8513411086408476e-8,2.950108052253696e-9,4.7748124321123476e-8,7.61661678668091e-8,1.0282435403081718e-8,1.0891629382545584e-8,2.8595438372433233e-8,0
32343,3.553660941955795e-7,5.8412764375542565e-8,2.953866450367548e-9,4.775025659820809e-8,7.598708564546778e-8,1.0266942130976792e-8,1.0956509439794974e-8,2.838876375061442e-8,0
32344,3.552173879804834e-7,5.8312117664676654e-8,2.957624848481401e-9,4.775238887529271e-8,7.580800342412647e-8,1.0251448858871866e-8,1.1021389497044361e-8,2.818208912879561e-8,0
32345,3.550686817653873e-7,5.821147095381074e-8,2.9613832465952532e-9,4.775452115237732e-8,7.562892120278517e-8,1.023595558676694e-8,1.108626955429375e-8,2.79754145069768e-8,0
32346,3.5491997555029117e-7,5.811082424294483e-8,2.965141644709106e-9,4.775665342946194e-8,7.544983898144385e-8,1.0220462314662015e-8,1.1151149611543138e-8,2.7768739885157988e-8,0
32347,3.550187561242695e-7,5.802459066307297e-8,2.973828408212361e-9,4.776056565861072e-8,7.537619826599581e-8,1.0207088312789971e-8,1.1098238618959209e-8,2.7555045849314204e-8,0
32348,3.5511753669824783e-07,5.793835708320111e-8,2.982515171715616e-9,4.7764477887759516e-8,7.530255755054778e-8,1.0193714310917927e-8,1.1045327626375278e-8,2.7341351813470417e-8,0
32349,3.555540051590615e-7,5.7901632506701845e-8,2.9862735698294687e-9,4.785493977193571e-8,7.518892280555255e-8,1.0198481807911416e-8,1.1004220120849411e-8,2.7085910940121894e-8,0
32350,3.5599047361987525e-7,5.7864907930202585e-8,2.990031967943321e-9,4.794540165611191e-8,7.507528806055731e-8,1.0203249304904904e-8,1.0963112615323544e-8,2.683047006677337e-8,0
32351,3.5642694208068893e-7,5.782818335370332e-8,2.9937903660571738e-9,4.8035863540288105e-8,7.496165331556208e-8,1.0208016801898393e-8,1.0922005109797677e-8,2.6575029193424848e-8,0
32352,3.5686341054150267e-7,5.779145877720405e-8,2.9975487641710265e-9,4.812632542446431e-8,7.484801857056683e-8,1.0212784298891882e-8,1.088089760427181e-8,2.6319588320076325e-8,0
32353,3.5676273562347014e-7,5.784835750024773e-8,2.992549399842423e-9,4.8214655031555886e-8,7.442319602823047e-8,1.0227184288347864e-8,1.089561031615566e-8,2.631960952355356e-8,0
32354,3.5457088954378284e-7,5.7225746719174254e-8,2.9403646167333594e-9,4.794392821166331e-8,7.438423358056032e-8,1.0238499426808063e-8,1.0908867910552862e-8,2.6315837069958655e-8,0
32355,3.5500646116196654e-7,5.7292798737874684e-8,2.9403646167333594e-9,4.8028542323048816e-8,7.44169040214267e-8,1.0222695510293003e-8,1.0922125504950064e-8,2.630380338471398e-8,0
32356,3.554420327801502e-7,5.7359850756575107e-8,2.9403646167333594e-9,4.811315643443432e-8,7.444957446229307e-8,1.0206891593777943e-8,1.0935383099347266e-8,2.6291769699469307e-8,0
32357,3.558776043983339e-7,5.7426902775275536e-8,2.9403646167333594e-9,4.819777054581982e-8,7.448224490315944e-8,1.0191087677262881e-8,1.094864069374447e-8,2.627973601422463e-8,0
32358,3.5631317601651754e-7,5.7493954793975965e-8,2.9403646167333594e-9,4.8282384657205325e-8,7.451491534402582e-8,1.0175283760747821e-8,1.0961898288141673e-8,2.626770232897996e-8,0
32359,3.5674874763470124e-7,5.7561006812676395e-8,2.9403646167333594e-9,4.8366998768590826e-8,7.454758578489219e-8,1.0159479844232761e-8,1.0975155882538875e-8,2.6255668643735283e-8,0
32360,3.571843192528849e-7,5.7628058831376824e-8,2.9403646167333594e-9,4.8451612879976326e-8,7.458025622575857e-8,1.0143675927717701e-8,1.0988413476936077e-8,2.6243634958490607e-8,0
32361,3.576198908710686e-7,5.7695110850077247e-8,2.9403646167333594e-9,4.853622699136183e-8,7.461292666662494e-8,1.012787201120264e-8,1.100167107133328e-8,2.6231601273245935e-8,0
32362,3.5805546248925223e-7,5.7762162868777676e-8,2.9403646167333594e-9,4.8620841102747335e-8,7.464559710749131e-8,1.011206809468758e-8,1.1014928665730481e-8,2.621956758800126e-8,0
32363,3.5849103410743593e-7,5.7829214887478105e-8,2.9403646167333594e-9,4.8705455214132835e-8,7.467826754835769e-8,1.009626417817252e-8,1.1028186260127684e-8,2.6207533902756587e-8,0
32364,3.589266057256196e-7,5.7896266906178535e-8,2.9403646167333594e-9,4.8790069325518336e-8,7.471093798922406e-8,1.008046026165746e-8,1.1041443854524886e-8,2.619550021751191e-8,0
32365,3.593621773438033e-7,5.796331892487896e-8,2.9403646167333594e-9,4.887468343690384e-8,7.474360843009043e-8,1.0064656345142398e-8,1.105470144892209e-8,2.6183466532267235e-8,0
32366,3.5979774896198693e-7,5.803037094357939e-8,2.9403646167333594e-9,4.8959297548289344e-8,7.477627887095681e-8,1.0048852428627338e-8,1.1067959043319292e-8,2.6171432847022563e-8,0
32367,3.603447209798908e-7,5.800178988768374e-8,2.9421161692218504e-9,4.9030083837008835e-8,7.48551841625568e-8,9.997789779904162e-9,1.1079429354867543e-8,2.6155647911660217e-8,0
32368,3.6030897548164926e-7,5.7916905359810095e-8,2.940863369850566e-9,4.9074582638613126e-08,7.492454069811258e-8,9.942456665243714e-9,1.118437321880587e-8,2.6159707083599975e-8,0
32369,3.612432224308715e-7,5.794640368736658e-8,2.9475432877284598e-9,4.9067151647200965e-8,7.559532104620268e-8,9.871974570420975e-9,1.1235701627718198e-8,2.6287557509422848e-8,0
32370,3.6217746938009376e-7,5.797590201492308e-8,2.9542232056063534e-9,4.9059720655788804e-8,7.626610139429278e-8,9.801492475598236e-9,1.1287030036630527e-8,2.641540793524572e-8,0
32371,3.63111716329316e-7,5.800540034247957e-8,2.960903123484247e-9,4.905228966437665e-8,7.693688174238287e-8,9.731010380775497e-9,1.1338358445542858e-8,2.654325836106859e-8,0
32372,3.640459632785382e-7,5.803489867003606e-8,2.9675830413621408e-9,4.904485867296449e-8,7.760766209047297e-8,9.660528285952757e-9,1.1389686854455187e-8,2.6671108786891463e-8,0
32373,3.649802102277605e-7,5.8064396997592554e-8,2.9742629592400344e-9,4.903742768155233e-8,7.827844243856307e-8,9.590046191130018e-9,1.1441015263367515e-8,2.6798959212714336e-8,0
32374,3.659144571769827e-7,5.809389532514904e-8,2.980942877117928e-9,4.902999669014017e-8,7.894922278665317e-8,9.519564096307279e-9,1.1492343672279846e-8,2.692680963853721e-8,0
32375,3.6684870412620493e-7,5.812339365270554e-8,2.9876227949958217e-9,4.902256569872801e-8,7.962000313474327e-8,9.44908200148454e-9,1.1543672081192175e-8,2.7054660064360082e-8,0
32376,3.677265050331539e-7,5.7914707091231783e-8,2.996564851635947e-9,4.90339592246349e-8,7.996906216550289e-8,9.44908200148454e-9,1.1590429428319697e-8,2.706687904432948e-8,0
32377,3.6860430594010276e-7,5.770602052975803e-8,3.0055069082760725e-9,4.90453527505418e-8,8.03181211962625e-8,9.44908200148454e-9,1.163718677544722e-8,2.707909802429888e-8,0
32378,3.694821068470517e-7,5.7497333968284277e-8,3.014448964916198e-9,4.905674627644869e-8,8.066718022702211e-8,9.44908200148454e-9,1.1683944122574744e-8,2.709131700426828e-8,0
32379,3.703599077540006e-7,5.728864740681052e-8,3.023391021556323e-9,4.906813980235558e-8,8.101623925778173e-8,9.44908200148454e-9,1.1730701469702267e-8,2.710353598423768e-8,0
32380,3.7123770866094953e-7,5.707996084533677e-8,3.032333078196448e-9,4.907953332826248e-8,8.136529828854135e-8,9.44908200148454e-9,1.177745881682979e-8,2.7115754964207082e-8,0
32381,3.721155095678984e-7,5.6871274283863016e-8,3.0412751348365735e-9,4.909092685416937e-8,8.171435731930097e-8,9.44908200148454e-9,1.1824216163957312e-8,2.712797394417648e-8,0
32382,3.7299331047484735e-7,5.666258772238926e-8,3.050217191476699e-9,4.910232038007626e-8,8.206341635006058e-8,9.44908200148454e-9,1.1870973511084835e-8,2.7140192924145882e-8,0
32383,3.738711113817963e-7,5.645390116091551e-8,3.0591592481168243e-9,4.9113713905983155e-8,8.24124753808202e-8,9.44908200148454e-9,1.1917730858212357e-8,2.715241190411528e-8,0
32384,3.747489122887452e-7,5.6245214599441756e-8,3.0681013047569492e-9,4.9125107431890045e-8,8.276153441157982e-8,9.44908200148454e-9,1.1964488205339882e-8,2.7164630884084683e-8,0
32385,3.756267131956941e-7,5.6036528037968e-8,3.0770433613970746e-9,4.9136500957796936e-8,8.311059344233944e-8,9.44908200148454e-9,1.2011245552467404e-8,2.717684986405408e-8,0
32386,3.76504514102643e-7,5.582784147649425e-8,3.0859854180372e-9,4.9147894483703826e-8,8.345965247309906e-8,9.44908200148454e-9,1.2058002899594927e-8,2.7189068844023484e-8,0
32387,3.7738231500959195e-7,5.5619154915020496e-8,3.0949274746773253e-9,4.915928800961072e-8,8.380871150385866e-8,9.44908200148454e-9,1.210476024672245e-8,2.7201287823992882e-8,0
32388,3.7826011591654084e-7,5.541046835354674e-8,3.1038695313174507e-9,4.9170681535517614e-8,8.415777053461828e-8,9.44908200148454e-9,1.2151517593849972e-8,2.7213506803962284e-8,0
32389,3.7998950345977695e-7,5.510901863313393e-8,3.1041248244543207e-9,4.935048437204068e-8,8.423179918519157e-8,9.468501447584103e-9,1.217820038054679e-8,2.7106662082923418e-8,0
32390,3.8036700008624503e-7,5.484376371014397e-8,3.1043682844346574e-9,4.938491666408991e-8,8.392391080379759e-8,9.469779394818134e-9,1.2170553506181291e-8,2.699528064030482e-8,0
32391,3.832199823182795e-7,5.416611527293596e-8,3.1143196804657303e-9,4.95255925335852e-8,8.406603840438025e-8,9.428753937321124e-9,1.220305272223467e-8,2.7170592832405245e-8,0
32392,3.87101603959064e-7,5.416815115308687e-8,3.1225313571648453e-9,4.9605118503106744e-8,8.392163445081683e-8,9.443061594484564e-9,1.2272461689256384e-8,2.728945003521155e-8,0
32393,3.9098322559984853e-7,5.417018703323777e-8,3.1307430338639603e-9,4.968464447262828e-8,8.377723049725341e-8,9.457369251648003e-9,1.2341870656278099e-8,2.7408307238017858e-8,0
32394,3.9486484724063304e-7,5.4172222913388676e-8,3.1389547105630754e-9,4.9764170442149825e-8,8.363282654368998e-8,9.471676908811442e-9,1.2411279623299813e-8,2.752716444082416e-8,0
32395,3.987464688814176e-7,5.417425879353958e-8,3.1471663872621904e-9,4.984369641167136e-8,8.348842259012657e-8,9.485984565974883e-9,1.2480688590321528e-8,2.7646021643630467e-8,0
32396,4.026280905222021e-7,5.417629467369048e-8,3.1553780639613055e-9,4.9923222381192905e-8,8.334401863656315e-8,9.500292223138322e-9,1.2550097557343242e-8,2.7764878846436773e-8,0
32397,4.0650971216298663e-7,5.417833055384139e-8,3.1635897406604205e-9,5.000274835071445e-8,8.319961468299972e-8,9.514599880301762e-9,1.2619506524364955e-8,2.788373604924308e-8,0
32398,4.1039133380377114e-7,5.4180366433992296e-8,3.171801417359535e-9,5.0082274320235986e-8,8.30552107294363e-8,9.528907537465201e-9,1.268891549138667e-8,2.8002593252049383e-8,0
32399,4.142729554445557e-7,5.41824023141432e-8,3.18001309405865e-9,5.016180028975753e-8,8.291080677587288e-8,9.54321519462864e-9,1.2758324458408384e-8,2.812145045485569e-8,0
32400,4.181545770853402e-7,5.41844381942941e-8,3.188224770757765e-9,5.0241326259279066e-8,8.276640282230945e-8,9.55752285179208e-9,1.2827733425430098e-8,2.8240307657661995e-8,0
32401,4.220361987261247e-7,5.418647407444501e-8,3.1964364474568802e-9,5.032085222880061e-8,8.262199886874603e-8,9.571830508955519e-9,1.2897142392451813e-8,2.8359164860468298e-8,0
32402,4.2591782036690923e-7,5.4188509954595916e-8,3.2046481241559953e-9,5.040037819832215e-8,8.247759491518261e-8,9.586138166118958e-9,1.2966551359473527e-8,2.8478022063274604e-8,0
32403,4.257610425873838e-7,5.422164676132626e-8,3.2096948211107326e-9,5.040974005783632e-8,8.249477845268359e-8,9.618372454152324e-9,1.3028274330559786e-8,2.848972108664956e-8,0
32404,4.2560426480785826e-7,5.4254783568056616e-8,3.2147415180654696e-9,5.0419101917350485e-8,8.251196199018457e-8,9.650606742185687e-9,1.3089997301646046e-8,2.850142011002452e-8,0
32405,4.254623947131165e-7,5.443937785168959e-8,3.211760832518761e-9,5.03618734100065e-8,8.224025235929873e-8,9.71575529183273e-9,1.315940626866776e-8,2.8562464358189286e-8,0
32406,4.253205246183748e-7,5.462397213532256e-8,3.2087801469720526e-9,5.030464490266251e-8,8.196854272841287e-8,9.780903841479772e-9,1.3228815235689475e-8,2.8623508606354052e-8,0
32407,4.2517865452363306e-7,5.480856641895553e-8,3.205799461425344e-9,5.024741639531852e-8,8.169683309752703e-8,9.846052391126815e-9,1.3298224202711188e-8,2.8684552854518817e-8,0
32408,4.250367844288913e-7,5.49931607025885e-8,3.202818775878636e-9,5.019018788797453e-8,8.142512346664118e-8,9.911200940773856e-9,1.3367633169732904e-8,2.8745597102683586e-8,0
32409,4.248949143341496e-7,5.5177754986221465e-8,3.1998380903319277e-9,5.013295938063054e-8,8.115341383575533e-8,9.9763494904209e-9,1.3437042136754617e-8,2.880664135084835e-8,0
32410,4.208760898408817e-7,5.51663540573764e-8,3.200580303429471e-9,5.0135169453504024e-8,8.112063680027564e-8,9.9763494904209e-9,1.3520249603303221e-8,2.898587442088433e-8,0
32411,4.1685726534761377e-7,5.5154953128531335e-8,3.201322516527015e-9,5.0137379526377514e-8,8.108785976479593e-8,9.9763494904209e-9,1.3603457069851826e-8,2.9165107490920313e-8,0
32412,4.154671443160684e-7,5.534417355584971e-8,3.1982944983541727e-9,5.008784737619628e-8,8.109954849909698e-8,1.0057706655346674e-8,1.3690321385828276e-8,2.9337702809521556e-8,0
32413,4.140770232845231e-7,5.553339398316808e-8,3.1952664801813303e-9,5.003831522601506e-8,8.111123723339803e-8,1.0139063820272446e-8,1.3777185701804726e-8,2.9510298128122802e-8,0
32414,4.126869022529778e-7,5.572261441048645e-8,3.1922384620084883e-9,4.9988783075833826e-8,8.112292596769907e-8,1.022042098519822e-8,1.3864050017781176e-8,2.968289344672405e-8,0
32415,4.1129678122143247e-7,5.5911834837804826e-8,3.189210443835646e-9,4.99392509256526e-8,8.113461470200011e-8,1.0301778150123994e-8,1.3950914333757626e-8,2.985548876532529e-8,0
32416,4.0990666018988716e-7,5.6101055265123193e-8,3.1861824256628035e-9,4.988971877547137e-8,8.114630343630116e-8,1.0383135315049768e-8,1.4037778649734074e-8,3.002808408392654e-8,0
32417,4.0851653915834185e-7,5.629027569244157e-8,3.183154407489961e-9,4.9840186625290145e-8,8.11579921706022e-8,1.046449247997554e-8,1.4124642965710524e-8,3.0200679402527785e-8,0
32418,4.071264181267965e-7,5.6479496119759935e-8,3.180126389317119e-9,4.9790654475108914e-8,8.116968090490325e-8,1.0545849644901315e-8,1.4211507281686974e-8,3.0373274721129035e-8,0
32419,4.057362970952512e-7,5.666871654707831e-8,3.1770983711442767e-9,4.974112232492769e-8,8.11813696392043e-8,1.0627206809827089e-8,1.4298371597663424e-8,3.054587003973028e-8,0
32420,4.0434617606370587e-7,5.685793697439668e-8,3.1740703529714343e-9,4.9691590174746465e-8,8.119305837350534e-8,1.0708563974752863e-8,1.4385235913639874e-8,3.071846535833152e-8,0
32421,4.0295605503216056e-7,5.704715740171505e-8,3.171042334798592e-9,4.9642058024565233e-8,8.120474710780638e-8,1.0789921139678635e-8,1.4472100229616324e-8,3.089106067693277e-8,0
32422,4.0156593400061525e-7,5.7236377829033426e-8,3.16801431662575e-9,4.959252587438401e-8,8.121643584210743e-8,1.087127830460441e-8,1.4558964545592773e-8,3.1063655995534014e-8,0
32423,4.002106341727203e-7,5.955358631236765e-8,3.199839850874729e-9,4.964618531411868e-8,8.151865889778152e-8,1.087127830460441e-8,1.4565822653491247e-8,3.107061733569768e-8,0
32424,4.001138028563389e-7,5.962907134551708e-8,3.208852906454055e-9,4.960697138782106e-8,8.153456358853616e-8,1.087062336825164e-8,1.4609960789142802e-8,3.111262415149964e-8,0
32425,4.000169715399575e-7,5.970455637866651e-8,3.217865962033381e-9,4.956775746152344e-8,8.15504682792908e-8,1.086996843189887e-8,1.4654098924794355e-8,3.11546309673016e-8,0
32426,3.9992014022357607e-7,5.978004141181594e-8,3.2268790176127072e-9,4.952854353522583e-8,8.156637297004545e-8,1.08693134955461e-8,1.469823706044591e-8,3.119663778310356e-8,0
32427,3.9982330890719465e-7,5.985552644496538e-8,3.2358920731920333e-9,4.948932960892821e-8,8.15822776608001e-8,1.0868658559193329e-8,1.4742375196097464e-8,3.123864459890551e-8,0
32428,3.997264775908132e-7,5.993101147811481e-8,3.2449051287713594e-9,4.945011568263059e-8,8.159818235155474e-8,1.0868003622840559e-8,1.4786513331749019e-8,3.128065141470747e-8,0
32429,3.9962964627443177e-7,6.000649651126424e-8,3.2539181843506855e-9,4.9410901756332973e-8,8.161408704230938e-8,1.0867348686487789e-8,1.4830651467400574e-8,3.132265823050943e-8,0
32430,3.9953281495805035e-7,6.008198154441368e-8,3.2629312399300116e-9,4.9371687830035355e-8,8.162999173306402e-8,1.0866693750135019e-8,1.4874789603052128e-8,3.1364665046311386e-8,0
32431,3.9943598364166893e-7,6.015746657756312e-8,3.2719442955093377e-9,4.9332473903737737e-8,8.164589642381867e-8,1.0866038813782249e-8,1.4918927738703683e-8,3.1406671862113345e-8,0
32432,3.993391523252875e-7,6.023295161071256e-8,3.2809573510886638e-9,4.929325997744012e-8,8.166180111457332e-8,1.0865383877429479e-8,1.4963065874355236e-8,3.1448678677915304e-8,0
32433,3.995830288760263e-7,6.03084824324055e-8,3.2897151135311195e-9,4.9266121412187264e-8,8.167770580532796e-8,1.085650037567329e-8,1.5011069599202022e-8,3.1481644327175836e-8,0
32434,3.9982690542676505e-7,6.038401325409845e-8,3.2984728759735752e-9,4.92389828469344e-8,8.16936104960826e-8,1.08476168739171e-8,1.505907332404881e-8,3.151460997643636e-8,0
32435,4.0007078197750385e-7,6.04595440757914e-8,3.3072306384160313e-9,4.921184428168154e-8,8.170951518683725e-8,1.083873337216091e-8,1.5107077048895595e-8,3.1547575625696885e-8,0
32436,4.003146585282426e-7,6.053507489748434e-8,3.315988400858487e-9,4.918470571642868e-8,8.17254198775919e-8,1.082984987040472e-8,1.515508077374238e-8,3.158054127495741e-8,0
32437,4.005585350789814e-7,6.061060571917729e-8,3.3247461633009428e-9,4.9157567151175827e-8,8.174132456834654e-8,1.0820966368648532e-8,1.5203084498589167e-8,3.161350692421794e-8,0
32438,4.021298270379234e-7,6.061065150772079e-8,3.3267175094567038e-9,4.914175347952196e-8,8.188144434201769e-8,1.1173082625274677e-8,1.5311893951722723e-8,3.178597502195577e-8,0
32439,4.0370111899686543e-7,6.06106972962643e-8,3.3286888556124648e-9,4.91259398078681e-8,8.202156411568886e-8,1.1525198881900824e-8,1.542070340485628e-8,3.1958443119693603e-8,0
32440,4.0527241095580747e-7,6.061074308480782e-8,3.3306602017682258e-9,4.911012613621424e-8,8.216168388936001e-8,1.1877315138526972e-8,1.552951285798984e-8,3.213091121743144e-8,0
32441,4.0684370291474946e-7,6.061078887335133e-8,3.3326315479239867e-9,4.909431246456038e-8,8.230180366303118e-8,1.2229431395153119e-8,1.5638322311123395e-8,3.2303379315169267e-8,0
32442,4.084149948736915e-7,6.061083466189484e-8,3.3346028940797477e-9,4.907849879290652e-8,8.244192343670233e-8,1.2581547651779266e-8,1.574713176425695e-8,3.24758474129071e-8,0
32443,4.099862868326335e-7,6.061088045043836e-8,3.336574240235509e-9,4.906268512125266e-8,8.258204321037349e-8,1.2933663908405411e-8,1.5855941217390507e-8,3.264831551064493e-8,0
32444,4.0984023453479566e-7,6.062521184606826e-8,3.33854558639127e-9,4.9366489913998526e-8,8.25802741294206e-8,1.2960037416796346e-8,1.5868161173835833e-8,3.2849307480308955e-8,0
32445,4.0878454806091614e-7,6.012122749238734e-8,3.324764793307144e-9,4.9658219345699643e-8,8.210082741799671e-8,1.2939931108872505e-8,1.5880464424158614e-8,3.303923653091508e-8,0
32446,4.083963213830455e-7,6.010209171975942e-8,3.323025073975186e-9,4.999194016199696e-8,8.184703030477702e-8,1.2971354277317536e-8,1.5771360917085197e-8,3.3245237235228405e-8,0
32447,4.0800809470517487e-7,6.00829559471315e-8,3.3212853546432282e-9,5.0325660978294276e-8,8.159323319155733e-8,1.3002777445762567e-8,1.5662257410011785e-8,3.345123793954173e-8,0
32448,4.076198680273042e-7,6.006382017450358e-8,3.319545635311271e-9,5.065938179459159e-8,8.133943607833763e-8,1.3034200614207598e-8,1.5553153902938372e-8,3.365723864385506e-8,0
32449,4.0723164134943354e-7,6.004468440187567e-8,3.317805915979313e-9,5.099310261088891e-8,8.108563896511796e-8,1.306562378265263e-8,1.544405039586496e-8,3.3863239348168383e-8,0
32450,4.0684341467156293e-7,6.002554862924775e-8,3.3160661966473552e-9,5.1326823427186224e-8,8.083184185189826e-8,1.3097046951097661e-8,1.5334946888791543e-8,3.406924005248171e-8,0
32451,4.0645518799369227e-7,6.000641285661983e-8,3.3143264773153974e-9,5.166054424348354e-8,8.057804473867857e-8,1.3128470119542692e-8,1.522584338171813e-8,3.427524075679503e-8,0
32452,4.060669613158216e-7,5.998727708399191e-8,3.31258675798344e-9,5.199426505978085e-8,8.032424762545888e-8,1.3159893287987724e-8,1.5116739874644718e-8,3.4481241461108355e-8,0
32453,4.05678734637951e-7,5.9968141311364e-8,3.3108470386514822e-9,5.2327985876078166e-8,8.00704505122392e-8,1.3191316456432755e-8,1.50076363675713e-8,3.468724216542168e-8,0
32454,4.0529050796008033e-7,5.994900553873608e-8,3.3091073193195244e-9,5.266170669237548e-8,7.98166533990195e-8,1.3222739624877786e-8,1.4898532860497889e-8,3.4893242869735e-8,0
32455,4.0490228128220967e-7,5.992986976610816e-8,3.3073675999875666e-9,5.29954275086728e-8,7.956285628579981e-8,1.3254162793322817e-8,1.4789429353424476e-8,3.5099243574048334e-8,0
32456,4.0451405460433906e-7,5.991073399348024e-8,3.3056278806556092e-9,5.3329148324970114e-8,7.930905917258012e-8,1.3285585961767849e-8,1.4680325846351062e-8,3.530524427836166e-8,0
32457,4.041258279264684e-7,5.989159822085233e-8,3.3038881613236514e-9,5.366286914126743e-8,7.905526205936043e-8,1.331700913021288e-8,1.4571222339277649e-8,3.551124498267498e-8,0
32458,4.0373760124859773e-7,5.98724624482244e-8,3.3021484419916936e-9,5.3996589957564747e-8,7.880146494614075e-8,1.3348432298657911e-8,1.4462118832204235e-8,3.5717245686988305e-8,0
32459,4.033493745707271e-7,5.985332667559649e-8,3.300408722659736e-9,5.433031077386206e-8,7.854766783292105e-8,1.3379855467102943e-8,1.4353015325130822e-8,3.592324639130163e-8,0
32460,4.0292667901903674e-7,5.995861429273212e-8,3.3004560552858698e-9,5.4344413125759646e-8,7.829260039186569e-8,1.3376800819517675e-8,1.4240128512592121e-8,3.593525887306907e-8,0
32461,4.0315747359673806e-7,6.005238479962846e-8,3.2987518354235124e-9,5.4561416549149553e-8,7.810815981420177e-8,1.342112944012806e-8,1.4161200074183484e-8,3.593220274393412e-8,0
32462,4.033882681744394e-7,6.014615530652481e-8,3.2970476155611553e-9,5.477841997253946e-8,7.792371923653784e-8,1.3465458060738447e-8,1.4082271635774847e-8,3.5929146614799175e-8,0
32463,4.0361906275214074e-7,6.023992581342117e-8,3.295343395698798e-9,5.4995423395929374e-8,7.773927865887393e-8,1.3509786681348832e-8,1.400334319736621e-8,3.592609048566422e-8,0
32464,4.0384985732984206e-7,6.033369632031751e-8,3.2936391758364404e-9,5.521242681931928e-8,7.755483808121001e-8,1.3554115301959217e-8,1.3924414758957574e-8,3.592303435652928e-8,0
32465,4.0408065190754343e-7,6.042746682721386e-8,3.2919349559740834e-9,5.542943024270919e-8,7.73703975035461e-8,1.3598443922569604e-8,1.3845486320548937e-8,3.5919978227394326e-8,0
32466,4.0431144648524474e-7,6.05212373341102e-8,3.290230736111726e-9,5.5646433666099096e-8,7.718595692588219e-8,1.364277254317999e-8,1.37665578821403e-8,3.591692209825938e-8,0
32467,4.048630445554397e-7,6.064367063226636e-8,3.292249414893621e-9,5.546946794430036e-8,7.708844006086824e-8,1.3655677995345344e-8,1.3796732950805076e-8,3.591789840101656e-8,0
32468,4.0541464262563466e-7,6.07661039304225e-8,3.294268093675516e-9,5.5292502222501617e-8,7.699092319585431e-8,1.36685834475107e-8,1.3826908019469854e-8,3.5918874703773734e-8,0
32469,4.060981128507913e-7,6.088853722857865e-8,3.2925165411870245e-9,5.5415474694106015e-8,7.70562428163871e-8,1.3700817735544063e-8,1.3853967143836474e-8,3.591581857463879e-8,0
32470,4.0678158307594785e-7,6.101097052673481e-8,3.2907649886985335e-9,5.5538447165710407e-8,7.71215624369199e-8,1.3733052023577428e-8,1.3881026268203093e-8,3.5912762445503837e-8,0
32471,4.074650533011044e-7,6.113340382489095e-8,3.289013436210042e-9,5.56614196373148e-8,7.718688205745269e-8,1.3765286311610793e-8,1.3908085392569711e-8,3.590970631636889e-8,0
32472,4.0814852352626104e-7,6.125583712304711e-8,3.287261883721551e-9,5.578439210891919e-8,7.72522016779855e-8,1.3797520599644157e-8,1.3935144516936331e-8,3.590665018723394e-8,0
32473,4.088319937514176e-7,6.137827042120325e-8,3.2855103312330597e-9,5.590736458052358e-8,7.731752129851829e-8,1.3829754887677522e-8,1.3962203641302951e-8,3.5903594058098994e-8,0
32474,4.0951546397657423e-7,6.15007037193594e-8,3.2837587787445687e-9,5.6030337052127974e-8,7.738284091905109e-8,1.3861989175710885e-8,1.398926276566957e-8,3.590053792896404e-8,0
32475,4.101989342017308e-7,6.162313701751555e-8,3.2820072262560773e-9,5.615330952373237e-8,7.744816053958388e-8,1.389422346374425e-8,1.401632189003619e-8,3.5897481799829096e-8,0
32476,4.1088240442688737e-7,6.17455703156717e-8,3.2802556737675864e-9,5.6276281995336764e-8,7.751348016011668e-8,1.3926457751777616e-8,1.4043381014402809e-8,3.5894425670694144e-8,0
32477,4.11565874652044e-7,6.186800361382784e-8,3.2785041212790954e-9,5.6399254466941155e-8,7.757879978064947e-8,1.395869203981098e-8,1.4070440138769428e-8,3.58913695415592e-8,0
32478,4.127537535746091e-7,6.219706298899966e-8,3.2904978624051295e-9,5.629974639434734e-8,7.758822068088043e-8,1.3962403345810009e-8,1.419945363881366e-8,3.624783972635799e-8,0
32479,4.139416324971742e-7,6.252612236417147e-8,3.302491603531164e-9,5.620023832175352e-8,7.759764158111139e-8,1.396611465180904e-8,1.4328467138857889e-8,3.660430991115678e-8,0
32480,4.1512951141973935e-7,6.28551817393433e-8,3.3144853446571986e-9,5.61007302491597e-8,7.760706248134234e-8,1.396982595780807e-8,1.4457480638902118e-8,3.696078009595557e-8,0
32481,4.151997990034439e-7,6.302809544200869e-8,3.328266137741325e-9,5.608176846722486e-8,7.759291835262992e-8,1.39735372638071e-8,1.4601830039689832e-8,3.732128271264648e-8,0
32482,4.1527008658714845e-7,6.320100914467407e-8,3.342046930825451e-9,5.606280668529002e-8,7.75787742239175e-8,1.397724856980613e-8,1.4746179440477545e-8,3.76817853293374e-8,0
32483,4.15340374170853e-7,6.337392284733946e-8,3.355827723909577e-9,5.6043844903355184e-8,7.756463009520509e-8,1.3980959875805162e-8,1.4890528841265258e-8,3.804228794602832e-8,0
32484,4.1541066175455754e-7,6.354683655000485e-8,3.369608516993703e-9,5.6024883121420346e-8,7.755048596649267e-8,1.3984671181804192e-8,1.5034878242052972e-8,3.840279056271924e-8,0
32485,4.178305981604806e-7,6.339953106797761e-8,3.3763239343411974e-9,5.665187077063536e-8,7.814518294701264e-8,1.4088477403187254e-8,1.5047098198498297e-8,3.854617701874802e-8,0
32486,4.183231283024405e-7,6.331571443918908e-8,3.4302957694083525e-9,5.736101523197493e-8,7.829642877396101e-8,1.4076383070610233e-8,1.5076523622266e-8,3.856222193240759e-8,0
32487,4.1881565844440035e-7,6.323189781040054e-8,3.484267604475508e-9,5.807015969331449e-8,7.844767460090936e-8,1.406428873803321e-8,1.5105949046033703e-8,3.857826684606715e-8,0
32488,4.1956938879649017e-7,6.29751674789466e-8,3.5364523875845716e-9,5.879313197732006e-8,7.852861757168488e-8,1.3988164175685632e-8,1.5135374469801404e-8,3.853804300796167e-8,0
32489,4.2032311914858e-7,6.271843714749267e-8,3.5886371706936353e-9,5.951610426132563e-8,7.860956054246039e-8,1.3912039613338054e-8,1.516479989356911e-8,3.849781916985618e-8,0
32490,4.2107684950066975e-7,6.246170681603874e-8,3.640821953802699e-9,6.02390765453312e-8,7.869050351323592e-8,1.3835915050990475e-8,1.5194225317336813e-8,3.845759533175069e-8,0
32491,4.2039876947553347e-7,6.212947668885107e-8,3.637051722532313e-9,6.02332974048484e-8,7.85966356281197e-8,1.3791213657087927e-8,1.520586221663997e-8,3.840353916379722e-8,0
32492,4.1972068945039713e-7,6.179724656166339e-8,3.6332814912619272e-9,6.02275182643656e-8,7.85027677430035e-8,1.374651226318538e-8,1.5217499115943124e-8,3.834948299584374e-8,0
32493,4.190426094252608e-7,6.146501643447572e-8,3.629511259991541e-9,6.022173912388279e-8,7.840889985788728e-8,1.3701810869282832e-8,1.5229136015246283e-8,3.829542682789027e-8,0
32494,4.183645294001245e-7,6.113278630728806e-8,3.625741028721155e-9,6.02159599834e-8,7.831503197277107e-8,1.3657109475380284e-8,1.5240772914549438e-8,3.824137065993679e-8,0
32495,4.1768644937498817e-7,6.080055618010037e-8,3.621970797450769e-9,6.021018084291719e-8,7.822116408765486e-8,1.3612408081477736e-8,1.5252409813852597e-8,3.818731449198332e-8,0
32496,4.1700836934985183e-7,6.04683260529127e-8,3.6182005661803827e-9,6.020440170243439e-8,7.812729620253864e-8,1.3567706687575188e-8,1.5264046713155752e-8,3.8133258324029844e-8,0
32497,4.1633028932471555e-7,6.013609592572502e-8,3.614430334909997e-9,6.01986225619516e-8,7.803342831742243e-8,1.352300529367264e-8,1.527568361245891e-8,3.807920215607637e-8,0
32498,4.156522092995792e-7,5.980386579853736e-8,3.610660103639611e-9,6.019284342146879e-8,7.793956043230621e-8,1.3478303899770093e-8,1.5287320511762066e-8,3.8025145988122896e-8,0
32499,4.149741292744429e-7,5.947163567134969e-8,3.6068898723692245e-9,6.018706428098599e-8,7.784569254719001e-8,1.3433602505867547e-8,1.5298957411065225e-8,3.7971089820169425e-8,0
32500,4.142960492493066e-7,5.9139405544162014e-8,3.6031196410988386e-9,6.018128514050318e-8,7.775182466207379e-8,1.3388901111964999e-8,1.531059431036838e-8,3.791703365221595e-8,0
32501,4.1361796922417025e-7,5.880717541697434e-8,3.5993494098284527e-9,6.017550600002039e-8,7.765795677695759e-8,1.3344199718062451e-8,1.532223120967154e-8,3.7862977484262476e-8,0
32502,4.1293988919903396e-7,5.8474945289786665e-8,3.5955791785580668e-09,6.016972685953758e-8,7.756408889184137e-8,1.3299498324159903e-8,1.5333868108974694e-8,3.7808921316309e-8,0
32503,4.124621798018289e-7,5.839944549405292e-8,3.586880581898278e-9,6.01216131729191e-8,7.751397912969406e-8,1.327939201623606e-8,1.5345588302155305e-8,3.781113390012058e-8,0
32504,4.1298623663311255e-7,5.839944549405292e-8,3.5888874275236395e-9,6.011484568968287e-8,7.751397912969406e-8,1.3279640531764169e-8,1.532459952936764e-8,3.781113390012058e-8,0
32505,4.1351029346439625e-7,5.839944549405292e-8,3.590894273149001e-9,6.010807820644663e-8,7.751397912969406e-8,1.3279889047292276e-8,1.5303610756579974e-8,3.781113390012058e-8,0
32506,4.140343502956799e-7,5.839944549405292e-8,3.5929011187743622e-9,6.010131072321038e-8,7.751397912969406e-8,1.3280137562820383e-8,1.528262198379231e-8,3.781113390012058e-8,0
32507,4.145584071269636e-7,5.839944549405292e-8,3.5949079643997236e-9,6.009454323997414e-8,7.751397912969406e-8,1.328038607834849e-8,1.5261633211004646e-8,3.781113390012058e-8,0
32508,4.1508246395824723e-7,5.839944549405292e-8,3.596914810025085e-9,6.00877757567379e-8,7.751397912969406e-8,1.32806345938766e-8,1.5240644438216978e-8,3.781113390012058e-8,0
32509,4.1560652078953093e-7,5.839944549405292e-8,3.5989216556504463e-9,6.008100827350165e-8,7.751397912969406e-8,1.3280883109404707e-8,1.5219655665429314e-8,3.781113390012058e-8,0
32510,4.1613057762081457e-7,5.839944549405292e-8,3.600928501275808e-9,6.007424079026542e-8,7.751397912969406e-8,1.3281131624932814e-8,1.519866689264165e-8,3.781113390012058e-8,0
32511,4.1665463445209827e-7,5.839944549405292e-8,3.6029353469011694e-9,6.006747330702918e-8,7.751397912969406e-8,1.3281380140460923e-8,1.5177678119853983e-8,3.781113390012058e-8,0
32512,4.171786912833819e-7,5.839944549405292e-8,3.6049421925265307e-9,6.006070582379293e-8,7.751397912969406e-8,1.328162865598903e-8,1.515668934706632e-8,3.781113390012058e-8,0
32513,4.177027481146656e-7,5.839944549405292e-8,3.606949038151892e-9,6.005393834055669e-8,7.751397912969406e-8,1.3281877171517137e-8,1.5135700574278655e-8,3.781113390012058e-8,0
32514,4.182268049459493e-7,5.839944549405292e-8,3.6089558837772534e-9,6.004717085732046e-8,7.751397912969406e-8,1.3282125687045246e-8,1.5114711801490987e-8,3.781113390012058e-8,0
32515,4.1875086177723295e-7,5.839944549405292e-8,3.6109627294026148e-9,6.00404033740842e-8,7.751397912969406e-8,1.3282374202573354e-8,1.5093723028703323e-8,3.781113390012058e-8,0
32516,4.1927491860851664e-7,5.839944549405292e-8,3.612969575027976e-9,6.003363589084797e-8,7.751397912969406e-8,1.328262271810146e-8,1.507273425591566e-8,3.781113390012058e-8,0
32517,4.197989754398003e-7,5.839944549405292e-8,3.6149764206533375e-9,6.002686840761173e-8,7.751397912969406e-8,1.328287123362957e-8,1.5051745483127992e-8,3.781113390012058e-8,0
32518,4.20323032271084e-7,5.839944549405292e-8,3.6169832662786992e-9,6.002010092437548e-8,7.751397912969406e-8,1.3283119749157677e-8,1.5030756710340328e-8,3.781113390012058e-8,0
32519,4.208470891023676e-7,5.839944549405292e-8,3.6189901119040606e-9,6.001333344113925e-8,7.751397912969406e-8,1.3283368264685784e-8,1.5009767937552664e-8,3.781113390012058e-8,0
32520,4.213711459336513e-7,5.839944549405292e-8,3.620996957529422e-9,6.000656595790301e-8,7.751397912969406e-8,1.3283616780213893e-8,1.4988779164764996e-8,3.781113390012058e-8,0
32521,4.2189520276493497e-7,5.839944549405292e-8,3.6230038031547833e-9,5.999979847466676e-8,7.751397912969406e-8,1.3283865295742e-8,1.4967790391977332e-8,3.781113390012058e-8,0
32522,4.2241925959621866e-7,5.839944549405292e-8,3.6250106487801446e-9,5.999303099143052e-8,7.751397912969406e-8,1.3284113811270107e-8,1.4946801619189668e-8,3.781113390012058e-8,0
32523,4.229433164275023e-7,5.839944549405292e-8,3.627017494405506e-9,5.998626350819428e-8,7.751397912969406e-8,1.3284362326798216e-8,1.4925812846402e-8,3.781113390012058e-8,0
32524,4.23467373258786e-7,5.839944549405292e-8,3.6290243400308673e-9,5.997949602495803e-8,7.751397912969406e-8,1.3284610842326324e-8,1.4904824073614337e-8,3.781113390012058e-8,0
32525,4.2399143009006964e-7,5.839944549405292e-8,3.6310311856562287e-9,5.99727285417218e-8,7.751397912969406e-8,1.328485935785443e-8,1.4883835300826673e-8,3.781113390012058e-8,0
32526,4.2451548692135334e-7,5.839944549405292e-8,3.6330380312815904e-9,5.996596105848556e-8,7.751397912969406e-8,1.328510787338254e-8,1.4862846528039007e-8,3.781113390012058e-8,0
32527,4.2534151817733754e-7,5.837359206732232e-8,3.631286478793099e-9,6.000855180689086e-8,7.755192273777646e-8,1.3240779252772153e-8,1.485528092725594e-8,3.781090066187099e-8,0
32528,4.261675494333218e-7,5.8347738640591705e-8,3.629534926304608e-9,6.005114255529616e-8,7.758986634585885e-8,1.3196450632161767e-8,1.4847715326472874e-8,3.7810667423621396e-8,0
32529,4.26993580689306e-7,5.832188521386109e-8,3.6277833738161167e-9,6.009373330370146e-8,7.762780995394124e-8,1.315212201155138e-8,1.4840149725689808e-8,3.78104341853718e-8,0
32530,4.2781961194529025e-7,5.829603178713049e-8,3.6260318213276257e-9,6.013632405210677e-8,7.766575356202364e-8,1.3107793390940995e-8,1.4832584124906742e-8,3.7810200947122215e-8,0
32531,4.2827777845637014e-7,5.8292087550736344e-8,3.6280505001095206e-9,5.995550538238734e-8,7.66876475135634e-8,1.3095699058363973e-8,1.4832584124906742e-8,3.783631127360526e-8,0
32532,4.2873594496745003e-7,5.82881433143422e-8,3.630069178891415e-9,5.97746867126679e-8,7.570954146510315e-8,1.3083604725786952e-8,1.4832584124906742e-8,3.78624216000883e-8,0
32533,4.2842191810724294e-7,5.8929565928168145e-8,3.7503938085533e-9,6.044697393627893e-8,7.49619403225205e-8,1.3071510393209931e-8,1.482988262970083e-8,3.836298443503938e-8,0
32534,4.279274936164186e-7,5.89340089176795e-8,3.751159687963911e-9,6.024884533555401e-8,7.398383427406027e-8,1.3097042578602014e-8,1.4870615817851915e-8,3.842304684387658e-8,0
32535,4.274330691255943e-7,5.8938451907190845e-8,3.7519255673745215e-9,6.00507167348291e-8,7.300572822560002e-8,1.3122574763994098e-8,1.4911349006003e-8,3.848310925271377e-8,0
32536,4.2693864463476997e-7,5.89428948967022e-8,3.752691446785133e-9,5.985258813410419e-8,7.202762217713978e-8,1.3148106949386182e-8,1.4952082194154087e-8,3.8543171661550964e-8,0
32537,4.2644422014394563e-7,5.8947337886213545e-8,3.753457326195743e-9,5.965445953337928e-8,7.104951612867955e-8,1.3173639134778266e-8,1.499281538230517e-8,3.860323407038816e-8,0
32538,4.248523511964429e-7,5.86567578147788e-8,3.734320413544208e-9,5.962414536740251e-8,7.100177649968363e-8,1.3166067227788608e-8,1.5033548570456254e-8,3.8642412458734365e-8,0
32539,4.2326048224894007e-7,5.836617774334405e-8,3.7151835008926733e-9,5.959383120142576e-8,7.095403687068772e-8,1.315849532079895e-8,1.507428175860734e-8,3.868159084708057e-8,0
32540,4.2236069044996216e-7,5.812217470770648e-8,3.719915738927873e-9,5.979249969713285e-8,7.099691682432484e-8,1.3109463054138093e-8,1.508612840782539e-8,3.865777791831805e-8,0
32541,4.214608986509842e-7,5.787817167206891e-8,3.7246479769630726e-9,5.999116819283994e-8,7.103979677796196e-8,1.3060430787477237e-8,1.5097975057043443e-8,3.863396498955553e-8,0
32542,4.2056110685200624e-7,5.763416863643134e-8,3.729380214998272e-9,6.018983668854703e-8,7.108267673159908e-8,1.3011398520816382e-8,1.5109821706261498e-8,3.8610152060793006e-8,0
32543,4.196613150530283e-7,5.739016560079377e-8,3.7341124530334715e-9,6.038850518425411e-8,7.112555668523618e-8,1.2962366254155526e-8,1.512166835547955e-8,3.8586339132030484e-8,0
32544,4.187615232540503e-7,5.71461625651562e-8,3.738844691068672e-9,6.058717367996121e-8,7.11684366388733e-8,1.291333398749467e-8,1.51335150046976e-8,3.856252620326796e-8,0
32545,4.1727280926178046e-7,5.683414103054299e-8,3.722664797650778e-9,6.054076214961803e-8,7.11600771727834e-8,1.2944260124883486e-8,1.5155420010137245e-8,3.856252620326796e-8,0
32546,4.157840952695106e-7,5.652211949592978e-8,3.7064849042328847e-9,6.049435061927486e-8,7.11517177066935e-8,1.2975186262272302e-8,1.5177325015576888e-8,3.856252620326796e-8,0
32547,4.14741046929094e-7,5.5938374010387226e-8,3.70424643178372e-9,6.027806568494671e-8,7.11117236771463e-8,1.3043423107037114e-8,1.5198730257751817e-8,3.858332540985001e-8,0
32548,4.136979985886773e-7,5.535462852484467e-8,3.7020079593345557e-9,6.006178075061857e-8,7.10717296475991e-8,1.3111659951801925e-8,1.5220135499926747e-8,3.860412461643205e-8,0
32549,4.126549502482607e-7,5.4770883039302124e-8,3.6997694868853907e-9,5.984549581629043e-8,7.10317356180519e-8,1.3179896796566737e-8,1.5241540742101676e-8,3.86249238230141e-8,0
32550,4.1161190190784407e-7,5.418713755375957e-8,3.697531014436226e-9,5.962921088196227e-8,7.09917415885047e-8,1.324813364133155e-8,1.5262945984276602e-8,3.864572302959614e-8,0
32551,4.1056885356742745e-7,5.3603392068217016e-8,3.6952925419870612e-9,5.9412925947634134e-8,7.09517475589575e-8,1.3316370486096362e-8,1.528435122645153e-8,3.866652223617818e-8,0
32552,4.095258052270108e-7,5.301964658267446e-8,3.6930540695378967e-9,5.9196641013305986e-8,7.09117535294103e-8,1.3384607330861173e-8,1.530575646862646e-8,3.868732144276023e-8,0
32553,4.0848275688659416e-7,5.2435901097131914e-8,3.690815597088732e-9,5.8980356078977845e-8,7.08717594998631e-8,1.3452844175625985e-8,1.5327161710801386e-8,3.870812064934227e-8,0
32554,4.0743970854617754e-7,5.185215561158936e-8,3.6885771246395672e-9,5.87640711446497e-8,7.083176547031591e-8,1.3521081020390798e-8,1.5348566952976316e-8,3.872891985592432e-8,0
32555,4.063966602057609e-7,5.1268410126046805e-8,3.6863386521904027e-9,5.854778621032155e-8,7.07917714407687e-8,1.358931786515561e-8,1.5369972195151245e-8,3.874971906250636e-8,0
32556,4.0535361186534425e-7,5.068466464050425e-8,3.684100179741238e-9,5.83315012759934e-8,7.075177741122151e-8,1.3657554709920421e-8,1.5391377437326174e-8,3.8770518269088407e-8,0
32557,4.0431056352492763e-7,5.0100919154961704e-8,3.6818617072920732e-9,5.811521634166526e-8,7.07117833816743e-8,1.3725791554685233e-8,1.54127826795011e-8,3.879131747567045e-8,0
32558,4.03267515184511e-7,4.951717366941915e-8,3.6796232348429087e-9,5.7898931407337114e-8,7.067178935212711e-8,1.3794028399450046e-8,1.543418792167603e-8,3.8812116682252495e-8,0
32559,4.022244668440944e-7,4.8933428183876595e-8,3.6773847623937437e-9,5.768264647300897e-8,7.06317953225799e-8,1.3862265244214857e-8,1.545559316385096e-8,3.8832915888834536e-8,0
32560,4.011814185036777e-7,4.834968269833404e-8,3.675146289944579e-9,5.746636153868082e-8,7.059180129303271e-8,1.3930502088979669e-8,1.5476998406025888e-8,3.8853715095416584e-8,0
32561,4.0279008949444916e-7,4.845505547090467e-8,3.6779545144501516e-9,5.7321073465535754e-8,7.066544200848074e-8,1.44476098509868e-8,1.5468685180640764e-8,3.8865557949366134e-8,0
32562,4.043618207184406e-7,4.909170815376266e-8,3.6847054312672464e-9,5.731188084902137e-8,7.085394513005301e-8,1.4975659978161967e-8,1.5467479944786475e-8,3.88254825356013e-8,0
32563,4.0555270588328436e-7,4.9071066280060245e-8,3.683951385013169e-9,5.737605524608236e-8,7.078379146304679e-8,1.493413748960874e-8,1.549886024930554e-8,3.8895520006782635e-8,0
32564,4.067435910481282e-7,4.905042440635783e-8,3.6831973387590918e-9,5.744022964314335e-8,7.071363779604056e-8,1.4892615001055517e-8,1.553024055382461e-8,3.8965557477963964e-8,0
32565,4.07934476212972e-7,4.9029782532655424e-8,3.6824432925050147e-9,5.750440404020434e-8,7.064348412903434e-8,1.485109251250229e-8,1.5561620858343678e-8,3.90355949491453e-8,0
32566,4.0912536137781584e-07,4.900914065895301e-8,3.681689246250937e-9,5.756857843726533e-8,7.057333046202812e-8,1.4809570023949066e-8,1.5593001162862747e-8,3.9105632420326635e-8,0
32567,4.103162465426596e-7,4.89884987852506e-8,3.68093519999686e-9,5.763275283432632e-8,7.05031767950219e-8,1.4768047535395841e-8,1.5624381467381812e-8,3.9175669891507964e-8,0
32568,4.115071317075034e-7,4.896785691154819e-8,3.680181153742783e-9,5.769692723138731e-8,7.043302312801569e-8,1.4726525046842617e-8,1.565576177190088e-8,3.92457073626893e-8,0
32569,4.1269801687234725e-7,4.894721503784578e-8,3.679427107488706e-9,5.77611016284483e-8,7.036286946100947e-8,1.468500255828939e-8,1.568714207641995e-8,3.9315744833870635e-8,0
32570,4.1388890203719104e-7,4.892657316414336e-8,3.6786730612346283e-9,5.782527602550929e-8,7.029271579400324e-8,1.4643480069736166e-8,1.571852238093902e-8,3.9385782305051964e-8,0
32571,4.1507978720203483e-7,4.8905931290440956e-8,3.6779190149805512e-9,5.788945042257028e-8,7.022256212699702e-8,1.4601957581182942e-8,1.5749902685458085e-8,3.94558197762333e-8,0
32572,4.1627067236687867e-7,4.888528941673854e-8,3.677164968726474e-9,5.795362481963127e-8,7.01524084599908e-8,1.4560435092629717e-8,1.5781282989977153e-8,3.9525857247414635e-8,0
32573,4.1746155753172246e-7,4.886464754303613e-8,3.676410922472397e-9,5.801779921669226e-8,7.008225479298458e-8,1.4518912604076493e-8,1.5812663294496222e-8,3.9595894718595964e-8,0
32574,4.1865244269656625e-7,4.884400566933372e-8,3.6756568762183195e-9,5.808197361375325e-8,7.001210112597836e-8,1.4477390115523267e-8,1.584404359901529e-8,3.96659321897773e-8,0
32575,4.198433278614101e-7,4.882336379563131e-8,3.6749028299642424e-9,5.8146148010814246e-8,6.994194745897213e-8,1.4435867626970042e-8,1.5875423903534357e-8,3.9735969660958635e-8,0
32576,4.210342130262539e-7,4.8802721921928895e-8,3.6741487837101653e-9,5.8210322407875236e-8,6.987179379196591e-8,1.4394345138416818e-8,1.5906804208053426e-8,3.9806007132139964e-8,0
32577,4.2222509819109767e-7,4.878208004822649e-8,3.6733947374560882e-9,5.8274496804936226e-8,6.98016401249597e-8,1.4352822649863593e-8,1.5938184512572495e-8,3.98760446033213e-8,0
32578,4.234159833559415e-7,4.8761438174524074e-8,3.6726406912020107e-9,5.8338671201997216e-8,6.973148645795348e-8,1.4311300161310367e-8,1.5969564817091563e-8,3.9946082074502635e-8,0
32579,4.246068685207853e-7,4.874079630082166e-8,3.6718866449479336e-9,5.8402845599058206e-8,6.966133279094726e-8,1.4269777672757142e-8,1.600094512161063e-8,4.0016119545683963e-8,0
32580,4.2579775368562914e-7,4.8720154427119254e-8,3.6711325986938565e-9,5.8467019996119196e-8,6.959117912394104e-8,1.4228255184203918e-8,1.6032325426129698e-8,4.00861570168653e-8,0
