"time" "channel1" "channel2" "channel3" "channel4" "channel5" "channel6" "channel7" "channel8"
"1" 12086 2.16569664772169e-08 2.55664439768053e-09 1.49325811047392e-08 3.50852825191008e-09 4.77273491735962e-10 9.16753742186912e-10 4.50412348058567e-09 1.78392133694805e-08
"2" 12087 2.16632108520376e-08 2.56199484624999e-09 1.50062347304341e-08 3.51113922302569e-09 4.7827682595883e-10 9.15704801129186e-10 4.51316420821568e-09 1.78176766919796e-08
"3" 12088 2.16694552268583e-08 2.56734529481944e-09 1.5079888356129e-08 3.51375019414131e-09 4.79280160181699e-10 9.14655860071459e-10 4.52220493584569e-09 1.77961400144787e-08
"4" 12089 2.1675699601679e-08 2.57269574338889e-09 1.5153541981824e-08 3.51636116525693e-09 4.80283494404567e-10 9.13606919013732e-10 4.5312456634757e-09 1.77746033369778e-08
"5" 12090 2.16819439764997e-08 2.57804619195835e-09 1.52271956075189e-08 3.51897213637255e-09 4.81286828627436e-10 9.12557977956006e-10 4.54028639110571e-09 1.77530666594769e-08
"6" 12091 2.16881883513204e-08 2.5833966405278e-09 1.53008492332139e-08 3.52158310748816e-09 4.82290162850304e-10 9.11509036898279e-10 4.54932711873572e-09 1.7731529981976e-08
"7" 12092 2.1925515148266e-08 2.59942465813834e-09 1.52929041997013e-08 3.52849208286483e-09 4.83281841096263e-10 9.11509036898279e-10 4.5501377580273e-09 1.77248664601629e-08
"8" 12093 2.21628419452116e-08 2.61545267574887e-09 1.52849591661888e-08 3.5354010582415e-09 4.84273519342223e-10 9.11509036898279e-10 4.55094839731889e-09 1.77182029383498e-08
"9" 12094 2.24001687421573e-08 2.63148069335941e-09 1.52770141326762e-08 3.54231003361817e-09 4.85265197588182e-10 9.11509036898279e-10 4.55175903661048e-09 1.77115394165368e-08
"10" 12095 2.26374955391029e-08 2.64750871096994e-09 1.52690690991637e-08 3.54921900899484e-09 4.86256875834142e-10 9.11509036898279e-10 4.55256967590207e-09 1.77048758947237e-08
"11" 12096 2.28748223360485e-08 2.66353672858048e-09 1.52611240656511e-08 3.5561279843715e-09 4.87248554080102e-10 9.11509036898279e-10 4.55338031519366e-09 1.76982123729106e-08
"12" 12097 2.31121491329941e-08 2.67956474619101e-09 1.52531790321386e-08 3.56303695974817e-09 4.88240232326061e-10 9.11509036898279e-10 4.55419095448524e-09 1.76915488510976e-08
"13" 12098 2.33494759299397e-08 2.69559276380155e-09 1.5245233998626e-08 3.56994593512484e-09 4.89231910572021e-10 9.11509036898279e-10 4.55500159377683e-09 1.76848853292845e-08
"14" 12099 2.3505151914446e-08 2.71546563939078e-09 1.5246452015925e-08 3.56365291839496e-09 4.86221907903415e-10 9.08465083371725e-10 4.55593725229998e-09 1.77025695611209e-08
"15" 12100 2.36608278989523e-08 2.73533851498002e-09 1.52476700332239e-08 3.55735990166508e-09 4.8321190523481e-10 9.0542112984517e-10 4.55687291082312e-09 1.77202537929573e-08
"16" 12101 2.38919103210772e-08 2.72991081731152e-09 1.51988035850503e-08 3.56305877838085e-09 4.83200249257901e-10 9.06194976932637e-10 4.5576835501147e-09 1.77441947982159e-08
"17" 12102 2.41229927432021e-08 2.72448311964302e-09 1.51499371368767e-08 3.56875765509661e-09 4.83188593280992e-10 9.06968824020104e-10 4.55849418940629e-09 1.77681358034745e-08
"18" 12103 2.4354075165327e-08 2.71905542197452e-09 1.51010706887031e-08 3.57445653181238e-09 4.83176937304083e-10 9.0774267110757e-10 4.55930482869788e-09 1.77920768087331e-08
"19" 12104 2.45851575874519e-08 2.71362772430603e-09 1.50522042405295e-08 3.58015540852815e-09 4.83165281327175e-10 9.08516518195037e-10 4.56011546798947e-09 1.78160178139917e-08
"20" 12105 2.4598214993784e-08 2.68939724076218e-09 1.50284259265553e-08 3.58155628098286e-09 4.82161947104306e-10 9.08241424224777e-10 4.55999044875791e-09 1.78322040752112e-08
"21" 12106 2.4611272400116e-08 2.66516675721834e-09 1.5004647612581e-08 3.58295715343757e-09 4.81158612881438e-10 9.07966330254518e-10 4.55986542952636e-09 1.78483903364307e-08
"22" 12107 2.46048983565882e-08 2.63986618396061e-09 1.49853353620363e-08 3.58295715343757e-09 4.86404262594793e-10 9.11784130868539e-10 4.57221056203399e-09 1.78546471098528e-08
"23" 12108 2.45985243130604e-08 2.61456561070287e-09 1.49660231114915e-08 3.58295715343757e-09 4.91649912308148e-10 9.1560193148256e-10 4.58455569454162e-09 1.7860903883275e-08
"24" 12109 2.45921502695326e-08 2.58926503744514e-09 1.49467108609468e-08 3.58295715343757e-09 4.96895562021503e-10 9.19419732096582e-10 4.59690082704925e-09 1.78671606566972e-08
"25" 12110 2.45857762260048e-08 2.5639644641874e-09 1.49273986104021e-08 3.58295715343757e-09 5.02141211734858e-10 9.23237532710603e-10 4.60924595955689e-09 1.78734174301194e-08
"26" 12111 2.4579402182477e-08 2.53866389092967e-09 1.49080863598573e-08 3.58295715343757e-09 5.07386861448213e-10 9.27055333324624e-10 4.62159109206452e-09 1.78796742035416e-08
"27" 12112 2.45792725137699e-08 2.5384508061108e-09 1.48560418982787e-08 3.54011613498933e-09 5.13635845384436e-10 9.30873133938646e-10 4.59129084733743e-09 1.77409769736765e-08
"28" 12113 2.45791428450628e-08 2.53823772129194e-09 1.48039974367001e-08 3.49727511654108e-09 5.19884829320659e-10 9.34690934552667e-10 4.56099060261035e-09 1.76022797438114e-08
"29" 12114 2.45790131763556e-08 2.53802463647307e-09 1.47519529751215e-08 3.45443409809283e-09 5.26133813256883e-10 9.38508735166689e-10 4.53069035788327e-09 1.74635825139464e-08
"30" 12115 2.45788835076485e-08 2.53781155165421e-09 1.46999085135428e-08 3.41159307964459e-09 5.32382797193106e-10 9.4232653578071e-10 4.50039011315619e-09 1.73248852840813e-08
"31" 12116 2.45787538389414e-08 2.53759846683534e-09 1.46478640519642e-08 3.36875206119634e-09 5.3863178112933e-10 9.46144336394731e-10 4.4700898684291e-09 1.71861880542162e-08
"32" 12117 2.45786241702343e-08 2.53738538201648e-09 1.45958195903856e-08 3.32591104274809e-09 5.44880765065553e-10 9.49962137008753e-10 4.43978962370202e-09 1.70474908243512e-08
"33" 12118 2.45784945015272e-08 2.53717229719761e-09 1.4543775128807e-08 3.28307002429984e-09 5.51129749001776e-10 9.53779937622774e-10 4.40948937897494e-09 1.69087935944861e-08
"34" 12119 2.45783648328201e-08 2.53695921237875e-09 1.44917306672283e-08 3.2402290058516e-09 5.57378732938e-10 9.57597738236795e-10 4.37918913424785e-09 1.6770096364621e-08
"35" 12120 2.4578235164113e-08 2.53674612755988e-09 1.44396862056497e-08 3.19738798740335e-09 5.63627716874223e-10 9.61415538850817e-10 4.34888888952077e-09 1.6631399134756e-08
"36" 12121 2.45741703439662e-08 2.5303302548961e-09 1.44704584205775e-08 3.18539609395771e-09 5.69876700810447e-10 9.63186892172697e-10 4.3407838204139e-09 1.65967117223877e-08
"37" 12122 2.45701055238193e-08 2.52391438223233e-09 1.45012306355054e-08 3.17340420051206e-09 5.7612568474667e-10 9.64958245494578e-10 4.33267875130704e-09 1.65620243100194e-08
"38" 12123 2.45660407036725e-08 2.51749850956855e-09 1.45320028504332e-08 3.16141230706642e-09 5.82374668682893e-10 9.66729598816459e-10 4.32457368220017e-09 1.65273368976511e-08
"39" 12124 2.45619758835257e-08 2.51108263690477e-09 1.4562775065361e-08 3.14942041362077e-09 5.88623652619117e-10 9.6850095213834e-10 4.3164686130933e-09 1.64926494852828e-08
"40" 12125 2.45579110633789e-08 2.50466676424099e-09 1.45935472802888e-08 3.13742852017513e-09 5.9487263655534e-10 9.70272305460221e-10 4.30836354398644e-09 1.64579620729145e-08
"41" 12126 2.45538462432321e-08 2.49825089157721e-09 1.46243194952166e-08 3.12543662672949e-09 6.01121620491564e-10 9.72043658782101e-10 4.30025847487957e-09 1.64232746605463e-08
"42" 12127 2.45497814230852e-08 2.49183501891343e-09 1.46550917101445e-08 3.11344473328384e-09 6.07370604427787e-10 9.73815012103982e-10 4.29215340577271e-09 1.6388587248178e-08
"43" 12128 2.45457166029384e-08 2.50999388471261e-09 1.46612158685773e-08 3.10192977432273e-09 6.07370604427787e-10 9.71493470841582e-10 4.27344817816393e-09 1.63567109119582e-08
"44" 12129 2.454519792811e-08 2.51277331859699e-09 1.48334371167774e-08 3.13966605606932e-09 6.07622894980618e-10 9.69395588726128e-10 4.25860795626125e-09 1.632202349959e-08
"45" 12130 2.45446792532815e-08 2.51555275248136e-09 1.50056583649776e-08 3.17740233781592e-09 6.07875185533448e-10 9.67297706610675e-10 4.24376773435857e-09 1.62873360872217e-08
"46" 12131 2.45441605784531e-08 2.51833218636574e-09 1.51778796131777e-08 3.21513861956251e-09 6.08127476086279e-10 9.65199824495222e-10 4.22892751245589e-09 1.62526486748534e-08
"47" 12132 2.45436419036247e-08 2.52111162025012e-09 1.53501008613779e-08 3.25287490130911e-09 6.0837976663911e-10 9.63101942379769e-10 4.21408729055321e-09 1.62179612624851e-08
"48" 12133 2.45431232287962e-08 2.52389105413449e-09 1.5522322109578e-08 3.2906111830557e-09 6.08632057191941e-10 9.61004060264315e-10 4.19924706865053e-09 1.61832738501168e-08
"49" 12134 2.45426045539678e-08 2.52667048801887e-09 1.56945433577781e-08 3.3283474648023e-09 6.08884347744771e-10 9.58906178148862e-10 4.18440684674786e-09 1.61485864377486e-08
"50" 12135 2.45420858791394e-08 2.52944992190325e-09 1.58667646059783e-08 3.36608374654889e-09 6.09136638297602e-10 9.56808296033409e-10 4.16956662484518e-09 1.61138990253803e-08
"51" 12136 2.45163551809609e-08 2.5348003704727e-09 1.59634772814657e-08 3.38305505880041e-09 6.07153281805683e-10 9.41277594722983e-10 4.12748581986598e-09 1.5781590158782e-08
"52" 12137 2.44906244827824e-08 2.54015081904216e-09 1.60601899569532e-08 3.40002637105192e-09 6.05169925313764e-10 9.25746893412558e-10 4.08540501488678e-09 1.54492812921836e-08
"53" 12138 2.44825895594091e-08 2.52947325000108e-09 1.62156741102328e-08 3.4476859655111e-09 6.03169084856482e-10 9.19607551536136e-10 4.09101499459859e-09 1.5407928646737e-08
"54" 12139 2.44745546360359e-08 2.51879568096e-09 1.63711582635124e-08 3.49534555997028e-09 6.01168244399199e-10 9.13468209659714e-10 4.09662497431041e-09 1.53665760012903e-08
"55" 12140 2.44665197126626e-08 2.50811811191892e-09 1.65266424167921e-08 3.54300515442946e-09 5.99167403941917e-10 9.07328867783292e-10 4.10223495402223e-09 1.53252233558437e-08
"56" 12141 2.44606643439633e-08 2.48931532604357e-09 1.65417441313346e-08 3.54141350818094e-09 5.9716073549618e-10 9.01189525906871e-10 4.10784493373405e-09 1.52890405397564e-08
"57" 12142 2.44548089752639e-08 2.47051254016823e-09 1.65568458458772e-08 3.53982186193241e-09 5.95154067050443e-10 8.95050184030449e-10 4.11345491344587e-09 1.52528577236692e-08
"58" 12143 2.44489536065645e-08 2.45170975429288e-09 1.65719475604197e-08 3.53823021568388e-09 5.93147398604706e-10 8.88910842154027e-10 4.11906489315769e-09 1.52166749075819e-08
"59" 12144 2.44430982378651e-08 2.43290696841754e-09 1.65870492749623e-08 3.53663856943535e-09 5.9114073015897e-10 8.82771500277605e-10 4.12467487286951e-09 1.51804920914947e-08
"60" 12145 2.44372428691658e-08 2.41410418254219e-09 1.66021509895048e-08 3.53504692318683e-09 5.89134061713233e-10 8.76632158401183e-10 4.13028485258133e-09 1.51443092754074e-08
"61" 12146 2.44313875004664e-08 2.39530139666685e-09 1.66172527040474e-08 3.5334552769383e-09 5.87127393267496e-10 8.70492816524762e-10 4.13589483229315e-09 1.51081264593202e-08
"62" 12147 2.4425532131767e-08 2.3764986107915e-09 1.66323544185899e-08 3.53186363068977e-09 5.85120724821759e-10 8.6435347464834e-10 4.14150481200497e-09 1.50719436432329e-08
"63" 12148 2.47042501906368e-08 2.36304160786605e-09 1.66534875442144e-08 3.53654318253845e-09 5.83870928034514e-10 8.57990473624971e-10 4.14206541283345e-09 1.50240169138016e-08
"64" 12149 2.49829682495066e-08 2.34958460494059e-09 1.66746206698388e-08 3.54122273438712e-09 5.8262113124727e-10 8.51627472601602e-10 4.14262601366193e-09 1.49760901843702e-08
"65" 12150 2.52616863083764e-08 2.33612760201513e-09 1.66957537954633e-08 3.5459022862358e-09 5.81371334460025e-10 8.45264471578233e-10 4.14318661449041e-09 1.49281634549389e-08
"66" 12151 2.55404043672462e-08 2.32267059908968e-09 1.67168869210878e-08 3.55058183808447e-09 5.8012153767278e-10 8.38901470554864e-10 4.14374721531889e-09 1.48802367255075e-08
"67" 12152 2.58191224261159e-08 2.30921359616422e-09 1.67380200467122e-08 3.55526138993315e-09 5.78871740885536e-10 8.32538469531495e-10 4.14430781614736e-09 1.48323099960761e-08
"68" 12153 2.60978404849857e-08 2.29575659323876e-09 1.67591531723367e-08 3.55994094178182e-09 5.77621944098291e-10 8.26175468508126e-10 4.14486841697584e-09 1.47843832666448e-08
"69" 12154 2.63765585438555e-08 2.28229959031331e-09 1.67802862979612e-08 3.5646204936305e-09 5.76372147311046e-10 8.19812467484757e-10 4.14542901780432e-09 1.47364565372134e-08
"70" 12155 2.66552766027253e-08 2.26884258738785e-09 1.68014194235857e-08 3.56930004547917e-09 5.75122350523802e-10 8.13449466461388e-10 4.1459896186328e-09 1.46885298077821e-08
"71" 12156 2.69339946615951e-08 2.25538558446239e-09 1.68225525492101e-08 3.57397959732785e-09 5.73872553736557e-10 8.07086465438019e-10 4.14655021946128e-09 1.46406030783507e-08
"72" 12157 2.71535106899356e-08 2.24192858153694e-09 1.6858880136728e-08 3.58072772990958e-09 5.74623597406595e-10 8.0681137146776e-10 4.14742270646414e-09 1.4638562491335e-08
"73" 12158 2.73730267182761e-08 2.22847157861148e-09 1.68952077242459e-08 3.58747586249131e-09 5.75374641076632e-10 8.065362774975e-10 4.148295193467e-09 1.46365219043194e-08
"74" 12159 2.76597797005191e-08 2.23488745127526e-09 1.69342609457271e-08 3.58080129817381e-09 5.72399606338754e-10 8.02649122206469e-10 4.14885579429548e-09 1.46306271603739e-08
"75" 12160 2.79465326827622e-08 2.24130332393904e-09 1.69733141672082e-08 3.57412673385631e-09 5.69424571600875e-10 7.98761966915439e-10 4.14941639512395e-09 1.46247324164284e-08
"76" 12161 2.82332856650052e-08 2.24771919660282e-09 1.70123673886894e-08 3.5674521695388e-09 5.66449536862997e-10 7.94874811624408e-10 4.14997699595243e-09 1.4618837672483e-08
"77" 12162 2.85200386472482e-08 2.2541350692666e-09 1.70514206101706e-08 3.5607776052213e-09 5.63474502125118e-10 7.90987656333378e-10 4.15053759678091e-09 1.46129429285375e-08
"78" 12163 2.88067916294913e-08 2.26055094193038e-09 1.70904738316517e-08 3.5541030409038e-09 5.6049946738724e-10 7.87100501042347e-10 4.15109819760939e-09 1.4607048184592e-08
"79" 12164 2.88067916294913e-08 2.26083661022872e-09 1.71076055750259e-08 3.53937485844676e-09 5.58756745471242e-10 7.83213345751317e-10 4.15165879843787e-09 1.46097233927327e-08
"80" 12165 2.88067916294913e-08 2.26112227852706e-09 1.71247373184e-08 3.52464667598971e-09 5.57014023555245e-10 7.79326190460286e-10 4.15221939926635e-09 1.46123986008735e-08
"81" 12166 2.88054998340559e-08 2.26717523379346e-09 1.71577591287992e-08 3.52873208782427e-09 5.55271301639248e-10 7.76385106580357e-10 4.15303003855793e-09 1.461022214585e-08
"82" 12167 2.88042080386206e-08 2.27322818905985e-09 1.71907809391985e-08 3.53281749965883e-09 5.53528579723251e-10 7.73444022700428e-10 4.15384067784952e-09 1.46080456908264e-08
"83" 12168 2.88029162431852e-08 2.27928114432625e-09 1.72238027495977e-08 3.5369029114934e-09 5.51785857807254e-10 7.70502938820498e-10 4.15465131714111e-09 1.46058692358029e-08
"84" 12169 2.88016244477499e-08 2.28533409959264e-09 1.72568245599969e-08 3.54098832332796e-09 5.50043135891256e-10 7.67561854940569e-10 4.1554619564327e-09 1.46036927807794e-08
"85" 12170 2.88003326523145e-08 2.29138705485904e-09 1.72898463703961e-08 3.54507373516252e-09 5.48300413975259e-10 7.6462077106064e-10 4.15627259572428e-09 1.46015163257559e-08
"86" 12171 2.87962129586698e-08 2.29359515214673e-09 1.73004129332084e-08 3.56051326316326e-09 5.50536061020009e-10 7.63245301209341e-10 4.15315505778949e-09 1.45403072716126e-08
"87" 12172 2.8792093265025e-08 2.29580324943442e-09 1.73109794960206e-08 3.575952791164e-09 5.52771708064759e-10 7.61869831358042e-10 4.15003751985469e-09 1.44790982174693e-08
"88" 12173 2.87879735713803e-08 2.29801134672212e-09 1.73215460588328e-08 3.59139231916474e-09 5.55007355109508e-10 7.60494361506742e-10 4.14691998191989e-09 1.4417889163326e-08
"89" 12174 2.87838538777355e-08 2.30021944400981e-09 1.73321126216451e-08 3.60683184716548e-09 5.57243002154258e-10 7.59118891655443e-10 4.1438024439851e-09 1.43566801091827e-08
"90" 12175 2.87797341840907e-08 2.3024275412975e-09 1.73426791844573e-08 3.62227137516622e-09 5.59478649199008e-10 7.57743421804144e-10 4.1406849060503e-09 1.42954710550394e-08
"91" 12176 2.8775614490446e-08 2.3046356385852e-09 1.73532457472696e-08 3.63771090316696e-09 5.61714296243758e-10 7.56367951952845e-10 4.1375673681155e-09 1.42342620008961e-08
"92" 12177 2.87714947968012e-08 2.30684373587289e-09 1.73638123100818e-08 3.6531504311677e-09 5.63949943288507e-10 7.54992482101546e-10 4.13444983018071e-09 1.41730529467528e-08
"93" 12178 2.87673751031564e-08 2.30905183316058e-09 1.7374378872894e-08 3.66858995916844e-09 5.66185590333257e-10 7.53617012250247e-10 4.13133229224591e-09 1.41118438926095e-08
"94" 12179 2.87632554095117e-08 2.31125993044827e-09 1.73849454357063e-08 3.68402948716918e-09 5.68421237378007e-10 7.52241542398948e-10 4.12821475431112e-09 1.40506348384662e-08
"95" 12180 2.87645671266582e-08 2.31125993044827e-09 1.73789140246243e-08 3.6917015577211e-09 5.7041042185838e-10 7.52138672752322e-10 4.12821475431112e-09 1.40287361314886e-08
"96" 12181 2.87658788438048e-08 2.31125993044827e-09 1.73728826135424e-08 3.69937362827301e-09 5.72399606338754e-10 7.52035803105697e-10 4.12821475431112e-09 1.40068374245109e-08
"97" 12182 2.87671905609514e-08 2.31125993044827e-09 1.73668512024605e-08 3.70704569882493e-09 5.74388790819127e-10 7.51932933459072e-10 4.12821475431112e-09 1.39849387175333e-08
"98" 12183 2.8768502278098e-08 2.31125993044827e-09 1.73608197913785e-08 3.71471776937685e-09 5.76377975299501e-10 7.51830063812446e-10 4.12821475431112e-09 1.39630400105557e-08
"99" 12184 2.87698139952445e-08 2.31125993044827e-09 1.73547883802966e-08 3.72238983992877e-09 5.78367159779874e-10 7.51727194165821e-10 4.12821475431112e-09 1.39411413035781e-08
"100" 12185 2.87711257123911e-08 2.31125993044827e-09 1.73487569692147e-08 3.73006191048068e-09 5.80356344260248e-10 7.51624324519196e-10 4.12821475431112e-09 1.39192425966005e-08
"101" 12186 2.87724374295377e-08 2.31125993044827e-09 1.73427255581328e-08 3.7377339810326e-09 5.82345528740621e-10 7.5152145487257e-10 4.12821475431112e-09 1.38973438896228e-08
"102" 12187 2.87877890291752e-08 2.30627706489577e-09 1.73032199572098e-08 3.72728198420393e-09 5.82351356729076e-10 7.5152145487257e-10 4.14355240552199e-09 1.39288556294679e-08
"103" 12188 2.87984274651304e-08 2.30663998229316e-09 1.73167790387253e-08 3.74462113777659e-09 5.84340541209449e-10 7.51418585225945e-10 4.17191683787349e-09 1.39919728251496e-08
"104" 12189 2.88090659010855e-08 2.30700289969054e-09 1.73303381202408e-08 3.76196029134925e-09 5.86329725689823e-10 7.5131571557932e-10 4.20028127022500e-09 1.40550900208314e-08
"105" 12190 2.88197043370407e-08 2.30736581708793e-09 1.73438972017563e-08 3.77929944492191e-09 5.88318910170196e-10 7.51212845932695e-10 4.2286457025765e-09 1.41182072165131e-08
"106" 12191 2.88303427729959e-08 2.30772873448531e-09 1.73574562832718e-08 3.79663859849458e-09 5.9030809465057e-10 7.51109976286069e-10 4.257010134928e-09 1.41813244121948e-08
"107" 12192 2.88409812089511e-08 2.3080916518827e-09 1.73710153647872e-08 3.81397775206724e-09 5.92297279130943e-10 7.51007106639444e-10 4.2853745672795e-09 1.42444416078766e-08
"108" 12193 2.88516196449062e-08 2.30845456928008e-09 1.73845744463027e-08 3.8313169056399e-09 5.94286463611317e-10 7.50904236992819e-10 4.31373899963101e-09 1.43075588035583e-08
"109" 12194 2.88622580808614e-08 2.30881748667747e-09 1.73981335278182e-08 3.84865605921256e-09 5.9627564809169e-10 7.50801367346193e-10 4.34210343198251e-09 1.437067599924e-08
"110" 12195 2.8843135950278e-08 2.3149476910429e-09 1.74439487818757e-08 3.87713673652491e-09 5.9751961689048e-10 7.49580201964832e-10 4.36566852391378e-09 1.44476662774773e-08
"111" 12196 2.88547170189696e-08 2.30889007015694e-09 1.74833729927604e-08 3.90291105582474e-09 5.99502973382399e-10 7.50526273375933e-10 4.39496861478843e-09 1.45343598820429e-08
"112" 12197 2.88662980876612e-08 2.30283244927098e-09 1.75227972036451e-08 3.92868537512457e-09 6.01486329874318e-10 7.51472344787035e-10 4.42426870566307e-09 1.46210534866086e-08
"113" 12198 2.88778791563529e-08 2.29677482838502e-09 1.75622214145298e-08 3.9544596944244e-09 6.03469686366237e-10 7.52418416198136e-10 4.45356879653772e-09 1.47077470911742e-08
"114" 12199 2.88894602250445e-08 2.29071720749906e-09 1.76016456254145e-08 3.98023401372422e-09 6.05453042858156e-10 7.53364487609237e-10 4.48286888741236e-09 1.47944406957399e-08
"115" 12200 2.89057544574185e-08 2.28208857192802e-09 1.76263514128977e-08 3.9775276557117e-09 6.14160824449688e-10 7.57251642900268e-10 4.49446390453067e-09 1.47982948526697e-08
"116" 12201 2.89220486897925e-08 2.27345993635698e-09 1.76510572003808e-08 3.97482129769918e-09 6.2286860604122e-10 7.61138798191298e-10 4.50605892164897e-09 1.48021490095995e-08
"117" 12202 2.89383429221666e-08 2.26483130078594e-09 1.76757629878639e-08 3.97211493968665e-09 6.31576387632751e-10 7.65025953482329e-10 4.51765393876727e-09 1.48060031665293e-08
"118" 12203 2.89546371545406e-08 2.2562026652149e-09 1.77004687753471e-08 3.96940858167413e-09 6.40284169224283e-10 7.68913108773359e-10 4.52924895588558e-09 1.48098573234591e-08
"119" 12204 2.89709313869146e-08 2.24757402964387e-09 1.77251745628302e-08 3.96670222366161e-09 6.48991950815815e-10 7.7280026406439e-10 4.54084397300388e-09 1.48137114803889e-08
"120" 12205 2.89872256192886e-08 2.23894539407283e-09 1.77498803503133e-08 3.96399586564908e-09 6.57699732407346e-10 7.7668741935542e-10 4.55243899012218e-09 1.48175656373187e-08
"121" 12206 2.90035198516626e-08 2.23031675850179e-09 1.77745861377964e-08 3.96128950763656e-09 6.66407513998878e-10 7.80574574646451e-10 4.56403400724049e-09 1.48214197942485e-08
"122" 12207 2.9111948850377e-08 2.21805634977091e-09 1.78215380191147e-08 3.96663676776358e-09 6.66401686010423e-10 7.80849668616711e-10 4.56415902647204e-09 1.48252739511784e-08
"123" 12208 2.92203778490915e-08 2.20579594104004e-09 1.7868489900433e-08 3.97198402789060e-09 6.66395858021969e-10 7.81124762586971e-10 4.5642840457036e-09 1.48291281081082e-08
"124" 12209 2.93288068478059e-08 2.19353553230916e-09 1.79154417817512e-08 3.97733128801761e-09 6.66390030033514e-10 7.8139985655723e-10 4.56440906493515e-09 1.4832982265038e-08
"125" 12210 2.94372358465204e-08 2.18127512357829e-09 1.79623936630695e-08 3.98267854814463e-09 6.6638420204506e-10 7.8167495052749e-10 4.5645340841667e-09 1.48368364219678e-08
"126" 12211 2.95456648452348e-08 2.16901471484741e-09 1.80093455443878e-08 3.98802580827165e-09 6.66378374056606e-10 7.8195004449775e-10 4.56465910339826e-09 1.48406905788976e-08
"127" 12212 2.96540938439493e-08 2.15675430611654e-09 1.8056297425706e-08 3.99337306839867e-09 6.66372546068151e-10 7.8222513846801e-10 4.56478412262981e-09 1.48445447358274e-08
"128" 12213 2.97625228426638e-08 2.14449389738566e-09 1.81032493070243e-08 3.99872032852569e-09 6.66366718079697e-10 7.8250023243827e-10 4.56490914186137e-09 1.48483988927572e-08
"129" 12214 2.98709518413782e-08 2.13223348865478e-09 1.81502011883425e-08 4.0040675886527e-09 6.66360890091242e-10 7.8277532640853e-10 4.56503416109292e-09 1.4852253049687e-08
"130" 12215 2.99793808400927e-08 2.11997307992391e-09 1.81971530696608e-08 4.00941484877972e-09 6.66355062102788e-10 7.83050420378789e-10 4.56515918032448e-09 1.48561072066168e-08
"131" 12216 3.00683783889473e-08 2.10393573107424e-09 1.82577454225327e-08 4.01706510069896e-09 6.66355062102788e-10 7.83050420378789e-10 4.56515918032448e-09 1.47706862668319e-08
"132" 12217 3.01573759378019e-08 2.08789838222458e-09 1.83183377754047e-08 4.0247153526182e-09 6.66355062102788e-10 7.83050420378789e-10 4.56515918032448e-09 1.4685265327047e-08
"133" 12218 3.02463734866565e-08 2.08811146704344e-09 1.82646920053862e-08 3.95808132107248e-09 6.66349234114333e-10 7.77219687442244e-10 4.54583415179397e-09 1.46262327279272e-08
"134" 12219 3.03353710355111e-08 2.08832455186231e-09 1.82110462353676e-08 3.89144728952676e-09 6.66343406125879e-10 7.71388954505698e-10 4.52650912326347e-09 1.45672001288074e-08
"135" 12220 3.04243685843657e-08 2.08853763668117e-09 1.81574004653491e-08 3.82481325798103e-09 6.66337578137424e-10 7.65558221569152e-10 4.50718409473296e-09 1.45081675296876e-08
"136" 12221 3.05133661332203e-08 2.08875072150004e-09 1.81037546953306e-08 3.75817922643531e-09 6.6633175014897e-10 7.59727488632606e-10 4.48785906620246e-09 1.44491349305678e-08
"137" 12222 3.06023636820749e-08 2.0889638063189e-09 1.8050108925312e-08 3.69154519488959e-09 6.66325922160516e-10 7.5389675569606e-10 4.46853403767195e-09 1.4390102331448e-08
"138" 12223 3.06913612309295e-08 2.08917689113777e-09 1.79964631552935e-08 3.62491116334386e-09 6.66320094172061e-10 7.48066022759515e-10 4.44920900914144e-09 1.43310697323282e-08
"139" 12224 3.06726130763919e-08 2.08946255943611e-09 1.78836285444037e-08 3.55091304056962e-09 6.6705948186519e-10 7.4290626726381e-10 4.44222911311857e-09 1.43996250708544e-08
"140" 12225 3.07081342947095e-08 2.0955155147025e-09 1.77973319533895e-08 3.48427900902390e-09 6.66807191312359e-10 7.36800440357005e-10 4.44335428620256e-09 1.43412718117738e-08
"141" 12226 3.07436555130271e-08 2.1015684699689e-09 1.77110353623753e-08 3.41764497747817e-09 6.66554900759528e-10 7.30694613450199e-10 4.44447945928655e-09 1.42829185526933e-08
"142" 12227 3.07791767313447e-08 2.10762142523529e-09 1.76247387713611e-08 3.35101094593245e-09 6.66302610206698e-10 7.24588786543393e-10 4.44560463237055e-09 1.42245652936127e-08
"143" 12228 3.08146979496622e-08 2.11367438050169e-09 1.75384421803469e-08 3.28437691438673e-09 6.66050319653867e-10 7.18482959636588e-10 4.44672980545454e-09 1.41662120345321e-08
"144" 12229 3.08502191679798e-08 2.11972733576808e-09 1.74521455893327e-08 3.217742882841e-09 6.65798029101036e-10 7.12377132729782e-10 4.44785497853853e-09 1.41078587754516e-08
"145" 12230 3.07967428374428e-08 2.11011052520176e-09 1.74800407475335e-08 3.22033203532394e-09 6.63562382056287e-10 7.1020989593732e-10 4.46774457932455e-09 1.39602708604072e-08
"146" 12231 3.07432665069057e-08 2.10049371463544e-09 1.75079359057343e-08 3.22292118780689e-09 6.61326735011537e-10 7.08042659144857e-10 4.48763418011057e-09 1.38126829453628e-08
"147" 12232 3.06897901763687e-08 2.09087690406912e-09 1.75358310639352e-08 3.22551034028983e-09 6.59091087966787e-10 7.05875422352395e-10 4.50752378089659e-09 1.36650950303184e-08
"148" 12233 3.06363138458317e-08 2.0812600935028e-09 1.7563726222136e-08 3.22809949277277e-09 6.56855440922037e-10 7.03708185559932e-10 4.52741338168261e-09 1.3517507115274e-08
"149" 12234 3.05828375152947e-08 2.07164328293648e-09 1.75916213803368e-08 3.23068864525571e-09 6.54619793877288e-10 7.0154094876747e-10 4.54730298246863e-09 1.33699192002296e-08
"150" 12235 3.05293611847576e-08 2.06202647237016e-09 1.76195165385376e-08 3.23327779773865e-09 6.52384146832538e-10 6.99373711975008e-10 4.56719258325465e-09 1.32223312851852e-08
"151" 12236 3.04758848542206e-08 2.05240966180384e-09 1.76474116967385e-08 3.23586695022159e-09 6.50148499787788e-10 6.97206475182545e-10 4.58708218404067e-09 1.30747433701408e-08
"152" 12237 3.04224085236836e-08 2.04279285123752e-09 1.76753068549393e-08 3.23845610270453e-09 6.47912852743038e-10 6.95039238390083e-10 4.60697178482669e-09 1.29271554550964e-08
"153" 12238 3.03689321931465e-08 2.0331760406712e-09 1.77032020131401e-08 3.24104525518747e-09 6.45677205698289e-10 6.9287200159762e-10 4.62686138561271e-09 1.2779567540052e-08
"154" 12239 3.04198200411771e-08 2.03709348212937e-09 1.77135594222005e-08 3.24209451105344e-09 6.43441558653539e-10 6.91823060539894e-10 4.64731158722721e-09 1.27824233351148e-08
"155" 12240 3.04707078892077e-08 2.04101092358755e-09 1.77239168312609e-08 3.24314376691941e-09 6.41205911608789e-10 6.90774119482167e-10 4.6677617888417e-09 1.27852791301775e-08
"156" 12241 3.05215957372383e-08 2.04492836504573e-09 1.77342742403213e-08 3.24419302278537e-09 6.38970264564039e-10 6.8972517842444e-10 4.6882119904562e-09 1.27881349252403e-08
"157" 12242 3.05724835852689e-08 2.04884580650391e-09 1.77446316493816e-08 3.24524227865134e-09 6.3673461751929e-10 6.88676237366714e-10 4.7086621920707e-09 1.2790990720303e-08
"158" 12243 3.06233714332995e-08 2.05276324796209e-09 1.7754989058442e-08 3.24629153451731e-09 6.3449897047454e-10 6.87627296308987e-10 4.7291123936852e-09 1.27938465153657e-08
"159" 12244 3.06742592813301e-08 2.05668068942027e-09 1.77653464675024e-08 3.24734079038328e-09 6.3226332342979e-10 6.86578355251261e-10 4.7495625952997e-09 1.27967023104285e-08
"160" 12245 3.07008976604584e-08 2.11119927739392e-09 1.78416443371224e-08 3.26192183631186e-09 6.42267525716202e-10 7.10724244170446e-10 4.75168262700008e-09 1.28023691816398e-08
"161" 12246 3.06975161356338e-08 2.11511671885209e-09 1.78240602143065e-08 3.25532084025859e-09 6.41023556917412e-10 7.1356245840375e-10 4.7534276010058e-09 1.28052249767025e-08
"162" 12247 3.06941346108093e-08 2.11903416031027e-09 1.78064760914906e-08 3.24871984420531e-09 6.39779588118622e-10 7.16400672637054e-10 4.75517257501152e-09 1.28080807717653e-08
"163" 12248 3.06907530859847e-08 2.12295160176845e-09 1.77888919686747e-08 3.24211884815204e-09 6.38535619319831e-10 7.19238886870358e-10 4.75691754901724e-09 1.2810936566828e-08
"164" 12249 3.06873715611601e-08 2.12686904322663e-09 1.77713078458588e-08 3.23551785209877e-09 6.37291650521041e-10 7.22077101103662e-10 4.75866252302295e-09 1.28137923618907e-08
"165" 12250 3.06839900363356e-08 2.13078648468481e-09 1.77537237230429e-08 3.22891685604549e-09 6.36047681722251e-10 7.24915315336966e-10 4.76040749702867e-09 1.28166481569535e-08
"166" 12251 3.0680608511511e-08 2.13470392614299e-09 1.7736139600227e-08 3.22231585999222e-09 6.3480371292346e-10 7.2775352957027e-10 4.76215247103439e-09 1.28195039520162e-08
"167" 12252 3.06772269866864e-08 2.13862136760117e-09 1.77185554774111e-08 3.21571486393895e-09 6.3355974412467e-10 7.30591743803574e-10 4.76389744504011e-09 1.2822359747079e-08
"168" 12253 3.05961298008622e-08 2.14232105862092e-09 1.77181030979693e-08 3.21571486393895e-09 6.3355974412467e-10 7.25655647454817e-10 4.72462229182132e-09 1.28289338310637e-08
"169" 12254 3.0515032615038e-08 2.14602074964066e-09 1.77176507185276e-08 3.21571486393895e-09 6.3355974412467e-10 7.20719551106059e-10 4.68534713860254e-09 1.28355079150484e-08
"170" 12255 3.04339354292138e-08 2.14972044066041e-09 1.77171983390858e-08 3.21571486393895e-09 6.3355974412467e-10 7.15783454757302e-10 4.64607198538375e-09 1.28420819990331e-08
"171" 12256 3.03528382433896e-08 2.15342013168016e-09 1.7716745959644e-08 3.21571486393895e-09 6.3355974412467e-10 7.10847358408545e-10 4.60679683216497e-09 1.28486560830178e-08
"172" 12257 3.02717410575654e-08 2.15711982269991e-09 1.77162935802023e-08 3.21571486393895e-09 6.3355974412467e-10 7.05911262059788e-10 4.56752167894618e-09 1.28552301670025e-08
"173" 12258 3.01906438717412e-08 2.16081951371966e-09 1.77158412007605e-08 3.21571486393895e-09 6.3355974412467e-10 7.00975165711031e-10 4.5282465257274e-09 1.28618042509872e-08
"174" 12259 3.01856014670712e-08 2.15690207226148e-09 1.77138111719289e-08 3.21939690955321e-09 6.31553075678934e-10 6.95558236098763e-10 4.51122442441307e-09 1.27915273472731e-08
"175" 12260 3.01805590624012e-08 2.1529846308033e-09 1.77117811430973e-08 3.22307895516747e-09 6.29546407233197e-10 6.90141306486495e-10 4.49420232309873e-09 1.27212504435591e-08
"176" 12261 3.01755166577312e-08 2.14906718934512e-09 1.77097511142657e-08 3.22676100078173e-09 6.2753973878746e-10 6.84724376874228e-10 4.4771802217844e-09 1.26509735398451e-08
"177" 12262 3.01704742530612e-08 2.14514974788694e-09 1.77077210854341e-08 3.23044304639599e-09 6.25533070341723e-10 6.7930744726196e-10 4.46015812047007e-09 1.2580696636131e-08
"178" 12263 3.01654318483912e-08 2.14123230642876e-09 1.77056910566026e-08 3.23412509201025e-09 6.23526401895986e-10 6.73890517649693e-10 4.44313601915574e-09 1.2510419732417e-08
"179" 12264 3.01603894437211e-08 2.13731486497058e-09 1.7703661027771e-08 3.23780713762451e-09 6.21519733450249e-10 6.68473588037425e-10 4.4261139178414e-09 1.24401428287029e-08
"180" 12265 3.01553470390511e-08 2.1333974235124e-09 1.77016309989394e-08 3.24148918323878e-09 6.19513065004513e-10 6.63056658425157e-10 4.40909181652707e-09 1.23698659249889e-08
"181" 12266 3.01503046343811e-08 2.12947998205422e-09 1.76996009701078e-08 3.24517122885304e-09 6.17506396558776e-10 6.5763972881289e-10 4.39206971521274e-09 1.22995890212748e-08
"182" 12267 3.01452622297111e-08 2.12556254059605e-09 1.76975709412762e-08 3.2488532744673e-09 6.15499728113039e-10 6.52222799200622e-10 4.37504761389841e-09 1.22293121175608e-08
"183" 12268 3.01402198250411e-08 2.12164509913787e-09 1.76955409124446e-08 3.25253532008156e-09 6.13493059667302e-10 6.46805869588354e-10 4.35802551258407e-09 1.21590352138468e-08
"184" 12269 3.01351774203711e-08 2.11772765767969e-09 1.7693510883613e-08 3.25621736569582e-09 6.11486391221565e-10 6.41388939976087e-10 4.34100341126974e-09 1.20887583101327e-08
"185" 12270 3.01301350157011e-08 2.11381021622151e-09 1.76914808547814e-08 3.25989941131008e-09 6.09479722775828e-10 6.35972010363819e-10 4.32398130995541e-09 1.20184814064187e-08
"186" 12271 3.01250926110311e-08 2.10989277476333e-09 1.76894508259498e-08 3.26358145692434e-09 6.07473054330092e-10 6.30555080751551e-10 4.30695920864108e-09 1.19482045027046e-08
"187" 12272 3.01200502063611e-08 2.10597533330515e-09 1.76874207971182e-08 3.2672635025386e-09 6.05466385884355e-10 6.25138151139284e-10 4.28993710732674e-09 1.18779275989906e-08
"188" 12273 3.01144541750759e-08 2.10099246775265e-09 1.7693811840291e-08 3.27538257657617e-09 6.03213254874242e-10 6.21096691378315e-10 4.26948690571225e-09 1.18586602368722e-08
"189" 12274 3.01088581437907e-08 2.09600960220014e-09 1.77002028834638e-08 3.28350165061374e-09 6.00960123864129e-10 6.17055231617347e-10 4.24903670409775e-09 1.18393928747537e-08
"190" 12275 2.96452872206422e-08 2.09294450001742e-09 1.77060838162067e-08 3.29209765913585e-09 5.98706992854015e-10 6.03210933835873e-10 4.2126882504439e-09 1.17318014919755e-08
"191" 12276 2.91817162974937e-08 2.08987939783471e-09 1.77119647489497e-08 3.30069366765795e-09 5.96453861843902e-10 5.89366636054399e-10 4.17633979679005e-09 1.16242101091972e-08
"192" 12277 2.87181453743452e-08 2.08681429565199e-09 1.77178456816926e-08 3.30928967618005e-09 5.94200730833789e-10 5.75522338272926e-10 4.1399913431362e-09 1.1516618726419e-08
"193" 12278 2.82545744511966e-08 2.08374919346927e-09 1.77237266144355e-08 3.31788568470215e-09 5.91947599823676e-10 5.61678040491452e-10 4.10364288948235e-09 1.14090273436407e-08
"194" 12279 2.77910035280481e-08 2.08068409128655e-09 1.77296075471784e-08 3.32648169322425e-09 5.89694468813563e-10 5.47833742709978e-10 4.0672944358285e-09 1.13014359608625e-08
"195" 12280 2.73274326048996e-08 2.07761898910383e-09 1.77354884799213e-08 3.33507770174635e-09 5.8744133780345e-10 5.33989444928505e-10 4.03094598217465e-09 1.11938445780843e-08
"196" 12281 2.73276171471046e-08 2.07526572485718e-09 1.77359408593631e-08 3.37922420575241e-09 5.89448006249187e-10 5.32871149193769e-10 4.03188164069779e-09 1.11733045511851e-08
"197" 12282 2.73278016893097e-08 2.07291246061054e-09 1.77363932388048e-08 3.42337070975846e-09 5.91454674694924e-10 5.31752853459033e-10 4.03281729922093e-09 1.11527645242859e-08
"198" 12283 2.73279862315147e-08 2.07055919636389e-09 1.77368456182466e-08 3.46751721376452e-09 5.9346134314066e-10 5.30634557724297e-10 4.03375295774408e-09 1.11322244973868e-08
"199" 12284 2.73281707737198e-08 2.06820593211724e-09 1.77372979976884e-08 3.51166371777058e-09 5.95468011586397e-10 5.29516261989561e-10 4.03468861626722e-09 1.11116844704876e-08
"200" 12285 2.73283553159248e-08 2.0658526678706e-09 1.77377503771301e-08 3.55581022177663e-09 5.97474680032134e-10 5.28397966254826e-10 4.03562427479036e-09 1.10911444435885e-08
"201" 12286 2.73285398581299e-08 2.06349940362395e-09 1.77382027565719e-08 3.59995672578269e-09 5.99481348477871e-10 5.2727967052009e-10 4.0365599333135e-09 1.10706044166893e-08
"202" 12287 2.73287244003349e-08 2.0611461393773e-09 1.77386551360137e-08 3.64410322978874e-09 6.01488016923608e-10 5.26161374785354e-10 4.03749559183665e-09 1.10500643897902e-08
"203" 12288 2.71837120202991e-08 2.05195083282914e-09 1.77391075154554e-08 3.68019611565526e-09 6.03494685369345e-10 5.26161374785354e-10 4.0259610986206e-09 1.10472085947274e-08
"204" 12289 2.70471036480466e-08 2.04880848154738e-09 1.77725817052964e-08 3.68328402125541e-09 6.04239901050928e-10 5.28999589018658e-10 4.01536094011869e-09 1.10614454180249e-08
"205" 12290 2.6910495275794e-08 2.04566613026562e-09 1.78060558951374e-08 3.68637192685555e-09 6.04985116732511e-10 5.31837803251962e-10 4.00476078161678e-09 1.10756822413224e-08
"206" 12291 2.67738869035415e-08 2.04252377898386e-09 1.78395300849784e-08 3.6894598324557e-09 6.05730332414094e-10 5.34676017485266e-10 3.99416062311486e-09 1.10899190646199e-08
"207" 12292 2.6637278531289e-08 2.0393814277021e-09 1.78730042748194e-08 3.69254773805585e-09 6.06475548095678e-10 5.3751423171857e-10 3.98356046461295e-09 1.11041558879174e-08
"208" 12293 2.65006701590365e-08 2.03623907642033e-09 1.79064784646604e-08 3.695635643656e-09 6.07220763777261e-10 5.40352445951874e-10 3.97296030611104e-09 1.11183927112149e-08
"209" 12294 2.6364061786784e-08 2.03309672513857e-09 1.79399526545014e-08 3.69872354925615e-09 6.07965979458844e-10 5.43190660185177e-10 3.96236014760912e-09 1.11326295345124e-08
"210" 12295 2.62274534145315e-08 2.02995437385681e-09 1.79734268443424e-08 3.70181145485629e-09 6.08711195140427e-10 5.46028874418481e-10 3.95175998910721e-09 1.11468663578099e-08
"211" 12296 2.6090845042279e-08 2.02681202257505e-09 1.80069010341834e-08 3.70489936045644e-09 6.09456410822011e-10 5.48867088651785e-10 3.9411598306053e-09 1.11611031811073e-08
"212" 12297 2.60951842299155e-08 2.02366967129329e-09 1.79542073411485e-08 3.71535135728511e-09 6.04199105131747e-10 5.50432702680415e-10 3.9432166907854e-09 1.11664974606703e-08
"213" 12298 2.6099523417552e-08 2.02052732001153e-09 1.79015136481137e-08 3.72580335411378e-09 5.98941799441483e-10 5.51998316709046e-10 3.94527355096549e-09 1.11718917402333e-08
"214" 12299 2.61038626051886e-08 2.01738496872976e-09 1.78488199550788e-08 3.73625535094245e-09 5.93684493751219e-10 5.53563930737676e-10 3.94733041114559e-09 1.11772860197962e-08
"215" 12300 2.61082017928251e-08 2.014242617448e-09 1.7796126262044e-08 3.74670734777112e-09 5.88427188060955e-10 5.55129544766306e-10 3.94938727132569e-09 1.11826802993592e-08
"216" 12301 2.61125409804616e-08 2.01110026616624e-09 1.77434325690091e-08 3.75715934459979e-09 5.83169882370691e-10 5.56695158794936e-10 3.95144413150579e-09 1.11880745789221e-08
"217" 12302 2.61168801680981e-08 2.00795791488448e-09 1.76907388759743e-08 3.76761134142846e-09 5.77912576680427e-10 5.58260772823566e-10 3.95350099168589e-09 1.11934688584851e-08
"218" 12303 2.61212193557347e-08 2.00481556360272e-09 1.76380451829395e-08 3.77806333825713e-09 5.72655270990163e-10 5.59826386852196e-10 3.95555785186599e-09 1.1198863138048e-08
"219" 12304 2.61235285791157e-08 2.00167321232095e-09 1.75524688005317e-08 3.77915623138845e-09 5.6640628705394e-10 5.61392000880826e-10 3.97519476657088e-09 1.1469416055941e-08
"220" 12305 2.61501669582439e-08 1.9963227637515e-09 1.74735503460368e-08 3.78547106675101e-09 5.61160637340585e-10 5.59070459618426e-10 3.98111663245708e-09 1.14551328024641e-08
"221" 12306 2.61768053373721e-08 1.99097231518204e-09 1.73946318915418e-08 3.79178590211356e-09 5.5591498762723e-10 5.56748918356025e-10 3.98703849834328e-09 1.14408495489871e-08
"222" 12307 2.62034437165004e-08 1.98562186661259e-09 1.73157134370469e-08 3.79810073747612e-09 5.50669337913875e-10 5.54427377093625e-10 3.99296036422948e-09 1.14265662955101e-08
"223" 12308 2.62300820956286e-08 1.98027141804313e-09 1.72367949825519e-08 3.80441557283867e-09 5.4542368820052e-10 5.52105835831225e-10 3.99888223011568e-09 1.14122830420331e-08
"224" 12309 2.62567204747569e-08 1.97492096947368e-09 1.7157876528057e-08 3.81073040820123e-09 5.40178038487165e-10 5.49784294568824e-10 4.00480409600188e-09 1.13979997885562e-08
"225" 12310 2.62833588538851e-08 1.96957052090422e-09 1.7078958073562e-08 3.81704524356378e-09 5.3493238877381e-10 5.47462753306424e-10 4.01072596188808e-09 1.13837165350792e-08
"226" 12311 2.62899572830404e-08 1.96465557321163e-09 1.70106866274928e-08 3.77301594508731e-09 5.35683432443848e-10 5.46413812248697e-10 4.0163359415999e-09 1.13811316203995e-08
"227" 12312 2.62965557121958e-08 1.95974062551904e-09 1.69424151814235e-08 3.72898664661084e-09 5.36434476113885e-10 5.4536487119097e-10 4.02194592131172e-09 1.13785467057198e-08
"228" 12313 2.63274434536759e-08 1.9626605607428e-09 1.68245002920108e-08 3.73558764266411e-09 5.37185519783923e-10 5.4536487119097e-10 3.99838082938045e-09 1.11860710101268e-08
"229" 12314 2.6358331195156e-08 1.96558049596657e-09 1.67065854025981e-08 3.74218863871738e-09 5.37936563453961e-10 5.4536487119097e-10 3.97481573744918e-09 1.09935953145337e-08
"230" 12315 2.63892189366361e-08 1.96850043119033e-09 1.65886705131854e-08 3.74878963477066e-09 5.38687607123999e-10 5.4536487119097e-10 3.95125064551791e-09 1.08011196189407e-08
"231" 12316 2.64201066781162e-08 1.9714203664141e-09 1.64707556237727e-08 3.75539063082393e-09 5.39438650794036e-10 5.4536487119097e-10 3.92768555358664e-09 1.06086439233477e-08
"232" 12317 2.64509944195963e-08 1.97434030163786e-09 1.635284073436e-08 3.7619916268772e-09 5.40189694464074e-10 5.4536487119097e-10 3.90412046165537e-09 1.04161682277547e-08
"233" 12318 2.64818821610765e-08 1.97726023686163e-09 1.62349258449473e-08 3.76859262293048e-09 5.40940738134112e-10 5.4536487119097e-10 3.88055536972409e-09 1.02236925321616e-08
"234" 12319 2.65127699025566e-08 1.98018017208539e-09 1.61170109555346e-08 3.77519361898375e-09 5.41691781804149e-10 5.4536487119097e-10 3.85699027779282e-09 1.00312168365686e-08
"235" 12320 2.65436576440367e-08 1.98310010730916e-09 1.59990960661219e-08 3.78179461503702e-09 5.42442825474187e-10 5.4536487119097e-10 3.83342518586155e-09 9.83874114097559e-09
"236" 12321 2.65745453855168e-08 1.98602004253292e-09 1.58811811767092e-08 3.7883956110903e-09 5.43193869144225e-10 5.4536487119097e-10 3.80986009393028e-09 9.64626544538257e-09
"237" 12322 2.66054331269969e-08 1.98893997775669e-09 1.57632662872965e-08 3.79499660714357e-09 5.43944912814262e-10 5.4536487119097e-10 3.78629500199901e-09 9.45378974978955e-09
"238" 12323 2.66363208684771e-08 1.99185991298045e-09 1.56453513978837e-08 3.80159760319684e-09 5.446959564843e-10 5.4536487119097e-10 3.76272991006774e-09 9.26131405419652e-09
"239" 12324 2.66672086099572e-08 1.99477984820422e-09 1.5527436508471e-08 3.80819859925012e-09 5.45447000154338e-10 5.4536487119097e-10 3.73916481813647e-09 9.0688383586035e-09
"240" 12325 2.66980963514373e-08 1.99769978342798e-09 1.54095216190583e-08 3.81479959530339e-09 5.46198043824376e-10 5.4536487119097e-10 3.7155997262052e-09 8.87636266301048e-09
"241" 12326 2.67332285636335e-08 2.00874026986645e-09 1.53238629021877e-08 3.81986069473969e-09 5.49924122232292e-10 5.45588530337918e-10 3.69035283178849e-09 8.68388696741745e-09
"242" 12327 2.67683607758298e-08 2.01978075630491e-09 1.5238204185317e-08 3.82492179417599e-09 5.53650200640208e-10 5.45812189484865e-10 3.66510593737178e-09 8.49141127182443e-09
"243" 12328 2.67704106617966e-08 2.02805114009813e-09 1.51273759442087e-08 3.82789249424655e-09 5.54389588333337e-10 5.45812189484865e-10 3.6449715933587e-09 8.32341919788873e-09
"244" 12329 2.67724605477633e-08 2.03632152389135e-09 1.50165477031005e-08 3.83086319431712e-09 5.55128976026466e-10 5.45812189484865e-10 3.62483724934562e-09 8.15542712395302e-09
"245" 12330 2.67745104337301e-08 2.04459190768457e-09 1.49057194619923e-08 3.83383389438769e-09 5.55868363719594e-10 5.45812189484865e-10 3.60470290533254e-09 7.98743505001732e-09
"246" 12331 2.67765603196969e-08 2.05286229147779e-09 1.4794891220884e-08 3.83680459445825e-09 5.56607751412723e-10 5.45812189484865e-10 3.58456856131946e-09 7.81944297608162e-09
"247" 12332 2.67786102056636e-08 2.06113267527101e-09 1.46840629797758e-08 3.83977529452882e-09 5.57347139105852e-10 5.45812189484865e-10 3.56443421730638e-09 7.65145090214592e-09
"248" 12333 2.66006151079544e-08 2.06940305906423e-09 1.46453343740227e-08 3.82433576652808e-09 5.58338817351812e-10 5.43644952692402e-10 3.571354913236e-09 7.66532398470139e-09
"249" 12334 2.64226200102452e-08 2.07767344285745e-09 1.46066057682697e-08 3.80889623852734e-09 5.59330495597771e-10 5.4147771589994e-10 3.57827560916563e-09 7.67919706725687e-09
"250" 12335 2.64181113104791e-08 2.08665566458674e-09 1.46107462715464e-08 3.8122703048182e-09 5.60322173843731e-10 5.4120262192968e-10 3.58338815956925e-09 7.6227932460983e-09
"251" 12336 2.6413602610713e-08 2.09563788631603e-09 1.4614886774823e-08 3.81564437110907e-09 5.6131385208969e-10 5.4092752795942e-10 3.58850070997288e-09 7.56638942493973e-09
"252" 12337 2.6409093910947e-08 2.10462010804533e-09 1.46190272780997e-08 3.81901843739994e-09 5.6230553033565e-10 5.4065243398916e-10 3.5936132603765e-09 7.50998560378116e-09
"253" 12338 2.64045852111809e-08 2.11360232977462e-09 1.46231677813764e-08 3.8223925036908e-09 5.63297208581609e-10 5.40377340018901e-10 3.59872581078013e-09 7.45358178262259e-09
"254" 12339 2.64000765114148e-08 2.12258455150391e-09 1.4627308284653e-08 3.82576656998167e-09 5.64288886827569e-10 5.40102246048641e-10 3.60383836118375e-09 7.39717796146402e-09
"255" 12340 2.63955678116487e-08 2.1315667732332e-09 1.46314487879297e-08 3.82914063627253e-09 5.65280565073528e-10 5.39827152078381e-10 3.60895091158738e-09 7.34077414030546e-09
"256" 12341 2.63910591118826e-08 2.14054899496249e-09 1.46355892912064e-08 3.8325147025634e-09 5.66272243319488e-10 5.39552058108121e-10 3.614063461991e-09 7.28437031914689e-09
"257" 12342 2.63865504121165e-08 2.14953121669178e-09 1.4639729794483e-08 3.83588876885427e-09 5.67263921565447e-10 5.39276964137861e-10 3.61917601239462e-09 7.22796649798832e-09
"258" 12343 2.63820417123504e-08 2.15851343842108e-09 1.46438702977597e-08 3.83926283514513e-09 5.68255599811407e-10 5.39001870167601e-10 3.62428856279825e-09 7.17156267682975e-09
"259" 12344 2.63775330125843e-08 2.16749566015037e-09 1.46480108010364e-08 3.842636901436e-09 5.69247278057366e-10 5.38726776197342e-10 3.62940111320187e-09 7.11515885567118e-09
"260" 12345 2.63730243128182e-08 2.17647788187966e-09 1.46521513043131e-08 3.84601096772687e-09 5.70238956303326e-10 5.38451682227082e-10 3.6345136636055e-09 7.05875503451261e-09
"261" 12346 2.63685156130521e-08 2.18546010360895e-09 1.46562918075897e-08 3.84938503401773e-09 5.71230634549285e-10 5.38176588256822e-10 3.63962621400912e-09 7.00235121335404e-09
"262" 12347 2.54766999492596e-08 2.19444232533824e-09 1.46322816252383e-08 3.84815311672415e-09 5.69969181785132e-10 5.35855046994422e-10 3.64654690993875e-09 6.87380621022453e-09
"263" 12348 2.47162457891333e-08 2.19836443241599e-09 1.46878173586373e-08 3.85055149541328e-09 5.68719384997887e-10 5.34582446789748e-10 3.64430185900681e-09 6.74045511847762e-09
"264" 12349 2.39309937802935e-08 2.19815134759712e-09 1.46494710996005e-08 3.84604089872574e-09 5.67469588210642e-10 5.32535999497607e-10 3.64430185900681e-09 6.59803703279263e-09
"265" 12350 2.31457417714536e-08 2.19793826277826e-09 1.46111248405637e-08 3.8415303020382e-09 5.66219791423398e-10 5.30489552205467e-10 3.64430185900681e-09 6.45561894710764e-09
"266" 12351 2.23604897626138e-08 2.19772517795939e-09 1.45727785815269e-08 3.83701970535066e-09 5.64969994636153e-10 5.28443104913326e-10 3.64430185900681e-09 6.31320086142265e-09
"267" 12352 2.1575237753774e-08 2.19751209314053e-09 1.45344323224901e-08 3.83250910866312e-09 5.63720197848908e-10 5.26396657621185e-10 3.64430185900681e-09 6.17078277573766e-09
"268" 12353 2.07899857449342e-08 2.19729900832166e-09 1.44960860634533e-08 3.82799851197559e-09 5.62470401061664e-10 5.24350210329045e-10 3.64430185900681e-09 6.02836469005266e-09
"269" 12354 2.00047337360944e-08 2.1970859235028e-09 1.44577398044165e-08 3.82348791528805e-09 5.61220604274419e-10 5.22303763036904e-10 3.64430185900681e-09 5.88594660436767e-09
"270" 12355 2.01131627348088e-08 2.19687283868393e-09 1.42814253710398e-08 3.78344052938303e-09 5.56004094503336e-10 5.22303763036904e-10 3.64642189070719e-09 5.89655714346952e-09
"271" 12356 2.02215917335233e-08 2.19665975386507e-09 1.41051109376632e-08 3.74339314347801e-09 5.50787584732253e-10 5.22303763036904e-10 3.64854192240758e-09 5.90716768257137e-09
"272" 12357 2.03300207322377e-08 2.1964466690462e-09 1.39287965042865e-08 3.70334575757299e-09 5.45571074961171e-10 5.22303763036904e-10 3.65066195410796e-09 5.91777822167321e-09
"273" 12358 2.04384497309522e-08 2.19623358422734e-09 1.37524820709099e-08 3.66329837166797e-09 5.40354565190088e-10 5.22303763036904e-10 3.65278198580834e-09 5.92838876077506e-09
"274" 12359 2.05468787296666e-08 2.19602049940847e-09 1.35761676375332e-08 3.62325098576296e-09 5.35138055419005e-10 5.22303763036904e-10 3.65490201750872e-09 5.93899929987691e-09
"275" 12360 2.06553077283811e-08 2.19580741458961e-09 1.33998532041566e-08 3.58320359985794e-09 5.29921545647922e-10 5.22303763036904e-10 3.65702204920911e-09 5.94960983897876e-09
"276" 12361 2.07637367270955e-08 2.19559432977074e-09 1.32235387707799e-08 3.54315621395292e-09 5.2470503587684e-10 5.22303763036904e-10 3.65914208090949e-09 5.9602203780806e-09
"277" 12362 2.087216572581e-08 2.19538124495188e-09 1.30472243374033e-08 3.5031088280479e-09 5.19488526105757e-10 5.22303763036904e-10 3.66126211260987e-09 5.97083091718245e-09
"278" 12363 2.09805947245245e-08 2.19516816013301e-09 1.28709099040266e-08 3.46306144214288e-09 5.14272016334674e-10 5.22303763036904e-10 3.66338214431025e-09 5.9814414562843e-09
"279" 12364 2.10890237232389e-08 2.19495507531415e-09 1.269459547065e-08 3.42301405623787e-09 5.09055506563591e-10 5.22303763036904e-10 3.66550217601064e-09 5.99205199538615e-09
"280" 12365 2.11974527219534e-08 2.19474199049528e-09 1.25182810372733e-08 3.38296667033285e-09 5.03838996792509e-10 5.22303763036904e-10 3.66762220771102e-09 6.00266253448799e-09
"281" 12366 2.13058817206678e-08 2.19452890567642e-09 1.23419666038967e-08 3.34291928442783e-09 4.98622487021426e-10 5.22303763036904e-10 3.6697422394114e-09 6.01327307358984e-09
"282" 12367 2.14143107193823e-08 2.19431582085755e-09 1.216565217052e-08 3.30287189852281e-09 4.93405977250343e-10 5.22303763036904e-10 3.67186227111179e-09 6.02388361269169e-09
"283" 12368 2.15227397180967e-08 2.19410273603869e-09 1.19893377371434e-08 3.26282451261779e-09 4.8818946747926e-10 5.22303763036904e-10 3.67398230281217e-09 6.03449415179354e-09
"284" 12369 2.16311687168112e-08 2.19388965121982e-09 1.18130233037667e-08 3.22277712671278e-09 4.82972957708178e-10 5.22303763036904e-10 3.67610233451255e-09 6.04510469089538e-09
"285" 12370 2.17233034831516e-08 2.18141615767008e-09 1.18022248725773e-08 3.21740804795308e-09 4.83976291931046e-10 5.20257315744764e-10 3.66918163858292e-09 6.04746344410622e-09
"286" 12371 2.17609493826451e-08 2.16154328208085e-09 1.17250809194866e-08 3.20944981671045e-09 4.84733163589538e-10 5.20532409715023e-10 3.67161355645769e-09 6.05902591489565e-09
"287" 12372 2.17985952821386e-08 2.14167040649161e-09 1.16479369663959e-08 3.20149158546781e-09 4.8549003524803e-10 5.20807503685283e-10 3.67404547433245e-09 6.07058838568508e-09
"288" 12373 2.18362411816322e-08 2.12179753090237e-09 1.15707930133053e-08 3.19353335422518e-09 4.86246906906522e-10 5.21082597655543e-10 3.67647739220721e-09 6.08215085647451e-09
"289" 12374 2.18738870811257e-08 2.10192465531314e-09 1.14936490602146e-08 3.18557512298254e-09 4.87003778565015e-10 5.21357691625803e-10 3.67890931008198e-09 6.09371332726394e-09
"290" 12375 2.19115329806192e-08 2.0820517797239e-09 1.14165051071239e-08 3.17761689173991e-09 4.87760650223507e-10 5.21632785596063e-10 3.68134122795674e-09 6.10527579805336e-09
"291" 12376 2.19491788801127e-08 2.06217890413466e-09 1.13393611540333e-08 3.16965866049727e-09 4.88517521881999e-10 5.21907879566323e-10 3.68377314583151e-09 6.11683826884279e-09
"292" 12377 2.19868247796062e-08 2.04230602854543e-09 1.12622172009426e-08 3.16170042925463e-09 4.89274393540491e-10 5.22182973536582e-10 3.68620506370627e-09 6.12840073963222e-09
"293" 12378 2.20244706790997e-08 2.02243315295619e-09 1.11850732478519e-08 3.153742198012e-09 4.90031265198983e-10 5.22458067506842e-10 3.68863698158103e-09 6.13996321042165e-09
"294" 12379 2.20163060870194e-08 2.00669546926357e-09 1.12445185605752e-08 3.16288059691666e-09 4.9603378657083e-10 5.24779608769243e-10 3.6910688994558e-09 6.14635585185167e-09
"295" 12380 2.2008141494939e-08 1.99095778557094e-09 1.13039638732984e-08 3.17201899582132e-09 5.02036307942677e-10 5.27101150031643e-10 3.69350081733056e-09 6.15274849328169e-09
"296" 12381 2.19923110638955e-08 1.97137057828004e-09 1.12859746891409e-08 3.17386687176169e-09 5.02781523624261e-10 5.28047221442744e-10 3.69350081733056e-09 6.15501524176621e-09
"297" 12382 2.19237823145576e-08 1.95171078750967e-09 1.12357984207422e-08 3.16650278053317e-09 5.04770708104634e-10 5.36870473082532e-10 3.72866092638013e-09 6.1585520881335e-09
"298" 12383 2.18552535652197e-08 1.9320509967393e-09 1.11856221523435e-08 3.15913868930465e-09 5.06759892585008e-10 5.4569372472232e-10 3.76382103542971e-09 6.16208893450078e-09
"299" 12384 2.17867248158818e-08 1.91239120596893e-09 1.11354458839448e-08 3.15177459807612e-09 5.08749077065381e-10 5.54516976362107e-10 3.79898114447928e-09 6.16562578086806e-09
"300" 12385 2.17168843493973e-08 1.93513476140029e-09 1.12321585594322e-08 3.21002521352623e-09 5.09505948723873e-10 5.55565917419834e-10 3.79929303065366e-09 6.16916262723534e-09
"301" 12386 2.16470438829129e-08 1.95787831683164e-09 1.13288712349196e-08 3.26827582897634e-09 5.10262820382365e-10 5.56614858477561e-10 3.79960491682804e-09 6.17269947360263e-09
"302" 12387 2.15772034164284e-08 1.98062187226299e-09 1.14255839104071e-08 3.32652644442645e-09 5.11019692040858e-10 5.57663799535287e-10 3.79991680300242e-09 6.17623631996991e-09
"303" 12388 2.15073629499439e-08 2.00336542769435e-09 1.15222965858945e-08 3.38477705987657e-09 5.1177656369935e-10 5.58712740593014e-10 3.80022868917681e-09 6.17977316633719e-09
"304" 12389 2.14375224834595e-08 2.0261089831257e-09 1.16190092613819e-08 3.44302767532668e-09 5.12533435357842e-10 5.59761681650741e-10 3.80054057535119e-09 6.18331001270447e-09
"305" 12390 2.1367682016975e-08 2.04885253855706e-09 1.17157219368694e-08 3.50127829077679e-09 5.13290307016334e-10 5.60810622708467e-10 3.80085246152557e-09 6.18684685907176e-09
"306" 12391 2.12978415504905e-08 2.07159609398841e-09 1.18124346123568e-08 3.5595289062269e-09 5.14047178674826e-10 5.61859563766194e-10 3.80116434769995e-09 6.19038370543904e-09
"307" 12392 2.1282489950853e-08 2.11185926076235e-09 1.19593235562429e-08 3.62542977359625e-09 5.15050512897695e-10 5.6290850482392e-10 3.78183931916944e-09 6.1916538033218e-09
"308" 12393 2.12671383512155e-08 2.1521224275363e-09 1.21062125001291e-08 3.6913306409656e-09 5.16053847120563e-10 5.63957445881647e-10 3.76251429063894e-09 6.19292390120456e-09
"309" 12394 2.12315772894754e-08 2.19238559431024e-09 1.22723095898964e-08 3.75632938899744e-09 5.17057181343431e-10 5.64731292969114e-10 3.75858611341255e-09 6.18394720072749e-09
"310" 12395 2.11960162277354e-08 2.23264876108419e-09 1.24384066796638e-08 3.82132813702928e-09 5.180605155663e-10 5.65505140056581e-10 3.75465793618617e-09 6.17497050025042e-09
"311" 12396 2.11604551659954e-08 2.27291192785813e-09 1.26045037694311e-08 3.88632688506113e-09 5.19063849789168e-10 5.66278987144047e-10 3.75072975895978e-09 6.16599379977335e-09
"312" 12397 2.11248941042554e-08 2.31317509463207e-09 1.27706008591984e-08 3.95132563309297e-09 5.20067184012037e-10 5.67052834231514e-10 3.7468015817334e-09 6.15701709929627e-09
"313" 12398 2.11530836162332e-08 2.32329532393517e-09 1.27644767007656e-08 3.95011553443207e-09 5.2232031502215e-10 5.69099281523655e-10 3.74274838527546e-09 6.15089619388194e-09
"314" 12399 2.1181273128211e-08 2.33341555323826e-09 1.27583525423328e-08 3.94890543577117e-09 5.24573446032263e-10 5.71145728815795e-10 3.73869518881752e-09 6.14477528846761e-09
"315" 12400 2.12358416819028e-08 2.33127537381048e-09 1.27607885769307e-08 3.94759995021336e-09 5.26809093077013e-10 5.71816706256637e-10 3.73557765088272e-09 6.14477528846761e-09
"316" 12401 2.12904102355946e-08 2.3291351943827e-09 1.27632246115286e-08 3.94629446465555e-09 5.29044740121762e-10 5.72487683697478e-10 3.73246011294793e-09 6.14477528846761e-09
"317" 12402 2.13449787892865e-08 2.32699501495491e-09 1.27656606461265e-08 3.94498897909774e-09 5.31280387166512e-10 5.7315866113832e-10 3.72934257501313e-09 6.14477528846761e-09
"318" 12403 2.13995473429783e-08 2.32485483552713e-09 1.27680966807244e-08 3.94368349353993e-09 5.33516034211262e-10 5.73829638579161e-10 3.72622503707833e-09 6.14477528846761e-09
"319" 12404 2.14541158966702e-08 2.32271465609935e-09 1.27705327153223e-08 3.94237800798212e-09 5.35751681256012e-10 5.74500616020003e-10 3.72310749914354e-09 6.14477528846761e-09
"320" 12405 2.1508684450362e-08 2.32057447667157e-09 1.27729687499202e-08 3.94107252242431e-09 5.37987328300761e-10 5.75171593460844e-10 3.71998996120874e-09 6.14477528846761e-09
"321" 12406 2.15632530040538e-08 2.31843429724379e-09 1.27754047845182e-08 3.9397670368665e-09 5.40222975345511e-10 5.75842570901686e-10 3.71687242327395e-09 6.14477528846761e-09
"322" 12407 2.16178215577457e-08 2.316294117816e-09 1.27778408191161e-08 3.9384615513087e-09 5.42458622390261e-10 5.76513548342527e-10 3.71375488533915e-09 6.14477528846761e-09
"323" 12408 2.16723901114375e-08 2.31415393838822e-09 1.2780276853714e-08 3.93715606575089e-09 5.44694269435011e-10 5.77184525783369e-10 3.71063734740435e-09 6.14477528846761e-09
"324" 12409 2.17269586651293e-08 2.31201375896044e-09 1.27827128883119e-08 3.93585058019308e-09 5.4692991647976e-10 5.7785550322421e-10 3.70751980946956e-09 6.14477528846761e-09
"325" 12410 2.17815272188212e-08 2.30987357953266e-09 1.27851489229098e-08 3.93454509463527e-09 5.4916556352451e-10 5.78526480665052e-10 3.70440227153476e-09 6.14477528846761e-09
"326" 12411 2.1836095772513e-08 2.30773340010488e-09 1.27875849575077e-08 3.93323960907746e-09 5.5140121056926e-10 5.79197458105893e-10 3.70128473359996e-09 6.14477528846761e-09
"327" 12412 2.18906643262048e-08 2.30559322067709e-09 1.27900209921056e-08 3.93193412351965e-09 5.5363685761401e-10 5.79868435546735e-10 3.69816719566517e-09 6.14477528846761e-09
"328" 12413 2.19452328798967e-08 2.30559322067709e-09 1.27985811851363e-08 3.93015170347731e-09 5.53619373648646e-10 5.80814506957836e-10 3.69841723412827e-09 6.15089619388194e-09
"329" 12414 2.19998014335885e-08 2.30559322067709e-09 1.28071413781671e-08 3.92836928343497e-09 5.53601889683283e-10 5.81760578368937e-10 3.69866727259138e-09 6.15701709929627e-09
"330" 12415 2.2070275213533e-08 2.30167111359935e-09 1.28036964800221e-08 3.92376329985053e-09 5.55585246175202e-10 5.82706649780039e-10 3.68015288335247e-09 6.1579681753512e-09
"331" 12416 2.21407489934776e-08 2.2977490065216e-09 1.28002515818771e-08 3.91915731626608e-09 5.57568602667121e-10 5.8365272119114e-10 3.66163849411355e-09 6.15891925140613e-09
"332" 12417 2.22112227734221e-08 2.29382689944386e-09 1.2796806683732e-08 3.91455133268164e-09 5.5955195915904e-10 5.84598792602241e-10 3.64312410487463e-09 6.15987032746105e-09
"333" 12418 2.22816965533666e-08 2.28990479236612e-09 1.2793361785587e-08 3.90994534909719e-09 5.61535315650959e-10 5.85544864013342e-10 3.62460971563571e-09 6.16082140351598e-09
"334" 12419 2.23521703333111e-08 2.28598268528837e-09 1.2789916887442e-08 3.90533936551275e-09 5.63518672142878e-10 5.86490935424444e-10 3.60609532639679e-09 6.16177247957091e-09
"335" 12420 2.24226441132556e-08 2.28206057821063e-09 1.2786471989297e-08 3.9007333819283e-09 5.65502028634797e-10 5.87437006835545e-10 3.58758093715788e-09 6.16272355562583e-09
"336" 12421 2.25029084133393e-08 2.28712069286217e-09 1.27997992024353e-08 3.90313176061743e-09 5.69251418996531e-10 5.91529901419826e-10 3.57386588833919e-09 6.16272355562583e-09
"337" 12422 2.25831727134229e-08 2.29218080751372e-09 1.28131264155735e-08 3.90553013930656e-09 5.73000809358265e-10 5.95622796004108e-10 3.5601508395205e-09 6.16272355562583e-09
"338" 12423 2.25661203905174e-08 2.29446148828089e-09 1.2960421365226e-08 3.96722838931177e-09 5.73000809358265e-10 5.96568867415209e-10 3.54082581099e-09 6.15129695284425e-09
"339" 12424 2.2549068067612e-08 2.29674216904806e-09 1.31077163148785e-08 4.02892663931697e-09 5.73000809358265e-10 5.9751493882631e-10 3.52150078245949e-09 6.13987035006267e-09
"340" 12425 2.25320157447066e-08 2.29902284981523e-09 1.3255011264531e-08 4.09062488932218e-09 5.73000809358265e-10 5.98461010237411e-10 3.50217575392899e-09 6.12844374728109e-09
"341" 12426 2.25149634218011e-08 2.3013035305824e-09 1.34023062141835e-08 4.15232313932739e-09 5.73000809358265e-10 5.99407081648513e-10 3.48285072539848e-09 6.11701714449951e-09
"342" 12427 2.24979110988957e-08 2.30358421134957e-09 1.35496011638359e-08 4.21402138933259e-09 5.73000809358265e-10 6.00353153059614e-10 3.46352569686798e-09 6.10559054171793e-09
"343" 12428 2.24808587759903e-08 2.30586489211674e-09 1.36968961134884e-08 4.2757196393378e-09 5.73000809358265e-10 6.01299224470715e-10 3.44420066833747e-09 6.09416393893635e-09
"344" 12429 2.24638064530848e-08 2.30814557288391e-09 1.38441910631409e-08 4.337417889343e-09 5.73000809358265e-10 6.02245295881817e-10 3.42487563980696e-09 6.08273733615477e-09
"345" 12430 2.24467541301794e-08 2.31042625365108e-09 1.39914860127934e-08 4.39911613934821e-09 5.73000809358265e-10 6.03191367292918e-10 3.40555061127646e-09 6.07131073337318e-09
"346" 12431 2.2429701807274e-08 2.31270693441825e-09 1.41387809624458e-08 4.46081438935342e-09 5.73000809358265e-10 6.04137438704019e-10 3.38622558274595e-09 6.0598841305916e-09
"347" 12432 2.24126494843685e-08 2.31498761518542e-09 1.42860759120983e-08 4.52251263935862e-09 5.73000809358265e-10 6.05083510115121e-10 3.36690055421545e-09 6.04845752781002e-09
"348" 12433 2.23955971614631e-08 2.31726829595259e-09 1.44333708617508e-08 4.58421088936383e-09 5.73000809358265e-10 6.06029581526222e-10 3.34757552568494e-09 6.03703092502844e-09
"349" 12434 2.24245996374703e-08 2.31420319376987e-09 1.44197767638725e-08 4.58000827199969e-09 5.72994981369811e-10 6.06029581526222e-10 3.32825049715443e-09 6.03186109566904e-09
"350" 12435 2.2468474881709e-08 2.31527328348376e-09 1.44193707581062e-08 4.57580565463554e-09 5.70988312924074e-10 6.05805922379275e-10 3.26572213817876e-09 5.94004323629081e-09
"351" 12436 2.25123501259477e-08 2.31634337319765e-09 1.44189647523399e-08 4.5716030372714e-09 5.68981644478337e-10 6.05582263232327e-10 3.20319377920308e-09 5.84822537691258e-09
"352" 12437 2.22716519426173e-08 2.3164885401566e-09 1.44053706544617e-08 4.57191101659479e-09 5.68981644478337e-10 6.01695107941297e-10 3.17919310567489e-09 5.85108117197533e-09
"353" 12438 2.20309537592869e-08 2.31663370711556e-09 1.43917765565834e-08 4.57221899591819e-09 5.68981644478337e-10 5.97807952650266e-10 3.15519243214669e-09 5.85393696703807e-09
"354" 12439 2.17902555759564e-08 2.31677887407451e-09 1.43781824587052e-08 4.57252697524158e-09 5.68981644478337e-10 5.93920797359236e-10 3.1311917586185e-09 5.85679276210081e-09
"355" 12440 2.1549557392626e-08 2.31692404103347e-09 1.43645883608269e-08 4.57283495456498e-09 5.68981644478337e-10 5.90033642068205e-10 3.1071910850903e-09 5.85964855716355e-09
"356" 12441 2.13088592092956e-08 2.31706920799242e-09 1.43509942629487e-08 4.57314293388837e-09 5.68981644478337e-10 5.86146486777175e-10 3.08319041156211e-09 5.86250435222629e-09
"357" 12442 2.10681610259651e-08 2.31721437495138e-09 1.43374001650705e-08 4.57345091321177e-09 5.68981644478337e-10 5.82259331486144e-10 3.05918973803392e-09 5.86536014728903e-09
"358" 12443 2.08274628426347e-08 2.31735954191033e-09 1.43238060671922e-08 4.57375889253516e-09 5.68981644478337e-10 5.78372176195114e-10 3.03518906450572e-09 5.86821594235177e-09
"359" 12444 2.05867646593043e-08 2.31750470886928e-09 1.4310211969314e-08 4.57406687185855e-09 5.68981644478337e-10 5.74485020904083e-10 3.01118839097753e-09 5.87107173741452e-09
"360" 12445 2.03460664759738e-08 2.31764987582824e-09 1.42966178714357e-08 4.57437485118195e-09 5.68981644478337e-10 5.70597865613053e-10 2.98718771744933e-09 5.87392753247726e-09
"361" 12446 2.01053682926434e-08 2.31779504278719e-09 1.42830237735575e-08 4.57468283050534e-09 5.68981644478337e-10 5.66710710322022e-10 2.96318704392114e-09 5.87678332754e-09
"362" 12447 1.9864670109313e-08 2.31794020974615e-09 1.42694296756793e-08 4.57499080982874e-09 5.68981644478337e-10 5.62823555030992e-10 2.93918637039294e-09 5.87963912260274e-09
"363" 12448 1.96239719259825e-08 2.3180853767051e-09 1.4255835577801e-08 4.57529878915213e-09 5.68981644478337e-10 5.58936399739961e-10 2.91518569686475e-09 5.88249491766548e-09
"364" 12449 1.96695080500667e-08 2.30348570058627e-09 1.42481224126657e-08 4.57439666981463e-09 5.68224772819845e-10 5.58712740593014e-10 2.90895062099515e-09 5.88702841463452e-09
"365" 12450 1.96652586877148e-08 2.28802901957242e-09 1.42435408872599e-08 4.57487360429916e-09 5.68213116842936e-10 5.59435152857168e-10 2.90259052589401e-09 5.88743601865806e-09
"366" 12451 1.96357973020129e-08 2.28731718163635e-09 1.42453153886642e-08 4.57625265812119e-09 5.69204795088896e-10 5.56288329683988e-10 2.87721464081871e-09 5.87029611448569e-09
"367" 12452 1.9606335916311e-08 2.28660534370028e-09 1.42470898900685e-08 4.57763171194323e-09 5.70196473334855e-10 5.53141506510808e-10 2.85183875574341e-09 5.85315621031332e-09
"368" 12453 1.9576874530609e-08 2.28589350576421e-09 1.42488643914728e-08 4.57901076576527e-09 5.71188151580815e-10 5.49994683337628e-10 2.82646287066812e-09 5.83601630614095e-09
"369" 12454 1.95474131449071e-08 2.28518166782814e-09 1.42506388928771e-08 4.58038981958731e-09 5.72179829826774e-10 5.46847860164448e-10 2.80108698559282e-09 5.81887640196858e-09
"370" 12455 1.95179517592052e-08 2.28446982989206e-09 1.42524133942814e-08 4.58176887340935e-09 5.73171508072734e-10 5.43701036991269e-10 2.77571110051752e-09 5.8017364977962e-09
"371" 12456 1.94884903735033e-08 2.28375799195599e-09 1.42541878956857e-08 4.58314792723139e-09 5.74163186318693e-10 5.40554213818089e-10 2.75033521544223e-09 5.78459659362383e-09
"372" 12457 1.94833183001261e-08 2.31260842365495e-09 1.44035696607331e-08 4.60155815530269e-09 5.74409648883069e-10 5.36461319233808e-10 2.72589498889007e-09 5.76500849841226e-09
"373" 12458 1.9478146226749e-08 2.34145885535392e-09 1.45529514257806e-08 4.619968383374e-09 5.74656111447446e-10 5.32368424649526e-10 2.70145476233792e-09 5.74542040320069e-09
"374" 12459 1.95135625897065e-08 2.38315036361957e-09 1.45529514257806e-08 4.6196604040506e-09 5.83651151522535e-10 5.30597071327646e-10 2.6758920103198e-09 5.88339100721438e-09
"375" 12460 1.95489789526639e-08 2.42484187188522e-09 1.45529514257806e-08 4.61935242472721e-09 5.92646191597624e-10 5.28825718005765e-10 2.65032925830167e-09 6.02136161122807e-09
"376" 12461 1.95843953156213e-08 2.46653338015088e-09 1.45529514257806e-08 4.61904444540381e-09 6.01641231672713e-10 5.27054364683884e-10 2.62476650628355e-09 6.15933221524176e-09
"377" 12462 1.96198116785788e-08 2.50822488841653e-09 1.45529514257806e-08 4.61873646608042e-09 6.10636271747802e-10 5.25283011362003e-10 2.59920375426543e-09 6.29730281925546e-09
"378" 12463 1.96552280415362e-08 2.54991639668218e-09 1.45529514257806e-08 4.61842848675702e-09 6.19631311822891e-10 5.23511658040123e-10 2.5736410022473e-09 6.43527342326915e-09
"379" 12464 1.96906444044936e-08 2.59160790494784e-09 1.45529514257806e-08 4.61812050743363e-09 6.2862635189798e-10 5.21740304718242e-10 2.54807825022918e-09 6.57324402728284e-09
"380" 12465 1.97260607674511e-08 2.63329941321349e-09 1.45529514257806e-08 4.61781252811023e-09 6.37621391973069e-10 5.19968951396361e-10 2.52251549821106e-09 6.71121463129653e-09
"381" 12466 1.97614771304085e-08 2.67499092147914e-09 1.45529514257806e-08 4.61750454878684e-09 6.46616432048158e-10 5.1819759807448e-10 2.49695274619294e-09 6.84918523531022e-09
"382" 12467 1.97968934933659e-08 2.7166824297448e-09 1.45529514257806e-08 4.61719656946345e-09 6.55611472123247e-10 5.16426244752599e-10 2.47138999417481e-09 6.98715583932392e-09
"383" 12468 1.98323098563234e-08 2.75837393801045e-09 1.45529514257806e-08 4.61688859014005e-09 6.64606512198336e-10 5.14654891430719e-10 2.44582724215669e-09 7.12512644333761e-09
"384" 12469 1.98677262192808e-08 2.80006544627611e-09 1.45529514257806e-08 4.61658061081666e-09 6.73601552273425e-10 5.12883538108838e-10 2.42026449013857e-09 7.2630970473513e-09
"385" 12470 1.99031425822382e-08 2.84175695454176e-09 1.45529514257806e-08 4.61627263149326e-09 6.82596592348514e-10 5.11112184786957e-10 2.39470173812045e-09 7.40106765136499e-09
"386" 12471 1.99385589451957e-08 2.88344846280741e-09 1.45529514257806e-08 4.61596465216987e-09 6.91591632423603e-10 5.09340831465076e-10 2.36913898610232e-09 7.53903825537868e-09
"387" 12472 1.99739753081531e-08 2.92513997107307e-09 1.45529514257806e-08 4.61565667284647e-09 7.00586672498692e-10 5.07569478143196e-10 2.3435762340842e-09 7.67700885939238e-09
"388" 12473 2.00093916711105e-08 2.96683147933872e-09 1.45529514257806e-08 4.61534869352308e-09 7.09581712573781e-10 5.05798124821315e-10 2.31801348206608e-09 7.81497946340607e-09
"389" 12474 2.0044808034068e-08 3.00852298760437e-09 1.45529514257806e-08 4.61504071419968e-09 7.1857675264887e-10 5.04026771499434e-10 2.29245073004796e-09 7.95295006741976e-09
"390" 12475 2.00802243970254e-08 3.05021449587003e-09 1.45529514257806e-08 4.61473273487629e-09 7.27571792723959e-10 5.02255418177553e-10 2.26688797802983e-09 8.09092067143345e-09
"391" 12476 2.01156407599828e-08 3.09190600413568e-09 1.45529514257806e-08 4.61442475555289e-09 7.36566832799048e-10 5.00484064855673e-10 2.24132522601171e-09 8.22889127544714e-09
"392" 12477 2.01510571229403e-08 3.13359751240133e-09 1.45529514257806e-08 4.6141167762295e-09 7.45561872874137e-10 4.98712711533792e-10 2.21576247399359e-09 8.36686187946084e-09
"393" 12478 2.02156206606875e-08 3.16745413775063e-09 1.4549135538232e-08 4.61242974308406e-09 7.53565234703267e-10 4.99985311738465e-10 2.17910213416536e-09 8.44239976162795e-09
"394" 12479 2.02801841984347e-08 3.20131076309993e-09 1.45453196506835e-08 4.61074270993863e-09 7.61568596532396e-10 5.01257911943139e-10 2.14244179433713e-09 8.51793764379506e-09
"395" 12480 2.07108028192291e-08 3.19232854137063e-09 1.4487835278491e-08 4.60872587883713e-09 7.62800909354278e-10 5.01481571090087e-10 2.14574619921475e-09 8.52396911138103e-09
"396" 12481 2.08026981698666e-08 3.20770797328544e-09 1.44065612350116e-08 4.60670904773562e-09 7.6204986568424e-10 5.02530512147813e-10 2.14817546947149e-09 8.56967466687471e-09
"397" 12482 2.0894593520504e-08 3.22308740520025e-09 1.43252871915323e-08 4.60469221663412e-09 7.61298822014202e-10 5.0357945320554e-10 2.15060473972823e-09 8.61538022236838e-09
"398" 12483 2.09864888711415e-08 3.23846683711506e-09 1.42440131480529e-08 4.60267538553261e-09 7.60547778344165e-10 5.04628394263266e-10 2.15303400998497e-09 8.66108577786205e-09
"399" 12484 2.10783842217789e-08 3.25384626902986e-09 1.41627391045735e-08 4.60065855443111e-09 7.59796734674127e-10 5.05677335320993e-10 2.15546328024171e-09 8.70679133335572e-09
"400" 12485 2.11702795724164e-08 3.26922570094467e-09 1.40814650610941e-08 4.59864172332961e-09 7.59045691004089e-10 5.0672627637872e-10 2.15789255049845e-09 8.75249688884939e-09
"401" 12486 2.12621749230538e-08 3.28460513285948e-09 1.40001910176148e-08 4.5966248922281e-09 7.58294647334051e-10 5.07775217436446e-10 2.16032182075519e-09 8.79820244434306e-09
"402" 12487 2.13540702736913e-08 3.29998456477429e-09 1.39189169741354e-08 4.5946080611266e-09 7.57543603664014e-10 5.08824158494173e-10 2.16275109101193e-09 8.84390799983673e-09
"403" 12488 2.14459656243287e-08 3.31536399668909e-09 1.3837642930656e-08 4.59259123002509e-09 7.56792559993976e-10 5.09873099551899e-10 2.16518036126867e-09 8.8896135553304e-09
"404" 12489 2.15378609749662e-08 3.3307434286039e-09 1.37563688871766e-08 4.59057439892359e-09 7.56041516323938e-10 5.10922040609626e-10 2.16760963152541e-09 8.93531911082407e-09
"405" 12490 2.16297563256036e-08 3.34612286051871e-09 1.36750948436973e-08 4.58855756782208e-09 7.55290472653901e-10 5.11970981667353e-10 2.17003890178215e-09 8.98102466631774e-09
"406" 12491 2.17216516762411e-08 3.36150229243352e-09 1.35938208002179e-08 4.58654073672058e-09 7.54539428983863e-10 5.13019922725079e-10 2.17246817203889e-09 9.02673022181141e-09
"407" 12492 2.18135470268786e-08 3.37688172434832e-09 1.35125467567385e-08 4.58452390561907e-09 7.53788385313825e-10 5.14068863782806e-10 2.17489744229563e-09 9.07243577730508e-09
"408" 12493 2.15783449111089e-08 3.3591443625673e-09 1.36484621876214e-08 4.58866106708519e-09 7.53788385313825e-10 5.13019922725079e-10 2.18312753063405e-09 9.07909929911814e-09
"409" 12494 2.13431427953392e-08 3.34140700078628e-09 1.37843776185043e-08 4.59279822855131e-09 7.53788385313825e-10 5.11970981667353e-10 2.19135761897247e-09 9.0857628209312e-09
"410" 12495 2.11079406795695e-08 3.32366963900526e-09 1.39202930493871e-08 4.59693539001742e-09 7.53788385313825e-10 5.10922040609626e-10 2.19958770731089e-09 9.09242634274427e-09
"411" 12496 2.08727385637998e-08 3.30593227722424e-09 1.405620848027e-08 4.60107255148354e-09 7.53788385313825e-10 5.09873099551899e-10 2.20781779564931e-09 9.09908986455733e-09
"412" 12497 2.06375364480301e-08 3.28819491544322e-09 1.41921239111529e-08 4.60520971294965e-09 7.53788385313825e-10 5.08824158494173e-10 2.21604788398773e-09 9.10575338637039e-09
"413" 12498 2.04023343322605e-08 3.2704575536622e-09 1.43280393420358e-08 4.60934687441577e-09 7.53788385313825e-10 5.07775217436446e-10 2.22427797232615e-09 9.11241690818346e-09
"414" 12499 2.01671322164908e-08 3.25272019188118e-09 1.44639547729187e-08 4.61348403588188e-09 7.53788385313825e-10 5.0672627637872e-10 2.23250806066458e-09 9.11908042999652e-09
"415" 12500 1.99319301007211e-08 3.23498283010016e-09 1.45998702038016e-08 4.617621197348e-09 7.53788385313825e-10 5.05677335320993e-10 2.240738149003e-09 9.12574395180958e-09
"416" 12501 1.9891615676708e-08 3.22386976018222e-09 1.46576091589966e-08 4.61867045321396e-09 7.55032354112616e-10 5.04628394263266e-10 2.24204754141179e-09 9.13240747362264e-09
"417" 12502 1.98513012526949e-08 3.21275669026428e-09 1.47153481141916e-08 4.61971970907993e-09 7.56276322911406e-10 5.0357945320554e-10 2.24335693382059e-09 9.13907099543571e-09
"418" 12503 1.98109868286817e-08 3.20164362034634e-09 1.47730870693867e-08 4.6207689649459e-09 7.57520291710196e-10 5.02530512147813e-10 2.24466632622938e-09 9.14573451724877e-09
"419" 12504 1.97706724046686e-08 3.19053055042839e-09 1.48308260245817e-08 4.62181822081187e-09 7.58764260508986e-10 5.01481571090087e-10 2.24597571863818e-09 9.15239803906183e-09
"420" 12505 1.97303579806555e-08 3.17941748051045e-09 1.48885649797767e-08 4.62286747667783e-09 7.60008229307777e-10 5.0043263003236e-10 2.24728511104697e-09 9.15906156087490e-09
"421" 12506 1.99080685724353e-08 3.18710719646786e-09 1.49212158007724e-08 4.62821473680485e-09 7.62243876352526e-10 5.0043263003236e-10 2.24953016197891e-09 9.17347982672707e-09
"422" 12507 2.0085779164215e-08 3.19479691242526e-09 1.49538666217681e-08 4.63356199693187e-09 7.64479523397276e-10 5.0043263003236e-10 2.25177521291085e-09 9.18789809257923e-09
"423" 12508 2.02829212058546e-08 3.20355671809655e-09 1.49820513793343e-08 4.6403101295136e-09 7.60466186505802e-10 4.96339735448079e-10 2.2415501121036e-09 9.21224584622871e-09
"424" 12509 2.04800632474942e-08 3.21231652376785e-09 1.50102361369004e-08 4.64705826209533e-09 7.56452849614329e-10 4.92246840863797e-10 2.23132501129635e-09 9.23659359987818e-09
"425" 12510 2.06772052891338e-08 3.22107632943914e-09 1.50384208944666e-08 4.65380639467707e-09 7.52439512722855e-10 4.88153946279516e-10 2.2210999104891e-09 9.26094135352766e-09
"426" 12511 2.08743473307734e-08 3.22983613511044e-09 1.50666056520328e-08 4.6605545272588e-09 7.48426175831381e-10 4.84061051695235e-10 2.21087480968185e-09 9.28528910717713e-09
"427" 12512 2.1071489372413e-08 3.23859594078173e-09 1.5094790409599e-08 4.66730265984053e-09 7.44412838939908e-10 4.79968157110954e-10 2.2006497088746e-09 9.30963686082661e-09
"428" 12513 2.12686314140527e-08 3.24735574645303e-09 1.51229751671651e-08 4.67405079242227e-09 7.40399502048434e-10 4.75875262526673e-10 2.19042460806735e-09 9.33398461447609e-09
"429" 12514 2.14657734556923e-08 3.25611555212432e-09 1.51511599247313e-08 4.680798925004e-09 7.3638616515696e-10 4.71782367942392e-10 2.1801995072601e-09 9.35833236812556e-09
"430" 12515 2.16629154973319e-08 3.26487535779562e-09 1.51793446822975e-08 4.68754705758573e-09 7.32372828265487e-10 4.6768947335811e-10 2.16997440645285e-09 9.38268012177503e-09
"431" 12516 2.18600575389715e-08 3.27363516346691e-09 1.52075294398637e-08 4.69429519016746e-09 7.28359491374013e-10 4.63596578773829e-10 2.1597493056456e-09 9.40702787542451e-09
"432" 12517 2.20571995806111e-08 3.28239496913821e-09 1.52357141974298e-08 4.7010433227492e-09 7.24346154482539e-10 4.59503684189548e-10 2.14952420483835e-09 9.43137562907398e-09
"433" 12518 2.22543416222507e-08 3.2911547748095e-09 1.5263898954996e-08 4.70779145533093e-09 7.20332817591066e-10 4.55410789605267e-10 2.13929910403111e-09 9.45572338272346e-09
"434" 12519 2.24514836638903e-08 3.2999145804808e-09 1.52920837125622e-08 4.71453958791266e-09 7.16319480699592e-10 4.51317895020986e-10 2.12907400322386e-09 9.48007113637294e-09
"435" 12520 2.26486257055299e-08 3.30867438615209e-09 1.53202684701284e-08 4.72128772049439e-09 7.12306143808118e-10 4.47225000436704e-10 2.11884890241661e-09 9.50441889002241e-09
"436" 12521 2.28457677471695e-08 3.31743419182339e-09 1.53484532276945e-08 4.72803585307613e-09 7.08292806916645e-10 4.43132105852423e-10 2.10862380160936e-09 9.52876664367189e-09
"437" 12522 2.30429097888091e-08 3.32619399749468e-09 1.53766379852607e-08 4.73478398565786e-09 7.04279470025171e-10 4.39039211268142e-10 2.09839870080211e-09 9.55311439732136e-09
"438" 12523 2.32400518304487e-08 3.33495380316597e-09 1.54048227428269e-08 4.74153211823959e-09 7.00266133133697e-10 4.34946316683861e-10 2.08817359999486e-09 9.57746215097083e-09
"439" 12524 2.32441166505955e-08 3.33523947146432e-09 1.55462717760992e-08 4.84305704935713e-09 7.03012189272563e-10 4.31077081246527e-10 2.08143844719905e-09 9.57460635590809e-09
"440" 12525 2.32481814707424e-08 3.33552513976266e-09 1.56877208093715e-08 4.94458198047466e-09 7.05758245411429e-10 4.27207845809193e-10 2.07470329440324e-09 9.57175056084535e-09
"441" 12526 2.32909844135375e-08 3.33966033165927e-09 1.56661116452552e-08 4.94396602182787e-09 6.99755724039582e-10 4.23338610371859e-10 2.06447819359599e-09 9.56630985110291e-09
"442" 12527 2.33337873563326e-08 3.34379552355588e-09 1.56445024811389e-08 4.94335006318108e-09 6.93753202667735e-10 4.19469374934525e-10 2.05425309278874e-09 9.56086914136047e-09
"443" 12528 2.33765902991278e-08 3.34793071545249e-09 1.56228933170226e-08 4.94273410453429e-09 6.87750681295887e-10 4.15600139497191e-10 2.04402799198149e-09 9.55542843161802e-09
"444" 12529 2.34193932419229e-08 3.32749116888613e-09 1.56259322094013e-08 4.94164121140297e-09 6.87997143860264e-10 4.15823798644138e-10 2.04440304967615e-09 9.54717664572702e-09
"445" 12530 2.34586500393997e-08 3.32243105423459e-09 1.54628740120126e-08 4.89129707756395e-09 6.87991315871809e-10 4.15823798644138e-10 2.04091310166472e-09 9.54173593598457e-09
"446" 12531 2.34979068368764e-08 3.31737093958304e-09 1.5299815814624e-08 4.84095294372492e-09 6.87985487883355e-10 4.15823798644138e-10 2.03742315365328e-09 9.53629522624213e-09
"447" 12532 2.35371636343532e-08 3.31231082493149e-09 1.51367576172353e-08 4.79060880988589e-09 6.879796598949e-10 4.15823798644138e-10 2.03393320564184e-09 9.53085451649969e-09
"448" 12533 2.357642043183e-08 3.30725071027995e-09 1.49736994198467e-08 4.74026467604686e-09 6.87973831906446e-10 4.15823798644138e-10 2.0304432576304e-09 9.52541380675725e-09
"449" 12534 2.36156772293067e-08 3.3021905956284e-09 1.48106412224581e-08 4.68992054220783e-09 6.87968003917991e-10 4.15823798644138e-10 2.02695330961897e-09 9.5199730970148e-09
"450" 12535 2.36549340267835e-08 3.29713048097685e-09 1.46475830250694e-08 4.6395764083688e-09 6.87962175929537e-10 4.15823798644138e-10 2.02346336160753e-09 9.51453238727236e-09
"451" 12536 2.36941908242602e-08 3.29207036632531e-09 1.44845248276808e-08 4.58923227452978e-09 6.87956347941082e-10 4.15823798644138e-10 2.01997341359609e-09 9.50909167752992e-09
"452" 12537 2.3733447621737e-08 3.28701025167376e-09 1.43214666302921e-08 4.53888814069075e-09 6.87950519952628e-10 4.15823798644138e-10 2.01648346558466e-09 9.50365096778747e-09
"453" 12538 2.37727044192137e-08 3.28195013702221e-09 1.41584084329035e-08 4.48854400685172e-09 6.87944691964174e-10 4.15823798644138e-10 2.01299351757322e-09 9.49821025804503e-09
"454" 12539 2.38119612166905e-08 3.27689002237067e-09 1.39953502355149e-08 4.43819987301269e-09 6.87938863975719e-10 4.15823798644138e-10 2.00950356956178e-09 9.49276954830259e-09
"455" 12540 2.38512180141672e-08 3.27182990771912e-09 1.38322920381262e-08 4.38785573917366e-09 6.87933035987265e-10 4.15823798644138e-10 2.00601362155035e-09 9.48732883856014e-09
"456" 12541 2.3890474811644e-08 3.26676979306757e-09 1.36692338407376e-08 4.33751160533463e-09 6.8792720799881e-10 4.15823798644138e-10 2.00252367353891e-09 9.4818881288177e-09
"457" 12542 2.39275520544469e-08 3.26983489525029e-09 1.3646558082086e-08 4.33641871220331e-09 6.8792720799881e-10 4.15823798644138e-10 1.99903372552747e-09 9.47127758971585e-09
"458" 12543 2.39646292972498e-08 3.27289999743301e-09 1.36238823234345e-08 4.33532581907199e-09 6.8792720799881e-10 4.15823798644138e-10 1.99554377751603e-09 9.460667050614e-09
"459" 12544 2.40017065400526e-08 3.27596509961573e-09 1.3601206564783e-08 4.33423292594067e-09 6.8792720799881e-10 4.15823798644138e-10 1.9920538295046e-09 9.45005651151216e-09
"460" 12545 2.39978461838221e-08 3.27724827414848e-09 1.35691358869427e-08 4.33254589279524e-09 6.88672423680394e-10 4.15823798644138e-10 1.98644384979278e-09 9.43849404072273e-09
"461" 12546 2.39939858275915e-08 3.27853144868124e-09 1.35370652091024e-08 4.33085885964981e-09 6.89417639361977e-10 4.15823798644138e-10 1.98083387008096e-09 9.4269315699333e-09
"462" 12547 2.4012364897719e-08 3.29313112480007e-09 1.35113505580722e-08 4.33245050589833e-09 6.9016285504356e-10 4.1587523346745e-10 1.97734392206952e-09 9.41604929481576e-09
"463" 12548 2.40307439678465e-08 3.30773080091889e-09 1.3485635907042e-08 4.33404215214686e-09 6.90908070725143e-10 4.15926668290763e-10 1.97385397405808e-09 9.40516701969822e-09
"464" 12549 2.37645496104049e-08 3.31698469408783e-09 1.34538898449299e-08 4.32936260029819e-09 6.90896414748234e-10 4.16201762261023e-10 1.97541340492999e-09 9.40602865792479e-09
"465" 12550 2.34983552529632e-08 3.32623858725676e-09 1.34221437828177e-08 4.32468304844951e-09 6.90884758771325e-10 4.16476856231283e-10 1.97697283580189e-09 9.40689029615136e-09
"466" 12551 2.32243503577758e-08 3.36243914561357e-09 1.33858161952998e-08 4.32468304844951e-09 6.90884758771325e-10 4.17525797289009e-10 1.977222874265e-09 9.40802367039362e-09
"467" 12552 2.29503454625883e-08 3.39863970397038e-09 1.33494886077819e-08 4.32468304844951e-09 6.90884758771325e-10 4.18574738346736e-10 1.97747291272811e-09 9.40915704463588e-09
"468" 12553 2.26763405674009e-08 3.43484026232719e-09 1.3313161020264e-08 4.32468304844951e-09 6.90884758771325e-10 4.19623679404463e-10 1.97772295119122e-09 9.41029041887814e-09
"469" 12554 2.24023356722135e-08 3.471040820684e-09 1.32768334327461e-08 4.32468304844951e-09 6.90884758771325e-10 4.20672620462189e-10 1.97797298965433e-09 9.4114237931204e-09
"470" 12555 2.21283307770261e-08 3.50724137904081e-09 1.32405058452282e-08 4.32468304844951e-09 6.90884758771325e-10 4.21721561519916e-10 1.97822302811744e-09 9.41255716736266e-09
"471" 12556 2.18543258818386e-08 3.54344193739763e-09 1.32041782577103e-08 4.32468304844951e-09 6.90884758771325e-10 4.22770502577643e-10 1.97847306658055e-09 9.41369054160492e-09
"472" 12557 2.15803209866512e-08 3.57964249575444e-09 1.31678506701924e-08 4.32468304844951e-09 6.90884758771325e-10 4.23819443635369e-10 1.97872310504366e-09 9.41482391584718e-09
"473" 12558 2.13063160914638e-08 3.61584305411125e-09 1.31315230826745e-08 4.32468304844951e-09 6.90884758771325e-10 4.24868384693096e-10 1.97897314350677e-09 9.41595729008944e-09
"474" 12559 2.10323111962764e-08 3.65204361246806e-09 1.30951954951566e-08 4.32468304844951e-09 6.90884758771325e-10 4.25917325750822e-10 1.97922318196988e-09 9.4170906643317e-09
"475" 12560 2.0758306301089e-08 3.68824417082487e-09 1.30588679076387e-08 4.32468304844951e-09 6.90884758771325e-10 4.26966266808549e-10 1.97947322043299e-09 9.41822403857396e-09
"476" 12561 2.04843014059015e-08 3.72444472918168e-09 1.30225403201208e-08 4.32468304844951e-09 6.90884758771325e-10 4.28015207866276e-10 1.9797232588961e-09 9.41935741281622e-09
"477" 12562 2.02102965107141e-08 3.76064528753849e-09 1.29862127326029e-08 4.32468304844951e-09 6.90884758771325e-10 4.29064148924002e-10 1.9799732973592e-09 9.42049078705848e-09
"478" 12563 1.99362916155267e-08 3.7968458458953e-09 1.2949885145085e-08 4.32468304844951e-09 6.90884758771325e-10 4.30113089981729e-10 1.98022333582231e-09 9.42162416130074e-09
"479" 12564 1.96622867203393e-08 3.83304640425211e-09 1.29135575575671e-08 4.32468304844951e-09 6.90884758771325e-10 4.31162031039456e-10 1.98047337428542e-09 9.422757535543e-09
"480" 12565 1.96750348073949e-08 3.87537716697436e-09 1.28991514481562e-08 4.33273666658905e-09 6.89652445949444e-10 4.32210972097182e-10 1.98072341274853e-09 9.41532095769908e-09
"481" 12566 1.96877828944505e-08 3.91770792969661e-09 1.28847453387453e-08 4.34079028472859e-09 6.88420133127563e-10 4.33259913154909e-10 1.98097345121164e-09 9.40788437985515e-09
"482" 12567 1.97018227769415e-08 3.9542714054508e-09 1.28544491623093e-08 4.33003030857653e-09 6.87187820305681e-10 4.33362782801534e-10 1.98097345121164e-09 9.40529946517545e-09
"483" 12568 1.98327952744864e-08 3.94843153500327e-09 1.30393237887167e-08 4.36501659504525e-09 6.88930542221679e-10 4.3264037053738e-10 1.99948784045056e-09 9.63912609494982e-09
"484" 12569 1.99637677720313e-08 3.94259166455574e-09 1.32241984151241e-08 4.40000288151397e-09 6.90673264137676e-10 4.31917958273226e-10 2.01800222968948e-09 9.87295272472419e-09
"485" 12570 2.00947402695762e-08 3.93675179410822e-09 1.34090730415315e-08 4.43498916798268e-09 6.92415986053673e-10 4.31195546009072e-10 2.0365166189284e-09 1.01067793544986e-08
"486" 12571 2.02257127671211e-08 3.93091192366069e-09 1.35939476679388e-08 4.4699754544514e-09 6.9415870796967e-10 4.30473133744918e-10 2.05503100816731e-09 1.03406059842729e-08
"487" 12572 2.0356685264666e-08 3.92507205321316e-09 1.37788222943462e-08 4.50496174092012e-09 6.95901429885668e-10 4.29750721480763e-10 2.07354539740623e-09 1.05744326140473e-08
"488" 12573 2.04876577622109e-08 3.91923218276563e-09 1.39636969207536e-08 4.53994802738884e-09 6.97644151801665e-10 4.29028309216609e-10 2.09205978664515e-09 1.08082592438217e-08
"489" 12574 2.06186302597558e-08 3.9133923123181e-09 1.4148571547161e-08 4.57493431385756e-09 6.99386873717662e-10 4.28305896952455e-10 2.11057417588407e-09 1.1042085873596e-08
"490" 12575 2.0617059205195e-08 3.90947487085992e-09 1.41156888577881e-08 4.55652408578625e-09 6.99404357683025e-10 4.27359825541354e-10 2.11057417588407e-09 1.10469375367603e-08
"491" 12576 2.06965853364584e-08 3.90449200530741e-09 1.412172026887e-08 4.53780587839155e-09 6.97421001191106e-10 4.28735295392653e-10 2.11057417588407e-09 1.10526044079716e-08
"492" 12577 2.07000566865676e-08 3.90763435658918e-09 1.40896495910297e-08 4.51939565032025e-09 6.96177032392316e-10 4.29956460774014e-10 2.1094516504181e-09 1.10643027467688e-08
"493" 12578 2.07035280366768e-08 3.91077670787094e-09 1.40575789131895e-08 4.50098542224894e-09 6.94933063593526e-10 4.31177626155375e-10 2.10832912495213e-09 1.10760010855661e-08
"494" 12579 2.07069993867861e-08 3.9139190591527e-09 1.40255082353492e-08 4.48257519417764e-09 6.93689094794736e-10 4.32398791536736e-10 2.10720659948616e-09 1.10876994243634e-08
"495" 12580 2.07104707368953e-08 3.91706141043446e-09 1.3993437557509e-08 4.46416496610633e-09 6.92445125995945e-10 4.33619956918097e-10 2.10608407402019e-09 1.10993977631607e-08
"496" 12581 2.07139420870045e-08 3.92020376171622e-09 1.39613668796687e-08 4.44575473803502e-09 6.91201157197155e-10 4.34841122299459e-10 2.10496154855422e-09 1.11110961019579e-08
"497" 12582 2.07174134371137e-08 3.92334611299799e-09 1.39292962018284e-08 4.42734450996372e-09 6.89957188398365e-10 4.3606228768082e-10 2.10383902308826e-09 1.11227944407552e-08
"498" 12583 2.0720884787223e-08 3.92648846427975e-09 1.38972255239882e-08 4.40893428189241e-09 6.88713219599575e-10 4.37283453062181e-10 2.10271649762229e-09 1.11344927795525e-08
"499" 12584 2.07243561373322e-08 3.92963081556151e-09 1.38651548461479e-08 4.39052405382111e-09 6.87469250800784e-10 4.38504618443542e-10 2.10159397215632e-09 1.11461911183498e-08
"500" 12585 2.07278274874414e-08 3.93277316684327e-09 1.38330841683077e-08 4.3721138257498e-09 6.86225282001994e-10 4.39725783824903e-10 2.10047144669035e-09 1.1157889457147e-08
"501" 12586 2.07312988375506e-08 3.93591551812503e-09 1.38010134904674e-08 4.3537035976785e-09 6.84981313203204e-10 4.40946949206264e-10 2.09934892122438e-09 1.11695877959443e-08
"502" 12587 2.07347701876598e-08 3.93905786940679e-09 1.37689428126271e-08 4.33529336960719e-09 6.83737344404414e-10 4.42168114587625e-10 2.09822639575841e-09 1.11812861347416e-08
"503" 12588 2.07242016552781e-08 3.94718308624106e-09 1.37703463246279e-08 4.33500720891647e-09 6.84476732097542e-10 4.43286410322361e-10 2.08176621908157e-09 1.11395740267162e-08
"504" 12589 2.07183462865787e-08 3.94996252012544e-09 1.37186851541902e-08 4.30692989782442e-09 6.83232763298752e-10 4.44507575703722e-10 2.0522792612641e-09 1.10662564628541e-08
"505" 12590 2.07124909178793e-08 3.95274195400981e-09 1.36670239837525e-08 4.27885258673237e-09 6.81988794499962e-10 4.45728741085083e-10 2.02279230344663e-09 1.0992938898992e-08
"506" 12591 2.070663554918e-08 3.95552138789419e-09 1.36153628133149e-08 4.25077527564032e-09 6.80744825701172e-10 4.46949906466445e-10 1.99330534562916e-09 1.09196213351299e-08
"507" 12592 2.07007801804806e-08 3.95830082177857e-09 1.35637016428772e-08 4.22269796454827e-09 6.79500856902382e-10 4.48171071847806e-10 1.96381838781168e-09 1.08463037712679e-08
"508" 12593 2.06949248117812e-08 3.96108025566295e-09 1.35120404724395e-08 4.19462065345622e-09 6.78256888103591e-10 4.49392237229167e-10 1.93433142999421e-09 1.07729862074058e-08
"509" 12594 2.06890694430818e-08 3.96385968954732e-09 1.34603793020019e-08 4.16654334236417e-09 6.77012919304801e-10 4.50613402610528e-10 1.90484447217674e-09 1.06996686435437e-08
"510" 12595 2.06832140743825e-08 3.9666391234317e-09 1.34087181315642e-08 4.13846603127212e-09 6.75768950506011e-10 4.51834567991889e-10 1.87535751435927e-09 1.06263510796816e-08
"511" 12596 2.06773587056831e-08 3.96941855731608e-09 1.33570569611265e-08 4.11038872018007e-09 6.74524981707221e-10 4.5305573337325e-10 1.8458705565418e-09 1.05530335158195e-08
"512" 12597 2.06773587056831e-08 3.97867245048501e-09 1.33045837791562e-08 4.08528210915858e-09 6.7328101290843e-10 4.53158603019876e-10 1.81881551659909e-09 1.05530335158195e-08
"513" 12598 2.06773587056831e-08 3.98792634365395e-09 1.32521105971859e-08 4.0601754981371e-09 6.7203704410964e-10 4.53261472666501e-10 1.79176047665638e-09 1.05530335158195e-08
"514" 12599 2.06820718693655e-08 3.98792634365395e-09 1.32092414881562e-08 4.05817237330207e-09 6.70804731287759e-10 4.523154012554e-10 1.7716261326433e-09 1.05141282057794e-08
"515" 12600 2.06867850330478e-08 3.98792634365395e-09 1.31663723791265e-08 4.05616924846704e-09 6.69572418465877e-10 4.51369329844298e-10 1.75149178863022e-09 1.04752228957393e-08
"516" 12601 2.06867850330478e-08 3.99049735833902e-09 1.31382216934984e-08 4.08264680094437e-09 6.61615680544384e-10 4.47482174553268e-10 1.74906251837348e-09 1.05191570333351e-08
"517" 12602 2.06867850330478e-08 3.9930683730241e-09 1.31100710078702e-08 4.10912435342169e-09 6.5365894262289e-10 4.43595019262237e-10 1.74663324811674e-09 1.05630911709308e-08
"518" 12603 2.06867850330478e-08 3.99563938770918e-09 1.30819203222421e-08 4.13560190589901e-09 6.45702204701396e-10 4.39707863971207e-10 1.74420397786e-09 1.06070253085265e-08
"519" 12604 2.06867850330478e-08 3.99821040239426e-09 1.3053769636614e-08 4.16207945837634e-09 6.37745466779902e-10 4.35820708680176e-10 1.74177470760326e-09 1.06509594461223e-08
"520" 12605 2.06867850330478e-08 4.00078141707934e-09 1.30256189509858e-08 4.18855701085366e-09 6.29788728858408e-10 4.31933553389146e-10 1.73934543734652e-09 1.0694893583718e-08
"521" 12606 2.06867850330478e-08 4.00335243176441e-09 1.29974682653577e-08 4.21503456333098e-09 6.21831990936914e-10 4.28046398098115e-10 1.73691616708978e-09 1.07388277213138e-08
"522" 12607 2.06867850330478e-08 4.00592344644949e-09 1.29693175797296e-08 4.2415121158083e-09 6.1387525301542e-10 4.24159242807084e-10 1.73448689683304e-09 1.07827618589095e-08
"523" 12608 2.05946502667074e-08 4.01212623429441e-09 1.29189208002663e-08 4.25993605014609e-09 6.14632124673912e-10 4.23884148836825e-10 1.74352762446305e-09 1.08266959965052e-08
"524" 12609 2.05025155003669e-08 4.01832902213932e-09 1.2868524020803e-08 4.27835998448387e-09 6.15388996332404e-10 4.23609054866565e-10 1.75256835209306e-09 1.0870630134101e-08
"525" 12610 2.04103807340265e-08 4.02453180998424e-09 1.28181272413398e-08 4.29678391882165e-09 6.16145867990896e-10 4.23333960896305e-10 1.76160907972307e-09 1.09145642716967e-08
"526" 12611 2.0318245967686e-08 4.03073459782915e-09 1.27677304618765e-08 4.31520785315943e-09 6.16902739649389e-10 4.23058866926045e-10 1.77064980735308e-09 1.09584984092925e-08
"527" 12612 2.02261112013456e-08 4.03693738567407e-09 1.27173336824132e-08 4.33363178749721e-09 6.17659611307881e-10 4.22783772955785e-10 1.77969053498308e-09 1.10024325468882e-08
"528" 12613 2.01339764350052e-08 4.04314017351898e-09 1.266693690295e-08 4.35205572183499e-09 6.18416482966373e-10 4.22508678985526e-10 1.78873126261309e-09 1.10463666844839e-08
"529" 12614 2.00418416686647e-08 4.0493429613639e-09 1.26165401234867e-08 4.37047965617277e-09 6.19173354624865e-10 4.22233585015266e-10 1.7977719902431e-09 1.10903008220797e-08
"530" 12615 1.99497069023243e-08 4.05554574920881e-09 1.25661433440234e-08 4.38890359051056e-09 6.19930226283357e-10 4.21958491045006e-10 1.80681271787311e-09 1.11342349596754e-08
"531" 12616 1.98575721359838e-08 4.06174853705373e-09 1.25157465645602e-08 4.40732752484834e-09 6.20687097941849e-10 4.21683397074746e-10 1.81585344550312e-09 1.11781690972712e-08
"532" 12617 1.97654373696434e-08 4.06795132489864e-09 1.24653497850969e-08 4.42575145918612e-09 6.21443969600341e-10 4.21408303104486e-10 1.82489417313313e-09 1.12221032348669e-08
"533" 12618 1.96733026033029e-08 4.07415411274356e-09 1.24149530056336e-08 4.4441753935239e-09 6.22200841258834e-10 4.21133209134226e-10 1.83393490076314e-09 1.12660373724626e-08
"534" 12619 1.95655568999107e-08 4.09381390351393e-09 1.23621201915725e-08 4.4379041954267e-09 6.28174222688409e-10 4.21804186575068e-10 1.83567987476886e-09 1.12968680610032e-08
"535" 12620 1.94578111965185e-08 4.1134736942843e-09 1.23092873775113e-08 4.4316329973295e-09 6.34147604117983e-10 4.22475164015909e-10 1.83742484877457e-09 1.13276987495437e-08
"536" 12621 1.96929930354087e-08 4.1134736942843e-09 1.23078497935725e-08 4.42488486474776e-09 6.3615427256372e-10 4.22475164015909e-10 1.83798544960305e-09 1.13242521966374e-08
"537" 12622 1.99281748742989e-08 4.1134736942843e-09 1.23064122096337e-08 4.41813673216603e-09 6.38160941009457e-10 4.22475164015909e-10 1.83854605043153e-09 1.13208056437311e-08
"538" 12623 2.01633567131891e-08 4.1134736942843e-09 1.2304974625695e-08 4.4113885995843e-09 6.40167609455194e-10 4.22475164015909e-10 1.83910665126001e-09 1.13173590908249e-08
"539" 12624 2.03985385520793e-08 4.1134736942843e-09 1.23035370417562e-08 4.40464046700257e-09 6.42174277900931e-10 4.22475164015909e-10 1.83966725208849e-09 1.13139125379186e-08
"540" 12625 2.07414660943617e-08 4.11340111080482e-09 1.23612882986886e-08 4.40525642564935e-09 6.43435730665084e-10 4.21804186575068e-10 1.82788272040934e-09 1.11828780473663e-08
"541" 12626 2.10301242637889e-08 4.10756124035729e-09 1.23925015357455e-08 4.39850829306762e-09 6.45688861675197e-10 4.22079280545328e-10 1.80799311962332e-09 1.11787521544208e-08
"542" 12627 2.13187824332161e-08 4.10172136990976e-09 1.24237147728024e-08 4.39176016048589e-09 6.4794199268531e-10 4.22354374515588e-10 1.7881035188373e-09 1.11746262614753e-08
"543" 12628 2.16074406026433e-08 4.09588149946223e-09 1.24549280098593e-08 4.38501202790416e-09 6.50195123695424e-10 4.22629468485847e-10 1.76821391805128e-09 1.11705003685298e-08
"544" 12629 2.18960987720705e-08 4.0900416290147e-09 1.24861412469162e-08 4.37826389532242e-09 6.52448254705537e-10 4.22904562456107e-10 1.74832431726526e-09 1.11663744755843e-08
"545" 12630 2.21847569414977e-08 4.08420175856717e-09 1.25173544839731e-08 4.37151576274069e-09 6.5470138571565e-10 4.23179656426367e-10 1.72843471647924e-09 1.11622485826388e-08
"546" 12631 2.24734151109249e-08 4.07836188811964e-09 1.254856772103e-08 4.36476763015896e-09 6.56954516725763e-10 4.23454750396627e-10 1.70854511569322e-09 1.11581226896933e-08
"547" 12632 2.27620732803521e-08 4.07252201767211e-09 1.25797809580869e-08 4.35801949757723e-09 6.59207647735876e-10 4.23729844366887e-10 1.6886555149072e-09 1.11539967967478e-08
"548" 12633 2.30507314497794e-08 4.06668214722458e-09 1.26109941951438e-08 4.35127136499549e-09 6.61460778745989e-10 4.24004938337146e-10 1.66876591412118e-09 1.11498709038023e-08
"549" 12634 2.33393896192066e-08 4.06084227677705e-09 1.26422074322007e-08 4.34452323241376e-09 6.63713909756102e-10 4.24280032307406e-10 1.64887631333516e-09 1.11457450108568e-08
"550" 12635 2.36280477886338e-08 4.05500240632952e-09 1.26734206692577e-08 4.33777509983203e-09 6.65967040766215e-10 4.24555126277666e-10 1.62898671254914e-09 1.11416191179113e-08
"551" 12636 2.3916705958061e-08 4.04916253588199e-09 1.27046339063146e-08 4.33102696725030e-09 6.68220171776328e-10 4.24830220247926e-10 1.60909711176312e-09 1.11374932249658e-08
"552" 12637 2.42053641274882e-08 4.04332266543446e-09 1.27358471433715e-08 4.32427883466856e-09 6.70473302786441e-10 4.25105314218186e-10 1.5892075109771e-09 1.11333673320203e-08
"553" 12638 2.44940222969154e-08 4.03748279498693e-09 1.27670603804284e-08 4.31753070208683e-09 6.72726433796555e-10 4.25380408188446e-10 1.56931791019108e-09 1.11292414390748e-08
"554" 12639 2.47826804663426e-08 4.0316429245394e-09 1.27982736174853e-08 4.3107825695051e-09 6.74979564806668e-10 4.25655502158705e-10 1.54942830940506e-09 1.11251155461293e-08
"555" 12640 2.50713386357698e-08 4.02580305409187e-09 1.28294868545422e-08 4.30403443692336e-09 6.77232695816781e-10 4.25930596128965e-10 1.52953870861904e-09 1.11209896531838e-08
"556" 12641 2.5359996805197e-08 4.01996318364434e-09 1.28607000915991e-08 4.29728630434163e-09 6.79485826826894e-10 4.26205690099225e-10 1.50964910783302e-09 1.11168637602383e-08
"557" 12642 2.56486549746243e-08 4.01412331319681e-09 1.2891913328656e-08 4.2905381717599e-09 6.81738957837007e-10 4.26480784069485e-10 1.489759507047e-09 1.11127378672928e-08
"558" 12643 2.59373131440515e-08 4.00828344274929e-09 1.29231265657129e-08 4.28379003917817e-09 6.8399208884712e-10 4.26755878039745e-10 1.46986990626098e-09 1.11086119743473e-08
"559" 12644 2.62259713134787e-08 4.00244357230176e-09 1.29543398027698e-08 4.27704190659643e-09 6.86245219857233e-10 4.27030972010005e-10 1.44998030547496e-09 1.11044860814018e-08
"560" 12645 2.65146294829059e-08 3.99660370185422e-09 1.29855530398267e-08 4.2702937740147e-09 6.88498350867346e-10 4.27306065980264e-10 1.43009070468894e-09 1.11003601884563e-08
"561" 12646 2.68275371212355e-08 3.94016268489123e-09 1.2950825816324e-08 4.25001385137035e-09 6.78511632546298e-10 4.02386329973612e-10 1.42853127381704e-09 1.10934232193622e-08
"562" 12647 2.71704646635178e-08 3.9343228144437e-09 1.30099805852571e-08 4.25091597070786e-09 6.79773085310451e-10 3.98774268652841e-10 1.4273469006398e-09 1.10892973264167e-08
"563" 12648 2.72193823124266e-08 3.92855552747565e-09 1.30151999848064e-08 4.25120213139858e-09 6.78781407064492e-10 3.95833184772912e-10 1.42560192663408e-09 1.10869850033853e-08
"564" 12649 2.72682999613353e-08 3.92278824050759e-09 1.30204193843557e-08 4.25148829208930e-09 6.77789728818532e-10 3.92892100892983e-10 1.42385695262836e-09 1.1084672680354e-08
"565" 12650 2.72882151342369e-08 3.92315115790498e-09 1.31455837021493e-08 4.25808928814257e-09 6.77801384795441e-10 3.89280039572212e-10 1.43115270625265e-09 1.11430259394345e-08
"566" 12651 2.73081303071384e-08 3.92351407530236e-09 1.32707480199429e-08 4.26469028419584e-09 6.7781304077235e-10 3.85667978251441e-10 1.43844845987694e-09 1.12013791985151e-08
"567" 12652 2.732804548004e-08 3.92387699269975e-09 1.33959123377365e-08 4.27129128024911e-09 6.77824696749259e-10 3.8205591693067e-10 1.44574421350123e-09 1.12597324575957e-08
"568" 12653 2.73479606529416e-08 3.92423991009713e-09 1.35210766555301e-08 4.27789227630239e-09 6.77836352726168e-10 3.784438556099e-10 1.45303996712552e-09 1.13180857166762e-08
"569" 12654 2.73678758258431e-08 3.92460282749452e-09 1.36462409733237e-08 4.28449327235566e-09 6.77848008703077e-10 3.74831794289129e-10 1.46033572074981e-09 1.13764389757568e-08
"570" 12655 2.73877909987447e-08 3.9249657448919e-09 1.37714052911173e-08 4.29109426840893e-09 6.77859664679986e-10 3.71219732968358e-10 1.4676314743741e-09 1.14347922348374e-08
"571" 12656 2.74077061716463e-08 3.92532866228929e-09 1.38965696089108e-08 4.29769526446221e-09 6.77871320656894e-10 3.67607671647588e-10 1.47492722799839e-09 1.14931454939179e-08
"572" 12657 2.74276213445478e-08 3.92569157968667e-09 1.40217339267044e-08 4.30429626051548e-09 6.77882976633803e-10 3.63995610326817e-10 1.48222298162268e-09 1.15514987529985e-08
"573" 12658 2.74475365174494e-08 3.92605449708406e-09 1.4146898244498e-08 4.31089725656875e-09 6.77894632610712e-10 3.60383549006046e-10 1.48951873524697e-09 1.16098520120791e-08
"574" 12659 2.7467451690351e-08 3.92641741448144e-09 1.42720625622916e-08 4.31749825262203e-09 6.77906288587621e-10 3.56771487685275e-10 1.49681448887126e-09 1.16682052711596e-08
"575" 12660 2.74873668632525e-08 3.93069777333701e-09 1.43920074805359e-08 4.319038149239e-09 6.78663160246113e-10 3.56100510244434e-10 1.50242711620111e-09 1.17213887008808e-08
"576" 12661 2.75072820361541e-08 3.93497813219257e-09 1.45119523987802e-08 4.32057804585598e-09 6.79420031904605e-10 3.55429532803593e-10 1.50803974353095e-09 1.17745721306019e-08
"577" 12662 2.75271972090557e-08 3.93925849104813e-09 1.46318973170245e-08 4.32211794247295e-09 6.80176903563098e-10 3.54758555362751e-10 1.51365237086079e-09 1.18277555603231e-08
"578" 12663 2.75471123819572e-08 3.9435388499037e-09 1.47518422352688e-08 4.32365783908992e-09 6.8093377522159e-10 3.5408757792191e-10 1.51926499819064e-09 1.18809389900443e-08
"579" 12664 2.75670275548588e-08 3.94781920875926e-09 1.48717871535131e-08 4.3251977357069e-09 6.81690646880082e-10 3.53416600481068e-10 1.52487762552048e-09 1.19341224197654e-08
"580" 12665 2.75869427277604e-08 3.95209956761483e-09 1.49917320717574e-08 4.32673763232387e-09 6.82447518538574e-10 3.52745623040227e-10 1.53049025285032e-09 1.19873058494866e-08
"581" 12666 2.76068579006619e-08 3.95637992647039e-09 1.51116769900017e-08 4.32827752894084e-09 6.83204390197066e-10 3.52074645599385e-10 1.53610288018017e-09 1.20404892792077e-08
"582" 12667 2.76267730735635e-08 3.96066028532595e-09 1.5231621908246e-08 4.32981742555782e-09 6.83961261855558e-10 3.51403668158544e-10 1.54171550751001e-09 1.20936727089289e-08
"583" 12668 2.76466882464651e-08 3.96494064418152e-09 1.53515668264903e-08 4.33135732217479e-09 6.8471813351405e-10 3.50732690717702e-10 1.54732813483985e-09 1.214685613865e-08
"584" 12669 2.76666034193666e-08 3.96922100303708e-09 1.54715117447346e-08 4.33289721879177e-09 6.85475005172543e-10 3.50061713276861e-10 1.5529407621697e-09 1.22000395683712e-08
"585" 12670 2.76865185922682e-08 3.97350136189264e-09 1.55914566629789e-08 4.33443711540874e-09 6.86231876831035e-10 3.49390735836019e-10 1.55855338949954e-09 1.22532229980924e-08
"586" 12671 2.77769075451143e-08 3.98056115463259e-09 1.55970356946191e-08 4.33597701202571e-09 6.86988748489527e-10 3.49493605482645e-10 1.55593592849096e-09 1.22439272757875e-08
"587" 12672 2.78672964979604e-08 3.98762094737253e-09 1.56026147262593e-08 4.33751690864269e-09 6.87745620148019e-10 3.4959647512927e-10 1.55331846748239e-09 1.22346315534826e-08
"588" 12673 2.80085135337034e-08 3.9942452392356e-09 1.56051548655207e-08 4.33383486302843e-09 6.87499157583643e-10 3.49699344775895e-10 1.61441903386277e-09 1.26448749293118e-08
"589" 12674 2.80791669642172e-08 3.99338823434058e-09 1.5618482078659e-08 4.33093773122209e-09 6.87751448136474e-10 3.48426744571221e-10 1.61441903386277e-09 1.25841620613877e-08
"590" 12675 2.8149820394731e-08 3.99253122944555e-09 1.56318092917972e-08 4.32804059941575e-09 6.88003738689304e-10 3.47154144366548e-10 1.61441903386277e-09 1.25234491934637e-08
"591" 12676 2.82204738252448e-08 3.99167422455053e-09 1.56451365049355e-08 4.32514346760942e-09 6.88256029242135e-10 3.45881544161874e-10 1.61441903386277e-09 1.24627363255396e-08
"592" 12677 2.82911272557587e-08 3.9908172196555e-09 1.56584637180738e-08 4.32224633580308e-09 6.88508319794966e-10 3.446089439572e-10 1.61441903386277e-09 1.24020234576155e-08
"593" 12678 2.83536160941921e-08 3.99388232183822e-09 1.56448232465201e-08 4.31695082530762e-09 6.88754782359342e-10 3.43233474105901e-10 1.67694739283845e-09 1.24934320017049e-08
"594" 12679 2.84161049326256e-08 3.99694742402094e-09 1.56311827749664e-08 4.31165531481215e-09 6.89001244923718e-10 3.41858004254602e-10 1.73947575181412e-09 1.25848405457943e-08
"595" 12680 2.84785937710591e-08 4.00001252620366e-09 1.56175423034127e-08 4.30635980431669e-09 6.89247707488094e-10 3.40482534403303e-10 1.8020041107898e-09 1.26762490898837e-08
"596" 12681 2.85410826094926e-08 4.00307762838638e-09 1.5603901831859e-08 4.30106429382122e-09 6.89494170052471e-10 3.39107064552004e-10 1.86453246976547e-09 1.2767657633973e-08
"597" 12682 2.86037011166331e-08 4.00721282028299e-09 1.56034494524172e-08 4.26152377339961e-09 6.87487501606734e-10 3.39004194905378e-10 1.92625018944956e-09 1.29181013440802e-08
"598" 12683 2.86663196237737e-08 4.0113480121796e-09 1.56029970729755e-08 4.221983252978e-09 6.85480833160997e-10 3.38901325258753e-10 1.98796790913365e-09 1.30685450541873e-08
"599" 12684 2.87289381309143e-08 4.01548320407621e-09 1.56025446935337e-08 4.18244273255639e-09 6.8347416471526e-10 3.38798455612128e-10 2.04968562881773e-09 1.32189887642945e-08
"600" 12685 2.87915566380549e-08 4.01961839597282e-09 1.5602092314092e-08 4.14290221213478e-09 6.81467496269523e-10 3.38695585965502e-10 2.11140334850182e-09 1.33694324744016e-08
"601" 12686 2.88541751451954e-08 4.02375358786943e-09 1.56016399346502e-08 4.10336169171317e-09 6.79460827823787e-10 3.38592716318877e-10 2.17312106818591e-09 1.35198761845087e-08
"602" 12687 2.8916793652336e-08 4.02788877976604e-09 1.56011875552084e-08 4.06382117129156e-09 6.7745415937805e-10 3.38489846672252e-10 2.23483878787e-09 1.36703198946159e-08
"603" 12688 2.89794121594766e-08 4.03202397166265e-09 1.56007351757667e-08 4.02428065086995e-09 6.75447490932313e-10 3.38386977025626e-10 2.29655650755408e-09 1.3820763604723e-08
"604" 12689 2.90420306666172e-08 4.03615916355926e-09 1.56002827963249e-08 3.98474013044834e-09 6.73440822486576e-10 3.38284107379001e-10 2.35827422723817e-09 1.39712073148301e-08
"605" 12690 2.90962451659744e-08 4.03424140018947e-09 1.55668086064839e-08 3.9782045902931e-09 6.72695606804993e-10 3.35343023499072e-10 2.41905761220813e-09 1.4104558406577e-08
"606" 12691 2.91504596653316e-08 4.03232363681969e-09 1.55333344166429e-08 3.97166905013785e-09 6.7195039112341e-10 3.32401939619142e-10 2.47984099717809e-09 1.4237909498324e-08
"607" 12692 2.92046741646888e-08 4.0304058734499e-09 1.54998602268019e-08 3.96513350998261e-09 6.71205175441826e-10 3.29460855739213e-10 2.54062438214804e-09 1.43712605900709e-08
"608" 12693 2.92026442004333e-08 4.02463858648185e-09 1.54736354653418e-08 3.95408737313982e-09 6.71216831418735e-10 3.25848794418443e-10 2.54230750844249e-09 1.43524902698043e-08
"609" 12694 2.91949234879722e-08 4.02272082311206e-09 1.54433392889058e-08 3.94841031505674e-09 6.70225153172776e-10 3.24128875919874e-10 2.54056253443677e-09 1.43337199495378e-08
"610" 12695 2.91872027755111e-08 4.02080305974228e-09 1.54130431124699e-08 3.94273325697365e-09 6.69233474926816e-10 3.22408957421306e-10 2.53881756043105e-09 1.43149496292713e-08
"611" 12696 2.917948206305e-08 4.01888529637249e-09 1.53827469360339e-08 3.93705619889056e-09 6.68241796680857e-10 3.20689038922738e-10 2.53707258642533e-09 1.42961793090047e-08
"612" 12697 2.91717613505889e-08 4.01696753300271e-09 1.53524507595979e-08 3.93137914080747e-09 6.67250118434897e-10 3.1896912042417e-10 2.53532761241961e-09 1.42774089887382e-08
"613" 12698 2.91640406381278e-08 4.01504976963292e-09 1.5322154583162e-08 3.92570208272438e-09 6.66258440188938e-10 3.17249201925602e-10 2.5335826384139e-09 1.42586386684717e-08
"614" 12699 2.91563199256667e-08 4.01313200626314e-09 1.5291858406726e-08 3.92002502464129e-09 6.65266761942978e-10 3.15529283427034e-10 2.53183766440818e-09 1.42398683482051e-08
"615" 12700 2.91485992132056e-08 4.01121424289335e-09 1.526156223029e-08 3.9143479665582e-09 6.64275083697019e-10 3.13809364928466e-10 2.53009269040246e-09 1.42210980279386e-08
"616" 12701 2.91408785007445e-08 4.00929647952357e-09 1.5231266053854e-08 3.90867090847511e-09 6.63283405451059e-10 3.12089446429898e-10 2.52834771639674e-09 1.42023277076721e-08
"617" 12702 2.91331577882835e-08 4.00737871615378e-09 1.52009698774181e-08 3.90299385039202e-09 6.622917272051e-10 3.1036952793133e-10 2.52660274239102e-09 1.41835573874055e-08
"618" 12703 2.91254370758224e-08 4.005460952784e-09 1.51706737009821e-08 3.89731679230893e-09 6.6130004895914e-10 3.08649609432761e-10 2.5248577683853e-09 1.4164787067139e-08
"619" 12704 2.91177163633613e-08 4.00354318941421e-09 1.51403775245461e-08 3.89163973422584e-09 6.60308370713181e-10 3.06929690934193e-10 2.52311279437958e-09 1.41460167468725e-08
"620" 12705 2.91120256151557e-08 4.00162542604443e-09 1.5142964037483e-08 3.89532177984011e-09 6.60308370713181e-10 3.05209772435625e-10 2.50378776584908e-09 1.38620877882759e-08
"621" 12706 2.90820057112029e-08 4.00191575996234e-09 1.51388926225072e-08 3.89378188322313e-09 6.59305036490312e-10 3.07377009228088e-10 2.49817778613726e-09 1.38629950010493e-08
"622" 12707 2.90519858072501e-08 4.00220609388025e-09 1.51348212075313e-08 3.89224198660616e-09 6.58301702267444e-10 3.0954424602055e-10 2.49256780642544e-09 1.38639022138227e-08
"623" 12708 2.90219659032973e-08 4.00249642779815e-09 1.51307497925554e-08 3.89070208998918e-09 6.57298368044575e-10 3.11711482813013e-10 2.48695782671362e-09 1.38648094265961e-08
"624" 12709 2.89919459993445e-08 4.00278676171606e-09 1.51266783775796e-08 3.88916219337221e-09 6.56295033821707e-10 3.13878719605475e-10 2.4813478470018e-09 1.38657166393695e-08
"625" 12710 2.89619260953916e-08 4.00307709563397e-09 1.51226069626037e-08 3.88762229675524e-09 6.55291699598838e-10 3.16045956397937e-10 2.47573786728998e-09 1.38666238521429e-08
"626" 12711 2.89319061914388e-08 4.00336742955188e-09 1.51185355476279e-08 3.88608240013826e-09 6.5428836537597e-10 3.182131931904e-10 2.47012788757816e-09 1.38675310649163e-08
"627" 12712 2.8901886287486e-08 4.00365776346979e-09 1.5114464132652e-08 3.88454250352129e-09 6.53285031153102e-10 3.20380429982862e-10 2.46451790786634e-09 1.38684382776897e-08
"628" 12713 2.88718663835332e-08 4.00394809738769e-09 1.51103927176761e-08 3.88300260690432e-09 6.52281696930233e-10 3.22547666775325e-10 2.45890792815452e-09 1.38693454904631e-08
"629" 12714 2.88418464795804e-08 4.0042384313056e-09 1.51063213027003e-08 3.88146271028734e-09 6.51278362707365e-10 3.24714903567787e-10 2.4532979484427e-09 1.38702527032365e-08
"630" 12715 2.88118265756276e-08 4.00452876522351e-09 1.51022498877244e-08 3.87992281367037e-09 6.50275028484496e-10 3.2688214036025e-10 2.44768796873088e-09 1.38711599160099e-08
"631" 12716 2.87818066716748e-08 4.00481909914142e-09 1.50981784727485e-08 3.87838291705339e-09 6.49271694261628e-10 3.29049377152712e-10 2.44207798901906e-09 1.38720671287833e-08
"632" 12717 2.8751786767722e-08 4.00510943305933e-09 1.50941070577727e-08 3.87684302043642e-09 6.4826836003876e-10 3.31216613945174e-10 2.43646800930724e-09 1.38729743415567e-08
"633" 12718 2.87217668637691e-08 4.00539976697723e-09 1.50900356427968e-08 3.87530312381945e-09 6.47265025815891e-10 3.33383850737637e-10 2.43085802959542e-09 1.38738815543301e-08
"634" 12719 2.86917469598163e-08 4.00569010089514e-09 1.50859642278209e-08 3.87376322720247e-09 6.46261691593023e-10 3.35551087530099e-10 2.4252480498836e-09 1.38747887671035e-08
"635" 12720 2.86617270558635e-08 4.00598043481305e-09 1.50818928128451e-08 3.8722233305855e-09 6.45258357370154e-10 3.37718324322562e-10 2.41963807017178e-09 1.38756959798769e-08
"636" 12721 2.86317071519107e-08 4.00627076873096e-09 1.50778213978692e-08 3.87068343396853e-09 6.44255023147286e-10 3.39885561115024e-10 2.41402809045996e-09 1.38766031926503e-08
"637" 12722 2.86487895349671e-08 4.00349600046615e-09 1.53488421369518e-08 4.02338916236457e-09 6.49500672860641e-10 3.40934502172751e-10 2.40897871157662e-09 1.38775104054237e-08
"638" 12723 2.89039767272118e-08 4.00570409775384e-09 1.54007474775041e-08 4.0164801869879e-09 6.50750469647886e-10 3.43256043435151e-10 2.40324371263325e-09 1.39006353470026e-08
"639" 12724 2.88927049777966e-08 4.00399475358335e-09 1.5401257587934e-08 4.00987919093463e-09 6.49747135425017e-10 3.44202114846252e-10 2.39937870692715e-09 1.3906076056745e-08
"640" 12725 2.88814332283813e-08 4.00228540941287e-09 1.54017676983639e-08 4.00327819488135e-09 6.48743801202149e-10 3.45148186257354e-10 2.39551370122105e-09 1.39115167664875e-08
"641" 12726 2.88701614789661e-08 4.00057606524238e-09 1.54022778087937e-08 3.99667719882808e-09 6.4774046697928e-10 3.46094257668455e-10 2.39164869551494e-09 1.39169574762299e-08
"642" 12727 2.88546452588348e-08 3.9907461698572e-09 1.53705317466816e-08 3.99161609939178e-09 6.43762098018533e-10 3.46816669932609e-10 2.38946549229428e-09 1.39223981859723e-08
"643" 12728 2.89416376567808e-08 3.9829159525604e-09 1.53840908281971e-08 4.0262944065371e-09 6.40030191622163e-10 3.46816669932609e-10 2.38553731506789e-09 1.39455231275512e-08
"644" 12729 2.90617123809563e-08 3.97785583790886e-09 1.54228194339501e-08 4.06306311304816e-09 6.39284975940579e-10 3.47040329079556e-10 2.37649658743789e-09 1.39441644474727e-08
"645" 12730 2.91817871051318e-08 3.97279572325731e-09 1.54615480397032e-08 4.09983181955922e-09 6.38539760258996e-10 3.47263988226504e-10 2.36745585980788e-09 1.39428057673943e-08
"646" 12731 2.93018618293073e-08 3.96773560860576e-09 1.55002766454562e-08 4.13660052607028e-09 6.37794544577413e-10 3.47487647373451e-10 2.35841513217787e-09 1.39414470873158e-08
"647" 12732 2.94219365534828e-08 3.96267549395422e-09 1.55390052512093e-08 4.17336923258134e-09 6.3704932889583e-10 3.47711306520398e-10 2.34937440454786e-09 1.39400884072373e-08
"648" 12733 2.95420112776584e-08 3.95761537930267e-09 1.55777338569623e-08 4.21013793909239e-09 6.36304113214246e-10 3.47934965667345e-10 2.34033367691785e-09 1.39387297271589e-08
"649" 12734 2.96620860018339e-08 3.95255526465112e-09 1.56164624627154e-08 4.24690664560345e-09 6.35558897532663e-10 3.48158624814292e-10 2.33129294928784e-09 1.39373710470804e-08
"650" 12735 2.97821607260094e-08 3.94749514999958e-09 1.56551910684684e-08 4.28367535211451e-09 6.3481368185108e-10 3.48382283961239e-10 2.32225222165783e-09 1.39360123670019e-08
"651" 12736 2.99022354501849e-08 3.94243503534803e-09 1.56939196742214e-08 4.32044405862557e-09 6.34068466169497e-10 3.48605943108186e-10 2.31321149402782e-09 1.39346536869235e-08
"652" 12737 3.00223101743604e-08 3.93737492069648e-09 1.57326482799745e-08 4.35721276513662e-09 6.33323250487913e-10 3.48829602255134e-10 2.30417076639781e-09 1.3933295006845e-08
"653" 12738 3.01423848985359e-08 3.93231480604494e-09 1.57713768857275e-08 4.39398147164768e-09 6.3257803480633e-10 3.49053261402081e-10 2.2951300387678e-09 1.39319363267665e-08
"654" 12739 3.02624596227114e-08 3.92725469139339e-09 1.58101054914806e-08 4.43075017815874e-09 6.31832819124747e-10 3.49276920549028e-10 2.2860893111378e-09 1.39305776466881e-08
"655" 12740 3.03825343468869e-08 3.92219457674184e-09 1.58488340972336e-08 4.4675188846698e-09 6.31087603443164e-10 3.49500579695975e-10 2.27704858350779e-09 1.39292189666096e-08
"656" 12741 3.05026090710625e-08 3.9171344620903e-09 1.58875627029867e-08 4.50428759118086e-09 6.3034238776158e-10 3.49724238842922e-10 2.26800785587778e-09 1.39278602865311e-08
"657" 12742 3.0622683795238e-08 3.91207434743875e-09 1.59262913087397e-08 4.54105629769191e-09 6.29597172079997e-10 3.49947897989869e-10 2.25896712824777e-09 1.39265016064527e-08
"658" 12743 3.07427585194135e-08 3.9070142327872e-09 1.59650199144928e-08 4.57782500420297e-09 6.28851956398414e-10 3.50171557136817e-10 2.24992640061776e-09 1.39251429263742e-08
"659" 12744 3.07408931756518e-08 3.90166378421775e-09 1.59650199144928e-08 4.57623335795444e-09 6.28112568705285e-10 3.54264451721098e-10 2.24917628522843e-09 1.39546166461016e-08
"660" 12745 3.073902783189e-08 3.89631333564829e-09 1.59650199144928e-08 4.57464171170592e-09 6.27373181012156e-10 3.58357346305379e-10 2.2484261698391e-09 1.39840903658289e-08
"661" 12746 3.07371624881283e-08 3.89096288707884e-09 1.59650199144928e-08 4.57305006545739e-09 6.26633793319028e-10 3.6245024088966e-10 2.24767605444978e-09 1.40135640855563e-08
"662" 12747 3.07352971443666e-08 3.88561243850938e-09 1.59650199144928e-08 4.57145841920886e-09 6.25894405625899e-10 3.66543135473941e-10 2.24692593906045e-09 1.40430378052836e-08
"663" 12748 3.07334318006049e-08 3.88026198993993e-09 1.59650199144928e-08 4.56986677296034e-09 6.2515501793277e-10 3.70636030058223e-10 2.24617582367112e-09 1.4072511525011e-08
"664" 12749 3.06002049531769e-08 3.87997165602202e-09 1.58854739987423e-08 4.5646448307291e-09 6.24403974262732e-10 3.73679983584777e-10 2.25459145514336e-09 1.41067913333557e-08
"665" 12750 3.04917759544625e-08 3.88381651400072e-09 1.58998100754276e-08 4.56633186387453e-09 6.23652930592695e-10 3.77497784198798e-10 2.26076203568365e-09 1.41501381356385e-08
"666" 12751 3.03890726557403e-08 3.88986946926712e-09 1.59106085066171e-08 4.57429009511717e-09 6.26627965330573e-10 3.86045941868326e-10 2.26207010428344e-09 1.41796557186474e-08
"667" 12752 3.02863693570181e-08 3.89592242453351e-09 1.59214069378065e-08 4.5822483263598e-09 6.29603000068452e-10 3.94594099537854e-10 2.26337817288322e-09 1.42091733016563e-08
"668" 12753 3.01836660582959e-08 3.90197537979991e-09 1.5932205368996e-08 4.59020655760244e-09 6.3257803480633e-10 4.03142257207382e-10 2.264686241483e-09 1.42386908846652e-08
"669" 12754 3.00809627595737e-08 3.9080283350663e-09 1.59430038001854e-08 4.59816478884507e-09 6.35553069544209e-10 4.1169041487691e-10 2.26599431008278e-09 1.42682084676741e-08
"670" 12755 2.99782594608516e-08 3.9140812903327e-09 1.59538022313749e-08 4.60612302008771e-09 6.38528104282087e-10 4.20238572546438e-10 2.26730237868257e-09 1.42977260506829e-08
