"time" "channel1" "channel2" "channel3" "channel4" "channel5" "channel6" "channel7" "channel8"
"1" 22583 6.31251366073893e-09 1.06557925835956e-08 1.28662205056025e-07 1.06077509479183e-07 1.90532012846293e-08 7.3167918004284e-09 3.1321216696986e-09 2.29490746970305e-09
"2" 22584 6.41279805461066e-09 1.06618040585992e-08 1.28488773728826e-07 1.06125087716384e-07 1.91794412120319e-08 7.31504381479696e-09 3.12786509583615e-09 2.28654590702031e-09
"3" 22585 6.5130824484824e-09 1.06678155336029e-08 1.28315342401627e-07 1.06172665953585e-07 1.93056811394346e-08 7.31329582916553e-09 3.1236085219737e-09 2.27818434433757e-09
"4" 22586 6.61336684235414e-09 1.06738270086065e-08 1.28141911074428e-07 1.06220244190786e-07 1.94319210668373e-08 7.3115478435341e-09 3.11935194811125e-09 2.26982278165484e-09
"5" 22587 6.62424077006749e-09 1.06745707320161e-08 1.28410115375659e-07 1.06226689458817e-07 1.94279926132181e-08 7.31191838379019e-09 3.1150953742488e-09 2.25758843434423e-09
"6" 22588 6.62583567028431e-09 1.07045487942429e-08 1.28425194235106e-07 1.06575774039769e-07 1.94735064112337e-08 7.31409631666585e-09 3.11083880038634e-09 2.25430249366611e-09
"7" 22589 6.62743057050114e-09 1.07345268564696e-08 1.28440273094552e-07 1.06924858620722e-07 1.95190202092494e-08 7.31627424954152e-09 3.10658222652389e-09 2.25101655298799e-09
"8" 22590 6.62902547071796e-09 1.07645049186964e-08 1.28455351953998e-07 1.07273943201675e-07 1.9564534007265e-08 7.31845218241718e-09 3.10232565266144e-09 2.24773061230987e-09
"9" 22591 6.63062037093479e-09 1.07944829809231e-08 1.28470430813444e-07 1.07623027782627e-07 1.96100478052807e-08 7.32063011529285e-09 3.09806907879899e-09 2.24444467163175e-09
"10" 22592 6.63307357041651e-09 1.08236996946754e-08 1.28608866845906e-07 1.07982697667923e-07 1.96573698409532e-08 7.31894153664956e-09 3.09788633947158e-09 2.25260090317216e-09
"11" 22593 6.57837299194101e-09 1.08516651193686e-08 1.2764792486035e-07 1.06586399681712e-07 1.96985221252638e-08 7.28652728347352e-09 3.0913187393505e-09 2.25538809073307e-09
"12" 22594 6.52367241346552e-09 1.08796305440617e-08 1.26686982874794e-07 1.05190101695501e-07 1.97396744095744e-08 7.25411303029748e-09 3.08475113922942e-09 2.25817527829398e-09
"13" 22595 6.46897183499003e-09 1.09075959687549e-08 1.25726040889238e-07 1.03793803709289e-07 1.97808266938849e-08 7.22169877712145e-09 3.07818353910834e-09 2.26096246585489e-09
"14" 22596 6.41427125651453e-09 1.0935561393448e-08 1.24765098903683e-07 1.02397505723078e-07 1.98219789781955e-08 7.18928452394541e-09 3.07161593898726e-09 2.2637496534158e-09
"15" 22597 6.35957067803904e-09 1.09635268181411e-08 1.23804156918127e-07 1.01001207736867e-07 1.98631312625061e-08 7.15687027076937e-09 3.06504833886618e-09 2.26653684097672e-09
"16" 22598 6.30487009956355e-09 1.09914922428343e-08 1.22843214932571e-07 9.96049097506554e-08 1.99042835468167e-08 7.12445601759334e-09 3.05848073874509e-09 2.26932402853763e-09
"17" 22599 6.25016952108805e-09 1.10194576675274e-08 1.21882272947015e-07 9.82086117644441e-08 1.99454358311272e-08 7.0920417644173e-09 3.05191313862401e-09 2.27211121609854e-09
"18" 22600 6.19546894261256e-09 1.10474230922205e-08 1.20921330961459e-07 9.68123137782328e-08 1.99865881154378e-08 7.05962751124127e-09 3.04534553850293e-09 2.27489840365945e-09
"19" 22601 6.13917346392024e-09 1.10541166029071e-08 1.2007118613456e-07 9.5826696495046e-08 2.00193169855052e-08 7.02316382613943e-09 3.05053092913503e-09 2.26864909375533e-09
"20" 22602 6.08447288544475e-09 1.1060862988788e-08 1.18882898598012e-07 9.4275987851465e-08 2.00149554718001e-08 6.9907495729634e-09 3.04427934280375e-09 2.26310386811074e-09
"21" 22603 6.02977230696926e-09 1.10676093746689e-08 1.17694611061464e-07 9.2725279207884e-08 2.00105939580951e-08 6.95833531978736e-09 3.03802775647247e-09 2.25755864246615e-09
"22" 22604 5.97507172849376e-09 1.10743557605497e-08 1.16506323524915e-07 9.11745705643031e-08 2.000623244439e-08 6.92592106661133e-09 3.03177617014119e-09 2.25201341682156e-09
"23" 22605 5.92037115001827e-09 1.10811021464306e-08 1.15318035988367e-07 8.96238619207221e-08 2.00018709306849e-08 6.89350681343529e-09 3.02552458380991e-09 2.24646819117697e-09
"24" 22606 5.86567057154278e-09 1.10878485323115e-08 1.14129748451818e-07 8.80731532771411e-08 1.99975094169799e-08 6.86109256025925e-09 3.01927299747863e-09 2.24092296553238e-09
"25" 22607 5.81096999306728e-09 1.10945949181923e-08 1.1294146091527e-07 8.65224446335602e-08 1.99931479032748e-08 6.82867830708322e-09 3.01302141114735e-09 2.23537773988779e-09
"26" 22608 5.75626941459179e-09 1.11013413040732e-08 1.11753173378722e-07 8.49717359899792e-08 1.99887863895697e-08 6.79626405390718e-09 3.00676982481607e-09 2.2298325142432e-09
"27" 22609 5.7015688361163e-09 1.11080876899541e-08 1.10564885842173e-07 8.34210273463982e-08 1.99844248758647e-08 6.76384980073114e-09 3.00051823848479e-09 2.22428728859861e-09
"28" 22610 5.6468682576408e-09 1.1114834075835e-08 1.09376598305625e-07 8.18703187028173e-08 1.99800633621596e-08 6.73143554755511e-09 2.99426665215351e-09 2.21874206295402e-09
"29" 22611 5.59216767916531e-09 1.11215804617158e-08 1.08188310769076e-07 8.03196100592363e-08 1.99757018484546e-08 6.69902129437907e-09 2.98801506582223e-09 2.21319683730943e-09
"30" 22612 5.53746710068982e-09 1.11283268475967e-08 1.07000023232528e-07 7.87689014156553e-08 1.99713403347495e-08 6.66660704120303e-09 2.98176347949095e-09 2.20765161166484e-09
"31" 22613 5.48276652221433e-09 1.11350732334776e-08 1.05811735695979e-07 7.72181927720744e-08 1.99669788210444e-08 6.634192788027e-09 2.97551189315967e-09 2.20210638602025e-09
"32" 22614 5.42806594373883e-09 1.11418196193585e-08 1.04623448159431e-07 7.56674841284934e-08 1.99626173073394e-08 6.60177853485096e-09 2.9692603068284e-09 2.19656116037566e-09
"33" 22615 5.42195920801939e-09 1.11259300198669e-08 1.04631510785839e-07 7.45194092895711e-08 1.99665457609585e-08 6.60177853485096e-09 2.96531974675575e-09 2.19145638889381e-09
"34" 22616 5.40900913562858e-09 1.11346890432814e-08 1.04542601267308e-07 7.45650351153957e-08 1.99696634831552e-08 6.59422843221988e-09 2.95020875864452e-09 2.17675806787524e-09
"35" 22617 5.39605906323776e-09 1.11434480666959e-08 1.04453691748777e-07 7.46106609412203e-08 1.99727812053518e-08 6.5866783295888e-09 2.93509777053329e-09 2.16205974685667e-09
"36" 22618 5.38310899084695e-09 1.11522070901104e-08 1.04364782230246e-07 7.46562867670449e-08 1.99758989275485e-08 6.57912822695772e-09 2.91998678242206e-09 2.14736142583811e-09
"37" 22619 5.37015891845613e-09 1.11609661135248e-08 1.04275872711715e-07 7.47019125928695e-08 1.99790166497451e-08 6.57157812432664e-09 2.90487579431083e-09 2.13266310481954e-09
"38" 22620 5.35720884606532e-09 1.11697251369393e-08 1.04186963193185e-07 7.47475384186941e-08 1.99821343719418e-08 6.56402802169556e-09 2.8897648061996e-09 2.11796478380097e-09
"39" 22621 5.3442587736745e-09 1.11784841603538e-08 1.04098053674654e-07 7.47931642445188e-08 1.99852520941384e-08 6.55647791906448e-09 2.87465381808837e-09 2.10326646278241e-09
"40" 22622 5.33130870128369e-09 1.11872431837683e-08 1.04009144156123e-07 7.48387900703434e-08 1.9988369816335e-08 6.5489278164334e-09 2.85954282997714e-09 2.08856814176384e-09
"41" 22623 5.31835862889287e-09 1.11960022071828e-08 1.03995249741557e-07 7.46513400218594e-08 2.00128107799346e-08 6.53957032118275e-09 2.84498005984812e-09 2.07296040534341e-09
"42" 22624 5.30499093559349e-09 1.1215996394533e-08 1.04375097480485e-07 7.48712881072483e-08 2.0028148983931e-08 6.53957032118275e-09 2.83327653395995e-09 2.05826208432484e-09
"43" 22625 5.29162324229411e-09 1.12359905818832e-08 1.04754945219412e-07 7.50912361926373e-08 2.00434871879274e-08 6.53957032118275e-09 2.82157300807178e-09 2.04356376330627e-09
"44" 22626 5.27825554899472e-09 1.12559847692334e-08 1.0513479295834e-07 7.53111842780262e-08 2.00588253919238e-08 6.53957032118275e-09 2.80986948218361e-09 2.02886544228771e-09
"45" 22627 5.26488785569534e-09 1.12759789565836e-08 1.05514640697268e-07 7.55311323634152e-08 2.00741635959202e-08 6.53957032118275e-09 2.79816595629543e-09 2.01416712126914e-09
"46" 22628 5.08324862895798e-09 1.06725564044078e-08 1.05771131263181e-07 7.55075246411362e-08 1.99572644699691e-08 6.35411706578198e-09 2.71989195715918e-09 1.96558209535689e-09
"47" 22629 4.90160940222062e-09 1.00691338522321e-08 1.06027621829093e-07 7.54839169188572e-08 1.9840365344018e-08 6.16866381038121e-09 2.64161795802293e-09 1.91699706944464e-09
"48" 22630 4.71997017548325e-09 9.46571130005628e-09 1.06284112395006e-07 7.54603091965782e-08 1.97234662180668e-08 5.98321055498044e-09 2.56334395888668e-09 1.86841204353239e-09
"49" 22631 4.53833094874589e-09 8.8622887478805e-09 1.06540602960918e-07 7.54367014742992e-08 1.96065670921157e-08 5.79775729957967e-09 2.48506995975043e-09 1.81982701762013e-09
"50" 22632 4.35669172200853e-09 8.25886619570473e-09 1.06797093526831e-07 7.54130937520202e-08 1.94896679661646e-08 5.6123040441789e-09 2.40679596061418e-09 1.77124199170788e-09
"51" 22633 4.17505249527117e-09 7.65544364352895e-09 1.07053584092743e-07 7.53894860297412e-08 1.93727688402134e-08 5.42685078877813e-09 2.32852196147793e-09 1.72265696579563e-09
"52" 22634 3.99341326853381e-09 7.05202109135318e-09 1.07310074658656e-07 7.53658783074622e-08 1.92558697142623e-08 5.24139753337736e-09 2.25024796234168e-09 1.67407193988338e-09
"53" 22635 3.81177404179645e-09 6.4485985391774e-09 1.07566565224568e-07 7.53422705851832e-08 1.91389705883112e-08 5.05594427797659e-09 2.17197396320542e-09 1.62548691397113e-09
"54" 22636 3.81009800937099e-09 6.46660652659117e-09 1.07960307378062e-07 7.5744873800352e-08 1.91552447272235e-08 5.05594427797659e-09 2.17365296188445e-09 1.62428407659439e-09
"55" 22637 3.80842197694552e-09 6.48461451400495e-09 1.08354049531556e-07 7.61474770155208e-08 1.91715188661358e-08 5.05594427797659e-09 2.17533196056348e-09 1.62308123921764e-09
"56" 22638 3.80674594452006e-09 6.50262250141872e-09 1.0874779168505e-07 7.65500802306896e-08 1.91877930050481e-08 5.05594427797659e-09 2.1770109592425e-09 1.6218784018409e-09
"57" 22639 3.8050699120946e-09 6.52063048883249e-09 1.09141533838544e-07 7.69526834458584e-08 1.92040671439605e-08 5.05594427797659e-09 2.17868995792153e-09 1.62067556446416e-09
"58" 22640 3.80339387966913e-09 6.53863847624626e-09 1.09535275992038e-07 7.73552866610272e-08 1.92203412828728e-08 5.05594427797659e-09 2.18036895660055e-09 1.61947272708741e-09
"59" 22641 3.80171784724367e-09 6.55664646366004e-09 1.09929018145532e-07 7.7757889876196e-08 1.92366154217851e-08 5.05594427797659e-09 2.18204795527958e-09 1.61826988971067e-09
"60" 22642 3.80004181481821e-09 6.57465445107381e-09 1.10322760299026e-07 7.81604930913648e-08 1.92528895606974e-08 5.05594427797659e-09 2.1837269539586e-09 1.61706705233392e-09
"61" 22643 3.79836578239275e-09 6.59266243848758e-09 1.1071650245252e-07 7.85630963065336e-08 1.92691636996098e-08 5.05594427797659e-09 2.18540595263763e-09 1.61586421495718e-09
"62" 22644 3.79668974996728e-09 6.61067042590135e-09 1.11110244606015e-07 7.89656995217024e-08 1.92854378385221e-08 5.05594427797659e-09 2.18708495131665e-09 1.61466137758044e-09
"63" 22645 3.79501371754182e-09 6.62867841331512e-09 1.11503986759509e-07 7.93683027368712e-08 1.93017119774344e-08 5.05594427797659e-09 2.18876394999568e-09 1.61345854020369e-09
"64" 22646 3.79130210654321e-09 6.62745356185307e-09 1.11432080440177e-07 7.96120835616027e-08 1.93133064417672e-08 5.06380081443321e-09 2.18758370443386e-09 1.61155161856741e-09
"65" 22647 3.78777026861844e-09 6.6411472412453e-09 1.11472513132068e-07 8.01252316314188e-08 1.93190410721869e-08 5.05855685753891e-09 2.18585524088983e-09 1.60973278776368e-09
"66" 22648 3.78423843069368e-09 6.65484092063752e-09 1.11512945823959e-07 8.06383797012349e-08 1.93247757026065e-08 5.05331290064461e-09 2.1841267773458e-09 1.60791395695995e-09
"67" 22649 3.78070659276891e-09 6.66853460002975e-09 1.1155337851585e-07 8.11515277710511e-08 1.93305103330262e-08 5.04806894375031e-09 2.18239831380176e-09 1.60609512615622e-09
"68" 22650 3.77717475484414e-09 6.68222827942197e-09 1.11593811207741e-07 8.16646758408672e-08 1.93362449634459e-08 5.04282498685601e-09 2.18066985025773e-09 1.60427629535248e-09
"69" 22651 3.77531894934484e-09 6.64933701128347e-09 1.10486175014774e-07 8.21724146713812e-08 1.93362449634459e-08 5.03390213829201e-09 2.18012163227552e-09 1.60436438618503e-09
"70" 22652 3.77531894934484e-09 6.6590054156085e-09 1.1060162281063e-07 8.26903961823951e-08 1.93401097848902e-08 5.0318383199502e-09 2.17839316873149e-09 1.60374839275804e-09
"71" 22653 3.77531894934484e-09 6.66867381993352e-09 1.10717070606486e-07 8.32083776934089e-08 1.93439746063344e-08 5.0297745016084e-09 2.17666470518745e-09 1.60313239933105e-09
"72" 22654 3.77531894934484e-09 6.67834222425854e-09 1.10832518402342e-07 8.37263592044228e-08 1.93478394277787e-08 5.0277106832666e-09 2.17493624164342e-09 1.60251640590406e-09
"73" 22655 3.77531894934484e-09 6.68801062858356e-09 1.10947966198198e-07 8.42443407154367e-08 1.93517042492229e-08 5.02564686492479e-09 2.17320777809939e-09 1.60190041247707e-09
"74" 22656 3.77531894934484e-09 6.69767903290858e-09 1.11063413994054e-07 8.47623222264506e-08 1.93555690706672e-08 5.02358304658299e-09 2.17147931455536e-09 1.60128441905008e-09
"75" 22657 3.77531894934484e-09 6.7073474372336e-09 1.11178861789909e-07 8.52803037374644e-08 1.93594338921114e-08 5.02151922824119e-09 2.16975085101132e-09 1.6006684256231e-09
"76" 22658 3.77531894934484e-09 6.71701584155863e-09 1.11294309585765e-07 8.57982852484783e-08 1.93632987135557e-08 5.01945540989939e-09 2.16802238746729e-09 1.60005243219611e-09
"77" 22659 3.77531894934484e-09 6.72668424588365e-09 1.11409757381621e-07 8.63162667594922e-08 1.93671635349999e-08 5.01739159155758e-09 2.16629392392326e-09 1.59943643876912e-09
"78" 22660 3.81021415889276e-09 6.77647143228048e-09 1.12399740019984e-07 8.64022854699126e-08 1.93693473831371e-08 5.01471020612229e-09 2.17967644849046e-09 1.60063927614586e-09
"79" 22661 3.84510936844068e-09 6.82625861867731e-09 1.13389722658347e-07 8.6488304180333e-08 1.93715312312742e-08 5.012028820687e-09 2.19305897305765e-09 1.6018421135226e-09
"80" 22662 3.8800045779886e-09 6.87604580507414e-09 1.14379705296709e-07 8.65743228907534e-08 1.93737150794113e-08 5.00934743525171e-09 2.20644149762485e-09 1.60304495089935e-09
"81" 22663 3.91489978753652e-09 6.92583299147097e-09 1.15369687935072e-07 8.66603416011738e-08 1.93758989275485e-08 5.00666604981642e-09 2.21982402219205e-09 1.60424778827609e-09
"82" 22664 3.94979499708444e-09 6.9756201778678e-09 1.16359670573435e-07 8.67463603115942e-08 1.93780827756856e-08 5.00398466438113e-09 2.23320654675925e-09 1.60545062565284e-09
"83" 22665 3.98469020663237e-09 7.02540736426463e-09 1.17349653211797e-07 8.68323790220146e-08 1.93802666238227e-08 5.00130327894584e-09 2.24658907132644e-09 1.60665346302958e-09
"84" 22666 4.01958541618029e-09 7.07519455066146e-09 1.1833963585016e-07 8.6918397732435e-08 1.93824504719599e-08 4.99862189351055e-09 2.25997159589364e-09 1.60785630040632e-09
"85" 22667 4.05448062572821e-09 7.12498173705829e-09 1.19329618488523e-07 8.70044164428554e-08 1.9384634320097e-08 4.99594050807526e-09 2.27335412046084e-09 1.60905913778307e-09
"86" 22668 4.08937583527613e-09 7.17476892345512e-09 1.20319601126885e-07 8.70904351532758e-08 1.93868181682341e-08 4.99325912263997e-09 2.28673664502804e-09 1.61026197515981e-09
"87" 22669 4.12427104482405e-09 7.22455610985195e-09 1.21309583765248e-07 8.71764538636962e-08 1.93890020163712e-08 4.99057773720468e-09 2.30011916959523e-09 1.61146481253655e-09
"88" 22670 4.15916625437198e-09 7.27434329624878e-09 1.22299566403611e-07 8.72624725741166e-08 1.93911858645084e-08 4.98789635176940e-09 2.31350169416243e-09 1.6126676499133e-09
"89" 22671 4.1940614639199e-09 7.32413048264561e-09 1.23289549041973e-07 8.7348491284537e-08 1.93933697126455e-08 4.9852149663341e-09 2.32688421872963e-09 1.61387048729004e-09
"90" 22672 4.22895667346782e-09 7.37391766904244e-09 1.24279531680336e-07 8.74345099949574e-08 1.93955535607826e-08 4.98253358089882e-09 2.34026674329683e-09 1.61507332466678e-09
"91" 22673 4.25547172088843e-09 7.29814244535653e-09 1.25276429483545e-07 8.72584197792871e-08 1.93904408261172e-08 4.98602955216168e-09 2.35551100587046e-09 1.61507332466678e-09
"92" 22674 4.28683509251158e-09 7.34797369441529e-09 1.26127755461403e-07 8.72985126411315e-08 1.9375045172515e-08 4.98016802817390e-09 2.36236027504896e-09 1.61698024630307e-09
"93" 22675 4.31819846413474e-09 7.39780494347405e-09 1.26979081439261e-07 8.7338605502976e-08 1.93596495189129e-08 4.97430650418611e-09 2.36920954422745e-09 1.61888716793935e-09
"94" 22676 4.34956183575789e-09 7.44763619253282e-09 1.27830407417119e-07 8.73786983648204e-08 1.93442538653108e-08 4.96844498019832e-09 2.37605881340596e-09 1.62079408957563e-09
"95" 22677 4.38092520738104e-09 7.49746744159158e-09 1.28681733394977e-07 8.74187912266649e-08 1.93288582117087e-08 4.96258345621054e-09 2.38290808258445e-09 1.62270101121191e-09
"96" 22678 4.4122885790042e-09 7.54729869065035e-09 1.29533059372835e-07 8.74588840885093e-08 1.93134625581066e-08 4.95672193222275e-09 2.38975735176295e-09 1.62460793284819e-09
"97" 22679 4.44365195062735e-09 7.59712993970911e-09 1.30384385350693e-07 8.74989769503538e-08 1.92980669045045e-08 4.95086040823496e-09 2.39660662094146e-09 1.62651485448447e-09
"98" 22680 4.47501532225051e-09 7.64696118876788e-09 1.31235711328551e-07 8.75390698121983e-08 1.92826712509024e-08 4.94499888424718e-09 2.40345589011995e-09 1.62842177612075e-09
"99" 22681 4.50637869387366e-09 7.69679243782664e-09 1.32087037306409e-07 8.75791626740427e-08 1.92672755973002e-08 4.93913736025939e-09 2.41030515929845e-09 1.63032869775703e-09
"100" 22682 4.50352538213994e-09 7.7065049048136e-09 1.31966470515713e-07 8.75346560398312e-08 1.92500717060412e-08 4.93158725762831e-09 2.408295026697e-09 1.63032869775703e-09
"101" 22683 4.5001327511847e-09 7.70426492205236e-09 1.32120462375158e-07 8.75926978959972e-08 1.92363570257462e-08 4.92354310132244e-09 2.41240320596444e-09 1.65550147663778e-09
"102" 22684 4.49674012022945e-09 7.70202493929112e-09 1.32274454234603e-07 8.76507397521631e-08 1.92226423454512e-08 4.91549894501657e-09 2.41651138523187e-09 1.68067425551854e-09
"103" 22685 4.49334748927421e-09 7.69978495652988e-09 1.32428446094048e-07 8.7708781608329e-08 1.92089276651562e-08 4.9074547887107e-09 2.4206195644993e-09 1.7058470343993e-09
"104" 22686 4.48995485831896e-09 7.69754497376864e-09 1.32582437953492e-07 8.7766823464495e-08 1.91952129848612e-08 4.89941063240483e-09 2.42472774376673e-09 1.73101981328006e-09
"105" 22687 4.48995485831896e-09 7.68552202376136e-09 1.30919800491029e-07 8.71322230048378e-08 1.91362923631431e-08 4.90315363050510e-09 2.4315124279476e-09 1.75223171670039e-09
"106" 22688 4.48995485831896e-09 7.67349907375407e-09 1.29257163028566e-07 8.64976225451805e-08 1.9077371741425e-08 4.90689662860536e-09 2.43829711212847e-09 1.77344362012073e-09
"107" 22689 4.48995485831896e-09 7.66147612374678e-09 1.27594525566103e-07 8.58630220855233e-08 1.90184511197069e-08 4.91063962670562e-09 2.44508179630934e-09 1.79465552354107e-09
"108" 22690 4.48995485831896e-09 7.64945317373949e-09 1.2593188810364e-07 8.52284216258661e-08 1.89595304979887e-08 4.91438262480588e-09 2.45186648049021e-09 1.8158674269614e-09
"109" 22691 4.48995485831896e-09 7.6374302237322e-09 1.24269250641176e-07 8.45938211662089e-08 1.89006098762706e-08 4.91812562290614e-09 2.45865116467108e-09 1.83707933038174e-09
"110" 22692 4.48995485831896e-09 7.62540727372491e-09 1.22606613178713e-07 8.39592207065517e-08 1.88416892545525e-08 4.9218686210064e-09 2.46543584885195e-09 1.85829123380207e-09
"111" 22693 4.48995485831896e-09 7.61338432371762e-09 1.2094397571625e-07 8.33246202468945e-08 1.87827686328344e-08 4.92561161910666e-09 2.47222053303282e-09 1.87950313722241e-09
"112" 22694 4.48995485831896e-09 7.60136137371034e-09 1.19281338253787e-07 8.26900197872373e-08 1.87238480111162e-08 4.92935461720692e-09 2.47900521721369e-09 1.90071504064275e-09
"113" 22695 4.48995485831896e-09 7.58933842370305e-09 1.17618700791324e-07 8.20554193275801e-08 1.86649273893981e-08 4.93309761530718e-09 2.48578990139456e-09 1.92192694406308e-09
"114" 22696 4.48995485831896e-09 7.57731547369576e-09 1.1595606332886e-07 8.14208188679229e-08 1.860600676768e-08 4.93684061340745e-09 2.49257458557543e-09 1.94313884748342e-09
"115" 22697 4.48995485831896e-09 7.56529252368847e-09 1.14293425866397e-07 8.07862184082657e-08 1.85470861459619e-08 4.94058361150771e-09 2.49935926975631e-09 1.96435075090375e-09
"116" 22698 4.48995485831896e-09 7.55326957368118e-09 1.12630788403934e-07 8.01516179486085e-08 1.84881655242437e-08 4.94432660960797e-09 2.50614395393718e-09 1.98556265432409e-09
"117" 22699 4.48995485831896e-09 7.54124662367389e-09 1.10968150941471e-07 7.95170174889513e-08 1.84292449025256e-08 4.94806960770823e-09 2.51292863811805e-09 2.00677455774443e-09
"118" 22700 4.48995485831896e-09 7.5292236736666e-09 1.09305513479008e-07 7.88824170292941e-08 1.83703242808075e-08 4.95181260580849e-09 2.51971332229892e-09 2.02798646116476e-09
"119" 22701 4.48995485831896e-09 7.51720072365932e-09 1.07642876016544e-07 7.82478165696369e-08 1.83114036590894e-08 4.95555560390875e-09 2.52649800647979e-09 2.0491983645851e-09
"120" 22702 4.48941553909744e-09 7.49627953033378e-09 1.0794243970134e-07 7.81756818229125e-08 1.8317138289509e-08 4.9581775823559e-09 2.53713944113592e-09 2.07457647460819e-09
"121" 22703 4.48887621987591e-09 7.47535833700825e-09 1.08242003386136e-07 7.81035470761881e-08 1.83228729199287e-08 4.96079956080305e-09 2.54778087579204e-09 2.09995458463127e-09
"122" 22704 4.48833690065439e-09 7.45443714368272e-09 1.08541567070932e-07 7.80314123294636e-08 1.83286075503484e-08 4.9634215392502e-09 2.55842231044817e-09 2.12533269465436e-09
"123" 22705 4.49336499793078e-09 7.42978852077671e-09 1.08618705357112e-07 7.90227651614015e-08 1.8341078439135e-08 4.96230051959709e-09 2.55724206488636e-09 2.12533269465436e-09
"124" 22706 4.49364341186982e-09 7.40514871040310e-09 1.08837887213505e-07 7.90774272346291e-08 1.83775531097224e-08 4.97383124828099e-09 2.55724206488636e-09 2.12624211005623e-09
"125" 22707 4.49392182580887e-09 7.38050890002948e-09 1.09057069069898e-07 7.91320893078567e-08 1.84140277803098e-08 4.98536197696489e-09 2.55724206488636e-09 2.12715152545809e-09
"126" 22708 4.49420023974791e-09 7.35586908965586e-09 1.0927625092629e-07 7.91867513810843e-08 1.84505024508972e-08 4.99689270564879e-09 2.55724206488636e-09 2.12806094085996e-09
"127" 22709 4.49447865368696e-09 7.33122927928224e-09 1.09495432782683e-07 7.92414134543118e-08 1.84869771214846e-08 5.00842343433269e-09 2.55724206488636e-09 2.12897035626183e-09
"128" 22710 4.44771201019128e-09 7.25948814319592e-09 1.09632684370265e-07 7.84048565046794e-08 1.85233265885786e-08 4.87891644593846e-09 2.54385954031916e-09 2.11007667916327e-09
"129" 22711 4.40579923968932e-09 7.16963326930718e-09 1.08675032792013e-07 7.86327440781507e-08 1.85392251170108e-08 4.86601297132164e-09 2.52941082005278e-09 2.09467363148433e-09
"130" 22712 4.36388646918737e-09 7.07977839541844e-09 1.07717381213761e-07 7.88606316516221e-08 1.85551236454429e-08 4.85310949670481e-09 2.5149620997864e-09 2.07927058380538e-09
"131" 22713 4.32197369868542e-09 6.9899235215297e-09 1.0675972963551e-07 7.90885192250935e-08 1.8571022173875e-08 4.84020602208799e-09 2.50051337952002e-09 2.06386753612643e-09
"132" 22714 4.28006092818346e-09 6.90006864764096e-09 1.05802078057258e-07 7.93164067985648e-08 1.85869207023071e-08 4.82730254747116e-09 2.48606465925364e-09 2.04846448844748e-09
"133" 22715 4.23814815768151e-09 6.81021377375223e-09 1.04844426479006e-07 7.95442943720362e-08 1.86028192307392e-08 4.81439907285434e-09 2.47161593898726e-09 2.03306144076854e-09
"134" 22716 4.19623538717955e-09 6.72035889986349e-09 1.03886774900755e-07 7.97721819455075e-08 1.86187177591714e-08 4.80149559823752e-09 2.45716721872088e-09 2.01765839308959e-09
"135" 22717 4.1543226166776e-09 6.63050402597475e-09 1.02929123322503e-07 8.00000695189789e-08 1.86346162876035e-08 4.78859212362069e-09 2.4427184984545e-09 2.00225534541064e-09
"136" 22718 4.11715952951299e-09 6.55258397676943e-09 1.0175448374279e-07 8.0004904999476e-08 1.86159099544236e-08 4.76322452051611e-09 2.42735608155109e-09 1.98594288232983e-09
"137" 22719 4.07999644234838e-09 6.51129143781547e-09 1.00595388086243e-07 8.01631597490063e-08 1.8601694460155e-08 4.73766929756228e-09 2.41199366464769e-09 1.96983575039134e-09
"138" 22720 4.04283335518377e-09 6.46999889886151e-09 9.94362924296963e-08 8.03214144985366e-08 1.85874789658864e-08 4.71211407460844e-09 2.39663124774429e-09 1.95372861845286e-09
"139" 22721 4.00567026801916e-09 6.42870635990756e-09 9.82771967731495e-08 8.04796692480668e-08 1.85732634716178e-08 4.6865588516546e-09 2.38126883084089e-09 1.93762148651437e-09
"140" 22722 3.96850718085455e-09 6.3874138209536e-09 9.71181011166027e-08 8.06379239975971e-08 1.85590479773492e-08 4.66100362870077e-09 2.36590641393748e-09 1.92151435457589e-09
"141" 22723 3.93134409368993e-09 6.34612128199964e-09 9.59590054600559e-08 8.07961787471274e-08 1.85448324830806e-08 4.63544840574693e-09 2.35054399703408e-09 1.90540722263741e-09
"142" 22724 3.89418100652532e-09 6.30482874304568e-09 9.4799909803509e-08 8.09544334966577e-08 1.8530616988812e-08 4.6098931827931e-09 2.33518158013068e-09 1.88930009069892e-09
"143" 22725 3.85701791936071e-09 6.26353620409172e-09 9.36408141469622e-08 8.1112688246188e-08 1.85164014945434e-08 4.58433795983926e-09 2.31981916322727e-09 1.87319295876044e-09
"144" 22726 3.8198548321961e-09 6.22224366513776e-09 9.24817184904154e-08 8.12709429957182e-08 1.85021860002748e-08 4.55878273688542e-09 2.30445674632387e-09 1.85708582682195e-09
"145" 22727 3.78269174503149e-09 6.1809511261838e-09 9.13226228338686e-08 8.14291977452485e-08 1.84879705060062e-08 4.53322751393159e-09 2.28909432942047e-09 1.84097869488347e-09
"146" 22728 3.74552865786688e-09 6.13965858722985e-09 9.01635271773218e-08 8.15874524947788e-08 1.84737550117376e-08 4.50767229097775e-09 2.27373191251707e-09 1.82487156294499e-09
"147" 22729 3.70836557070227e-09 6.09836604827589e-09 8.9004431520775e-08 8.17457072443091e-08 1.8459539517469e-08 4.48211706802392e-09 2.25836949561366e-09 1.8087644310065e-09
"148" 22730 3.67120248353766e-09 6.05707350932193e-09 8.78453358642282e-08 8.19039619938394e-08 1.84453240232004e-08 4.45656184507008e-09 2.24300707871026e-09 1.79265729906802e-09
"149" 22731 3.63403939637304e-09 6.01578097036797e-09 8.66862402076814e-08 8.20622167433697e-08 1.84311085289318e-08 4.43100662211625e-09 2.22764466180686e-09 1.77655016712953e-09
"150" 22732 3.63403939637304e-09 6.06062468825467e-09 8.65332022833104e-08 8.21548631377914e-08 1.84221966658534e-08 4.42894750321686e-09 2.22859270317626e-09 1.77464324549325e-09
"151" 22733 3.63974601984048e-09 6.10048968750168e-09 8.64738017752274e-08 8.18881478268658e-08 1.83468192521239e-08 4.42782648356375e-09 2.22859270317626e-09 1.77464324549325e-09
"152" 22734 3.64545264330792e-09 6.14035468674869e-09 8.64144012671443e-08 8.16214325159401e-08 1.82714418383943e-08 4.42670546391064e-09 2.22859270317626e-09 1.77464324549325e-09
"153" 22735 3.65115926677536e-09 6.1802196859957e-09 8.63550007590613e-08 8.13547172050144e-08 1.81960644246648e-08 4.42558444425753e-09 2.22859270317626e-09 1.77464324549325e-09
"154" 22736 3.65686589024279e-09 6.22008468524271e-09 8.62956002509783e-08 8.10880018940887e-08 1.81206870109352e-08 4.42446342460441e-09 2.22859270317626e-09 1.77464324549325e-09
"155" 22737 3.66257251371023e-09 6.25994968448972e-09 8.62361997428953e-08 8.08212865831631e-08 1.80453095972056e-08 4.4233424049513e-09 2.22859270317626e-09 1.77464324549325e-09
"156" 22738 3.66827913717767e-09 6.29981468373673e-09 8.61767992348123e-08 8.05545712722374e-08 1.79699321834761e-08 4.42222138529819e-09 2.22859270317626e-09 1.77464324549325e-09
"157" 22739 3.67398576064511e-09 6.33967968298375e-09 8.61173987267292e-08 8.02878559613117e-08 1.78945547697465e-08 4.42110036564508e-09 2.22859270317626e-09 1.77464324549325e-09
"158" 22740 3.67969238411254e-09 6.37954468223076e-09 8.60579982186462e-08 8.00211406503861e-08 1.7819177356017e-08 4.41997934599197e-09 2.22859270317626e-09 1.77464324549325e-09
"159" 22741 3.68064932424264e-09 6.37084734654299e-09 8.59841186724261e-08 7.95932936387076e-08 1.77437999422874e-08 4.41997934599197e-09 2.2317184963419e-09 1.7747313363258e-09
"160" 22742 3.68064932424264e-09 6.36815267332648e-09 8.59293232083279e-08 7.93395073863357e-08 1.76639316896466e-08 4.42091744523824e-09 2.23145194741711e-09 1.78643713864112e-09
"161" 22743 3.68064932424264e-09 6.36545800010997e-09 8.58745277442298e-08 7.90857211339639e-08 1.75840634370058e-08 4.42185554448452e-09 2.23118539849231e-09 1.79814294095645e-09
"162" 22744 3.68064932424264e-09 6.36276332689346e-09 8.58197322801316e-08 7.8831934881592e-08 1.7504195184365e-08 4.42279364373079e-09 2.23091884956752e-09 1.80984874327177e-09
"163" 22745 3.68064932424264e-09 6.36006865367694e-09 8.57649368160334e-08 7.85781486292201e-08 1.74243269317242e-08 4.42373174297707e-09 2.23065230064272e-09 1.8215545455871e-09
"164" 22746 3.67656065843978e-09 6.3660713161482e-09 8.57885433656075e-08 7.87516335904223e-08 1.74146022763668e-08 4.42579086187645e-09 2.23151653241474e-09 1.83238008197779e-09
"165" 22747 3.67247199263692e-09 6.37207397861946e-09 8.58121499151816e-08 7.89251185516246e-08 1.74048776210095e-08 4.42784998077584e-09 2.23238076418675e-09 1.84320561836848e-09
"166" 22748 3.66838332683406e-09 6.37807664109072e-09 8.58357564647557e-08 7.90986035128268e-08 1.73951529656521e-08 4.42990909967522e-09 2.23324499595877e-09 1.85403115475918e-09
"167" 22749 3.6642946610312e-09 6.38407930356197e-09 8.58593630143298e-08 7.9272088474029e-08 1.73854283102948e-08 4.43196821857461e-09 2.23410922773079e-09 1.86485669114987e-09
"168" 22750 3.66020599522834e-09 6.39008196603323e-09 8.58829695639039e-08 7.94455734352312e-08 1.73757036549375e-08 4.43402733747399e-09 2.2349734595028e-09 1.87568222754056e-09
"169" 22751 3.65611732942548e-09 6.39608462850449e-09 8.5906576113478e-08 7.96190583964334e-08 1.73659789995801e-08 4.43608645637338e-09 2.23583769127482e-09 1.88650776393126e-09
"170" 22752 3.65202866362262e-09 6.40208729097575e-09 8.59301826630521e-08 7.97925433576357e-08 1.73562543442228e-08 4.43814557527276e-09 2.23670192304684e-09 1.89733330032195e-09
"171" 22753 3.64793999781976e-09 6.408089953447e-09 8.59537892126262e-08 7.99660283188379e-08 1.73465296888655e-08 4.44020469417215e-09 2.23756615481885e-09 1.90815883671264e-09
"172" 22754 3.6438513320169e-09 6.34220166678136e-09 8.56032853310807e-08 7.9712242066466e-08 1.73461540783853e-08 4.41140992567768e-09 2.23729960589406e-09 1.91977654819542e-09
"173" 22755 3.63976266621404e-09 6.27631338011572e-09 8.52527814495353e-08 7.94584558140942e-08 1.73457784679051e-08 4.3826151571832e-09 2.23703305696926e-09 1.9313942596782e-09
"174" 22756 3.63567400041118e-09 6.21042509345008e-09 8.49022775679899e-08 7.92046695617223e-08 1.73454028574249e-08 4.35382038868873e-09 2.23676650804446e-09 1.94301197116097e-09
"175" 22757 3.63158533460832e-09 6.14453680678443e-09 8.45517736864445e-08 7.89508833093504e-08 1.73450272469446e-08 4.32502562019426e-09 2.23649995911967e-09 1.95462968264375e-09
"176" 22758 3.62749666880546e-09 6.07864852011879e-09 8.4201269804899e-08 7.86970970569785e-08 1.73446516364644e-08 4.29623085169979e-09 2.23623341019487e-09 1.96624739412653e-09
"177" 22759 3.62340800300260e-09 6.01276023345315e-09 8.38507659233536e-08 7.84433108046067e-08 1.73442760259842e-08 4.26743608320531e-09 2.23596686127008e-09 1.9778651056093e-09
"178" 22760 3.61931933719973e-09 5.94687194678751e-09 8.35002620418082e-08 7.81895245522348e-08 1.7343900415504e-08 4.23864131471084e-09 2.23570031234528e-09 1.98948281709208e-09
"179" 22761 3.61523067139687e-09 5.88098366012186e-09 8.31497581602628e-08 7.79357382998629e-08 1.73435248050238e-08 4.20984654621637e-09 2.23543376342049e-09 2.00110052857486e-09
"180" 22762 3.61114200559401e-09 5.81509537345622e-09 8.27992542787174e-08 7.76819520474911e-08 1.73431491945436e-08 4.1810517777219e-09 2.23516721449569e-09 2.01271824005764e-09
"181" 22763 3.61114200559401e-09 5.75520093672945e-09 8.27259712598852e-08 7.81097444464749e-08 1.73449574322005e-08 4.19994028974521e-09 2.23829300766133e-09 2.01271824005764e-09
"182" 22764 3.61626874373561e-09 5.73199569798074e-09 8.25043934121772e-08 7.77039946226286e-08 1.73436479476608e-08 4.1733234541264e-09 2.23829300766133e-09 2.01887945912921e-09
"183" 22765 3.6213954818772e-09 5.70879045923204e-09 8.22828155644693e-08 7.72982447987822e-08 1.73423384631211e-08 4.14670661850759e-09 2.23829300766133e-09 2.02504067820079e-09
"184" 22766 3.62652222001879e-09 5.68558522048333e-09 8.20612377167613e-08 7.68924949749358e-08 1.73410289785814e-08 4.12008978288878e-09 2.23829300766133e-09 2.03120189727237e-09
"185" 22767 3.63164895816039e-09 5.66237998173463e-09 8.18396598690533e-08 7.64867451510895e-08 1.73397194940417e-08 4.09347294726998e-09 2.23829300766133e-09 2.03736311634395e-09
"186" 22768 3.63677569630198e-09 5.63917474298592e-09 8.16180820213454e-08 7.60809953272431e-08 1.7338410009502e-08 4.06685611165117e-09 2.23829300766133e-09 2.04352433541553e-09
"187" 22769 3.64028447677899e-09 5.67916311768635e-09 8.17165015385005e-08 7.60512627526786e-08 1.73386604164888e-08 4.06903404452683e-09 2.23697948763711e-09 2.04977364531966e-09
"188" 22770 3.64379325725601e-09 5.71915149238678e-09 8.18149210556556e-08 7.60215301781141e-08 1.73389108234756e-08 4.0712119774025e-09 2.2356659676129e-09 2.05602295522378e-09
"189" 22771 3.64730203773303e-09 5.7591398670872e-09 8.19133405728108e-08 7.59917976035496e-08 1.73391612304624e-08 4.07338991027816e-09 2.23435244758868e-09 2.06227226512791e-09
"190" 22772 3.65081081821004e-09 5.79912824178763e-09 8.20117600899659e-08 7.5962065028985e-08 1.73394116374492e-08 4.07556784315383e-09 2.23303892756447e-09 2.06852157503204e-09
"191" 22773 3.65431959868706e-09 5.83911661648806e-09 8.21101796071211e-08 7.59323324544205e-08 1.7339662044436e-08 4.07774577602949e-09 2.23172540754025e-09 2.07477088493616e-09
"192" 22774 3.65782837916407e-09 5.87910499118848e-09 8.22085991242762e-08 7.5902599879856e-08 1.73399124514228e-08 4.07992370890516e-09 2.23041188751603e-09 2.08102019484029e-09
"193" 22775 3.66133715964109e-09 5.91909336588891e-09 8.23070186414314e-08 7.58728673052915e-08 1.73401628584096e-08 4.08210164178082e-09 2.22909836749182e-09 2.08726950474442e-09
"194" 22776 3.66484594011811e-09 5.95908174058934e-09 8.24054381585865e-08 7.58431347307269e-08 1.73404132653964e-08 4.08427957465649e-09 2.2277848474676e-09 2.09351881464854e-09
"195" 22777 3.66484594011811e-09 5.95037559236918e-09 8.24640954778754e-08 7.5896852095309e-08 1.73481429082849e-08 4.08240807560636e-09 2.22552328607398e-09 2.09422289890808e-09
"196" 22778 3.65981784284172e-09 5.94243079262342e-09 8.24134399940421e-08 7.60464374686781e-08 1.73481429082849e-08 4.08122294952269e-09 2.22898021316204e-09 2.1059287012234e-09
"197" 22779 3.65478974556533e-09 5.93448599287765e-09 8.23627845102089e-08 7.61960228420473e-08 1.73481429082849e-08 4.08003782343902e-09 2.23243714025011e-09 2.11763450353873e-09
"198" 22780 3.64976164828894e-09 5.92654119313189e-09 8.23121290263756e-08 7.63456082154165e-08 1.73481429082849e-08 4.07885269735535e-09 2.23589406733817e-09 2.12934030585405e-09
"199" 22781 3.64473355101255e-09 5.91859639338612e-09 8.22614735425424e-08 7.64951935887857e-08 1.73481429082849e-08 4.07766757127168e-09 2.23935099442623e-09 2.14104610816938e-09
"200" 22782 3.63970545373616e-09 5.91065159364036e-09 8.22108180587091e-08 7.66447789621549e-08 1.73481429082849e-08 4.07648244518802e-09 2.2428079215143e-09 2.1527519104847e-09
"201" 22783 3.63467735645977e-09 5.9027067938946e-09 8.21601625748759e-08 7.67943643355241e-08 1.73481429082849e-08 4.07529731910435e-09 2.24626484860236e-09 2.16445771280003e-09
"202" 22784 3.62964925918339e-09 5.89476199414883e-09 8.21095070910426e-08 7.69439497088933e-08 1.73481429082849e-08 4.07411219302068e-09 2.24972177569043e-09 2.17616351511535e-09
"203" 22785 3.624621161907e-09 5.88681719440307e-09 8.20588516072094e-08 7.70935350822625e-08 1.73481429082849e-08 4.07292706693701e-09 2.25317870277849e-09 2.18786931743068e-09
"204" 22786 3.61959306463061e-09 5.8788723946573e-09 8.20081961233761e-08 7.72431204556317e-08 1.73481429082849e-08 4.07174194085334e-09 2.25663562986656e-09 2.199575119746e-09
"205" 22787 3.61456496735422e-09 5.87092759491154e-09 8.19575406395429e-08 7.73927058290009e-08 1.73481429082849e-08 4.07055681476967e-09 2.26009255695462e-09 2.21128092206133e-09
"206" 22788 3.60953687007783e-09 5.86298279516577e-09 8.19068851557096e-08 7.75422912023701e-08 1.73481429082849e-08 4.069371688686e-09 2.26354948404269e-09 2.22298672437665e-09
"207" 22789 3.60450877280144e-09 5.85503799542001e-09 8.18562296718764e-08 7.76918765757392e-08 1.73481429082849e-08 4.06818656260233e-09 2.26700641113075e-09 2.23469252669198e-09
"208" 22790 3.59948067552505e-09 5.84709319567424e-09 8.18055741880431e-08 7.78414619491084e-08 1.73481429082849e-08 4.06700143651867e-09 2.27046333821882e-09 2.2463983290073e-09
"209" 22791 3.57609735377721e-09 5.80601215749757e-09 8.18089155045363e-08 7.80150219159985e-08 1.7307684395329e-08 4.04355534056752e-09 2.26461157527473e-09 2.2463983290073e-09
"210" 22792 3.57492007446896e-09 5.80677350597196e-09 8.17861043248128e-08 7.80128261338645e-08 1.72776935152653e-08 4.03788613587141e-09 2.26678932707096e-09 2.24959617885287e-09
"211" 22793 3.5737427951607e-09 5.80753485444635e-09 8.17632931450894e-08 7.80106303517304e-08 1.72477026352016e-08 4.03221693117529e-09 2.2689670788672e-09 2.25279402869844e-09
"212" 22794 3.57256551585244e-09 5.80829620292074e-09 8.17404819653659e-08 7.80084345695964e-08 1.72177117551379e-08 4.02654772647918e-09 2.27114483066343e-09 2.25599187854402e-09
"213" 22795 3.57138823654419e-09 5.80905755139513e-09 8.17176707856425e-08 7.80062387874624e-08 1.71877208750741e-08 4.02087852178306e-09 2.27332258245966e-09 2.25918972838959e-09
"214" 22796 3.57021095723593e-09 5.80981889986952e-09 8.1694859605919e-08 7.80040430053284e-08 1.71577299950104e-08 4.01520931708695e-09 2.27550033425589e-09 2.26238757823516e-09
"215" 22797 3.56903367792768e-09 5.81058024834391e-09 8.16720484261956e-08 7.80018472231944e-08 1.71277391149467e-08 4.00954011239084e-09 2.27767808605213e-09 2.26558542808073e-09
"216" 22798 3.56785639861942e-09 5.8113415968183e-09 8.16492372464721e-08 7.79996514410603e-08 1.7097748234883e-08 4.00387090769472e-09 2.27985583784836e-09 2.2687832779263e-09
"217" 22799 3.56667911931116e-09 5.81210294529269e-09 8.16264260667487e-08 7.79974556589263e-08 1.70677573548193e-08 3.99820170299861e-09 2.28203358964459e-09 2.27198112777187e-09
"218" 22800 3.56835515173663e-09 5.82086196870717e-09 8.16002735705321e-08 7.78397705896024e-08 1.70565302575411e-08 3.99371762438616e-09 2.27849285295914e-09 2.26417725956166e-09
"219" 22801 3.57003118416209e-09 5.82956811692733e-09 8.15747360933626e-08 7.76695396473612e-08 1.70342690203659e-08 3.98923354577372e-09 2.27563360871829e-09 2.25575739792445e-09
"220" 22802 3.57170721658755e-09 5.83827426514748e-09 8.15491986161932e-08 7.749930870512e-08 1.70120077831907e-08 3.98474946716127e-09 2.27277436447745e-09 2.24733753628725e-09
"221" 22803 3.57338324901302e-09 5.84698041336764e-09 8.15236611390238e-08 7.73290777628788e-08 1.69897465460155e-08 3.98026538854883e-09 2.2699151202366e-09 2.23891767465004e-09
"222" 22804 3.57505928143848e-09 5.85568656158779e-09 8.14981236618543e-08 7.71588468206375e-08 1.69674853088403e-08 3.97578130993638e-09 2.26705587599576e-09 2.23049781301284e-09
"223" 22805 3.5779125931722e-09 5.86066528022747e-09 8.14943324793793e-08 7.70866796693175e-08 1.69050816587273e-08 3.96605327442964e-09 2.26792010776778e-09 2.23079123498771e-09
"224" 22806 3.58076590490592e-09 5.86564399886716e-09 8.14905412969043e-08 7.70145125179975e-08 1.68426780086143e-08 3.95632523892289e-09 2.26878433953979e-09 2.23108465696259e-09
"225" 22807 3.58361921663964e-09 5.87062271750684e-09 8.14867501144293e-08 7.69423453666775e-08 1.67802743585013e-08 3.94659720341615e-09 2.26964857131181e-09 2.23137807893747e-09
"226" 22808 3.58647252837335e-09 5.87560143614652e-09 8.14829589319543e-08 7.68701782153575e-08 1.67178707083884e-08 3.9368691679094e-09 2.27051280308382e-09 2.23167150091235e-09
"227" 22809 3.58932584010707e-09 5.88058015478621e-09 8.14791677494793e-08 7.67980110640374e-08 1.66554670582754e-08 3.92714113240266e-09 2.27137703485584e-09 2.23196492288722e-09
"228" 22810 3.59217915184079e-09 5.88555887342589e-09 8.14753765670043e-08 7.67258439127174e-08 1.65930634081624e-08 3.91741309689591e-09 2.27224126662786e-09 2.2322583448621e-09
"229" 22811 3.59503246357451e-09 5.89053759206557e-09 8.14715853845293e-08 7.66536767613974e-08 1.65306597580494e-08 3.90768506138917e-09 2.27310549839987e-09 2.23255176683698e-09
"230" 22812 3.59788577530823e-09 5.89551631070526e-09 8.14677942020544e-08 7.65815096100774e-08 1.64682561079365e-08 3.89795702588242e-09 2.27396973017189e-09 2.23284518881185e-09
"231" 22813 3.59571098976556e-09 5.90049502934494e-09 8.14684092211015e-08 7.66132777589036e-08 1.64757353438382e-08 3.88356199135639e-09 2.2748339619439e-09 2.2329332796444e-09
"232" 22814 3.59353620422289e-09 5.90547374798462e-09 8.14690242401487e-08 7.66450459077299e-08 1.64832145797399e-08 3.86916695683037e-09 2.27569819371592e-09 2.23302137047695e-09
"233" 22815 3.59136141868022e-09 5.9104524666243e-09 8.14696392591959e-08 7.66768140565561e-08 1.64906938156416e-08 3.85477192230434e-09 2.27656242548794e-09 2.2331094613095e-09
"234" 22816 3.58918663313755e-09 5.91543118526399e-09 8.14702542782431e-08 7.67085822053824e-08 1.64981730515433e-08 3.84037688777831e-09 2.27742665725995e-09 2.23319755214204e-09
"235" 22817 3.58701184759488e-09 5.92040990390367e-09 8.14708692972903e-08 7.67403503542087e-08 1.6505652287445e-08 3.82598185325228e-09 2.27829088903197e-09 2.23328564297459e-09
"236" 22818 3.58483706205221e-09 5.92538862254335e-09 8.14714843163375e-08 7.67721185030349e-08 1.65131315233467e-08 3.81158681872626e-09 2.27915512080399e-09 2.23337373380714e-09
"237" 22819 3.58266227650954e-09 5.93036734118304e-09 8.14720993353846e-08 7.68038866518612e-08 1.65206107592484e-08 3.79719178420023e-09 2.280019352576e-09 2.23346182463969e-09
"238" 22820 3.58048749096687e-09 5.93534605982272e-09 8.14727143544318e-08 7.68356548006874e-08 1.65280899951501e-08 3.7827967496742e-09 2.28088358434802e-09 2.23354991547224e-09
"239" 22821 3.5783127054242e-09 5.9403247784624e-09 8.1473329373479e-08 7.68674229495137e-08 1.65355692310518e-08 3.76840171514818e-09 2.28174781612003e-09 2.23363800630478e-09
"240" 22822 3.57274528892629e-09 5.93860998641553e-09 8.1478781968371e-08 7.68689577313589e-08 1.6534446521324e-08 3.75213518157202e-09 2.29112519561695e-09 2.24534380862011e-09
"241" 22823 3.57112733126171e-09 5.95063293642282e-09 8.1585845441584e-08 7.69057863777457e-08 1.65497847253204e-08 3.74502912451242e-09 2.29112519561695e-09 2.25438030608515e-09
"242" 22824 3.56950937359713e-09 5.96265588643011e-09 8.16929089147971e-08 7.69426150241325e-08 1.65651229293168e-08 3.73792306745283e-09 2.29112519561695e-09 2.26341680355019e-09
"243" 22825 3.56789141593255e-09 5.9746788364374e-09 8.17999723880101e-08 7.69794436705194e-08 1.65804611333132e-08 3.73081701039323e-09 2.29112519561695e-09 2.27245330101522e-09
"244" 22826 3.56627345826798e-09 5.98670178644469e-09 8.19070358612231e-08 7.70162723169062e-08 1.65957993373097e-08 3.72371095333364e-09 2.29112519561695e-09 2.28148979848026e-09
"245" 22827 3.56627345826798e-09 6.000465966096e-09 8.14332626991696e-08 7.70213328144668e-08 1.6612073476222e-08 3.72371095333364e-09 2.2868686217545e-09 2.28427698604118e-09
"246" 22828 3.56968359787979e-09 6.00427270846796e-09 8.12302972820215e-08 7.7059773287686e-08 1.66274116802184e-08 3.72931605159919e-09 2.28030102163342e-09 2.29331348350621e-09
"247" 22829 3.5730937374916e-09 6.00807945083991e-09 8.10273318648733e-08 7.70982137609052e-08 1.66427498842148e-08 3.73492114986475e-09 2.27373342151234e-09 2.30234998097125e-09
"248" 22830 3.57650387710341e-09 6.01188619321187e-09 8.08243664477252e-08 7.71366542341244e-08 1.66580880882112e-08 3.74052624813031e-09 2.26716582139126e-09 2.31138647843629e-09
"249" 22831 3.57991401671522e-09 6.01569293558382e-09 8.0621401030577e-08 7.71750947073436e-08 1.66734262922076e-08 3.74613134639586e-09 2.26059822127017e-09 2.32042297590133e-09
"250" 22832 3.58332415632703e-09 6.01949967795577e-09 8.04184356134288e-08 7.72135351805628e-08 1.66887644962041e-08 3.75173644466142e-09 2.25403062114909e-09 2.32945947336637e-09
"251" 22833 3.58673429593885e-09 6.02330642032773e-09 8.02154701962807e-08 7.72519756537819e-08 1.67041027002005e-08 3.75734154292698e-09 2.24746302102801e-09 2.33849597083141e-09
"252" 22834 3.59014443555066e-09 6.02711316269968e-09 8.00125047791325e-08 7.72904161270011e-08 1.67194409041969e-08 3.76294664119253e-09 2.24089542090693e-09 2.34753246829645e-09
"253" 22835 3.59355457516247e-09 6.03091990507163e-09 7.98095393619844e-08 7.73288566002203e-08 1.67347791081933e-08 3.76855173945809e-09 2.23432782078585e-09 2.35656896576149e-09
"254" 22836 3.59287604897142e-09 6.02098890538943e-09 7.96775957299422e-08 7.79379415666135e-08 1.67378968303899e-08 3.76904579313288e-09 2.22807623445457e-09 2.35727305002102e-09
"255" 22837 3.59219752278037e-09 6.01105790570722e-09 7.95456520979001e-08 7.85470265330067e-08 1.67410145525866e-08 3.76953984680767e-09 2.22182464812329e-09 2.35797713428056e-09
"256" 22838 3.59151899658932e-09 6.00112690602502e-09 7.9413708465858e-08 7.91561114993998e-08 1.67441322747832e-08 3.77003390048246e-09 2.21557306179201e-09 2.3586812185401e-09
"257" 22839 3.59084047039827e-09 5.99119590634281e-09 7.92817648338159e-08 7.9765196465793e-08 1.67472499969799e-08 3.77052795415725e-09 2.20932147546073e-09 2.35938530279963e-09
"258" 22840 3.59016194420722e-09 5.98126490666061e-09 7.91498212017738e-08 8.03742814321862e-08 1.67503677191765e-08 3.77102200783204e-09 2.20306988912945e-09 2.36008938705917e-09
"259" 22841 3.58948341801618e-09 5.9713339069784e-09 7.90178775697317e-08 8.09833663985793e-08 1.67534854413732e-08 3.77151606150683e-09 2.19681830279817e-09 2.36079347131871e-09
"260" 22842 3.58880489182513e-09 5.96140290729619e-09 7.88859339376896e-08 8.15924513649725e-08 1.67566031635698e-08 3.77201011518161e-09 2.19056671646689e-09 2.36149755557824e-09
"261" 22843 3.58812636563408e-09 5.95147190761399e-09 7.87539903056475e-08 8.22015363313657e-08 1.67597208857665e-08 3.7725041688564e-09 2.18431513013561e-09 2.36220163983778e-09
"262" 22844 3.58744783944303e-09 5.94028961887257e-09 7.85136520941061e-08 8.34736142019026e-08 1.67793610930058e-08 3.76876117075614e-09 2.17887831071134e-09 2.36228973067033e-09
"263" 22845 3.58676931325198e-09 5.92910733013116e-09 7.82733138825647e-08 8.47456920724395e-08 1.67990013002452e-08 3.76501817265588e-09 2.17344149128707e-09 2.36237782150287e-09
"264" 22846 3.58609078706093e-09 5.91792504138974e-09 7.80329756710233e-08 8.60177699429764e-08 1.68186415074846e-08 3.76127517455562e-09 2.1680046718628e-09 2.36246591233542e-09
"265" 22847 3.58541226086988e-09 5.90674275264832e-09 7.77926374594819e-08 8.72898478135133e-08 1.6838281714724e-08 3.75753217645536e-09 2.16256785243853e-09 2.36255400316797e-09
"266" 22848 3.58473373467883e-09 5.89556046390691e-09 7.75522992479405e-08 8.85619256840502e-08 1.68579219219633e-08 3.7537891783551e-09 2.15713103301426e-09 2.36264209400052e-09
"267" 22849 3.58405520848778e-09 5.89557808897168e-09 7.75561360236298e-08 8.97479848441667e-08 1.68775621292027e-08 3.75291518553938e-09 2.15739758193906e-09 2.36273018483306e-09
"268" 22850 3.58337668229674e-09 5.89432679991247e-09 7.75916300714842e-08 9.08832928717069e-08 1.63735239285131e-08 3.69006289388647e-09 2.14310136073484e-09 2.36091135402933e-09
"269" 22851 3.58269815610569e-09 5.89307551085326e-09 7.76271241193386e-08 9.2018600899247e-08 1.58694857278236e-08 3.62721060223355e-09 2.12880513953062e-09 2.3590925232256e-09
"270" 22852 3.58201962991464e-09 5.89182422179405e-09 7.76626181671929e-08 9.31539089267871e-08 1.5365447527134e-08 3.56435831058064e-09 2.1145089183264e-09 2.35727369242187e-09
"271" 22853 3.58134110372359e-09 5.89057293273484e-09 7.76981122150473e-08 9.42892169543272e-08 1.48614093264445e-08 3.50150601892772e-09 2.10021269712218e-09 2.35545486161813e-09
"272" 22854 3.58066257753254e-09 5.88932164367562e-09 7.77336062629017e-08 9.54245249818673e-08 1.43573711257549e-08 3.43865372727481e-09 2.08591647591796e-09 2.3536360308144e-09
"273" 22855 3.57998405134149e-09 5.88807035461641e-09 7.77691003107561e-08 9.65598330094074e-08 1.38533329250653e-08 3.37580143562189e-09 2.07162025471374e-09 2.35181720001067e-09
"274" 22856 3.57930552515044e-09 5.8868190655572e-09 7.78045943586105e-08 9.76951410369475e-08 1.33492947243758e-08 3.31294914396898e-09 2.05732403350951e-09 2.34999836920694e-09
"275" 22857 3.57862699895939e-09 5.88556777649799e-09 7.78400884064648e-08 9.88304490644876e-08 1.28452565236862e-08 3.25009685231606e-09 2.04302781230529e-09 2.3481795384032e-09
"276" 22858 3.5820371385712e-09 5.88956661396804e-09 7.81608170563051e-08 9.91215262331693e-08 1.23215781157573e-08 3.18724456066315e-09 2.03617854312679e-09 2.34715288269155e-09
"277" 22859 3.58489045030492e-09 5.9293963630855e-09 7.86151540445256e-08 9.89949990706724e-08 1.18005166160514e-08 3.12645138790962e-09 2.02075154122576e-09 2.34885447318551e-09
"278" 22860 3.58774376203864e-09 5.96922611220296e-09 7.90694910327461e-08 9.88684719081754e-08 1.12794551163455e-08 3.06565821515609e-09 2.00532453932473e-09 2.35055606367946e-09
"279" 22861 3.59059707377236e-09 6.00905586132043e-09 7.95238280209666e-08 9.87419447456785e-08 1.07583936166396e-08 3.00486504240256e-09 1.9898975374237e-09 2.35225765417341e-09
"280" 22862 3.59345038550608e-09 6.04888561043789e-09 7.9978165009187e-08 9.86154175831816e-08 1.02373321169337e-08 2.94407186964903e-09 1.97447053552266e-09 2.35395924466736e-09
"281" 22863 3.5963036972398e-09 6.08871535955536e-09 8.04325019974075e-08 9.84888904206846e-08 9.71627061722781e-09 2.8832786968955e-09 1.95904353362163e-09 2.35566083516131e-09
"282" 22864 3.59915700897352e-09 6.12854510867282e-09 8.0886838985628e-08 9.83623632581877e-08 9.19520911752191e-09 2.82248552414197e-09 1.9436165317206e-09 2.35736242565526e-09
"283" 22865 3.60201032070724e-09 6.16837485779028e-09 8.13411759738485e-08 9.82358360956908e-08 8.67414761781602e-09 2.76169235138844e-09 1.92818952981957e-09 2.35906401614921e-09
"284" 22866 3.60486363244095e-09 6.20820460690775e-09 8.1795512962069e-08 9.81093089331939e-08 8.15308611811012e-09 2.70089917863491e-09 1.91276252791854e-09 2.36076560664316e-09
"285" 22867 3.60771694417467e-09 6.24803435602521e-09 8.22498499502894e-08 9.79827817706969e-08 7.63202461840422e-09 2.64010600588138e-09 1.8973355260175e-09 2.36246719713711e-09
"286" 22868 3.61057025590839e-09 6.28786410514268e-09 8.27041869385099e-08 9.78562546082e-08 7.11096311869833e-09 2.57931283312785e-09 1.88190852411647e-09 2.36416878763106e-09
"287" 22869 3.61342356764211e-09 6.32769385426014e-09 8.31585239267304e-08 9.77297274457031e-08 6.58990161899243e-09 2.51851966037432e-09 1.86648152221544e-09 2.36587037812501e-09
"288" 22870 3.61627687937583e-09 6.3675236033776e-09 8.36128609149509e-08 9.76032002832061e-08 6.06884011928653e-09 2.45772648762079e-09 1.85105452031441e-09 2.36757196861896e-09
"289" 22871 3.60728181460954e-09 6.3846292417988e-09 8.39726521450239e-08 9.7334913707241e-08 5.93921969756202e-09 2.45043751015436e-09 1.8499237396176e-09 2.37030021482456e-09
"290" 22872 3.60510702906687e-09 6.42448542851342e-09 8.4275912531945e-08 9.66818065846583e-08 5.94295931551287e-09 2.45006696989827e-09 1.84566716575514e-09 2.37382063612224e-09
"291" 22873 3.6029322435242e-09 6.46434161522805e-09 8.4579172918866e-08 9.60286994620756e-08 5.94669893346373e-09 2.44969642964217e-09 1.84141059189269e-09 2.37734105741993e-09
"292" 22874 3.60075745798153e-09 6.50419780194267e-09 8.4882433305787e-08 9.53755923394929e-08 5.95043855141458e-09 2.44932588938608e-09 1.83715401803024e-09 2.38086147871761e-09
"293" 22875 3.59858267243886e-09 6.54405398865730e-09 8.51856936927081e-08 9.47224852169101e-08 5.95417816936543e-09 2.44895534912999e-09 1.83289744416779e-09 2.38438190001529e-09
"294" 22876 3.59640788689619e-09 6.58391017537192e-09 8.54889540796291e-08 9.40693780943274e-08 5.95791778731628e-09 2.4485848088739e-09 1.82864087030534e-09 2.38790232131298e-09
"295" 22877 3.59423310135352e-09 6.62376636208654e-09 8.57922144665502e-08 9.34162709717447e-08 5.96165740526714e-09 2.44821426861781e-09 1.82438429644289e-09 2.39142274261066e-09
"296" 22878 3.59205831581085e-09 6.66362254880117e-09 8.60954748534712e-08 9.2763163849162e-08 5.96539702321799e-09 2.44784372836171e-09 1.82012772258044e-09 2.39494316390834e-09
"297" 22879 3.58988353026818e-09 6.70347873551579e-09 8.63987352403923e-08 9.21100567265793e-08 5.96913664116884e-09 2.44747318810562e-09 1.81587114871798e-09 2.39846358520603e-09
"298" 22880 3.58770874472551e-09 6.74333492223042e-09 8.67019956273133e-08 9.14569496039966e-08 5.97287625911969e-09 2.44710264784953e-09 1.81161457485553e-09 2.40198400650371e-09
"299" 22881 3.61123127344287e-09 6.78991986976114e-09 8.66634416819611e-08 9.11811248550858e-08 5.9737485618607e-09 2.44673210759344e-09 1.80848878168989e-09 2.40550442780139e-09
"300" 22882 3.63628507882499e-09 6.94365920531431e-09 8.65523848898893e-08 9.11811248550858e-08 5.99931223518806e-09 2.46505776006898e-09 1.80509643959946e-09 2.40937721242927e-09
"301" 22883 3.66133888420711e-09 7.09739854086748e-09 8.64413280978175e-08 9.11811248550858e-08 6.02487590851542e-09 2.48338341254452e-09 1.80170409750902e-09 2.41324999705714e-09
"302" 22884 3.68639268958924e-09 7.25113787642064e-09 8.63302713057457e-08 9.11811248550858e-08 6.05043958184278e-09 2.50170906502007e-09 1.79831175541859e-09 2.41712278168502e-09
"303" 22885 3.71733289151263e-09 7.40313598232978e-09 8.63021911758549e-08 9.17688203136266e-08 6.07488054544232e-09 2.50981262831408e-09 1.7991759871906e-09 2.41917673550916e-09
"304" 22886 3.74623751486289e-09 7.55509883810936e-09 8.63730662995548e-08 9.22581093574026e-08 6.0877865551712e-09 2.53038032009584e-09 1.79985747963521e-09 2.41952909883935e-09
"305" 22887 3.77514213821314e-09 7.70706169388895e-09 8.64439414232546e-08 9.27473984011786e-08 6.10069256490008e-09 2.55094801187761e-09 1.80053897207983e-09 2.41988146216954e-09
"306" 22888 3.80404676156339e-09 7.85902454966854e-09 8.65148165469545e-08 9.32366874449546e-08 6.11359857462896e-09 2.57151570365938e-09 1.80122046452444e-09 2.42023382549973e-09
"307" 22889 3.83295138491365e-09 8.01098740544813e-09 8.65856916706544e-08 9.37259764887306e-08 6.12650458435784e-09 2.59208339544114e-09 1.80190195696905e-09 2.42058618882992e-09
"308" 22890 3.8618560082639e-09 8.16295026122771e-09 8.66565667943543e-08 9.42152655325066e-08 6.13941059408672e-09 2.61265108722291e-09 1.80258344941366e-09 2.42093855216011e-09
"309" 22891 3.89076063161415e-09 8.3149131170073e-09 8.67274419180542e-08 9.47045545762826e-08 6.1523166038156e-09 2.63321877900467e-09 1.80326494185827e-09 2.4212909154903e-09
"310" 22892 3.91966525496441e-09 8.46687597278689e-09 8.67983170417541e-08 9.51938436200586e-08 6.16522261354448e-09 2.65378647078644e-09 1.80394643430288e-09 2.42164327882049e-09
"311" 22893 3.94856987831466e-09 8.61883882856648e-09 8.6869192165454e-08 9.56831326638346e-08 6.17812862327336e-09 2.6743541625682e-09 1.8046279267475e-09 2.42199564215068e-09
"312" 22894 3.95509423494267e-09 8.61581987226608e-09 8.70575187073744e-08 9.55361181010386e-08 6.1665936694027e-09 2.67528756237206e-09 1.80688948814112e-09 2.42055832415437e-09
"313" 22895 3.96161859157068e-09 8.61280091596567e-09 8.72458452492949e-08 9.53891035382426e-08 6.15505871553204e-09 2.67622096217592e-09 1.80915104953474e-09 2.41912100615807e-09
"314" 22896 3.96814294819869e-09 8.60978195966527e-09 8.74341717912154e-08 9.52420889754466e-08 6.14352376166138e-09 2.67715436197977e-09 1.81141261092837e-09 2.41768368816176e-09
"315" 22897 3.9746673048267e-09 8.60676300336487e-09 8.76224983331359e-08 9.50950744126506e-08 6.13198880779072e-09 2.67808776178363e-09 1.81367417232199e-09 2.41624637016545e-09
"316" 22898 3.98119166145471e-09 8.60374404706447e-09 8.78108248750563e-08 9.49480598498546e-08 6.12045385392006e-09 2.67902116158749e-09 1.81593573371561e-09 2.41480905216914e-09
"317" 22899 3.98771601808272e-09 8.60072509076406e-09 8.79991514169768e-08 9.48010452870586e-08 6.1089189000494e-09 2.67995456139134e-09 1.81819729510924e-09 2.41337173417283e-09
"318" 22900 3.99424037471073e-09 8.59770613446366e-09 8.81874779588973e-08 9.46540307242626e-08 6.09738394617873e-09 2.6808879611952e-09 1.82045885650286e-09 2.41193441617653e-09
"319" 22901 4.00076473133874e-09 8.59468717816326e-09 8.83758045008177e-08 9.45070161614666e-08 6.08584899230807e-09 2.68182136099906e-09 1.82272041789648e-09 2.41049709818022e-09
"320" 22902 4.00728908796675e-09 8.59166822186286e-09 8.85641310427382e-08 9.43600015986706e-08 6.07431403843741e-09 2.68275476080291e-09 1.82498197929011e-09 2.40905978018391e-09
"321" 22903 4.00639022259754e-09 8.59166822186286e-09 8.91052900787248e-08 9.43620432908303e-08 6.0734376139836e-09 2.69803318702949e-09 1.82566347173472e-09 2.41126012379507e-09
"322" 22904 4.00549135722833e-09 8.59166822186286e-09 8.96464491147113e-08 9.436408498299e-08 6.07256118952979e-09 2.71331161325607e-09 1.82634496417933e-09 2.41346046740623e-09
"323" 22905 4.00459249185912e-09 8.59166822186286e-09 9.01876081506979e-08 9.43661266751497e-08 6.07168476507598e-09 2.72859003948265e-09 1.82702645662394e-09 2.41566081101738e-09
"324" 22906 4.00369362648991e-09 8.59166822186286e-09 9.07287671866845e-08 9.43681683673094e-08 6.07080834062217e-09 2.74386846570923e-09 1.82770794906855e-09 2.41786115462854e-09
"325" 22907 4.0027947611207e-09 8.59166822186286e-09 9.1269926222671e-08 9.43702100594691e-08 6.06993191616835e-09 2.75914689193581e-09 1.82838944151316e-09 2.4200614982397e-09
"326" 22908 3.9921992473464e-09 8.59166822186286e-09 8.98950845065743e-08 9.37803514475835e-08 6.05084997250829e-09 2.77086993991138e-09 1.82907093395778e-09 2.42396343234481e-09
"327" 22909 3.96770226984237e-09 8.58342557663036e-09 9.04351786575319e-08 9.39564538990498e-08 6.0370675383256e-09 2.74968468103613e-09 1.79902759259558e-09 2.40938170923518e-09
"328" 22910 3.94320529233834e-09 8.57518293139787e-09 9.09752728084895e-08 9.41325563505161e-08 6.0232851041429e-09 2.72849942216088e-09 1.76898425123339e-09 2.39479998612555e-09
"329" 22911 3.91870831483431e-09 8.56694028616537e-09 9.1515366959447e-08 9.43086588019824e-08 6.00950266996021e-09 2.70731416328562e-09 1.73894090987119e-09 2.38021826301592e-09
"330" 22912 3.89421133733028e-09 8.55869764093288e-09 9.20554611104046e-08 9.44847612534487e-08 5.99572023577752e-09 2.68612890441037e-09 1.708897568509e-09 2.36563653990629e-09
"331" 22913 3.86971435982626e-09 8.55045499570038e-09 9.25955552613621e-08 9.4660863704915e-08 5.98193780159483e-09 2.66494364553512e-09 1.67885422714681e-09 2.35105481679666e-09
"332" 22914 3.84521738232223e-09 8.54221235046789e-09 9.31356494123197e-08 9.48369661563813e-08 5.96815536741213e-09 2.64375838665987e-09 1.64881088578461e-09 2.33647309368703e-09
"333" 22915 3.8207204048182e-09 8.53396970523539e-09 9.36757435632772e-08 9.50130686078476e-08 5.95437293322944e-09 2.62257312778461e-09 1.61876754442242e-09 2.32189137057741e-09
"334" 22916 3.79622342731417e-09 8.52572706000289e-09 9.42158377142348e-08 9.51891710593139e-08 5.94059049904675e-09 2.60138786890936e-09 1.58872420306022e-09 2.30730964746778e-09
"335" 22917 3.77647613314749e-09 8.51372173506038e-09 9.45041203099016e-08 9.52285745948725e-08 5.92680806486406e-09 2.56679568285766e-09 1.55781662992601e-09 2.28691906861676e-09
"336" 22918 3.7567288389808e-09 8.50171641011786e-09 9.47924029055683e-08 9.52679781304312e-08 5.91302563068137e-09 2.53220349680596e-09 1.5269090567918e-09 2.26652848976574e-09
"337" 22919 3.73195344753773e-09 8.51435970808135e-09 9.47991681150873e-08 9.5285625062702e-08 5.88989415162154e-09 2.49555219185487e-09 1.49972495967045e-09 2.29542702108651e-09
"338" 22920 3.70717805609465e-09 8.52700300604484e-09 9.48059333246064e-08 9.53032719949728e-08 5.86676267256172e-09 2.45890088690379e-09 1.4725408625491e-09 2.32432555240728e-09
"339" 22921 3.68240266465158e-09 8.53964630400833e-09 9.48126985341254e-08 9.53209189272437e-08 5.8436311935019e-09 2.4222495819527e-09 1.44535676542775e-09 2.35322408372805e-09
"340" 22922 3.6576272732085e-09 8.55228960197183e-09 9.48194637436444e-08 9.53385658595145e-08 5.82049971444207e-09 2.38559827700161e-09 1.4181726683064e-09 2.38212261504882e-09
"341" 22923 3.63285188176543e-09 8.56493289993532e-09 9.48262289531635e-08 9.53562127917853e-08 5.79736823538225e-09 2.34894697205052e-09 1.39098857118505e-09 2.41102114636959e-09
"342" 22924 3.60807649032236e-09 8.5775761978988e-09 9.48329941626825e-08 9.53738597240561e-08 5.77423675632243e-09 2.31229566709944e-09 1.3638044740637e-09 2.43991967769037e-09
"343" 22925 3.58330109887928e-09 8.59021949586230e-09 9.48397593722015e-08 9.53915066563269e-08 5.7511052772626e-09 2.27564436214835e-09 1.33662037694235e-09 2.46881820901114e-09
"344" 22926 3.55852570743621e-09 8.60286279382579e-09 9.48465245817206e-08 9.54091535885977e-08 5.72797379820278e-09 2.23899305719726e-09 1.309436279821e-09 2.49771674033191e-09
"345" 22927 3.53375031599313e-09 8.61550609178928e-09 9.48532897912396e-08 9.54268005208686e-08 5.70484231914295e-09 2.20234175224618e-09 1.28225218269965e-09 2.52661527165268e-09
"346" 22928 3.50897492455006e-09 8.62814938975277e-09 9.48600550007587e-08 9.54444474531394e-08 5.68171084008313e-09 2.16569044729509e-09 1.2550680855783e-09 2.55551380297345e-09
"347" 22929 3.48419953310699e-09 8.64079268771626e-09 9.48668202102777e-08 9.54620943854102e-08 5.65857936102331e-09 2.129039142344e-09 1.22788398845695e-09 2.58441233429422e-09
"348" 22930 3.48134622137327e-09 8.65947389828055e-09 9.46788695677022e-08 9.5108662880581e-08 5.65240960966132e-09 2.10939545148126e-09 1.22956298713598e-09 2.62519349199625e-09
"349" 22931 3.47849290963955e-09 8.67815510884485e-09 9.44909189251268e-08 9.47552313757519e-08 5.64623985829933e-09 2.08975176061851e-09 1.231241985815e-09 2.66597464969829e-09
"350" 22932 3.47563959790583e-09 8.69683631940914e-09 9.43029682825513e-08 9.44017998709227e-08 5.64007010693735e-09 2.07010806975577e-09 1.23292098449403e-09 2.70675580740032e-09
"351" 22933 3.47278628617211e-09 8.71551752997344e-09 9.41150176399759e-08 9.40483683660936e-08 5.63390035557536e-09 2.05046437889302e-09 1.23459998317305e-09 2.74753696510236e-09
"352" 22934 3.46993297443839e-09 8.73419874053773e-09 9.39270669974004e-08 9.36949368612644e-08 5.62773060421337e-09 2.03082068803028e-09 1.23627898185208e-09 2.78831812280439e-09
"353" 22935 3.46707966270467e-09 8.75287995110202e-09 9.37391163548249e-08 9.33415053564353e-08 5.62156085285139e-09 2.01117699716754e-09 1.2379579805311e-09 2.82909928050643e-09
"354" 22936 3.46422635097095e-09 8.77156116166632e-09 9.35511657122495e-08 9.29880738516061e-08 5.6153911014894e-09 1.99153330630479e-09 1.23963697921013e-09 2.86988043820846e-09
"355" 22937 3.46137303923724e-09 8.79024237223061e-09 9.3363215069674e-08 9.2634642346777e-08 5.60922135012741e-09 1.97188961544205e-09 1.24131597788916e-09 2.9106615959105e-09
"356" 22938 3.45851972750352e-09 8.80892358279491e-09 9.31752644270986e-08 9.22812108419478e-08 5.60305159876543e-09 1.9522459245793e-09 1.24299497656818e-09 2.95144275361253e-09
"357" 22939 3.4556664157698e-09 8.8276047933592e-09 9.29873137845231e-08 9.19277793371187e-08 5.59688184740344e-09 1.93260223371656e-09 1.24467397524721e-09 2.99222391131457e-09
"358" 22940 3.45195480477119e-09 8.82163738101749e-09 9.27962543573144e-08 9.15581201143832e-08 5.59201951972477e-09 1.91407956250692e-09 1.24281223724078e-09 2.98996526874894e-09
"359" 22941 3.44937990697652e-09 8.81768260620938e-09 9.26374302379997e-08 9.1388456813049e-08 5.60418049106244e-09 1.89686553079966e-09 1.25014513940386e-09 2.98154540711173e-09
"360" 22942 3.44680500918184e-09 8.81372783140128e-09 9.24786061186849e-08 9.12187935117149e-08 5.61634146240011e-09 1.87965149909239e-09 1.25747804156695e-09 2.97312554547453e-09
"361" 22943 3.44423011138717e-09 8.80977305659317e-09 9.23197819993701e-08 9.10491302103807e-08 5.62850243373778e-09 1.86243746738512e-09 1.26481094373003e-09 2.96470568383732e-09
"362" 22944 3.43878439320221e-09 8.80302667071229e-09 9.23163211230258e-08 9.1250506823653e-08 5.53797565168011e-09 1.81512472712343e-09 1.23117740081737e-09 2.95575727720483e-09
"363" 22945 3.43992110640615e-09 8.79309567103009e-09 9.18457578137975e-08 9.12623146512943e-08 5.55630637437977e-09 1.81755438627891e-09 1.23851030298046e-09 2.95367417390345e-09
"364" 22946 3.44105781961009e-09 8.78316467134788e-09 9.13751945045691e-08 9.12741224789356e-08 5.57463709707943e-09 1.81998404543439e-09 1.24584320514354e-09 2.95159107060208e-09
"365" 22947 3.44219453281403e-09 8.77323367166568e-09 9.09046311953407e-08 9.1285930306577e-08 5.59296781977908e-09 1.82241370458986e-09 1.25317610730663e-09 2.9495079673007e-09
"366" 22948 3.44333124601796e-09 8.76330267198347e-09 9.04340678861124e-08 9.12977381342184e-08 5.61129854247874e-09 1.82484336374534e-09 1.26050900946971e-09 2.94742486399933e-09
"367" 22949 3.4444679592219e-09 8.75337167230126e-09 8.9963504576884e-08 9.13095459618597e-08 5.62962926517840e-09 1.82727302290082e-09 1.26784191163280e-09 2.94534176069795e-09
"368" 22950 3.44560467242584e-09 8.74344067261906e-09 8.94929412676557e-08 9.13213537895011e-08 5.64795998787805e-09 1.8297026820563e-09 1.27517481379588e-09 2.94325865739658e-09
"369" 22951 3.44674138562977e-09 8.73350967293685e-09 8.90223779584273e-08 9.13331616171424e-08 5.66629071057771e-09 1.83213234121177e-09 1.28250771595896e-09 2.9411755540952e-09
"370" 22952 3.44787809883371e-09 8.72357867325465e-09 8.8551814649199e-08 9.13449694447838e-08 5.68462143327736e-09 1.83456200036725e-09 1.28984061812205e-09 2.93909245079383e-09
"371" 22953 3.44901481203765e-09 8.7273854156266e-09 8.82326212640824e-08 9.12593298414012e-08 5.70775291233719e-09 1.84391009673307e-09 1.28811215457802e-09 2.94862705897523e-09
"372" 22954 3.45015152524159e-09 8.73119215799856e-09 8.79134278789658e-08 9.11736902380186e-08 5.73088439139701e-09 1.85325819309889e-09 1.28638369103398e-09 2.95816166715663e-09
"373" 22955 3.45128823844552e-09 8.73499890037051e-09 8.75942344938492e-08 9.1088050634636e-08 5.75401587045683e-09 1.86260628946471e-09 1.28465522748995e-09 2.96769627533803e-09
"374" 22956 3.45242495164946e-09 8.73880564274246e-09 8.72750411087326e-08 9.10024110312534e-08 5.77714734951666e-09 1.87195438583052e-09 1.28292676394592e-09 2.97723088351943e-09
"375" 22957 3.4535616648534e-09 8.74261238511442e-09 8.6955847723616e-08 9.09167714278709e-08 5.80027882857648e-09 1.88130248219634e-09 1.28119830040189e-09 2.98676549170083e-09
"376" 22958 3.45469837805733e-09 8.74641912748637e-09 8.66366543384994e-08 9.08311318244883e-08 5.8234103076363e-09 1.89065057856216e-09 1.27946983685785e-09 2.99630009988224e-09
"377" 22959 3.45583509126127e-09 8.75022586985832e-09 8.63174609533828e-08 9.07454922211057e-08 5.84654178669613e-09 1.89999867492798e-09 1.27774137331382e-09 3.00583470806364e-09
"378" 22960 3.45697180446521e-09 8.75403261223028e-09 8.59982675682663e-08 9.06598526177231e-08 5.86967326575595e-09 1.90934677129379e-09 1.27601290976979e-09 3.01536931624504e-09
"379" 22961 3.46285820100649e-09 8.75776885434314e-09 8.55380314130931e-08 9.0471857136431e-08 5.87098068943927e-09 1.91140589019318e-09 1.27396843243595e-09 3.01390220637065e-09
"380" 22962 3.46874459754777e-09 8.76150509645599e-09 8.50777952579199e-08 9.02838616551389e-08 5.87228811312259e-09 1.91346500909256e-09 1.27192395510212e-09 3.01243509649627e-09
"381" 22963 3.47463099408905e-09 8.76524133856885e-09 8.46175591027467e-08 9.00958661738468e-08 5.87359553680591e-09 1.91552412799195e-09 1.26987947776829e-09 3.01096798662188e-09
"382" 22964 3.48051739063033e-09 8.76897758068171e-09 8.41573229475736e-08 8.99078706925547e-08 5.87490296048923e-09 1.91758324689134e-09 1.26783500043445e-09 3.00950087674749e-09
"383" 22965 3.4864037871716e-09 8.77271382279457e-09 8.36970867924004e-08 8.97198752112626e-08 5.87621038417255e-09 1.91964236579072e-09 1.26579052310062e-09 3.00803376687311e-09
"384" 22966 3.49229018371288e-09 8.77645006490743e-09 8.32368506372272e-08 8.95318797299705e-08 5.87751780785586e-09 1.92170148469011e-09 1.26374604576678e-09 3.00656665699872e-09
"385" 22967 3.49817658025416e-09 8.78018630702029e-09 8.2776614482054e-08 8.93438842486784e-08 5.87882523153918e-09 1.92376060358949e-09 1.26170156843295e-09 3.00509954712433e-09
"386" 22968 3.50406297679544e-09 8.78392254913315e-09 8.23163783268809e-08 8.91558887673863e-08 5.8801326552225e-09 1.92581972248888e-09 1.25965709109911e-09 3.00363243724995e-09
"387" 22969 3.50994937333672e-09 8.78765879124601e-09 8.18561421717077e-08 8.89678932860942e-08 5.88144007890582e-09 1.92787884138826e-09 1.25761261376528e-09 3.00216532737556e-09
"388" 22970 3.515835769878e-09 8.79139503335887e-09 8.13959060165345e-08 8.87798978048021e-08 5.88274750258914e-09 1.92993796028765e-09 1.25556813643144e-09 3.00069821750117e-09
"389" 22971 3.52172216641928e-09 8.79513127547172e-09 8.09356698613613e-08 8.859190232351e-08 5.88405492627246e-09 1.93199707918703e-09 1.25352365909761e-09 2.99923110762679e-09
"390" 22972 3.52760856296056e-09 8.79886751758458e-09 8.04754337061882e-08 8.84039068422179e-08 5.88536234995578e-09 1.93405619808642e-09 1.25147918176377e-09 2.9977639977524e-09
"391" 22973 3.50408603424319e-09 8.81256119697681e-09 8.04720619942188e-08 8.83114875041589e-08 5.88891519309473e-09 1.91647162612306e-09 1.24943470442994e-09 2.99265922627055e-09
"392" 22974 3.40882973764785e-09 8.82222960130183e-09 8.04757890918203e-08 8.82270806205709e-08 5.76217445171845e-09 1.91821961175449e-09 1.24943470442994e-09 2.98940243506966e-09
"393" 22975 3.3135734410525e-09 8.83189800562685e-09 8.04795161894218e-08 8.81426737369829e-08 5.63543371034218e-09 1.91996759738593e-09 1.24943470442994e-09 2.98614564386878e-09
"394" 22976 3.21328904718076e-09 8.82789916815681e-09 8.08668115357106e-08 8.80571152571861e-08 5.50582565375606e-09 1.91965646411797e-09 1.25187900515097e-09 2.98579328053859e-09
"395" 22977 3.11300465330902e-09 8.82390033068677e-09 8.12541068819993e-08 8.79715567773893e-08 5.37621759716994e-09 1.91934533085002e-09 1.25432330587199e-09 2.9854409172084e-09
"396" 22978 3.01204173324624e-09 8.82659500390328e-09 8.18371895532538e-08 9.00692090566771e-08 5.3085760088981e-09 1.94335428634893e-09 1.25676760659302e-09 2.9836512358819e-09
"397" 22979 2.91107881318345e-09 8.82928967711979e-09 8.24202722245083e-08 9.21668613359649e-08 5.24093442062625e-09 1.96736324184784e-09 1.25921190731405e-09 2.9818615545554e-09
"398" 22980 2.81011589312066e-09 8.8319843503363e-09 8.30033548957628e-08 9.42645136152526e-08 5.1732928323544e-09 1.99137219734675e-09 1.26165620803508e-09 2.9800718732289e-09
"399" 22981 2.70915297305788e-09 8.83467902355281e-09 8.35864375670172e-08 9.63621658945404e-08 5.10565124408256e-09 2.01538115284566e-09 1.26410050875611e-09 2.97828219190241e-09
"400" 22982 2.60819005299509e-09 8.83737369676932e-09 8.41695202382717e-08 9.84598181738282e-08 5.03800965581071e-09 2.03939010834457e-09 1.26654480947713e-09 2.97649251057591e-09
"401" 22983 2.5072271329323e-09 8.84006836998583e-09 8.47526029095262e-08 1.00557470453116e-07 4.97036806753886e-09 2.06339906384348e-09 1.26898911019816e-09 2.97470282924941e-09
"402" 22984 2.40626421286952e-09 8.84276304320234e-09 8.53356855807806e-08 1.02655122732404e-07 4.90272647926701e-09 2.08740801934239e-09 1.27143341091919e-09 2.97291314792291e-09
"403" 22985 2.30530129280673e-09 8.84545771641885e-09 8.59187682520351e-08 1.04752775011692e-07 4.83508489099517e-09 2.1114169748413e-09 1.27387771164022e-09 2.97112346659641e-09
"404" 22986 2.20433837274395e-09 8.84815238963537e-09 8.65018509232896e-08 1.06850427290979e-07 4.76744330272332e-09 2.13542593034021e-09 1.27632201236125e-09 2.96933378526991e-09
"405" 22987 2.10337545268116e-09 8.85084706285188e-09 8.70849335945441e-08 1.08948079570267e-07 4.69980171445147e-09 2.15943488583912e-09 1.27876631308228e-09 2.96754410394342e-09
"406" 22988 2.09182299877676e-09 8.85880948766241e-09 8.72263806373682e-08 1.11086864818726e-07 4.76232850720145e-09 2.18132531545051e-09 1.2812106138033e-09 2.96962720724479e-09
"407" 22989 2.08954957236889e-09 8.83753757365583e-09 8.76209531219776e-08 1.12883010754262e-07 4.77541304831663e-09 2.20140835244232e-09 1.28365491452433e-09 2.96276190391368e-09
"408" 22990 2.08727614596101e-09 8.81626565964925e-09 8.80155256065871e-08 1.14679156689799e-07 4.78849758943182e-09 2.22149138943413e-09 1.28609921524536e-09 2.95589660058256e-09
"409" 22991 2.08500271955314e-09 8.79499374564266e-09 8.84100980911965e-08 1.16475302625335e-07 4.801582130547e-09 2.24157442642594e-09 1.28854351596639e-09 2.94903129725144e-09
"410" 22992 2.08272929314526e-09 8.77372183163608e-09 8.88046705758059e-08 1.18271448560871e-07 4.81466667166219e-09 2.26165746341776e-09 1.29098781668742e-09 2.94216599392033e-09
"411" 22993 2.08045586673739e-09 8.75244991762949e-09 8.91992430604154e-08 1.20067594496408e-07 4.82775121277737e-09 2.28174050040957e-09 1.29343211740844e-09 2.93530069058921e-09
"412" 22994 2.07818244032952e-09 8.73117800362291e-09 8.95938155450248e-08 1.21863740431944e-07 4.84083575389255e-09 2.30182353740138e-09 1.29587641812947e-09 2.9284353872581e-09
"413" 22995 2.07590901392164e-09 8.70990608961632e-09 8.99883880296342e-08 1.2365988636748e-07 4.85392029500774e-09 2.32190657439319e-09 1.2983207188505e-09 2.92157008392698e-09
"414" 22996 2.07363558751377e-09 8.68863417560974e-09 9.03829605142437e-08 1.25456032303017e-07 4.86700483612292e-09 2.341989611385e-09 1.30076501957153e-09 2.91470478059587e-09
"415" 22997 2.07136216110589e-09 8.66736226160315e-09 9.07775329988531e-08 1.27252178238553e-07 4.88008937723811e-09 2.36207264837682e-09 1.30320932029256e-09 2.90783947726475e-09
"416" 22998 2.06908873469802e-09 8.64609034759657e-09 9.11721054834625e-08 1.29048324174089e-07 4.89317391835329e-09 2.38215568536863e-09 1.30565362101358e-09 2.90097417393363e-09
"417" 22999 2.06749383448119e-09 8.62805592258564e-09 9.09411035075841e-08 1.28694179095576e-07 4.85520092755786e-09 2.37810625344283e-09 1.30583636034099e-09 2.89281794239323e-09
"418" 23000 2.06617734820341e-09 8.60006406029534e-09 9.07887730605563e-08 1.28359600956115e-07 4.83101037094512e-09 2.3832172980336e-09 1.30828066106202e-09 2.88568836656447e-09
"419" 23001 2.06486086192564e-09 8.57207219800504e-09 9.06364426135286e-08 1.28025022816653e-07 4.80681981433238e-09 2.38832834262437e-09 1.31072496178305e-09 2.87855879073571e-09
"420" 23002 2.06513927586468e-09 8.56535224972132e-09 9.0373315007844e-08 1.27279763974167e-07 4.79105267196286e-09 2.39748881914093e-09 1.30141627175090e-09 2.88046571237199e-09
"421" 23003 2.0638227895869e-09 8.55857942624329e-09 9.04483301118088e-08 1.27099596492075e-07 4.81237591336576e-09 2.4025998637317e-09 1.30354455868212e-09 2.88166854974873e-09
"422" 23004 2.06250630330912e-09 8.55180660276526e-09 9.05233452157737e-08 1.26919429009984e-07 4.83369915476866e-09 2.40771090832246e-09 1.30567284561335e-09 2.88287138712548e-09
"423" 23005 2.06118981703134e-09 8.54503377928722e-09 9.05983603197385e-08 1.26739261527892e-07 4.85502239617156e-09 2.41282195291323e-09 1.30780113254457e-09 2.88407422450222e-09
"424" 23006 2.05987333075357e-09 8.53826095580918e-09 9.06733754237033e-08 1.265590940458e-07 4.87634563757446e-09 2.417932997504e-09 1.3099294194758e-09 2.88527706187897e-09
"425" 23007 2.05855684447579e-09 8.53148813233115e-09 9.07483905276681e-08 1.26378926563708e-07 4.89766887897735e-09 2.42304404209477e-09 1.31205770640702e-09 2.88647989925571e-09
"426" 23008 2.05724035819801e-09 8.52471530885311e-09 9.08234056316329e-08 1.26198759081616e-07 4.91899212038025e-09 2.42815508668553e-09 1.31418599333825e-09 2.88768273663245e-09
"427" 23009 2.05592387192023e-09 8.51794248537508e-09 9.08984207355977e-08 1.26018591599525e-07 4.94031536178315e-09 2.4332661312763e-09 1.31631428026948e-09 2.8888855740092e-09
"428" 23010 2.07304374232254e-09 8.58093341057932e-09 9.09116393401643e-08 1.25922247045719e-07 4.93813151364602e-09 2.44449512557708e-09 1.32189949428877e-09 2.89399034549105e-09
"429" 23011 2.09016361272485e-09 8.64392433578355e-09 9.09248579447308e-08 1.25825902491914e-07 4.93594766550889e-09 2.45572411987787e-09 1.32748470830806e-09 2.8990951169729e-09
"430" 23012 2.10728348312717e-09 8.70691526098778e-09 9.09380765492974e-08 1.25729557938108e-07 4.93376381737176e-09 2.46695311417865e-09 1.33306992232735e-09 2.90419988845475e-09
"431" 23013 2.12440335352948e-09 8.76990618619202e-09 9.09512951538639e-08 1.25633213384303e-07 4.93157996923463e-09 2.47818210847943e-09 1.33865513634664e-09 2.9093046599366e-09
"432" 23014 2.14152322393179e-09 8.83289711139625e-09 9.09645137584304e-08 1.25536868830498e-07 4.9293961210975e-09 2.48941110278022e-09 1.34424035036593e-09 2.91440943141846e-09
"433" 23015 2.1586430943341e-09 8.89588803660049e-09 9.0977732362997e-08 1.25440524276692e-07 4.92721227296037e-09 2.500640097081e-09 1.34982556438522e-09 2.91951420290031e-09
"434" 23016 2.17576296473641e-09 8.95887896180473e-09 9.09909509675635e-08 1.25344179722887e-07 4.92502842482324e-09 2.51186909138178e-09 1.35541077840451e-09 2.92461897438216e-09
"435" 23017 2.19288283513873e-09 9.02186988700896e-09 9.100416957213e-08 1.25247835169081e-07 4.92284457668611e-09 2.52309808568257e-09 1.3609959924238e-09 2.92972374586401e-09
"436" 23018 2.21000270554104e-09 9.08486081221319e-09 9.10173881766966e-08 1.25151490615276e-07 4.92066072854898e-09 2.53432707998335e-09 1.36658120644309e-09 2.93482851734586e-09
"437" 23019 2.2134359026006e-09 9.08206920114043e-09 9.10173881766966e-08 1.2665383221809e-07 4.91729259936553e-09 2.54187718261443e-09 1.36998866866615e-09 2.94952683836443e-09
"438" 23020 2.21686909966017e-09 9.07927759006766e-09 9.10173881766966e-08 1.28156173820905e-07 4.91392447018209e-09 2.54942728524551e-09 1.3733961308892e-09 2.964225159383e-09
"439" 23021 2.22030229671973e-09 9.0764859789949e-09 9.10173881766966e-08 1.29658515423719e-07 4.91055634099864e-09 2.55697738787659e-09 1.37680359311226e-09 2.97892348040156e-09
"440" 23022 2.22373549377929e-09 9.07369436792213e-09 9.10173881766966e-08 1.31160857026533e-07 4.90718821181519e-09 2.56452749050767e-09 1.38021105533532e-09 2.99362180142013e-09
"441" 23023 2.22716869083886e-09 9.07090275684937e-09 9.10173881766966e-08 1.32663198629347e-07 4.90382008263174e-09 2.57207759313875e-09 1.38361851755838e-09 3.0083201224387e-09
"442" 23024 2.23060188789842e-09 9.0681111457766e-09 9.09423730727318e-08 1.3439861610647e-07 4.8791287120454e-09 2.5814350883894e-09 1.38647776179922e-09 3.02392785885913e-09
"443" 23025 2.23445270586655e-09 9.0540843707681e-09 9.04736158152729e-08 1.3572663544972e-07 4.86354010106218e-09 2.5814350883894e-09 1.38647776179922e-09 3.0386261798777e-09
"444" 23026 2.23830352383468e-09 9.04005759575959e-09 9.0004858557814e-08 1.3705465479297e-07 4.84795149007896e-09 2.5814350883894e-09 1.38647776179922e-09 3.05332450089626e-09
"445" 23027 2.24215434180282e-09 9.02603082075109e-09 8.95361013003552e-08 1.3838267413622e-07 4.83236287909575e-09 2.5814350883894e-09 1.38647776179922e-09 3.06802282191483e-09
"446" 23028 2.24600515977095e-09 9.01200404574259e-09 8.90673440428963e-08 1.3971069347947e-07 4.81677426811253e-09 2.5814350883894e-09 1.38647776179922e-09 3.0827211429334e-09
"447" 23029 2.24985597773908e-09 8.99797727073408e-09 8.85985867854374e-08 1.4103871282272e-07 4.80118565712931e-09 2.5814350883894e-09 1.38647776179922e-09 3.09741946395196e-09
"448" 23030 2.25370679570721e-09 8.98395049572558e-09 8.81298295279786e-08 1.4236673216597e-07 4.78559704614609e-09 2.5814350883894e-09 1.38647776179922e-09 3.11211778497053e-09
"449" 23031 2.25755761367535e-09 8.96992372071708e-09 8.76610722705197e-08 1.4369475150922e-07 4.77000843516287e-09 2.5814350883894e-09 1.38647776179922e-09 3.1268161059891e-09
"450" 23032 2.26140843164348e-09 8.95589694570857e-09 8.71923150130608e-08 1.45022770852469e-07 4.75441982417966e-09 2.5814350883894e-09 1.38647776179922e-09 3.14151442700766e-09
"451" 23033 2.26140843164348e-09 8.93791539589196e-09 8.72143764161479e-08 1.45782789479507e-07 4.73814568526733e-09 2.57170705288266e-09 1.38647776179922e-09 3.14661919848952e-09
"452" 23034 2.26140843164348e-09 8.91993384607535e-09 8.7236437819235e-08 1.46542808106545e-07 4.721871546355e-09 2.56197901737591e-09 1.38647776179922e-09 3.15172396997137e-09
"453" 23035 2.2944478356921e-09 8.90864580694529e-09 8.69512857937818e-08 1.46322860021156e-07 4.70628293537178e-09 2.55050299623774e-09 1.38647776179922e-09 3.15172396997137e-09
"454" 23036 2.32748723974071e-09 8.89735776781523e-09 8.66661337683286e-08 1.46102911935767e-07 4.69069432438857e-09 2.53902697509956e-09 1.38647776179922e-09 3.15172396997137e-09
"455" 23037 2.36052664378933e-09 8.88606972868518e-09 8.63809817428754e-08 1.45882963850378e-07 4.67510571340535e-09 2.52755095396138e-09 1.38647776179922e-09 3.15172396997137e-09
"456" 23038 2.39356604783795e-09 8.87478168955512e-09 8.60958297174222e-08 1.45663015764989e-07 4.65951710242213e-09 2.5160749328232e-09 1.38647776179922e-09 3.15172396997137e-09
"457" 23039 2.42660545188657e-09 8.86349365042506e-09 8.58106776919689e-08 1.454430676796e-07 4.64392849143891e-09 2.50459891168502e-09 1.38647776179922e-09 3.15172396997137e-09
"458" 23040 2.45964485593518e-09 8.852205611295e-09 8.55255256665157e-08 1.45223119594211e-07 4.6283398804557e-09 2.49312289054684e-09 1.38647776179922e-09 3.15172396997137e-09
"459" 23041 2.4926842599838e-09 8.84091757216494e-09 8.52403736410625e-08 1.45003171508822e-07 4.61275126947248e-09 2.48164686940867e-09 1.38647776179922e-09 3.15172396997137e-09
"460" 23042 2.52572366403242e-09 8.82962953303489e-09 8.49552216156093e-08 1.44783223423433e-07 4.59716265848926e-09 2.47017084827049e-09 1.38647776179922e-09 3.15172396997137e-09
"461" 23043 2.55876306808103e-09 8.81834149390483e-09 8.46700695901561e-08 1.44563275338044e-07 4.58157404750604e-09 2.45869482713231e-09 1.38647776179922e-09 3.15172396997137e-09
"462" 23044 2.59180247212965e-09 8.80705345477477e-09 8.43849175647029e-08 1.44343327252655e-07 4.56598543652282e-09 2.44721880599413e-09 1.38647776179922e-09 3.15172396997137e-09
"463" 23045 2.62484187617827e-09 8.79576541564471e-09 8.40997655392497e-08 1.44123379167266e-07 4.55039682553961e-09 2.43574278485595e-09 1.38647776179922e-09 3.15172396997137e-09
"464" 23046 2.65788128022689e-09 8.78447737651465e-09 8.38146135137964e-08 1.43903431081877e-07 4.53480821455639e-09 2.42426676371778e-09 1.38647776179922e-09 3.15172396997137e-09
"465" 23047 2.69295626284865e-09 8.79242217626042e-09 8.39951099611689e-08 1.43842305386926e-07 4.52389927815274e-09 2.40493420612298e-09 1.38933700604007e-09 3.1524280542309e-09
"466" 23048 2.72785147239657e-09 8.78544844515191e-09 8.40632673973186e-08 1.43511812446889e-07 4.51885017566217e-09 2.3987021418791e-09 1.39274446826312e-09 3.15304404765789e-09
"467" 23049 2.76274668194449e-09 8.77847471404339e-09 8.41314248334684e-08 1.43181319506853e-07 4.51380107317159e-09 2.39247007763523e-09 1.39615193048618e-09 3.15366004108488e-09
"468" 23050 2.79764189149241e-09 8.77150098293488e-09 8.41995822696182e-08 1.42850826566817e-07 4.50875197068102e-09 2.38623801339135e-09 1.39955939270924e-09 3.15427603451187e-09
"469" 23051 2.83253710104034e-09 8.76452725182637e-09 8.4267739705768e-08 1.42520333626781e-07 4.50370286819045e-09 2.38000594914747e-09 1.4029668549323e-09 3.15489202793886e-09
"470" 23052 2.86743231058826e-09 8.75755352071786e-09 8.43358971419177e-08 1.42189840686744e-07 4.49865376569988e-09 2.37377388490359e-09 1.40637431715536e-09 3.15550802136585e-09
"471" 23053 2.90232752013618e-09 8.75057978960935e-09 8.44040545780675e-08 1.41859347746708e-07 4.49360466320931e-09 2.36754182065971e-09 1.40978177937841e-09 3.15612401479284e-09
"472" 23054 2.9372227296841e-09 8.74360605850084e-09 8.44722120142173e-08 1.41528854806672e-07 4.48855556071874e-09 2.36130975641583e-09 1.41318924160147e-09 3.15674000821983e-09
"473" 23055 2.93790125587515e-09 8.72866990258179e-09 8.43583615459049e-08 1.41028520227929e-07 4.49809344126417e-09 2.36655371331013e-09 1.41712980167412e-09 3.15674000821983e-09
"474" 23056 2.95729455268534e-09 8.72866990258179e-09 8.42460225346823e-08 1.40532635904747e-07 4.49460423030012e-09 2.36206963469769e-09 1.41681378788432e-09 3.16515986985703e-09
"475" 23057 2.97668784949552e-09 8.72866990258179e-09 8.41336835234596e-08 1.40036751581565e-07 4.49111501933608e-09 2.35758555608524e-09 1.41649777409452e-09 3.17357973149424e-09
"476" 23058 2.99608114630571e-09 8.72866990258179e-09 8.4021344512237e-08 1.39540867258383e-07 4.48762580837203e-09 2.3531014774728e-09 1.41618176030471e-09 3.18199959313144e-09
"477" 23059 3.0154744431159e-09 8.72866990258179e-09 8.39090055010143e-08 1.39044982935202e-07 4.48413659740798e-09 2.34861739886035e-09 1.41586574651491e-09 3.19041945476865e-09
"478" 23060 3.03486773992608e-09 8.72866990258179e-09 8.37966664897916e-08 1.3854909861202e-07 4.48064738644393e-09 2.34413332024791e-09 1.41554973272511e-09 3.19883931640585e-09
"479" 23061 3.01936582718835e-09 8.68855112050998e-09 8.28097926360622e-08 1.38485177089431e-07 4.478839148787e-09 2.34026680872895e-09 1.40012273082408e-09 3.20544034723933e-09
"480" 23062 3.00386391445061e-09 8.64843233843817e-09 8.18229187823327e-08 1.38421255566843e-07 4.47703091113008e-09 2.33640029720999e-09 1.38469572892304e-09 3.2120413780728e-09
"481" 23063 2.98836200171288e-09 8.60831355636637e-09 8.08360449286032e-08 1.38357334044255e-07 4.47522267347315e-09 2.33253378569103e-09 1.36926872702201e-09 3.21864240890627e-09
"482" 23064 2.97286008897514e-09 8.56819477429456e-09 7.98491710748738e-08 1.38293412521667e-07 4.47341443581623e-09 2.32866727417207e-09 1.35384172512098e-09 3.22524343973975e-09
"483" 23065 2.95735817623741e-09 8.52807599222275e-09 7.88622972211443e-08 1.38229490999078e-07 4.4716061981593e-09 2.32480076265311e-09 1.33841472321995e-09 3.23184447057322e-09
"484" 23066 2.94185626349967e-09 8.48795721015094e-09 7.78754233674148e-08 1.3816556947649e-07 4.46979796050238e-09 2.32093425113416e-09 1.32298772131892e-09 3.23844550140669e-09
"485" 23067 2.90678128087791e-09 8.43812596109218e-09 7.68841618038224e-08 1.38087263197789e-07 4.47210495127651e-09 2.31924567249086e-09 1.30787673320769e-09 3.23870977390433e-09
"486" 23068 2.87170629825615e-09 8.38829471203341e-09 7.589290024023e-08 1.38008956919088e-07 4.47441194205064e-09 2.31755709384757e-09 1.29276574509646e-09 3.23897404640198e-09
"487" 23069 2.83663131563438e-09 8.33846346297465e-09 7.49016386766375e-08 1.37930650640387e-07 4.47671893282477e-09 2.31586851520428e-09 1.27765475698523e-09 3.23923831889962e-09
"488" 23070 2.80155633301262e-09 8.28863221391589e-09 7.39103771130451e-08 1.37852344361687e-07 4.4790259235989e-09 2.31417993656098e-09 1.262543768874e-09 3.23950259139726e-09
"489" 23071 2.76648135039085e-09 8.23880096485712e-09 7.29191155494526e-08 1.37774038082986e-07 4.48133291437304e-09 2.31249135791769e-09 1.24743278076277e-09 3.23976686389491e-09
"490" 23072 2.73140636776909e-09 8.18896971579836e-09 7.19278539858602e-08 1.37695731804285e-07 4.48363990514717e-09 2.3108027792744e-09 1.23232179265154e-09 3.24003113639255e-09
"491" 23073 2.69633138514733e-09 8.13913846673959e-09 7.09365924222677e-08 1.37617425525584e-07 4.4859468959213e-09 2.3091142006311e-09 1.21721080454031e-09 3.24029540889019e-09
"492" 23074 2.66125640252556e-09 8.08930721768083e-09 6.99453308586753e-08 1.37539119246883e-07 4.48825388669543e-09 2.30742562198781e-09 1.20209981642908e-09 3.24055968138783e-09
"493" 23075 2.6261814199038e-09 8.03947596862206e-09 6.89540692950828e-08 1.37460812968183e-07 4.49056087746957e-09 2.30573704334452e-09 1.18698882831785e-09 3.24082395388548e-09
"494" 23076 2.59355963676375e-09 7.9896447195633e-09 6.79846181110583e-08 1.37434066794423e-07 4.48650722035701e-09 2.30224107208165e-09 1.18424773840678e-09 3.30325682676974e-09
"495" 23077 2.5609378536237e-09 7.93981347050454e-09 6.70151669270338e-08 1.37407320620664e-07 4.48245356324445e-09 2.29874510081878e-09 1.18150664849571e-09 3.36568969965401e-09
"496" 23078 2.52831607048366e-09 7.88998222144577e-09 6.60457157430093e-08 1.37380574446905e-07 4.4783999061319e-09 2.29524912955592e-09 1.17876555858464e-09 3.42812257253827e-09
"497" 23079 2.49569428734361e-09 7.84015097238701e-09 6.50762645589848e-08 1.37353828273146e-07 4.47434624901934e-09 2.29175315829305e-09 1.17602446867357e-09 3.49055544542254e-09
"498" 23080 2.46307250420356e-09 7.79031972332824e-09 6.41068133749602e-08 1.37327082099386e-07 4.47029259190678e-09 2.28825718703018e-09 1.1732833787625e-09 3.5529883183068e-09
"499" 23081 2.43045072106351e-09 7.74048847426948e-09 6.31373621909357e-08 1.37300335925627e-07 4.46623893479423e-09 2.28476121576732e-09 1.17054228885143e-09 3.61542119119107e-09
"500" 23082 2.39782893792347e-09 7.69065722521072e-09 6.21679110069112e-08 1.37273589751868e-07 4.46218527768167e-09 2.28126524450445e-09 1.16780119894036e-09 3.67785406407533e-09
"501" 23083 2.39942383814029e-09 7.68094475822376e-09 6.21703525914408e-08 1.37331443074164e-07 4.45993985822604e-09 2.27945785188488e-09 1.17391951080925e-09 3.74219385859588e-09
"502" 23084 2.40155805757864e-09 7.683184740985e-09 6.18982355258295e-08 1.37286747906084e-07 4.45420522780636e-09 2.27814451294009e-09 1.17391951080925e-09 3.78136087423566e-09
"503" 23085 2.40369227701699e-09 7.68542472374623e-09 6.16261184602183e-08 1.37242052738003e-07 4.44847059738668e-09 2.27683117399531e-09 1.17391951080925e-09 3.82052788987545e-09
"504" 23086 2.40582649645534e-09 7.68766470650747e-09 6.1354001394607e-08 1.37197357569922e-07 4.442735966967e-09 2.27551783505053e-09 1.17391951080925e-09 3.85969490551524e-09
"505" 23087 2.4079607158937e-09 7.68990468926871e-09 6.10818843289958e-08 1.37152662401842e-07 4.43700133654732e-09 2.27420449610574e-09 1.17391951080925e-09 3.89886192115502e-09
"506" 23088 2.41009493533205e-09 7.69214467202995e-09 6.08097672633845e-08 1.37107967233761e-07 4.43126670612764e-09 2.27289115716096e-09 1.17391951080925e-09 3.93802893679481e-09
"507" 23089 2.4122291547704e-09 7.69438465479119e-09 6.05376501977733e-08 1.3706327206568e-07 4.42553207570796e-09 2.27157781821617e-09 1.17391951080925e-09 3.9771959524346e-09
"508" 23090 2.41304688793097e-09 7.69266986274432e-09 6.02465990053674e-08 1.38196009282647e-07 4.46936490041647e-09 2.27437801762774e-09 1.1620978305913e-09 3.95272725781338e-09
"509" 23091 2.41386462109154e-09 7.69095507069745e-09 5.99555478129615e-08 1.39328746499614e-07 4.51319772512498e-09 2.27717821703931e-09 1.15027615037335e-09 3.92825856319216e-09
"510" 23092 2.41372541412202e-09 7.77692388942275e-09 5.96809891628207e-08 1.39320312337013e-07 4.5074630947053e-09 2.27586487809453e-09 1.13790625217319e-09 3.90889464005279e-09
"511" 23093 2.4135862071525e-09 7.86289270814805e-09 5.94064305126799e-08 1.39311878174412e-07 4.50172846428562e-09 2.27455153914975e-09 1.12553635397303e-09 3.88953071691342e-09
"512" 23094 2.41344700018297e-09 7.94886152687336e-09 5.91318718625391e-08 1.39303444011811e-07 4.49599383386594e-09 2.27323820020496e-09 1.11316645577287e-09 3.87016679377405e-09
"513" 23095 2.41330779321345e-09 8.03483034559866e-09 5.88573132123983e-08 1.3929500984921e-07 4.49025920344626e-09 2.27192486126018e-09 1.10079655757271e-09 3.85080287063468e-09
"514" 23096 2.41316858624393e-09 8.12079916432396e-09 5.85827545622576e-08 1.39286575686609e-07 4.48452457302658e-09 2.27061152231539e-09 1.08842665937255e-09 3.83143894749531e-09
"515" 23097 2.4130293792744e-09 8.20676798304927e-09 5.83081959121168e-08 1.39278141524008e-07 4.4787899426069e-09 2.26929818337061e-09 1.07605676117239e-09 3.81207502435594e-09
"516" 23098 2.41289017230488e-09 8.29273680177457e-09 5.8033637261976e-08 1.39269707361407e-07 4.47305531218722e-09 2.26798484442583e-09 1.06368686297222e-09 3.79271110121658e-09
"517" 23099 2.41275096533536e-09 8.37870562049987e-09 5.77590786118352e-08 1.39261273198806e-07 4.46732068176754e-09 2.26667150548104e-09 1.05131696477206e-09 3.77334717807721e-09
"518" 23100 2.41261175836583e-09 8.46467443922518e-09 5.74845199616944e-08 1.39252839036205e-07 4.46158605134786e-09 2.26535816653626e-09 1.0389470665719e-09 3.75398325493784e-09
"519" 23101 2.41247255139631e-09 8.55064325795048e-09 5.72099613115536e-08 1.39244404873604e-07 4.45585142092818e-09 2.26404482759148e-09 1.02657716837174e-09 3.73461933179847e-09
"520" 23102 2.41233334442679e-09 8.63661207667578e-09 5.69354026614129e-08 1.39235970711003e-07 4.4501167905085e-09 2.26273148864669e-09 1.01420727017158e-09 3.7152554086591e-09
"521" 23103 2.41219413745726e-09 8.72258089540109e-09 5.66608440112721e-08 1.39227536548402e-07 4.44438216008882e-09 2.26141814970191e-09 1.00183737197142e-09 3.69589148551973e-09
"522" 23104 2.41205493048774e-09 8.80854971412639e-09 5.63862853611313e-08 1.39219102385801e-07 4.43864752966914e-09 2.26010481075712e-09 9.89467473771259e-10 3.67652756238036e-09
"523" 23105 2.41191572351822e-09 8.89451853285169e-09 5.61117267109905e-08 1.392106682232e-07 4.43291289924946e-09 2.25879147181234e-09 9.77097575571098e-10 3.65716363924099e-09
"524" 23106 2.40620910005078e-09 8.98421478115747e-09 5.60595934594648e-08 1.38138746481937e-07 4.42044201046288e-09 2.26122113096782e-09 9.76549357588884e-10 3.66317782612471e-09
"525" 23107 2.40525215992068e-09 9.07390221693086e-09 5.58654166377271e-08 1.38003515499384e-07 4.38396733987547e-09 2.25099904178628e-09 9.74820894044852e-10 3.66828259760656e-09
"526" 23108 2.40429521979059e-09 9.16358965270425e-09 5.56712398159893e-08 1.37868284516831e-07 4.34749266928806e-09 2.24077695260475e-09 9.73092430500819e-10 3.67338736908842e-09
"527" 23109 2.40333827966049e-09 9.25327708847763e-09 5.54770629942515e-08 1.37733053534278e-07 4.31101799870065e-09 2.23055486342322e-09 9.71363966956787e-10 3.67849214057027e-09
"528" 23110 2.4023813395304e-09 9.34296452425102e-09 5.52828861725137e-08 1.37597822551725e-07 4.27454332811324e-09 2.22033277424168e-09 9.69635503412755e-10 3.68359691205212e-09
"529" 23111 2.40210292559135e-09 9.34271074142623e-09 5.56925375165694e-08 1.39741406797487e-07 4.2575179682405e-09 2.20786864575392e-09 9.68455257850936e-10 3.68377309371721e-09
"530" 23112 2.40182451165231e-09 9.34245695860143e-09 5.6102188860625e-08 1.41884991043249e-07 4.24049260836777e-09 2.19540451726617e-09 9.67275012289118e-10 3.68394927538231e-09
"531" 23113 2.40154609771326e-09 9.34220317577663e-09 5.65118402046806e-08 1.4402857528901e-07 4.22346724849503e-09 2.18294038877841e-09 9.66094766727299e-10 3.6841254570474e-09
"532" 23114 2.40126768377421e-09 9.34194939295184e-09 5.69214915487362e-08 1.46172159534772e-07 4.20644188862229e-09 2.17047626029065e-09 9.64914521165481e-10 3.6843016387125e-09
"533" 23115 2.40098926983517e-09 9.34169561012704e-09 5.73311428927918e-08 1.48315743780534e-07 4.18941652874955e-09 2.1580121318029e-09 9.63734275603662e-10 3.68447782037760e-09
"534" 23116 2.40071085589612e-09 9.34144182730224e-09 5.77407942368475e-08 1.50459328026295e-07 4.17239116887682e-09 2.14554800331514e-09 9.62554030041843e-10 3.68465400204269e-09
"535" 23117 2.40043244195707e-09 9.34118804447745e-09 5.81504455809031e-08 1.52602912272057e-07 4.15536580900408e-09 2.13308387482738e-09 9.61373784480025e-10 3.68483018370779e-09
"536" 23118 2.40015402801803e-09 9.34093426165265e-09 5.85600969249587e-08 1.54746496517819e-07 4.13834044913134e-09 2.12061974633963e-09 9.60193538918206e-10 3.68500636537288e-09
"537" 23119 2.39540434468069e-09 9.33100326197044e-09 5.89217972970468e-08 1.5479805662276e-07 4.13715616808503e-09 2.12130611930609e-09 9.61107235555229e-10 3.68882020864544e-09
"538" 23120 2.39065466134334e-09 9.28444475203688e-09 5.92679537459687e-08 1.54696197458669e-07 4.13148104812745e-09 2.1221801121218e-09 9.62020932192252e-10 3.69242872077567e-09
"539" 23121 2.385904978006e-09 9.23788624210331e-09 5.96141101948907e-08 1.54594338294577e-07 4.12580592816987e-09 2.12305410493752e-09 9.62934628829275e-10 3.6960372329059e-09
"540" 23122 2.38115529466866e-09 9.19132773216975e-09 5.99602666438126e-08 1.54492479130486e-07 4.12013080821229e-09 2.12392809775324e-09 9.63848325466298e-10 3.69964574503613e-09
"541" 23123 2.37640561133132e-09 9.14476922223618e-09 6.03064230927346e-08 1.54390619966394e-07 4.11445568825471e-09 2.12480209056895e-09 9.64762022103321e-10 3.70325425716636e-09
"542" 23124 2.37165592799398e-09 9.09821071230262e-09 6.06525795416565e-08 1.54288760802302e-07 4.10878056829713e-09 2.12567608338467e-09 9.65675718740344e-10 3.7068627692966e-09
"543" 23125 2.3657695314527e-09 9.05834571305561e-09 6.06484732507889e-08 1.5413491778584e-07 4.10254512390384e-09 2.12810574254015e-09 9.64544938043532e-10 3.7068627692966e-09
"544" 23126 2.35988313491142e-09 9.01848071380860e-09 6.06443669599213e-08 1.53981074769377e-07 4.09630967951056e-09 2.13053540169562e-09 9.6341415734672e-10 3.7068627692966e-09
"545" 23127 2.35399673837014e-09 8.97861571456158e-09 6.06402606690536e-08 1.53827231752914e-07 4.09007423511727e-09 2.1329650608511e-09 9.62283376649909e-10 3.7068627692966e-09
"546" 23128 2.34811034182886e-09 8.93875071531457e-09 6.0636154378186e-08 1.53673388736452e-07 4.08383879072398e-09 2.13539472000658e-09 9.61152595953097e-10 3.7068627692966e-09
"547" 23129 2.34222394528758e-09 8.89888571606756e-09 6.06320480873184e-08 1.53519545719989e-07 4.07760334633069e-09 2.13782437916206e-09 9.60021815256285e-10 3.7068627692966e-09
"548" 23130 2.3363375487463e-09 8.85902071682055e-09 6.06279417964507e-08 1.53365702703527e-07 4.07136790193741e-09 2.14025403831753e-09 9.58891034559473e-10 3.7068627692966e-09
"549" 23131 2.33045115220502e-09 8.81915571757354e-09 6.06238355055831e-08 1.53211859687064e-07 4.06513245754412e-09 2.14268369747301e-09 9.57760253862662e-10 3.7068627692966e-09
"550" 23132 2.32456475566374e-09 8.77929071832653e-09 6.06197292147155e-08 1.53058016670602e-07 4.05889701315083e-09 2.14511335662849e-09 9.5662947316585e-10 3.7068627692966e-09
"551" 23133 2.31899733916583e-09 8.74272489580188e-09 6.0693281748726e-08 1.53267963406949e-07 4.05827099568382e-09 2.1462343762816e-09 9.57942993190066e-10 3.7068627692966e-09
"552" 23134 2.31342992266791e-09 8.70615907327722e-09 6.07668342827364e-08 1.53477910143296e-07 4.05764497821682e-09 2.14735539593471e-09 9.59256513214283e-10 3.7068627692966e-09
"553" 23135 2.30786250617e-09 8.66959325075257e-09 6.08403868167469e-08 1.53687856879643e-07 4.05701896074981e-09 2.14847641558782e-09 9.60570033238499e-10 3.7068627692966e-09
"554" 23136 2.30229508967208e-09 8.63302742822792e-09 6.09139393507574e-08 1.5389780361599e-07 4.0563929432828e-09 2.14959743524093e-09 9.61883553262715e-10 3.7068627692966e-09
"555" 23137 2.29672767317417e-09 8.59646160570327e-09 6.09874918847679e-08 1.54107750352338e-07 4.05576692581579e-09 2.15071845489405e-09 9.63197073286932e-10 3.7068627692966e-09
"556" 23138 2.29116025667625e-09 8.55989578317862e-09 6.10610444187784e-08 1.54317697088685e-07 4.05514090834878e-09 2.15183947454716e-09 9.64510593311148e-10 3.7068627692966e-09
"557" 23139 2.28559284017834e-09 8.52332996065397e-09 6.11345969527889e-08 1.54527643825032e-07 4.05451489088178e-09 2.15296049420027e-09 9.65824113335364e-10 3.7068627692966e-09
"558" 23140 2.28002542368043e-09 8.48676413812931e-09 6.12081494867994e-08 1.54737590561379e-07 4.05388887341477e-09 2.15408151385338e-09 9.67137633359581e-10 3.7068627692966e-09
"559" 23141 2.27445800718251e-09 8.45019831560466e-09 6.12817020208099e-08 1.54947537297726e-07 4.05326285594776e-09 2.15520253350649e-09 9.68451153383797e-10 3.7068627692966e-09
"560" 23142 2.27364027402194e-09 8.46219482801479e-09 6.13697335929575e-08 1.55318615734826e-07 4.05263683848075e-09 2.15520253350649e-09 9.66638880242374e-10 3.70677467846405e-09
"561" 23143 2.27377948099146e-09 8.46818867795366e-09 6.14386810829831e-08 1.5551563341262e-07 4.056501659925e-09 2.15426443426022e-09 9.68218949191386e-10 3.69506887614872e-09
"562" 23144 2.27391868796099e-09 8.47418252789253e-09 6.15076285730088e-08 1.55712651090413e-07 4.06036648136926e-09 2.15332633501394e-09 9.69799018140398e-10 3.6833630738334e-09
"563" 23145 2.27405789493051e-09 8.4801763778314e-09 6.15765760630344e-08 1.55909668768206e-07 4.06423130281351e-09 2.15238823576767e-09 9.7137908708941e-10 3.67165727151807e-09
"564" 23146 2.28046055324556e-09 8.49415909017797e-09 6.15765760630344e-08 1.55780493750149e-07 4.06641515095064e-09 2.15275877602376e-09 9.74771429179845e-10 3.6600395600353e-09
"565" 23147 2.28686321156062e-09 8.50814180252454e-09 6.15765760630344e-08 1.55651318732092e-07 4.06859899908777e-09 2.15312931627985e-09 9.7816377127028e-10 3.64842184855252e-09
"566" 23148 2.28686321156062e-09 8.50213914005328e-09 6.15627457333418e-08 1.55554260604602e-07 4.0707828472249e-09 2.15125781722972e-09 9.83200767307357e-10 3.64032455836743e-09
"567" 23149 2.28686321156062e-09 8.49613647758202e-09 6.15489154036492e-08 1.55457202477113e-07 4.07296669536203e-09 2.14938631817959e-09 9.88237763344433e-10 3.63222726818233e-09
"568" 23150 2.28686321156062e-09 8.49013381511077e-09 6.15350850739566e-08 1.55360144349623e-07 4.07515054349916e-09 2.14751481912946e-09 9.9327475938151e-10 3.62412997799724e-09
"569" 23151 2.28686321156062e-09 8.48413115263951e-09 6.15212547442639e-08 1.55263086222134e-07 4.07733439163629e-09 2.14564332007933e-09 9.98311755418587e-10 3.61603268781214e-09
"570" 23152 2.28686321156062e-09 8.47812849016825e-09 6.15074244145713e-08 1.55166028094644e-07 4.07951823977342e-09 2.1437718210292e-09 1.00334875145566e-09 3.60793539762705e-09
"571" 23153 2.28686321156062e-09 8.472125827697e-09 6.14935940848787e-08 1.55068969967155e-07 4.08170208791056e-09 2.14190032197907e-09 1.00838574749274e-09 3.59983810744196e-09
"572" 23154 2.28686321156062e-09 8.46612316522574e-09 6.14797637551861e-08 1.54971911839665e-07 4.08388593604769e-09 2.14002882292894e-09 1.01342274352982e-09 3.59174081725686e-09
"573" 23155 2.28686321156062e-09 8.46012050275448e-09 6.14659334254935e-08 1.54874853712176e-07 4.08606978418482e-09 2.13815732387881e-09 1.01845973956689e-09 3.58364352707177e-09
"574" 23156 2.28686321156062e-09 8.45411784028322e-09 6.14521030958009e-08 1.54777795584686e-07 4.08825363232195e-09 2.13628582482868e-09 1.02349673560397e-09 3.57554623688668e-09
"575" 23157 2.28686321156062e-09 8.44811517781197e-09 6.14382727661082e-08 1.54680737457197e-07 4.09043748045908e-09 2.13441432577855e-09 1.02853373164105e-09 3.56744894670158e-09
"576" 23158 2.28686321156062e-09 8.44211251534071e-09 6.14244424364156e-08 1.54583679329707e-07 4.09262132859621e-09 2.13254282672842e-09 1.03357072767812e-09 3.55935165651649e-09
"577" 23159 2.28686321156062e-09 8.43610985286945e-09 6.1410612106723e-08 1.54486621202218e-07 4.09480517673334e-09 2.13067132767829e-09 1.0386077237152e-09 3.55125436633139e-09
"578" 23160 2.28686321156062e-09 8.43010719039819e-09 6.13967817770304e-08 1.54389563074728e-07 4.09698902487047e-09 2.12879982862816e-09 1.04364471975228e-09 3.5431570761463e-09
"579" 23161 2.28686321156062e-09 8.42410452792694e-09 6.13829514473378e-08 1.54292504947239e-07 4.0991728730076e-09 2.12692832957802e-09 1.04868171578935e-09 3.53505978596121e-09
"580" 23162 2.28686321156062e-09 8.41810186545568e-09 6.13691211176452e-08 1.54195446819749e-07 4.10135672114473e-09 2.12505683052789e-09 1.05371871182643e-09 3.52696249577611e-09
"581" 23163 2.28686321156062e-09 8.41209920298442e-09 6.13552907879525e-08 1.5409838869226e-07 4.10354056928186e-09 2.12318533147776e-09 1.05875570786351e-09 3.51886520559102e-09
"582" 23164 2.28277454575776e-09 8.40010269057429e-09 6.10642395955466e-08 1.53319751913415e-07 4.10354056928186e-09 2.07363055190985e-09 1.06040036181015e-09 3.5223856268887e-09
"583" 23165 2.2735591418133e-09 8.3514169801861e-09 6.09214832320166e-08 1.533746573574e-07 4.1066582914785e-09 2.06958111998406e-09 1.06517080892243e-09 3.51974482911481e-09
"584" 23166 2.26434373786885e-09 8.3027312697979e-09 6.07787268684865e-08 1.53429562801385e-07 4.10977601367514e-09 2.06553168805826e-09 1.06994125603471e-09 3.51710403134091e-09
"585" 23167 2.2551283339244e-09 8.25404555940971e-09 6.06359705049564e-08 1.5348446824537e-07 4.11289373587179e-09 2.06148225613247e-09 1.07471170314699e-09 3.51446323356702e-09
"586" 23168 2.24591292997994e-09 8.20535984902151e-09 6.04932141414264e-08 1.53539373689355e-07 4.11601145806843e-09 2.05743282420667e-09 1.07948215025927e-09 3.51182243579312e-09
"587" 23169 2.23683673300501e-09 8.15666532610093e-09 6.0345204025467e-08 1.54557186947396e-07 4.1208101535722e-09 2.05431679208473e-09 1.07948215025927e-09 3.51182243579312e-09
"588" 23170 2.24395848361543e-09 8.15666532610093e-09 6.05110714793751e-08 1.54750930213235e-07 4.13234510744286e-09 2.0594278366755e-09 1.09484456716267e-09 3.50557312588899e-09
"589" 23171 2.25108023422585e-09 8.15666532610093e-09 6.06769389332831e-08 1.54944673479074e-07 4.14388006131352e-09 2.06453888126626e-09 1.11020698406608e-09 3.49932381598487e-09
"590" 23172 2.25820198483627e-09 8.15666532610093e-09 6.08428063871912e-08 1.55138416744913e-07 4.15541501518418e-09 2.06964992585703e-09 1.12556940096948e-09 3.49307450608074e-09
"591" 23173 2.2653237354467e-09 8.15666532610093e-09 6.10086738410992e-08 1.55332160010752e-07 4.16694996905484e-09 2.0747609704478e-09 1.14093181787288e-09 3.48682519617661e-09
"592" 23174 2.27244548605712e-09 8.15666532610093e-09 6.11745412950073e-08 1.55525903276591e-07 4.1784849229255e-09 2.07987201503857e-09 1.15629423477629e-09 3.48057588627249e-09
"593" 23175 2.27956723666754e-09 8.15666532610093e-09 6.13404087489154e-08 1.55719646542431e-07 4.19001987679617e-09 2.08498305962933e-09 1.17165665167969e-09 3.47432657636836e-09
"594" 23176 2.28668898727796e-09 8.15666532610093e-09 6.15062762028234e-08 1.5591338980827e-07 4.20155483066683e-09 2.0900941042201e-09 1.18701906858309e-09 3.46807726646423e-09
"595" 23177 2.29381073788838e-09 8.15666532610093e-09 6.16721436567315e-08 1.56107133074109e-07 4.21308978453749e-09 2.09520514881087e-09 1.20238148548649e-09 3.46182795656011e-09
"596" 23178 2.30444126897582e-09 8.20535984902151e-09 6.18777733085058e-08 1.56217426400801e-07 4.21714550250645e-09 2.10436562532743e-09 1.2186919437593e-09 3.46112387230057e-09
"597" 23179 2.32009989733964e-09 8.2532930234677e-09 6.21927157634023e-08 1.56231851718707e-07 4.22893086336391e-09 2.11283972887753e-09 1.22928391355043e-09 3.44941806998525e-09
"598" 23180 2.33575852570347e-09 8.30122619791390e-09 6.25076582182987e-08 1.56246277036612e-07 4.24071622422137e-09 2.12131383242763e-09 1.23987588334155e-09 3.43771226766992e-09
"599" 23181 2.35141715406729e-09 8.34915937236009e-09 6.28226006731952e-08 1.56260702354518e-07 4.25250158507884e-09 2.12978793597773e-09 1.25046785313267e-09 3.4260064653546e-09
"600" 23182 2.36707578243112e-09 8.39709254680628e-09 6.31375431280916e-08 1.56275127672423e-07 4.2642869459363e-09 2.13826203952783e-09 1.26105982292379e-09 3.41430066303927e-09
"601" 23183 2.36707578243112e-09 8.39834383586549e-09 6.31576920952426e-08 1.56222413931974e-07 4.26453735292311e-09 2.17255719063884e-09 1.27058559701573e-09 3.40450178236023e-09
"602" 23184 2.36707578243112e-09 8.3995951249247e-09 6.31778410623935e-08 1.56169700191524e-07 4.26478775990991e-09 2.20685234174984e-09 1.28011137110767e-09 3.39470290168118e-09
"603" 23185 2.36707578243112e-09 8.40084641398391e-09 6.31979900295445e-08 1.56116986451074e-07 4.26503816689671e-09 2.24114749286084e-09 1.28963714519961e-09 3.38490402100214e-09
"604" 23186 2.36707578243112e-09 8.40209770304312e-09 6.32181389966954e-08 1.56064272710625e-07 4.26528857388352e-09 2.27544264397184e-09 1.29916291929155e-09 3.37510514032309e-09
"605" 23187 2.36707578243112e-09 8.40334899210233e-09 6.32382879638463e-08 1.56011558970175e-07 4.26553898087032e-09 2.30973779508285e-09 1.30868869338349e-09 3.36530625964405e-09
"606" 23188 2.36707578243112e-09 8.40460028116154e-09 6.32584369309973e-08 1.55958845229725e-07 4.26578938785712e-09 2.34403294619385e-09 1.31821446747543e-09 3.355507378965e-09
"607" 23189 2.36707578243112e-09 8.40585157022076e-09 6.32785858981482e-08 1.55906131489276e-07 4.26603979484393e-09 2.37832809730485e-09 1.32774024156737e-09 3.34570849828596e-09
"608" 23190 2.36707578243112e-09 8.40710285927996e-09 6.32987348652992e-08 1.55853417748826e-07 4.26629020183073e-09 2.41262324841585e-09 1.33726601565931e-09 3.33590961760692e-09
"609" 23191 2.36707578243112e-09 8.40708523421519e-09 6.35880823459949e-08 1.56567070689657e-07 4.31341928012219e-09 2.41380837449952e-09 1.33340926518405e-09 3.32490789955113e-09
"610" 23192 2.36707578243112e-09 8.40706760915042e-09 6.38774298266907e-08 1.57280723630489e-07 4.36054835841365e-09 2.41499350058319e-09 1.32955251470879e-09 3.31390618149534e-09
"611" 23193 2.36707578243112e-09 8.40704998408564e-09 6.41667773073864e-08 1.5799437657132e-07 4.40767743670511e-09 2.41617862666686e-09 1.32569576423353e-09 3.30290446343955e-09
"612" 23194 2.36707578243112e-09 8.40703235902087e-09 6.44561247880821e-08 1.58708029512151e-07 4.45480651499657e-09 2.41736375275053e-09 1.32183901375828e-09 3.29190274538376e-09
"613" 23195 2.36707578243112e-09 8.4070147339561e-09 6.47454722687779e-08 1.59421682452983e-07 4.50193559328803e-09 2.4185488788342e-09 1.31798226328302e-09 3.28090102732798e-09
"614" 23196 2.36707578243112e-09 8.40699710889132e-09 6.50348197494736e-08 1.60135335393814e-07 4.54906467157949e-09 2.41973400491786e-09 1.31412551280776e-09 3.26989930927219e-09
"615" 23197 2.36707578243112e-09 8.40697948382655e-09 6.53241672301694e-08 1.60848988334645e-07 4.59619374987095e-09 2.42091913100153e-09 1.3102687623325e-09 3.2588975912164e-09
"616" 23198 2.36707578243112e-09 8.40696185876178e-09 6.56135147108651e-08 1.61562641275477e-07 4.64332282816241e-09 2.4221042570852e-09 1.30641201185724e-09 3.24789587316061e-09
"617" 23199 2.36707578243112e-09 8.406944233697e-09 6.59028621915609e-08 1.62276294216308e-07 4.69045190645387e-09 2.42328938316887e-09 1.30255526138198e-09 3.23689415510482e-09
"618" 23200 2.36707578243112e-09 8.40692660863223e-09 6.61922096722566e-08 1.62989947157139e-07 4.73758098474533e-09 2.42447450925254e-09 1.29869851090673e-09 3.22589243704904e-09
"619" 23201 2.3642224706974e-09 8.39891130862737e-09 6.64848984694456e-08 1.6385908938516e-07 4.76594628025123e-09 2.42447450925254e-09 1.30056024891316e-09 3.22589243704904e-09
"620" 23202 2.36136915896368e-09 8.39094888381683e-09 6.67769722475873e-08 1.64740777486099e-07 4.80534571565418e-09 2.42447450925254e-09 1.30174049447498e-09 3.22650843047602e-09
"621" 23203 2.35851584722996e-09 8.38298645900629e-09 6.7069046025729e-08 1.65622465587037e-07 4.84474515105713e-09 2.42447450925254e-09 1.30292074003679e-09 3.22712442390301e-09
"622" 23204 2.35566253549624e-09 8.37502403419576e-09 6.73611198038708e-08 1.66504153687976e-07 4.88414458646009e-09 2.42447450925254e-09 1.30410098559861e-09 3.22774041733e-09
"623" 23205 2.4854720041484e-09 8.41501240889618e-09 6.88286926164495e-08 1.66783639888882e-07 4.97654529920598e-09 2.46536286597868e-09 1.32403599015427e-09 3.22982352063138e-09
"624" 23206 2.61528147280055e-09 8.45500078359661e-09 7.02962654290283e-08 1.67063126089789e-07 5.06894601195187e-09 2.50625122270481e-09 1.34397099470993e-09 3.23190662393275e-09
"625" 23207 2.61360544037509e-09 8.45500078359661e-09 7.02955341440512e-08 1.67940152969004e-07 5.06277626058988e-09 2.50625122270481e-09 1.34515124027174e-09 3.23372545473649e-09
"626" 23208 2.61192940794962e-09 8.45500078359661e-09 7.0294802859074e-08 1.6881717984822e-07 5.0566065092279e-09 2.50625122270481e-09 1.34633148583356e-09 3.23554428554022e-09
"627" 23209 2.61025337552416e-09 8.45500078359661e-09 7.02940715740968e-08 1.69694206727435e-07 5.05043675786591e-09 2.50625122270481e-09 1.34751173139538e-09 3.23736311634395e-09
"628" 23210 2.6085773430987e-09 8.45500078359661e-09 7.02933402891197e-08 1.7057123360665e-07 5.04426700650392e-09 2.50625122270481e-09 1.3486919769572e-09 3.23918194714768e-09
"629" 23211 2.60690131067324e-09 8.45500078359661e-09 7.02926090041425e-08 1.71448260485866e-07 5.03809725514194e-09 2.50625122270481e-09 1.34987222251902e-09 3.24100077795142e-09
"630" 23212 2.60522527824777e-09 8.45500078359661e-09 7.02918777191654e-08 1.72325287365081e-07 5.03192750377995e-09 2.50625122270481e-09 1.35105246808084e-09 3.24281960875515e-09
"631" 23213 2.60354924582231e-09 8.45500078359661e-09 7.02911464341882e-08 1.73202314244297e-07 5.02575775241796e-09 2.50625122270481e-09 1.35223271364266e-09 3.24463843955888e-09
"632" 23214 2.60187321339685e-09 8.45500078359661e-09 7.0290415149211e-08 1.74079341123512e-07 5.01958800105598e-09 2.50625122270481e-09 1.35341295920447e-09 3.24645727036261e-09
"633" 23215 2.60019718097138e-09 8.45500078359661e-09 7.02896838642339e-08 1.74956368002728e-07 5.01341824969399e-09 2.50625122270481e-09 1.35459320476629e-09 3.24827610116635e-09
"634" 23216 2.59852114854592e-09 8.45500078359661e-09 7.02889525792567e-08 1.75833394881943e-07 5.007248498332e-09 2.50625122270481e-09 1.35577345032811e-09 3.25009493197008e-09
"635" 23217 2.59684511612046e-09 8.45500078359661e-09 7.02882212942795e-08 1.76710421761158e-07 5.00107874697002e-09 2.50625122270481e-09 1.35695369588993e-09 3.25191376277381e-09
"636" 23218 2.595169083695e-09 8.45500078359661e-09 7.02874900093024e-08 1.77587448640374e-07 4.99490899560803e-09 2.50625122270481e-09 1.35813394145175e-09 3.25373259357755e-09
"637" 23219 2.59349305126953e-09 8.45500078359661e-09 7.02867587243252e-08 1.78464475519589e-07 4.98873924424604e-09 2.50625122270481e-09 1.35931418701357e-09 3.25555142438128e-09
"638" 23220 2.59181701884407e-09 8.45500078359661e-09 7.0286027439348e-08 1.79341502398805e-07 4.98256949288406e-09 2.50625122270481e-09 1.36049443257539e-09 3.25737025518501e-09
"639" 23221 2.59014098641861e-09 8.45500078359661e-09 7.02852961543709e-08 1.8021852927802e-07 4.97639974152207e-09 2.50625122270481e-09 1.3616746781372e-09 3.25918908598874e-09
"640" 23222 2.58846495399314e-09 8.45500078359661e-09 7.02845648693937e-08 1.81095556157235e-07 4.97022999016008e-09 2.50625122270481e-09 1.36285492369902e-09 3.26100791679248e-09
"641" 23223 2.59018155252293e-09 8.46169429428316e-09 7.02789960085718e-08 1.82002816403432e-07 4.97266218442762e-09 2.50812272175494e-09 1.35552202153594e-09 3.25120903611343e-09
"642" 23224 2.58794869221937e-09 8.45465006291556e-09 7.01718162694287e-08 1.82874782785087e-07 4.95863346497092e-09 2.50083374428851e-09 1.35756649886977e-09 3.24407946028467e-09
"643" 23225 2.58571583191582e-09 8.44760583154795e-09 7.00646365302857e-08 1.83746749166741e-07 4.94460474551422e-09 2.49354476682208e-09 1.35961097620361e-09 3.23694988445592e-09
"644" 23226 2.58348297161226e-09 8.44056160018035e-09 6.99574567911427e-08 1.84618715548396e-07 4.93057602605753e-09 2.48625578935565e-09 1.36165545353744e-09 3.22982030862716e-09
"645" 23227 2.5812501113087e-09 8.43351736881274e-09 6.98502770519997e-08 1.85490681930051e-07 4.91654730660083e-09 2.47896681188922e-09 1.36369993087128e-09 3.2226907327984e-09
"646" 23228 2.59655474231603e-09 8.43344686855365e-09 6.99715295344586e-08 1.86222478516971e-07 4.92957233725392e-09 2.47167783442278e-09 1.36574440820511e-09 3.21726274746359e-09
"647" 23229 2.59342301664327e-09 8.41770530149827e-09 7.02384602264351e-08 1.86184076566246e-07 4.91685104148054e-09 2.46232973805697e-09 1.36818870892614e-09 3.2083143408311e-09
"648" 23230 2.5902912909705e-09 8.4019637344429e-09 7.05053909184117e-08 1.8614567461552e-07 4.90412974570716e-09 2.45298164169115e-09 1.37063300964717e-09 3.19936593419861e-09
"649" 23231 2.58715956529774e-09 8.38622216738753e-09 7.07723216103882e-08 1.86107272664794e-07 4.89140844993378e-09 2.44363354532533e-09 1.3730773103682e-09 3.19041752756612e-09
"650" 23232 2.58402783962497e-09 8.37048060033215e-09 7.10392523023647e-08 1.86068870714069e-07 4.87868715416041e-09 2.43428544895951e-09 1.37552161108922e-09 3.18146912093363e-09
"651" 23233 2.5808961139522e-09 8.35473903327678e-09 7.13061829943412e-08 1.86030468763343e-07 4.86596585838703e-09 2.42493735259369e-09 1.37796591181025e-09 3.17252071430113e-09
"652" 23234 2.57776438827944e-09 8.3389974662214e-09 7.15731136863177e-08 1.85992066812617e-07 4.85324456261365e-09 2.41558925622788e-09 1.38041021253128e-09 3.16357230766864e-09
"653" 23235 2.57463266260667e-09 8.32325589916603e-09 7.18400443782942e-08 1.85953664861892e-07 4.84052326684027e-09 2.40624115986206e-09 1.38285451325231e-09 3.15462390103615e-09
"654" 23236 2.57150093693391e-09 8.30751433211066e-09 7.21069750702707e-08 1.85915262911166e-07 4.8278019710669e-09 2.39689306349624e-09 1.38529881397334e-09 3.14567549440366e-09
"655" 23237 2.57245787706401e-09 8.30551050710944e-09 7.23028839771412e-08 1.85306216467267e-07 4.82730115709329e-09 2.39265601172119e-09 1.38742710090456e-09 3.14505950097667e-09
"656" 23238 2.5734148171941e-09 8.30350668210823e-09 7.24987928840117e-08 1.84697170023367e-07 4.82680034311968e-09 2.38841895994614e-09 1.38955538783579e-09 3.14444350754968e-09
"657" 23239 2.5743717573242e-09 8.30150285710701e-09 7.26947017908821e-08 1.84088123579467e-07 4.82629952914608e-09 2.38418190817109e-09 1.39168367476701e-09 3.14382751412269e-09
"658" 23240 2.57532869745429e-09 8.2994990321058e-09 7.28906106977526e-08 1.83479077135568e-07 4.82579871517247e-09 2.37994485639604e-09 1.39381196169824e-09 3.1432115206957e-09
"659" 23241 2.57628563758439e-09 8.29749520710458e-09 7.3086519604623e-08 1.82870030691668e-07 4.82529790119886e-09 2.37570780462099e-09 1.39594024862947e-09 3.14259552726871e-09
"660" 23242 2.57814144308369e-09 8.29549138210337e-09 7.29117756627971e-08 1.82364913430017e-07 4.82192977201542e-09 2.37352987174532e-09 1.39934771085252e-09 3.14379836464546e-09
"661" 23243 2.579997248583e-09 8.29348755710215e-09 7.27370317209712e-08 1.81859796168366e-07 4.81856164283197e-09 2.37135193886966e-09 1.40275517307558e-09 3.1450012020222e-09
"662" 23244 2.5818530540823e-09 8.29148373210094e-09 7.25622877791453e-08 1.81354678906714e-07 4.81519351364852e-09 2.36917400599399e-09 1.40616263529864e-09 3.14620403939895e-09
"663" 23245 2.58370885958161e-09 8.29073119615893e-09 7.24959384168187e-08 1.80186568740919e-07 4.79530289942234e-09 2.37123312489338e-09 1.40875533061469e-09 3.14802287020268e-09
"664" 23246 2.58556466508091e-09 8.28997866021693e-09 7.24295890544921e-08 1.79018458575124e-07 4.77541228519617e-09 2.37329224379276e-09 1.41134802593074e-09 3.14984170100641e-09
"665" 23247 2.58742047058021e-09 8.28922612427493e-09 7.23632396921655e-08 1.77850348409329e-07 4.75552167096999e-09 2.37535136269215e-09 1.41394072124679e-09 3.15166053181014e-09
"666" 23248 2.58927627607952e-09 8.28847358833292e-09 7.22968903298388e-08 1.76682238243534e-07 4.73563105674381e-09 2.37741048159154e-09 1.41653341656283e-09 3.15347936261388e-09
"667" 23249 2.58995480227057e-09 8.29147491956855e-09 7.27486410941773e-08 1.75456086221573e-07 4.7207895450082e-09 2.37853150124465e-09 1.41558537519343e-09 3.15347936261388e-09
"668" 23250 2.59063332846162e-09 8.29447625080418e-09 7.32003918585157e-08 1.74229934199612e-07 4.7059480332726e-09 2.37965252089776e-09 1.41463733382402e-09 3.15347936261388e-09
"669" 23251 2.59131185465267e-09 8.29747758203981e-09 7.36521426228542e-08 1.73003782177651e-07 4.69110652153699e-09 2.38077354055087e-09 1.41368929245461e-09 3.15347936261388e-09
"670" 23252 2.59199038084372e-09 8.30047891327544e-09 7.41038933871926e-08 1.7177763015569e-07 4.67626500980138e-09 2.38189456020398e-09 1.4127412510852e-09 3.15347936261388e-09
