"time" "channel1" "channel2" "channel3" "channel4" "channel5" "channel6" "channel7" "channel8"
"1" 11216 7.88388266197535e-08 3.68255000773872e-09 7.08485816335687e-09 6.79315268382303e-09 1.90640970984869e-07 9.57508188447518e-08 7.7994522950417e-09 7.52528027235013e-09
"2" 11217 7.80974874718324e-08 3.6888218891672e-09 7.08485816335687e-09 6.74191510791593e-09 1.88597424099657e-07 9.53475429808559e-08 7.81540219420544e-09 7.52280372500287e-09
"3" 11218 7.73561483239113e-08 3.69509377059567e-09 7.08485816335687e-09 6.69067753200883e-09 1.86553877214445e-07 9.49442671169599e-08 7.83135209336918e-09 7.52032717765561e-09
"4" 11219 7.66148091759902e-08 3.70136565202415e-09 7.08485816335687e-09 6.63943995610173e-09 1.84510330329232e-07 9.4540991253064e-08 7.84730199253292e-09 7.51785063030835e-09
"5" 11220 7.58734700280691e-08 3.70763753345262e-09 7.08485816335687e-09 6.58820238019463e-09 1.8246678344402e-07 9.4137715389168e-08 7.86325189169666e-09 7.5153740829611e-09
"6" 11221 7.5132130880148e-08 3.71390941488109e-09 7.08485816335687e-09 6.53696480428752e-09 1.80423236558808e-07 9.37344395252721e-08 7.8792017908604e-09 7.51289753561384e-09
"7" 11222 7.43907917322269e-08 3.72018129630957e-09 7.08485816335687e-09 6.48572722838042e-09 1.78379689673596e-07 9.33311636613762e-08 7.89515169002414e-09 7.51042098826658e-09
"8" 11223 7.36494525843058e-08 3.72645317773804e-09 7.08485816335687e-09 6.43448965247332e-09 1.76336142788384e-07 9.29278877974802e-08 7.91110158918788e-09 7.50794444091933e-09
"9" 11224 7.29081134363847e-08 3.73272505916652e-09 7.08485816335687e-09 6.38325207656622e-09 1.74292595903171e-07 9.25246119335843e-08 7.92705148835162e-09 7.50546789357207e-09
"10" 11225 7.21667742884636e-08 3.73899694059499e-09 7.08485816335687e-09 6.33201450065912e-09 1.72249049017959e-07 9.21213360696883e-08 7.94300138751536e-09 7.50299134622481e-09
"11" 11226 7.14254351405425e-08 3.74526882202346e-09 7.08485816335687e-09 6.28077692475202e-09 1.70205502132747e-07 9.17180602057924e-08 7.9589512866791e-09 7.50051479887755e-09
"12" 11227 7.06840959926214e-08 3.75154070345194e-09 7.08485816335687e-09 6.22953934884492e-09 1.68161955247535e-07 9.13147843418965e-08 7.97490118584284e-09 7.49803825153029e-09
"13" 11228 7.06896513537975e-08 3.75379258597205e-09 7.09309488335036e-09 6.23380182661985e-09 1.67230637566431e-07 9.12181077898708e-08 7.94256813248249e-09 7.4992077482167e-09
"14" 11229 7.08160770837483e-08 3.81553097230798e-09 7.07740604083706e-09 6.23441372987702e-09 1.67251981432773e-07 9.10033940330938e-08 7.9375172505076e-09 7.46398548558578e-09
"15" 11230 7.0942502813699e-08 3.87726935864391e-09 7.06171719832377e-09 6.23502563313419e-09 1.67273325299115e-07 9.07886802763168e-08 7.93246636853271e-09 7.42876322295486e-09
"16" 11231 7.0831700016315e-08 3.87504745009451e-09 7.04676919192671e-09 6.23674819276574e-09 1.67179778583846e-07 9.04762067299654e-08 7.93246636853271e-09 7.42261480421577e-09
"17" 11232 7.0720897218931e-08 3.87282554154511e-09 7.03182118552965e-09 6.23847075239729e-09 1.67086231868577e-07 9.0163733183614e-08 7.93246636853271e-09 7.41646638547668e-09
"18" 11233 7.0610094421547e-08 3.87060363299571e-09 7.01687317913259e-09 6.24019331202883e-09 1.66992685153308e-07 8.98512596372626e-08 7.93246636853271e-09 7.41031796673759e-09
"19" 11234 7.0499291624163e-08 3.86838172444631e-09 7.00192517273553e-09 6.24191587166038e-09 1.66899138438039e-07 8.95387860909112e-08 7.93246636853271e-09 7.4041695479985e-09
"20" 11235 7.0388488826779e-08 3.86615981589692e-09 6.98697716633847e-09 6.24363843129193e-09 1.6680559172277e-07 8.92263125445599e-08 7.93246636853271e-09 7.39802112925941e-09
"21" 11236 7.0277686029395e-08 3.86393790734752e-09 6.97202915994141e-09 6.24536099092348e-09 1.66712045007501e-07 8.89138389982085e-08 7.93246636853271e-09 7.39187271052032e-09
"22" 11237 7.01668832320111e-08 3.86171599879812e-09 6.95708115354435e-09 6.24708355055502e-09 1.66618498292232e-07 8.86013654518571e-08 7.93246636853271e-09 7.38572429178123e-09
"23" 11238 7.00560804346271e-08 3.85949409024872e-09 6.94213314714729e-09 6.24880611018657e-09 1.66524951576963e-07 8.82888919055057e-08 7.93246636853271e-09 7.37957587304214e-09
"24" 11239 6.99452776372431e-08 3.85727218169932e-09 6.92718514075023e-09 6.25052866981812e-09 1.66431404861694e-07 8.79764183591543e-08 7.93246636853271e-09 7.37342745430305e-09
"25" 11240 6.97622551445691e-08 3.85505027314992e-09 6.92793083923951e-09 6.24109851314854e-09 1.66290663717681e-07 8.79870082357816e-08 7.93834510550732e-09 7.40397173018834e-09
"26" 11241 6.98773137459611e-08 3.85403777993015e-09 6.92793083923951e-09 6.23948910365696e-09 1.66261260871873e-07 8.79975981124089e-08 7.90195652912498e-09 7.21183125239221e-09
"27" 11242 6.99923723473531e-08 3.85302528671038e-09 6.92793083923951e-09 6.23787969416537e-09 1.66231858026065e-07 8.80081879890361e-08 7.86556795274263e-09 7.01969077459608e-09
"28" 11243 7.00213890063789e-08 3.86094538864427e-09 6.92918987796516e-09 6.23998785677416e-09 1.66425798141702e-07 8.80275191208394e-08 7.82524250163857e-09 6.8042894998626e-09
"29" 11244 7.00504056654048e-08 3.86886549057817e-09 6.9304489166908e-09 6.24209601938295e-09 1.6661973825734e-07 8.80468502526427e-08 7.78491705053451e-09 6.58888822512913e-09
"30" 11245 7.00794223244307e-08 3.87678559251206e-09 6.93170795541644e-09 6.24420418199175e-09 1.66813678372977e-07 8.8066181384446e-08 7.74459159943045e-09 6.37348695039565e-09
"31" 11246 7.01084389834566e-08 3.88470569444595e-09 6.93296699414208e-09 6.24631234460054e-09 1.67007618488614e-07 8.80855125162493e-08 7.70426614832639e-09 6.15808567566218e-09
"32" 11247 7.01186856669163e-08 3.89141638105021e-09 6.93121892704533e-09 6.24921255818907e-09 1.67053983023041e-07 8.71974789522798e-08 7.70538015557956e-09 6.14562545685139e-09
"33" 11248 6.99218409271662e-08 3.89808210669841e-09 6.92724835159988e-09 6.23989555165945e-09 1.67097528320784e-07 8.69459996772453e-08 7.68758449400793e-09 6.15143850380588e-09
"34" 11249 6.97249961874162e-08 3.90474783234661e-09 6.92327777615442e-09 6.23057854512984e-09 1.67141073618528e-07 8.66945204022107e-08 7.66978883243629e-09 6.15725155076037e-09
"35" 11250 6.95281514476661e-08 3.91141355799481e-09 6.91930720070897e-09 6.22126153860022e-09 1.67184618916271e-07 8.64430411271761e-08 7.65199317086465e-09 6.16306459771486e-09
"36" 11251 6.9331306707916e-08 3.91807928364301e-09 6.91533662526351e-09 6.21194453207061e-09 1.67228164214015e-07 8.61915618521415e-08 7.63419750929301e-09 6.16887764466935e-09
"37" 11252 6.91027934884392e-08 3.91977246510449e-09 6.91810651045992e-09 6.24785921901636e-09 1.67045425290458e-07 8.5990043620142e-08 7.65672729882543e-09 6.24541912588973e-09
"38" 11253 6.88742802689625e-08 3.92146564656597e-09 6.92087639565634e-09 6.2837739059621e-09 1.66862686366902e-07 8.57885253881424e-08 7.67925708835786e-09 6.32196060711012e-09
"39" 11254 6.86457670494857e-08 3.92315882802746e-09 6.92364628085275e-09 6.31968859290785e-09 1.66679947443346e-07 8.55870071561428e-08 7.70178687789028e-09 6.3985020883305e-09
"40" 11255 6.8417253830009e-08 3.92485200948894e-09 6.92641616604916e-09 6.3556032798536e-09 1.6649720851979e-07 8.53854889241432e-08 7.7243166674227e-09 6.47504356955088e-09
"41" 11256 6.81887406105322e-08 3.92654519095042e-09 6.92918605124558e-09 6.39151796679935e-09 1.66314469596234e-07 8.51839706921437e-08 7.74684645695512e-09 6.55158505077127e-09
"42" 11257 6.79602273910554e-08 3.9282383724119e-09 6.93195593644199e-09 6.4274326537451e-09 1.66131730672677e-07 8.49824524601441e-08 7.76937624648755e-09 6.62812653199165e-09
"43" 11258 6.77317141715787e-08 3.92993155387339e-09 6.9347258216384e-09 6.46334734069084e-09 1.65948991749121e-07 8.47809342281445e-08 7.79190603601997e-09 6.70466801321204e-09
"44" 11259 6.75032009521019e-08 3.93162473533487e-09 6.93749570683482e-09 6.49926202763659e-09 1.65766252825565e-07 8.4579415996145e-08 7.81443582555239e-09 6.78120949443242e-09
"45" 11260 6.72746877326251e-08 3.93331791679635e-09 6.94026559203123e-09 6.53517671458234e-09 1.65583513902009e-07 8.43778977641454e-08 7.83696561508481e-09 6.8577509756528e-09
"46" 11261 6.70461745131484e-08 3.93501109825784e-09 6.94303547722764e-09 6.57109140152809e-09 1.65400774978453e-07 8.41763795321458e-08 7.85949540461723e-09 6.93429245687319e-09
"47" 11262 6.68176612936716e-08 3.93670427971932e-09 6.94580536242406e-09 6.60700608847384e-09 1.65218036054897e-07 8.39748613001462e-08 7.88202519414966e-09 7.01083393809357e-09
"48" 11263 6.65891480741949e-08 3.9383974611808e-09 6.94857524762047e-09 6.64292077541958e-09 1.6503529713134e-07 8.37733430681467e-08 7.90455498368208e-09 7.08737541931395e-09
"49" 11264 6.65548675764494e-08 3.94235751214775e-09 6.94158784160652e-09 6.68243988432574e-09 1.64903636061134e-07 8.36345129806939e-08 7.88362990121467e-09 7.16391690053434e-09
"50" 11265 6.68670085780703e-08 3.95129010730141e-09 7.18104768634247e-09 6.67808956394294e-09 1.65586267136777e-07 8.39596477106133e-08 7.83224812955547e-09 7.18923297377623e-09
"51" 11266 6.65744969044762e-08 3.97928022980642e-09 7.18180310957786e-09 6.67300972765617e-09 1.64422516667684e-07 8.40577128180284e-08 7.70885370932848e-09 7.20571765400223e-09
"52" 11267 6.62819852308822e-08 4.00727035231143e-09 7.18255853281325e-09 6.66792989136939e-09 1.6325876619859e-07 8.41557779254434e-08 7.58545928910149e-09 7.22220233422822e-09
"53" 11268 6.59894735572882e-08 4.03526047481644e-09 7.18331395604863e-09 6.66285005508261e-09 1.62095015729497e-07 8.42538430328585e-08 7.46206486887450e-09 7.23868701445422e-09
"54" 11269 6.56969618836942e-08 4.06325059732145e-09 7.18406937928402e-09 6.65777021879583e-09 1.60931265260404e-07 8.43519081402735e-08 7.3386704486475e-09 7.25517169468022e-09
"55" 11270 6.54044502101002e-08 4.09124071982646e-09 7.1848248025194e-09 6.65269038250905e-09 1.59767514791311e-07 8.44499732476886e-08 7.21527602842051e-09 7.27165637490621e-09
"56" 11271 6.51119385365062e-08 4.11923084233147e-09 7.18558022575479e-09 6.64761054622227e-09 1.58603764322218e-07 8.45480383551037e-08 7.09188160819352e-09 7.28814105513221e-09
"57" 11272 6.48194268629121e-08 4.14722096483648e-09 7.18633564899017e-09 6.64253070993550e-09 1.57440013853125e-07 8.46461034625187e-08 6.96848718796653e-09 7.3046257353582e-09
"58" 11273 6.45269151893181e-08 4.17521108734149e-09 7.18709107222556e-09 6.63745087364872e-09 1.56276263384032e-07 8.47441685699338e-08 6.84509276773953e-09 7.3211104155842e-09
"59" 11274 6.42344035157241e-08 4.2032012098465e-09 7.18784649546094e-09 6.63237103736194e-09 1.55112512914939e-07 8.48422336773488e-08 6.72169834751254e-09 7.3375950958102e-09
"60" 11275 6.39418918421301e-08 4.23119133235151e-09 7.18860191869633e-09 6.62729120107516e-09 1.53948762445846e-07 8.49402987847639e-08 6.59830392728555e-09 7.35407977603619e-09
"61" 11276 6.36493801685361e-08 4.25918145485652e-09 7.18935734193171e-09 6.62221136478838e-09 1.52785011976753e-07 8.50383638921789e-08 6.47490950705856e-09 7.37056445626219e-09
"62" 11277 6.33568684949421e-08 4.28717157736153e-09 7.1901127651671e-09 6.6171315285016e-09 1.5162126150766e-07 8.5136428999594e-08 6.35151508683157e-09 7.38704913648819e-09
"63" 11278 6.30643568213481e-08 4.31516169986654e-09 7.19086818840249e-09 6.61205169221482e-09 1.50457511038567e-07 8.52344941070091e-08 6.22812066660457e-09 7.40353381671418e-09
"64" 11279 6.2771845147754e-08 4.34315182237155e-09 7.19162361163787e-09 6.60697185592805e-09 1.49293760569474e-07 8.53325592144241e-08 6.10472624637758e-09 7.42001849694018e-09
"65" 11280 6.247933347416e-08 4.37114194487656e-09 7.19237903487326e-09 6.60189201964127e-09 1.48130010100381e-07 8.54306243218392e-08 5.98133182615059e-09 7.43650317716618e-09
"66" 11281 6.2186821800566e-08 4.39913206738157e-09 7.19313445810864e-09 6.59681218335449e-09 1.46966259631288e-07 8.55286894292542e-08 5.8579374059236e-09 7.45298785739217e-09
"67" 11282 6.1894310126972e-08 4.42712218988658e-09 7.19388988134403e-09 6.59173234706771e-09 1.45802509162195e-07 8.56267545366693e-08 5.73454298569661e-09 7.46947253761817e-09
"68" 11283 6.17658987574163e-08 4.45110730046858e-09 7.19489224995149e-09 6.56489198385324e-09 1.44828053758973e-07 8.56428860990485e-08 5.63426300737735e-09 7.48612059917677e-09
"69" 11284 6.16374873878605e-08 4.47509241105058e-09 7.19589461855895e-09 6.53805162063877e-09 1.43853598355751e-07 8.56590176614277e-08 5.5339830290581e-09 7.50276866073537e-09
"70" 11285 6.06708488291223e-08 4.50308253355559e-09 7.19665004179434e-09 6.53644221114719e-09 1.40289188779195e-07 8.53705699960166e-08 5.54217567979716e-09 7.4401666313744e-09
"71" 11286 5.9704210270384e-08 4.5310726560606e-09 7.19740546502973e-09 6.5348328016556e-09 1.36724779202639e-07 8.50821223306054e-08 5.55036833053622e-09 7.37756460201342e-09
"72" 11287 5.88115651294482e-08 4.54893784636792e-09 7.34074106893666e-09 6.59304845869676e-09 1.35295963792276e-07 8.48855017198618e-08 5.55036833053622e-09 7.31358664903649e-09
"73" 11288 5.79189199885123e-08 4.56680303667524e-09 7.48407667284359e-09 6.65126411573791e-09 1.33867148381912e-07 8.46888811091181e-08 5.55036833053622e-09 7.24960869605955e-09
"74" 11289 5.72029119008185e-08 4.57355868423557e-09 7.50405110939712e-09 6.64820459945206e-09 1.30533409287013e-07 8.42075623783655e-08 5.55352029988728e-09 7.18563074308262e-09
"75" 11290 5.64869038131246e-08 4.58031433179590e-09 7.52402554595065e-09 6.64514508316621e-09 1.27199670192114e-07 8.37262436476128e-08 5.55667226923833e-09 7.12165279010569e-09
"76" 11291 5.57708957254308e-08 4.58706997935622e-09 7.54399998250418e-09 6.64208556688036e-09 1.23865931097215e-07 8.32449249168601e-08 5.55982423858939e-09 7.05767483712875e-09
"77" 11292 5.50548876377369e-08 4.59382562691655e-09 7.56397441905771e-09 6.63902605059451e-09 1.20532192002317e-07 8.27636061861074e-08 5.56297620794044e-09 6.99369688415182e-09
"78" 11293 5.4338879550043e-08 4.60058127447687e-09 7.58394885561124e-09 6.63596653430866e-09 1.17198452907418e-07 8.22822874553547e-08 5.5661281772915e-09 6.92971893117489e-09
"79" 11294 5.36228714623492e-08 4.6073369220372e-09 7.60392329216477e-09 6.63290701802281e-09 1.13864713812519e-07 8.1800968724602e-08 5.56928014664255e-09 6.86574097819795e-09
"80" 11295 5.29068633746553e-08 4.61409256959753e-09 7.62389772871829e-09 6.62984750173696e-09 1.1053097471762e-07 8.13196499938493e-08 5.57243211599361e-09 6.80176302522102e-09
"81" 11296 5.21908552869615e-08 4.62084821715785e-09 7.64387216527182e-09 6.62678798545111e-09 1.07197235622721e-07 8.08383312630966e-08 5.57558408534466e-09 6.73778507224408e-09
"82" 11297 5.23586283500945e-08 4.59961374221317e-09 7.54334180672979e-09 6.41349733650225e-09 1.06939234649847e-07 8.07535390545696e-08 5.57558408534466e-09 6.70979463384477e-09
"83" 11298 5.25264014132276e-08 4.57837926726849e-09 7.44281144818776e-09 6.20020668755338e-09 1.06681233676972e-07 8.06687468460426e-08 5.57558408534466e-09 6.68180419544546e-09
"84" 11299 5.26941744763607e-08 4.5571447923238e-09 7.34228108964573e-09 5.98691603860452e-09 1.06423232704098e-07 8.05839546375156e-08 5.57558408534466e-09 6.65381375704615e-09
"85" 11300 5.28619475394938e-08 4.53591031737912e-09 7.2417507311037e-09 5.77362538965566e-09 1.06165231731223e-07 8.04991624289885e-08 5.57558408534466e-09 6.62582331864684e-09
"86" 11301 5.27790901315825e-08 4.50792019487411e-09 7.12323608610391e-09 5.56550241960144e-09 1.05822117257326e-07 8.04088065620616e-08 5.57148775997513e-09 6.58836518013998e-09
"87" 11302 5.26962327236711e-08 4.4799300723691e-09 7.00472144110413e-09 5.35737944954722e-09 1.05479002783429e-07 8.03184506951347e-08 5.5673914346056e-09 6.55090704163313e-09
"88" 11303 5.26133753157598e-08 4.45193994986409e-09 6.88620679610435e-09 5.149256479493e-09 1.05135888309532e-07 8.02280948282078e-08 5.56329510923607e-09 6.51344890312627e-09
"89" 11304 5.25439994569222e-08 4.45198491082015e-09 6.88745124771084e-09 5.149256479493e-09 1.0477038120421e-07 8.02149724989391e-08 5.53862320445541e-09 6.46185368688562e-09
"90" 11305 5.24746235980846e-08 4.45202987177622e-09 6.88869569931733e-09 5.149256479493e-09 1.04404874098887e-07 8.02018501696705e-08 5.51395129967475e-09 6.41025847064498e-09
"91" 11306 5.24052477392469e-08 4.45207483273228e-09 6.88994015092383e-09 5.149256479493e-09 1.04039366993564e-07 8.01887278404019e-08 5.48927939489409e-09 6.35866325440433e-09
"92" 11307 5.23358718804093e-08 4.45211979368835e-09 6.89118460253032e-09 5.149256479493e-09 1.03673859888242e-07 8.01756055111332e-08 5.46460749011343e-09 6.30706803816369e-09
"93" 11308 5.23168899877506e-08 4.45883048029261e-09 6.90613260892738e-09 5.16075310872086e-09 1.03527585283725e-07 8.01577622814779e-08 5.43993558533277e-09 6.25812996884168e-09
"94" 11309 5.22979080950919e-08 4.46554116689687e-09 6.92108061532444e-09 5.17224973794872e-09 1.03381310679207e-07 8.01399190518225e-08 5.41526368055211e-09 6.20919189951968e-09
"95" 11310 5.22789262024331e-08 4.47225185350113e-09 6.9360286217215e-09 5.18374636717658e-09 1.0323503607469e-07 8.01220758221672e-08 5.39059177577145e-09 6.16025383019767e-09
"96" 11311 5.22599443097744e-08 4.47896254010539e-09 6.95097662811856e-09 5.19524299640444e-09 1.03088761470173e-07 8.01042325925118e-08 5.36591987099079e-09 6.11131576087567e-09
"97" 11312 5.22409624171157e-08 4.48567322670966e-09 6.96592463451562e-09 5.2067396256323e-09 1.02942486865655e-07 8.00863893628564e-08 5.34124796621013e-09 6.06237769155366e-09
"98" 11313 5.2221980524457e-08 4.49238391331392e-09 6.98087264091267e-09 5.21823625486016e-09 1.02796212261138e-07 8.00685461332011e-08 5.31657606142947e-09 6.01343962223166e-09
"99" 11314 5.22029986317983e-08 4.49909459991818e-09 6.99582064730973e-09 5.22973288408802e-09 1.02649937656621e-07 8.00507029035457e-08 5.2919041566488e-09 5.96450155290965e-09
"100" 11315 5.21840167391396e-08 4.50580528652244e-09 7.01076865370679e-09 5.24122951331588e-09 1.02503663052103e-07 8.00328596738904e-08 5.26723225186814e-09 5.91556348358765e-09
"101" 11316 5.21650348464808e-08 4.51251597312671e-09 7.02571666010385e-09 5.25272614254374e-09 1.02357388447586e-07 8.0015016444235e-08 5.24256034708748e-09 5.86662541426564e-09
"102" 11317 5.21460529538221e-08 4.51922665973097e-09 7.04066466650091e-09 5.2642227717716e-09 1.02211113843069e-07 7.99971732145797e-08 5.21788844230682e-09 5.81768734494364e-09
"103" 11318 5.21270710611634e-08 4.52593734633523e-09 7.05561267289797e-09 5.27571940099947e-09 1.02064839238551e-07 7.99793299849243e-08 5.19321653752616e-09 5.76874927562163e-09
"104" 11319 5.21080891685047e-08 4.53264803293949e-09 7.07056067929503e-09 5.28721603022733e-09 1.01918564634034e-07 7.9961486755269e-08 5.1685446327455e-09 5.71981120629963e-09
"105" 11320 5.2089107275846e-08 4.53935871954375e-09 7.08550868569209e-09 5.29871265945519e-09 1.01772290029517e-07 7.99436435256136e-08 5.14387272796484e-09 5.67087313697762e-09
"106" 11321 5.21364396464348e-08 4.54209436819572e-09 7.09522707791805e-09 5.3150375171578e-09 1.02138524511459e-07 7.9933358966827e-08 5.14359677629827e-09 5.49986108161135e-09
"107" 11322 5.21174577537761e-08 4.54876009384391e-09 7.10893063270862e-09 5.32653414638566e-09 1.02504758993401e-07 7.99286380664402e-08 5.11839336935823e-09 5.50815928503248e-09
"108" 11323 5.20763773552774e-08 4.56662528415124e-09 7.10768618110213e-09 5.32136646749102e-09 1.02914444420657e-07 8.00505314409171e-08 5.11786186719886e-09 5.51645748845362e-09
"109" 11324 5.2113739349954e-08 4.56662528415124e-09 7.11768555531152e-09 5.33068347402063e-09 1.03076478172164e-07 8.00912786269087e-08 5.09288126170945e-09 5.5279115919106e-09
"110" 11325 5.21511013446306e-08 4.56662528415124e-09 7.12768492952091e-09 5.34000048055025e-09 1.03238511923671e-07 8.01320258129003e-08 5.06790065622005e-09 5.53936569536759e-09
"111" 11326 5.21884633393071e-08 4.56662528415124e-09 7.1376843037303e-09 5.34931748707986e-09 1.03400545675178e-07 8.01727729988918e-08 5.04292005073065e-09 5.55081979882457e-09
"112" 11327 5.22258253339837e-08 4.56662528415124e-09 7.14768367793969e-09 5.35863449360948e-09 1.03562579426684e-07 8.02135201848834e-08 5.01793944524124e-09 5.56227390228155e-09
"113" 11328 5.22631873286603e-08 4.56662528415124e-09 7.15768305214907e-09 5.36795150013909e-09 1.03724613178191e-07 8.0254267370875e-08 4.99295883975184e-09 5.57372800573854e-09
"114" 11329 5.23005493233369e-08 4.56662528415124e-09 7.16768242635846e-09 5.37726850666871e-09 1.03886646929698e-07 8.02950145568665e-08 4.96797823426244e-09 5.58518210919552e-09
"115" 11330 5.23379113180135e-08 4.56662528415124e-09 7.17768180056785e-09 5.38658551319832e-09 1.04048680681205e-07 8.03357617428581e-08 4.94299762877303e-09 5.5966362126525e-09
"116" 11331 5.23752733126901e-08 4.56662528415124e-09 7.18768117477724e-09 5.39590251972794e-09 1.04210714432711e-07 8.03765089288497e-08 4.91801702328363e-09 5.60809031610949e-09
"117" 11332 5.24126353073666e-08 4.56662528415124e-09 7.19768054898663e-09 5.40521952625755e-09 1.04372748184218e-07 8.04172561148412e-08 4.89303641779423e-09 5.61954441956647e-09
"118" 11333 5.24499973020432e-08 4.56662528415124e-09 7.20767992319602e-09 5.41453653278717e-09 1.04534781935725e-07 8.04580033008328e-08 4.86805581230482e-09 5.63099852302345e-09
"119" 11334 5.24873592967198e-08 4.56662528415124e-09 7.21767929740541e-09 5.42385353931678e-09 1.04696815687232e-07 8.04987504868244e-08 4.84307520681542e-09 5.64245262648044e-09
"120" 11335 5.25247212913964e-08 4.56662528415124e-09 7.2276786716148e-09 5.4331705458464e-09 1.04858849438738e-07 8.05394976728159e-08 4.81809460132602e-09 5.65390672993742e-09
"121" 11336 5.2562083286073e-08 4.56662528415124e-09 7.23767804582419e-09 5.44248755237602e-09 1.05020883190245e-07 8.05802448588075e-08 4.79311399583661e-09 5.6653608333944e-09
"122" 11337 5.25994452807495e-08 4.56662528415124e-09 7.24767742003358e-09 5.45180455890563e-09 1.05182916941752e-07 8.06209920447991e-08 4.76813339034721e-09 5.67681493685139e-09
"123" 11338 5.26368072754261e-08 4.56662528415124e-09 7.25767679424297e-09 5.46112156543525e-09 1.05344950693259e-07 8.06617392307906e-08 4.74315278485781e-09 5.68826904030837e-09
"124" 11339 5.26741692701027e-08 4.56662528415124e-09 7.26767616845236e-09 5.47043857196486e-09 1.05506984444765e-07 8.07024864167822e-08 4.7181721793684e-09 5.69972314376535e-09
"125" 11340 5.27115312647793e-08 4.56662528415124e-09 7.27767554266175e-09 5.47975557849448e-09 1.05669018196272e-07 8.07432336027738e-08 4.693191573879e-09 5.71117724722234e-09
"126" 11341 5.21253535118554e-08 4.562695207155e-09 7.289912012339e-09 5.47105047522203e-09 1.05693559616713e-07 8.07784171303655e-08 4.63770327626338e-09 5.7202923573065e-09
"127" 11342 5.15391757589315e-08 4.55876513015876e-09 7.30214848201624e-09 5.46234537194959e-09 1.05718101037154e-07 8.08136006579571e-08 4.58221497864776e-09 5.72940746739067e-09
"128" 11343 5.16455729144433e-08 4.51898477666504e-09 7.31413314394836e-09 5.47721566035109e-09 1.05677548258113e-07 8.08418831946203e-08 4.58221497864776e-09 5.74019943639784e-09
"129" 11344 5.17519700699551e-08 4.47920442317132e-09 7.32611780588048e-09 5.49208594875259e-09 1.05636995479073e-07 8.08701657312836e-08 4.58221497864776e-09 5.75099140540501e-09
"130" 11345 5.24857599998445e-08 4.45317724786418e-09 7.3281030936032e-09 5.50188086337416e-09 1.05581410929663e-07 8.09580706982816e-08 4.60719558413717e-09 5.77596349774291e-09
"131" 11346 5.3219549929734e-08 4.42715007255704e-09 7.33008838132593e-09 5.51167577799572e-09 1.05525826380254e-07 8.10459756652797e-08 4.63217618962657e-09 5.80093559008082e-09
"132" 11347 5.3218937610616e-08 4.39726984648068e-09 7.36577597225801e-09 5.52872568909547e-09 1.06114985587583e-07 8.10390746743512e-08 4.63604971354547e-09 5.84113677476442e-09
"133" 11348 5.32183252914979e-08 4.36738962040433e-09 7.40146356319008e-09 5.54577560019521e-09 1.06704144794912e-07 8.10321736834228e-08 4.63992323746436e-09 5.88133795944802e-09
"134" 11349 5.32177129723799e-08 4.33750939432797e-09 7.43715115412216e-09 5.56282551129496e-09 1.07293304002241e-07 8.10252726924944e-08 4.64379676138326e-09 5.92153914413163e-09
"135" 11350 5.32171006532619e-08 4.30762916825162e-09 7.47283874505423e-09 5.57987542239471e-09 1.07882463209571e-07 8.10183717015659e-08 4.64767028530216e-09 5.96174032881523e-09
"136" 11351 5.32164883341439e-08 4.27774894217526e-09 7.5085263359863e-09 5.59692533349445e-09 1.084716224169e-07 8.10114707106375e-08 4.65154380922105e-09 6.00194151349884e-09
"137" 11352 5.32158760150259e-08 4.24786871609891e-09 7.54421392691838e-09 5.6139752445942e-09 1.09060781624229e-07 8.1004569719709e-08 4.65541733313995e-09 6.04214269818244e-09
"138" 11353 5.32152636959078e-08 4.21798849002255e-09 7.57990151785045e-09 5.63102515569394e-09 1.09649940831558e-07 8.09976687287806e-08 4.65929085705885e-09 6.08234388286605e-09
"139" 11354 5.32146513767898e-08 4.1881082639462e-09 7.61558910878253e-09 5.64807506679369e-09 1.10239100038888e-07 8.09907677378522e-08 4.66316438097774e-09 6.12254506754965e-09
"140" 11355 5.32102316756218e-08 4.19926276764926e-09 7.64754820726817e-09 5.65957169602155e-09 1.10342241003921e-07 8.09566287607539e-08 4.65844260088536e-09 6.14829963007303e-09
"141" 11356 5.32058119744538e-08 4.21041727135232e-09 7.67950730575382e-09 5.67106832524941e-09 1.10445381968954e-07 8.09224897836557e-08 4.65372082079298e-09 6.17405419259641e-09
"142" 11357 5.33189891293778e-08 4.22542482582459e-09 7.69146765582069e-09 5.66896016264062e-09 1.09841644155626e-07 8.14866830845772e-08 4.66107541594544e-09 6.16827558211948e-09
"143" 11358 5.34321662843017e-08 4.24043238029687e-09 7.70342800588755e-09 5.66685200003183e-09 1.09237906342298e-07 8.20508763854987e-08 4.66843001109791e-09 6.16249697164254e-09
"144" 11359 5.35453434392257e-08 4.25543993476914e-09 7.71538835595442e-09 5.66474383742304e-09 1.08634168528971e-07 8.26150696864202e-08 4.67578460625037e-09 6.15671836116561e-09
"145" 11360 5.36585205941497e-08 4.27044748924141e-09 7.72734870602129e-09 5.66263567481425e-09 1.08030430715643e-07 8.31792629873417e-08 4.68313920140283e-09 6.15093975068868e-09
"146" 11361 5.37716977490736e-08 4.28545504371369e-09 7.73930905608816e-09 5.66052751220546e-09 1.07426692902315e-07 8.37434562882632e-08 4.69049379655529e-09 6.14516114021174e-09
"147" 11362 5.38848749039976e-08 4.30046259818596e-09 7.75126940615503e-09 5.65841934959666e-09 1.06822955088988e-07 8.43076495891847e-08 4.69784839170775e-09 6.13938252973481e-09
"148" 11363 5.39980520589216e-08 4.31547015265823e-09 7.76322975622189e-09 5.65631118698787e-09 1.0621921727566e-07 8.48718428901062e-08 4.70520298686022e-09 6.13360391925787e-09
"149" 11364 5.34740603905338e-08 4.32922333084481e-09 7.77816803787285e-09 5.65710323796762e-09 1.06265908868653e-07 8.54052682459822e-08 4.71749196296881e-09 6.14192795003717e-09
"150" 11365 5.2950068722146e-08 4.34297650903139e-09 7.79310631952381e-09 5.65789528894736e-09 1.06312600461646e-07 8.59386936018581e-08 4.7297809390774e-09 6.15025198081647e-09
"151" 11366 5.23254132158784e-08 4.3417221327457e-09 7.7961037006001e-09 5.6586873399271e-09 1.06290576394899e-07 8.59315301587461e-08 4.72999353994116e-09 6.15025198081647e-09
"152" 11367 5.17007577096108e-08 4.34046775646e-09 7.7991010816764e-09 5.65947939090684e-09 1.06268552328152e-07 8.59243667156342e-08 4.73020614080491e-09 6.15025198081647e-09
"153" 11368 5.10761022033432e-08 4.33921338017431e-09 7.80209846275269e-09 5.66027144188658e-09 1.06246528261404e-07 8.59172032725223e-08 4.73041874166866e-09 6.15025198081647e-09
"154" 11369 5.04514466970756e-08 4.33795900388861e-09 7.80509584382898e-09 5.66106349286633e-09 1.06224504194657e-07 8.59100398294103e-08 4.73063134253241e-09 6.15025198081647e-09
"155" 11370 4.9826791190808e-08 4.33670462760292e-09 7.80809322490527e-09 5.66185554384607e-09 1.0620248012791e-07 8.59028763862984e-08 4.73084394339616e-09 6.15025198081647e-09
"156" 11371 4.92021356845404e-08 4.33545025131722e-09 7.81109060598156e-09 5.66264759482581e-09 1.06180456061162e-07 8.58957129431865e-08 4.73105654425991e-09 6.15025198081647e-09
"157" 11372 4.85774801782728e-08 4.33419587503153e-09 7.81408798705785e-09 5.66343964580555e-09 1.06158431994415e-07 8.58885495000745e-08 4.73126914512366e-09 6.15025198081647e-09
"158" 11373 4.79528246720052e-08 4.33294149874583e-09 7.81708536813415e-09 5.66423169678530e-09 1.06136407927668e-07 8.58813860569626e-08 4.73148174598741e-09 6.15025198081647e-09
"159" 11374 4.73281691657376e-08 4.33168712246014e-09 7.82008274921044e-09 5.66502374776504e-09 1.06114383860921e-07 8.58742226138507e-08 4.73169434685116e-09 6.15025198081647e-09
"160" 11375 4.670351365947e-08 4.33043274617444e-09 7.82308013028673e-09 5.66581579874478e-09 1.06092359794173e-07 8.58670591707387e-08 4.73190694771491e-09 6.15025198081647e-09
"161" 11376 4.60788581532024e-08 4.32917836988875e-09 7.82607751136302e-09 5.66660784972452e-09 1.06070335727426e-07 8.58598957276268e-08 4.73211954857867e-09 6.15025198081647e-09
"162" 11377 4.60861123179589e-08 4.32796895455912e-09 7.82907489243931e-09 5.63837991479155e-09 1.04269295127611e-07 8.4920421575678e-08 4.67970752164288e-09 6.14708747166124e-09
"163" 11378 4.60061244898862e-08 4.32502139681194e-09 7.82411167313249e-09 5.63366483645676e-09 1.04037818339744e-07 8.49712640637815e-08 4.68352789534584e-09 6.14627056499821e-09
"164" 11379 4.60176157129229e-08 4.31710129487805e-09 7.82188916478379e-09 5.62894975812197e-09 1.03739303598776e-07 8.49144187442254e-08 4.64582505871497e-09 6.14545365833518e-09
"165" 11380 4.60291069359597e-08 4.30918119294415e-09 7.81966665643508e-09 5.62423467978718e-09 1.03440788857809e-07 8.48575734246694e-08 4.60812222208411e-09 6.14463675167215e-09
"166" 11381 4.60262033954843e-08 4.33050558980097e-09 7.81344439840262e-09 5.62060941280152e-09 1.03142274116841e-07 8.47429846260814e-08 4.56632306008372e-09 6.14698435416435e-09
"167" 11382 4.60904090802622e-08 4.35166512981888e-09 7.80722214037016e-09 5.61936476126192e-09 1.02920003508587e-07 8.46228321690935e-08 4.53334200354523e-09 6.22424804173449e-09
"168" 11383 4.61546147650401e-08 4.37282466983679e-09 7.80099988233769e-09 5.61812010972233e-09 1.02697732900332e-07 8.45026797121056e-08 4.50036094700675e-09 6.30151172930463e-09
"169" 11384 4.6218820449818e-08 4.3939842098547e-09 7.79477762430523e-09 5.61687545818273e-09 1.02475462292078e-07 8.43825272551177e-08 4.46737989046827e-09 6.37877541687477e-09
"170" 11385 4.62830261345958e-08 4.41514374987261e-09 7.78855536627277e-09 5.61563080664314e-09 1.02253191683823e-07 8.42623747981298e-08 4.43439883392979e-09 6.45603910444491e-09
"171" 11386 4.63472318193737e-08 4.43630328989052e-09 7.78233310824031e-09 5.61438615510354e-09 1.02030921075569e-07 8.41422223411419e-08 4.4014177773913e-09 6.53330279201505e-09
"172" 11387 4.64114375041516e-08 4.45746282990843e-09 7.77611085020785e-09 5.61314150356395e-09 1.01808650467314e-07 8.4022069884154e-08 4.36843672085282e-09 6.61056647958519e-09
"173" 11388 4.64756431889295e-08 4.47862236992634e-09 7.76988859217538e-09 5.61189685202435e-09 1.0158637985906e-07 8.39019174271661e-08 4.33545566431434e-09 6.68783016715533e-09
"174" 11389 4.65398488737073e-08 4.49978190994425e-09 7.76366633414292e-09 5.61065220048476e-09 1.01364109250805e-07 8.37817649701782e-08 4.30247460777586e-09 6.76509385472547e-09
"175" 11390 4.66040545584852e-08 4.52094144996216e-09 7.75744407611046e-09 5.60940754894516e-09 1.01141838642551e-07 8.36616125131903e-08 4.26949355123738e-09 6.8423575422956e-09
"176" 11391 4.66682602432631e-08 4.54210098998007e-09 7.75122181807799e-09 5.60816289740557e-09 1.00919568034296e-07 8.35414600562025e-08 4.23651249469889e-09 6.91962122986574e-09
"177" 11392 4.6732465928041e-08 4.56326052999798e-09 7.74499956004553e-09 5.60691824586597e-09 1.00697297426042e-07 8.34213075992146e-08 4.20353143816041e-09 6.99688491743588e-09
"178" 11393 4.67966716128188e-08 4.58442007001589e-09 7.73877730201307e-09 5.60567359432638e-09 1.00475026817787e-07 8.33011551422267e-08 4.17055038162193e-09 7.07414860500602e-09
"179" 11394 4.68608772975967e-08 4.6055796100338e-09 7.73255504398061e-09 5.60442894278678e-09 1.00252756209533e-07 8.31810026852388e-08 4.13756932508345e-09 7.15141229257616e-09
"180" 11395 4.69250829823746e-08 4.62673915005171e-09 7.72633278594815e-09 5.60318429124719e-09 1.00030485601278e-07 8.30608502282509e-08 4.10458826854496e-09 7.2286759801463e-09
"181" 11396 4.69892886671524e-08 4.64789869006962e-09 7.72011052791568e-09 5.60193963970759e-09 9.98082149930239e-08 8.2940697771263e-08 4.07160721200648e-09 7.30593966771644e-09
"182" 11397 4.70534943519303e-08 4.66905823008753e-09 7.71388826988322e-09 5.600694988168e-09 9.95859443847694e-08 8.28205453142751e-08 4.038626155468e-09 7.38320335528658e-09
"183" 11398 4.71177000367082e-08 4.69021777010544e-09 7.70766601185076e-09 5.5994503366284e-09 9.93636737765149e-08 8.27003928572872e-08 4.00564509892952e-09 7.46046704285672e-09
"184" 11399 4.71366819293669e-08 4.71932738602795e-09 7.69172536159234e-09 5.60081260081481e-09 9.83842544302282e-08 8.24874556060915e-08 4.01213909004009e-09 7.51874367549543e-09
"185" 11400 4.71556638220256e-08 4.74843700195046e-09 7.67578471133391e-09 5.60217486500121e-09 9.74048350839415e-08 8.22745183548957e-08 4.01863308115067e-09 7.57702030813415e-09
"186" 11401 4.71556638220256e-08 4.77754661787297e-09 7.65984406107549e-09 5.594220122658e-09 9.70290079397039e-08 8.2193677484251e-08 4.00701250939398e-09 7.58273865477537e-09
"187" 11402 4.72036131981644e-08 4.8186113216231e-09 7.65984406107549e-09 5.58751003185438e-09 9.6735837954381e-08 8.22016836853761e-08 3.99294112168031e-09 7.51037640718341e-09
"188" 11403 4.72988996313238e-08 4.81787068543997e-09 7.65988296005989e-09 5.57529281173623e-09 9.62931404689596e-08 8.21264064731314e-08 4.00809376760498e-09 7.47172294463198e-09
"189" 11404 4.73941860644833e-08 4.81713004925683e-09 7.65992185904429e-09 5.56307559161808e-09 9.58504429835383e-08 8.20511292608866e-08 4.02324641352965e-09 7.43306948208055e-09
"190" 11405 4.74894724976428e-08 4.8163894130737e-09 7.65996075802869e-09 5.55085837149994e-09 9.54077454981169e-08 8.19758520486418e-08 4.03839905945433e-09 7.39441601952912e-09
"191" 11406 4.75847589308022e-08 4.81564877689057e-09 7.65999965701309e-09 5.53864115138179e-09 9.49650480126955e-08 8.1900574836397e-08 4.053551705379e-09 7.35576255697769e-09
"192" 11407 4.76800453639617e-08 4.81490814070743e-09 7.66003855599749e-09 5.52642393126364e-09 9.45223505272741e-08 8.18252976241522e-08 4.06870435130367e-09 7.31710909442626e-09
"193" 11408 4.77753317971212e-08 4.8141675045243e-09 7.66007745498189e-09 5.51420671114549e-09 9.40796530418527e-08 8.17500204119074e-08 4.08385699722835e-09 7.27845563187483e-09
"194" 11409 4.78706182302806e-08 4.81342686834117e-09 7.66011635396629e-09 5.50198949102734e-09 9.36369555564314e-08 8.16747431996627e-08 4.09900964315302e-09 7.2398021693234e-09
"195" 11410 4.79659046634401e-08 4.81268623215803e-09 7.66015525295069e-09 5.48977227090919e-09 9.319425807101e-08 8.15994659874179e-08 4.11416228907769e-09 7.20114870677197e-09
"196" 11411 4.80611910965996e-08 4.8119455959749e-09 7.66019415193509e-09 5.47755505079105e-09 9.27515605855886e-08 8.15241887751731e-08 4.12931493500237e-09 7.16249524422054e-09
"197" 11412 4.8156477529759e-08 4.81120495979177e-09 7.66023305091949e-09 5.4653378306729e-09 9.23088631001672e-08 8.14489115629283e-08 4.14446758092704e-09 7.12384178166911e-09
"198" 11413 4.81157378292628e-08 4.75544951956207e-09 7.66401016709641e-09 5.44901743547713e-09 9.22826439730871e-08 8.11288793457082e-08 4.17773478971898e-09 7.15789454761362e-09
"199" 11414 4.80749981287666e-08 4.69969407933237e-09 7.66778728327334e-09 5.43269704028136e-09 9.22564248460071e-08 8.08088471284881e-08 4.21100199851092e-09 7.19194731355814e-09
"200" 11415 4.80342584282704e-08 4.64393863910267e-09 7.67156439945027e-09 5.41637664508559e-09 9.2230205718927e-08 8.0488814911268e-08 4.24426920730286e-09 7.22600007950265e-09
"201" 11416 4.79935187277742e-08 4.58818319887297e-09 7.6753415156272e-09 5.40005624988983e-09 9.22039865918469e-08 8.01687826940478e-08 4.27753641609479e-09 7.26005284544717e-09
"202" 11417 4.7952779027278e-08 4.53242775864327e-09 7.67911863180412e-09 5.38373585469406e-09 9.21777674647668e-08 7.98487504768277e-08 4.31080362488673e-09 7.29410561139168e-09
"203" 11418 4.79120393267817e-08 4.47667231841357e-09 7.68289574798105e-09 5.36741545949829e-09 9.21515483376867e-08 7.95287182596076e-08 4.34407083367867e-09 7.3281583773362e-09
"204" 11419 4.78712996262855e-08 4.42091687818387e-09 7.68667286415798e-09 5.35109506430252e-09 9.21253292106067e-08 7.92086860423875e-08 4.37733804247061e-09 7.36221114328071e-09
"205" 11420 4.78305599257893e-08 4.36516143795417e-09 7.6904499803349e-09 5.33477466910676e-09 9.20991100835266e-08 7.88886538251674e-08 4.41060525126255e-09 7.39626390922523e-09
"206" 11421 4.79486309472255e-08 4.36138332211174e-09 7.70642952957773e-09 5.33704213441287e-09 9.2124635174831e-08 7.83620259348595e-08 4.44592062273925e-09 7.40706448735179e-09
"207" 11422 4.80667019686618e-08 4.3576052062693e-09 7.72240907882055e-09 5.33930959971897e-09 9.21501602661355e-08 7.78353980445516e-08 4.48123599421596e-09 7.41786506547835e-09
"208" 11423 4.8184772990098e-08 4.35382709042686e-09 7.73838862806337e-09 5.34157706502508e-09 9.21756853574399e-08 7.73087701542437e-08 4.51655136569266e-09 7.4286656436049e-09
"209" 11424 4.81509666576968e-08 4.35006396156977e-09 7.73863557343545e-09 5.34191651544497e-09 9.24693069196652e-08 7.67719737663151e-08 4.51844007772961e-09 7.40709031470995e-09
"210" 11425 4.81074369827261e-08 4.34826587121081e-09 7.75457622369388e-09 5.34225596586486e-09 9.51964873770842e-08 7.62418891126402e-08 4.51844007772961e-09 7.38334798289418e-09
"211" 11426 4.80639073077553e-08 4.34646778085184e-09 7.7705168739523e-09 5.34259541628475e-09 9.79236678345031e-08 7.57118044589653e-08 4.51844007772961e-09 7.3596056510784e-09
"212" 11427 4.80203776327846e-08 4.34466969049287e-09 7.78645752421072e-09 5.34293486670464e-09 1.00650848291922e-07 7.51817198052904e-08 4.51844007772961e-09 7.33586331926263e-09
"213" 11428 4.79768479578138e-08 4.34287160013391e-09 7.80239817446915e-09 5.34327431712453e-09 1.03378028749341e-07 7.46516351516155e-08 4.51844007772961e-09 7.31212098744686e-09
"214" 11429 4.7933318282843e-08 4.34107350977494e-09 7.81833882472757e-09 5.34361376754442e-09 1.0610520920676e-07 7.41215504979407e-08 4.51844007772961e-09 7.28837865563108e-09
"215" 11430 4.78897886078723e-08 4.33927541941598e-09 7.83427947498599e-09 5.34395321796431e-09 1.08832389664179e-07 7.35914658442658e-08 4.51844007772961e-09 7.26463632381531e-09
"216" 11431 4.78462589329015e-08 4.33747732905701e-09 7.85022012524442e-09 5.3442926683842e-09 1.11559570121598e-07 7.30613811905909e-08 4.51844007772961e-09 7.24089399199953e-09
"217" 11432 4.78027292579308e-08 4.33567923869805e-09 7.86616077550284e-09 5.34463211880409e-09 1.14286750579017e-07 7.2531296536916e-08 4.51844007772961e-09 7.21715166018376e-09
"218" 11433 4.775919958296e-08 4.33388114833908e-09 7.88210142576126e-09 5.34497156922398e-09 1.17013931036436e-07 7.20012118832411e-08 4.51844007772961e-09 7.19340932836798e-09
"219" 11434 4.77156699079893e-08 4.33208305798011e-09 7.89804207601969e-09 5.34531101964387e-09 1.19741111493855e-07 7.14711272295663e-08 4.51844007772961e-09 7.16966699655221e-09
"220" 11435 4.76721402330185e-08 4.33028496762115e-09 7.91398272627811e-09 5.34565047006376e-09 1.22468291951274e-07 7.09410425758914e-08 4.51844007772961e-09 7.14592466473644e-09
"221" 11436 4.76380470645927e-08 4.32023497035023e-09 7.91768690685929e-09 5.31769945047491e-09 1.25091051559909e-07 7.04338618785527e-08 4.50254332878181e-09 7.14626003652104e-09
"222" 11437 4.76244472630863e-08 4.32221499583371e-09 7.92962780743396e-09 5.31577143558869e-09 1.27812400756467e-07 7.04183189792068e-08 4.49368227369084e-09 7.14659540830564e-09
"223" 11438 4.76108474615798e-08 4.32419502131718e-09 7.94156870800862e-09 5.31384342070247e-09 1.30533749953026e-07 7.04027760798609e-08 4.48482121859988e-09 7.14693078009024e-09
"224" 11439 4.76554683074448e-08 4.3801752663272e-09 7.96253092605047e-09 5.32436338872117e-09 1.30534313800363e-07 7.05695572348865e-08 4.47978053721187e-09 7.14709416142284e-09
"225" 11440 4.80936791261049e-08 4.38389343422822e-09 7.99441222656732e-09 5.36208401539949e-09 1.30586170289182e-07 7.06237320679873e-08 4.5519198873853e-09 7.34501324969591e-09
"226" 11441 4.8531889944765e-08 4.38761160212924e-09 8.02629352708416e-09 5.3998046420778e-09 1.30638026778001e-07 7.06779069010882e-08 4.62405923755873e-09 7.54293233796897e-09
"227" 11442 4.8970100763425e-08 4.39132977003026e-09 8.05817482760101e-09 5.43752526875611e-09 1.30689883266819e-07 7.0732081734189e-08 4.69619858773217e-09 7.74085142624204e-09
"228" 11443 4.94083115820851e-08 4.39504793793128e-09 8.09005612811786e-09 5.47524589543443e-09 1.30741739755638e-07 7.07862565672898e-08 4.7683379379056e-09 7.9387705145151e-09
"229" 11444 4.98465224007452e-08 4.3987661058323e-09 8.1219374286347e-09 5.51296652211274e-09 1.30793596244457e-07 7.08404314003907e-08 4.84047728807903e-09 8.13668960278816e-09
"230" 11445 5.02847332194053e-08 4.40248427373332e-09 8.15381872915155e-09 5.55068714879105e-09 1.30845452733276e-07 7.08946062334915e-08 4.91261663825246e-09 8.33460869106123e-09
"231" 11446 5.07229440380653e-08 4.40620244163434e-09 8.1857000296684e-09 5.58840777546937e-09 1.30897309222095e-07 7.09487810665924e-08 4.98475598842589e-09 8.53252777933429e-09
"232" 11447 5.11611548567254e-08 4.40992060953536e-09 8.21758133018525e-09 5.62612840214768e-09 1.30949165710914e-07 7.10029558996932e-08 5.05689533859933e-09 8.73044686760735e-09
"233" 11448 5.15993656753855e-08 4.41363877743638e-09 8.24946263070209e-09 5.66384902882599e-09 1.31001022199733e-07 7.10571307327941e-08 5.12903468877276e-09 8.92836595588042e-09
"234" 11449 5.20375764940456e-08 4.4173569453374e-09 8.28134393121894e-09 5.70156965550431e-09 1.31052878688551e-07 7.11113055658949e-08 5.20117403894619e-09 9.12628504415348e-09
"235" 11450 5.24757873127057e-08 4.42107511323842e-09 8.31322523173579e-09 5.73929028218262e-09 1.3110473517737e-07 7.11654803989958e-08 5.27331338911962e-09 9.32420413242655e-09
"236" 11451 5.29139981313657e-08 4.42479328113945e-09 8.34510653225263e-09 5.77701090886094e-09 1.31156591666189e-07 7.12196552320966e-08 5.34545273929305e-09 9.52212322069961e-09
"237" 11452 5.33522089500258e-08 4.42851144904046e-09 8.37698783276948e-09 5.81473153553925e-09 1.31208448155008e-07 7.12738300651974e-08 5.41759208946649e-09 9.72004230897267e-09
"238" 11453 5.37904197686859e-08 4.43222961694149e-09 8.40886913328633e-09 5.85245216221756e-09 1.31260304643827e-07 7.13280048982983e-08 5.48973143963992e-09 9.91796139724574e-09
"239" 11454 5.4228630587346e-08 4.43594778484251e-09 8.44075043380317e-09 5.89017278889588e-09 1.31312161132646e-07 7.13821797313991e-08 5.56187078981335e-09 1.01158804855188e-08
"240" 11455 5.4666841406006e-08 4.43966595274353e-09 8.47263173432002e-09 5.92789341557419e-09 1.31364017621464e-07 7.14363545645e-08 5.63401013998678e-09 1.03137995737919e-08
"241" 11456 5.51050522246661e-08 4.44338412064455e-09 8.50451303483687e-09 5.9656140422525e-09 1.31415874110283e-07 7.14905293976008e-08 5.70614949016021e-09 1.05117186620649e-08
"242" 11457 5.55432630433262e-08 4.44710228854557e-09 8.53639433535372e-09 6.00333466893082e-09 1.31467730599102e-07 7.15447042307017e-08 5.77828884033365e-09 1.0709637750338e-08
"243" 11458 5.5799206528636e-08 4.45004984629274e-09 8.57202844018224e-09 6.01740844384573e-09 1.2966538493996e-07 7.15073102827167e-08 5.85319790775968e-09 1.08909087770525e-08
"244" 11459 5.570235944567e-08 4.44903735307298e-09 8.57178149481016e-09 5.99564345441119e-09 1.2786462830513e-07 7.14521808090386e-08 5.85071434276053e-09 1.08827223002476e-08
"245" 11460 5.53592219874635e-08 4.43301730538093e-09 8.56952981222315e-09 5.98700534872136e-09 1.27594974563272e-07 7.14254290401804e-08 5.81900674412304e-09 1.08903583692189e-08
"246" 11461 5.60088654807506e-08 4.4292691635092e-09 8.57627027286502e-09 5.99088222351905e-09 1.27271875308282e-07 7.13445881695357e-08 5.79223352644167e-09 1.08938668592781e-08
"247" 11462 5.66585089740378e-08 4.42552102163747e-09 8.58301073350689e-09 5.99475909831674e-09 1.26948776053293e-07 7.12637472988911e-08 5.76546030876031e-09 1.08973753493374e-08
"248" 11463 5.73081524673249e-08 4.42177287976574e-09 8.58975119414876e-09 5.99863597311444e-09 1.26625676798304e-07 7.11829064282464e-08 5.73868709107895e-09 1.09008838393966e-08
"249" 11464 5.79577959606121e-08 4.41802473789401e-09 8.59649165479063e-09 6.00251284791213e-09 1.26302577543315e-07 7.11020655576017e-08 5.71191387339758e-09 1.09043923294558e-08
"250" 11465 5.86074394538992e-08 4.41427659602228e-09 8.6032321154325e-09 6.00638972270982e-09 1.25979478288325e-07 7.1021224686957e-08 5.68514065571622e-09 1.0907900819515e-08
"251" 11466 5.92570829471864e-08 4.41052845415055e-09 8.60997257607437e-09 6.01026659750751e-09 1.25656379033336e-07 7.09403838163123e-08 5.65836743803485e-09 1.09114093095743e-08
"252" 11467 5.99067264404735e-08 4.40678031227883e-09 8.61671303671624e-09 6.01414347230521e-09 1.25333279778347e-07 7.08595429456677e-08 5.63159422035349e-09 1.09149177996335e-08
"253" 11468 6.05563699337606e-08 4.4030321704071e-09 8.62345349735811e-09 6.0180203471029e-09 1.25010180523357e-07 7.0778702075023e-08 5.60482100267213e-09 1.09184262896927e-08
"254" 11469 6.12060134270478e-08 4.39928402853537e-09 8.63019395799998e-09 6.02189722190059e-09 1.24687081268368e-07 7.06978612043783e-08 5.57804778499076e-09 1.0921934779752e-08
"255" 11470 6.22994242557845e-08 4.41054344113591e-09 8.63818373262139e-09 6.02915221837877e-09 1.24676761229453e-07 7.06170203337336e-08 5.5706931898383e-09 1.09262687855936e-08
"256" 11471 6.33928350845212e-08 4.42180285373645e-09 8.6461735072428e-09 6.03640721485695e-09 1.24666441190538e-07 7.05361794630889e-08 5.56333859468584e-09 1.09306027914352e-08
"257" 11472 6.44862459132579e-08 4.433062266337e-09 8.65416328186421e-09 6.04366221133513e-09 1.24656121151623e-07 7.04553385924442e-08 5.55598399953338e-09 1.09349367972769e-08
"258" 11473 6.55796567419946e-08 4.44432167893754e-09 8.66215305648562e-09 6.05091720781331e-09 1.24645801112708e-07 7.03744977217996e-08 5.54862940438091e-09 1.09392708031185e-08
"259" 11474 6.66730675707313e-08 4.45558109153809e-09 8.67014283110704e-09 6.05817220429148e-09 1.24635481073793e-07 7.02936568511549e-08 5.54127480922845e-09 1.09436048089602e-08
"260" 11475 6.7766478399468e-08 4.46684050413863e-09 8.67813260572845e-09 6.06542720076966e-09 1.24625161034878e-07 7.02128159805102e-08 5.53392021407599e-09 1.09479388148018e-08
"261" 11476 6.88598892282047e-08 4.47809991673917e-09 8.68612238034986e-09 6.07268219724784e-09 1.24614840995963e-07 7.01319751098655e-08 5.52656561892353e-09 1.09522728206435e-08
"262" 11477 6.99533000569414e-08 4.48935932933972e-09 8.69411215497127e-09 6.07993719372602e-09 1.24604520957048e-07 7.00511342392208e-08 5.51921102377107e-09 1.09566068264851e-08
"263" 11478 7.10467108856781e-08 4.50061874194026e-09 8.70210192959268e-09 6.0871921902042e-09 1.24594200918133e-07 6.99702933685761e-08 5.5118564286186e-09 1.09609408323268e-08
"264" 11479 7.20015772274002e-08 4.51190812851151e-09 8.70487181478910e-09 6.1038564983267e-09 1.24064631707991e-07 6.99420923846254e-08 5.51835041972918e-09 1.0963288434819e-08
"265" 11480 7.18693584757945e-08 4.54101774443403e-09 8.71085198982253e-09 6.10530660512097e-09 1.23566125132291e-07 6.99481161090872e-08 5.53646498259644e-09 1.09729195162591e-08
"266" 11481 7.17371397241888e-08 4.57012736035654e-09 8.71683216485596e-09 6.10675671191523e-09 1.23067618556592e-07 6.9954139833549e-08 5.55457954546371e-09 1.09825505976993e-08
"267" 11482 7.15971434669364e-08 4.57141171061294e-09 8.7106099068235e-09 6.10637110893799e-09 1.23000440662315e-07 7.00067797202429e-08 5.57745883805241e-09 1.09808995661344e-08
"268" 11483 7.14571472096841e-08 4.57269606086935e-09 8.70438764879104e-09 6.10598550596075e-09 1.22933262768038e-07 7.00594196069368e-08 5.60033813064111e-09 1.09792485345696e-08
"269" 11484 7.13171509524318e-08 4.57398041112575e-09 8.69816539075858e-09 6.1055999029835e-09 1.22866084873762e-07 7.01120594936307e-08 5.62321742322981e-09 1.09775975030047e-08
"270" 11485 7.11771546951795e-08 4.57526476138216e-09 8.69194313272611e-09 6.10521430000626e-09 1.22798906979485e-07 7.01646993803246e-08 5.64609671581851e-09 1.09759464714399e-08
"271" 11486 7.10371584379272e-08 4.57654911163856e-09 8.68572087469365e-09 6.10482869702901e-09 1.22731729085209e-07 7.02173392670185e-08 5.66897600840721e-09 1.09742954398751e-08
"272" 11487 7.08971621806748e-08 4.57783346189496e-09 8.67949861666119e-09 6.10444309405177e-09 1.22664551190932e-07 7.02699791537124e-08 5.69185530099591e-09 1.09726444083102e-08
"273" 11488 7.07571659234225e-08 4.57911781215137e-09 8.67327635862873e-09 6.10405749107453e-09 1.22597373296655e-07 7.03226190404064e-08 5.71473459358461e-09 1.09709933767454e-08
"274" 11489 7.06171696661702e-08 4.58040216240777e-09 8.66705410059626e-09 6.10367188809728e-09 1.22530195402379e-07 7.03752589271003e-08 5.73761388617331e-09 1.09693423451806e-08
"275" 11490 7.04771734089179e-08 4.58168651266418e-09 8.6608318425638e-09 6.10328628512004e-09 1.22463017508102e-07 7.04278988137942e-08 5.76049317876201e-09 1.09676913136157e-08
"276" 11491 7.03371771516655e-08 4.58297086292058e-09 8.65460958453134e-09 6.10290068214280e-09 1.22395839613826e-07 7.04805387004881e-08 5.78337247135071e-09 1.09660402820509e-08
"277" 11492 7.01971808944132e-08 4.58425521317698e-09 8.64838732649888e-09 6.10251507916555e-09 1.22328661719549e-07 7.0533178587182e-08 5.80625176393941e-09 1.0964389250486e-08
"278" 11493 7.00571846371609e-08 4.58553956343339e-09 8.64216506846642e-09 6.10212947618831e-09 1.22261483825273e-07 7.05858184738759e-08 5.82913105652811e-09 1.09627382189212e-08
"279" 11494 7.00549180035765e-08 4.54556437913006e-09 8.63992797299856e-09 6.06785396877309e-09 1.21229346342474e-07 7.06718403109692e-08 5.84230103785236e-09 1.09594275466721e-08
"280" 11495 7.02362721224883e-08 4.5617363879759e-09 8.63992797299856e-09 5.98587384732173e-09 1.20875850818077e-07 6.92753106897805e-08 5.83284512979919e-09 1.09735301879284e-08
"281" 11496 7.04176262414001e-08 4.57790839682174e-09 8.63992797299856e-09 5.90389372587036e-09 1.20522355293679e-07 6.78787810685917e-08 5.82338922174602e-09 1.09876328291846e-08
"282" 11497 7.05989803603119e-08 4.59408040566758e-09 8.63992797299856e-09 5.821913604419e-09 1.20168859769282e-07 6.6482251447403e-08 5.81393331369286e-09 1.10017354704408e-08
"283" 11498 7.07803344792237e-08 4.61025241451342e-09 8.63992797299856e-09 5.73993348296764e-09 1.19815364244884e-07 6.50857218262142e-08 5.80447740563969e-09 1.10158381116971e-08
"284" 11499 7.09616885981355e-08 4.62642442335926e-09 8.63992797299856e-09 5.65795336151628e-09 1.19461868720487e-07 6.36891922050255e-08 5.79502149758653e-09 1.10299407529533e-08
"285" 11500 7.1111848402665e-08 4.66470642620111e-09 8.63917741213622e-09 5.58449819561479e-09 1.19211317290995e-07 6.22790801885062e-08 5.77618538015142e-09 1.10287712562669e-08
"286" 11501 7.12620082071944e-08 4.70298842904296e-09 8.63842685127389e-09 5.5110430297133e-09 1.18960765861503e-07 6.08689681719869e-08 5.75734926271632e-09 1.10276017595805e-08
"287" 11502 7.14121680117238e-08 4.7412704318848e-09 8.63767629041155e-09 5.43758786381181e-09 1.18710214432012e-07 5.94588561554677e-08 5.73851314528121e-09 1.10264322628941e-08
"288" 11503 7.15623278162532e-08 4.77955243472665e-09 8.63692572954922e-09 5.36413269791032e-09 1.1845966300252e-07 5.80487441389484e-08 5.7196770278461e-09 1.10252627662077e-08
"289" 11504 7.17124876207826e-08 4.8178344375685e-09 8.63617516868688e-09 5.29067753200883e-09 1.18209111573028e-07 5.66386321224291e-08 5.700840910411e-09 1.10240932695213e-08
"290" 11505 7.1862647425312e-08 4.85611644041035e-09 8.63542460782455e-09 5.21722236610734e-09 1.17958560143537e-07 5.52285201059098e-08 5.68200479297589e-09 1.10229237728349e-08
"291" 11506 7.20128072298414e-08 4.8943984432522e-09 8.63467404696221e-09 5.14376720020585e-09 1.17708008714045e-07 5.38184080893906e-08 5.66316867554078e-09 1.10217542761485e-08
"292" 11507 7.21629670343708e-08 4.93268044609405e-09 8.63392348609988e-09 5.07031203430436e-09 1.17457457284553e-07 5.24082960728713e-08 5.64433255810568e-09 1.1020584779462e-08
"293" 11508 7.23131268389002e-08 4.9709624489359e-09 8.63317292523754e-09 4.99685686840287e-09 1.17206905855061e-07 5.0998184056352e-08 5.62549644067057e-09 1.10194152827756e-08
"294" 11509 7.24632866434296e-08 5.00924445177775e-09 8.6324223643752e-09 4.92340170250138e-09 1.1695635442557e-07 4.95880720398327e-08 5.60666032323547e-09 1.10182457860892e-08
"295" 11510 7.2613446447959e-08 5.0475264546196e-09 8.63167180351287e-09 4.84994653659989e-09 1.16705802996078e-07 4.81779600233135e-08 5.58782420580036e-09 1.10170762894028e-08
"296" 11511 7.27636062524884e-08 5.08580845746145e-09 8.63092124265053e-09 4.7764913706984e-09 1.16455251566586e-07 4.67678480067942e-08 5.56898808836525e-09 1.10159067927164e-08
"297" 11512 7.29137660570178e-08 5.1240904603033e-09 8.6301706817882e-09 4.70303620479691e-09 1.16204700137095e-07 4.53577359902749e-08 5.55015197093015e-09 1.101473729603e-08
"298" 11513 7.30639258615472e-08 5.16237246314515e-09 8.62942012092586e-09 4.62958103889542e-09 1.15954148707603e-07 4.39476239737557e-08 5.53131585349504e-09 1.10135677993436e-08
"299" 11514 7.32140856660766e-08 5.20065446598699e-09 8.62866956006353e-09 4.55612587299394e-09 1.15703597278111e-07 4.25375119572364e-08 5.51247973605993e-09 1.10123983026572e-08
"300" 11515 7.34211770892864e-08 5.23396392464213e-09 8.6249410676171e-09 4.53962086756875e-09 1.15609691750901e-07 4.24747809470324e-08 5.51475070019534e-09 1.10122349213246e-08
"301" 11516 7.39361279667228e-08 5.22421575837856e-09 8.63018526890735e-09 4.54470070385553e-09 1.15564594852323e-07 4.262249760104e-08 5.52366490550224e-09 1.10114094055422e-08
"302" 11517 7.44510788441592e-08 5.21446759211499e-09 8.6354294701976e-09 4.54978054014231e-09 1.15519497953745e-07 4.27702142550475e-08 5.53257911080914e-09 1.10105838897597e-08
"303" 11518 7.45498120600252e-08 5.21434769623215e-09 8.64064935962259e-09 4.55138994963389e-09 1.15390778143394e-07 4.30135200449302e-08 5.53257911080914e-09 1.10109278706637e-08
"304" 11519 7.46485452758912e-08 5.21422780034932e-09 8.64586924904759e-09 4.55299935912548e-09 1.15262058333042e-07 4.32568258348129e-08 5.53257911080914e-09 1.10112718515677e-08
"305" 11520 7.47472784917571e-08 5.21410790446648e-09 8.65108913847259e-09 4.55460876861706e-09 1.15133338522691e-07 4.35001316246957e-08 5.53257911080914e-09 1.10116158324717e-08
"306" 11521 7.48460117076231e-08 5.21398800858364e-09 8.65630902789759e-09 4.55621817810864e-09 1.15004618712339e-07 4.37434374145784e-08 5.53257911080914e-09 1.10119598133757e-08
"307" 11522 7.49447449234891e-08 5.2138681127008e-09 8.66152891732259e-09 4.55782758760023e-09 1.14875898901988e-07 4.39867432044611e-08 5.53257911080914e-09 1.10123037942797e-08
"308" 11523 7.50434781393551e-08 5.21374821681797e-09 8.66674880674759e-09 4.55943699709181e-09 1.14747179091636e-07 4.42300489943438e-08 5.53257911080914e-09 1.10126477751837e-08
"309" 11524 7.5142211355221e-08 5.21362832093513e-09 8.67196869617259e-09 4.5610464065834e-09 1.14618459281285e-07 4.44733547842265e-08 5.53257911080914e-09 1.10129917560877e-08
"310" 11525 7.5240944571087e-08 5.21350842505229e-09 8.67718858559758e-09 4.56265581607498e-09 1.14489739470934e-07 4.47166605741092e-08 5.53257911080914e-09 1.10133357369917e-08
"311" 11526 7.5339677786953e-08 5.21338852916945e-09 8.68240847502258e-09 4.56426522556657e-09 1.14361019660582e-07 4.49599663639919e-08 5.53257911080914e-09 1.10136797178956e-08
"312" 11527 7.54384110028189e-08 5.21326863328662e-09 8.68762836444758e-09 4.56587463505815e-09 1.14232299850231e-07 4.52032721538746e-08 5.53257911080914e-09 1.10140236987996e-08
"313" 11528 7.53706590286295e-08 5.22892690202989e-09 8.69360367710796e-09 4.55952483969968e-09 1.13912141855096e-07 4.53439038185196e-08 5.52870558689025e-09 1.10023717775325e-08
"314" 11529 7.53029070544401e-08 5.24458517077317e-09 8.69957898976835e-09 4.5531750443412e-09 1.13591983859961e-07 4.54845354831646e-08 5.52483206297135e-09 1.09907198562653e-08
"315" 11530 7.52351550802506e-08 5.26024343951645e-09 8.70555430242873e-09 4.54682524898273e-09 1.13271825864826e-07 4.56251671478096e-08 5.52095853905245e-09 1.09790679349982e-08
"316" 11531 7.51674031060612e-08 5.27590170825973e-09 8.71152961508912e-09 4.54047545362426e-09 1.12951667869691e-07 4.57657988124546e-08 5.51708501513356e-09 1.09674160137311e-08
"317" 11532 7.50996511318718e-08 5.29155997700301e-09 8.7175049277495e-09 4.53412565826578e-09 1.12631509874557e-07 4.59064304770996e-08 5.51321149121466e-09 1.09557640924639e-08
"318" 11533 7.50318991576823e-08 5.30721824574629e-09 8.72348024040988e-09 4.52777586290731e-09 1.12311351879422e-07 4.60470621417446e-08 5.50933796729576e-09 1.09441121711968e-08
"319" 11534 7.49641471834929e-08 5.32287651448957e-09 8.72945555307027e-09 4.52142606754884e-09 1.11991193884287e-07 4.61876938063897e-08 5.50546444337687e-09 1.09324602499296e-08
"320" 11535 7.48963952093034e-08 5.33853478323284e-09 8.73543086573065e-09 4.51507627219036e-09 1.11671035889152e-07 4.63283254710347e-08 5.50159091945797e-09 1.09208083286625e-08
"321" 11536 7.4828643235114e-08 5.35419305197612e-09 8.74140617839103e-09 4.50872647683189e-09 1.11350877894017e-07 4.64689571356797e-08 5.49771739553907e-09 1.09091564073953e-08
"322" 11537 7.44352546509343e-08 5.36613315281838e-09 8.74663579256213e-09 4.51217159609499e-09 1.11360596662117e-07 4.66702557811529e-08 5.49766424532314e-09 1.08792053930048e-08
"323" 11538 7.40418660667545e-08 5.37807325366064e-09 8.75186540673323e-09 4.51561671535808e-09 1.11370315430218e-07 4.68715544266261e-08 5.4976110951072e-09 1.08492543786142e-08
"324" 11539 7.41863218278569e-08 5.37411320269369e-09 8.751124570617e-09 4.52253226141637e-09 1.11776795138107e-07 4.68369125178088e-08 5.49965925779196e-09 1.0855076034688e-08
"325" 11540 7.36922694057973e-08 5.37411320269369e-09 8.76233435982153e-09 4.52264541155633e-09 1.12187426812749e-07 4.68860569540804e-08 5.52405521090605e-09 1.0843381067824e-08
"326" 11541 7.31982169837377e-08 5.37411320269369e-09 8.77354414902606e-09 4.5227585616963e-09 1.12598058487391e-07 4.69352013903521e-08 5.54845116402014e-09 1.08316861009599e-08
"327" 11542 7.27041645616781e-08 5.37411320269369e-09 8.78475393823059e-09 4.52287171183626e-09 1.13008690162032e-07 4.69843458266237e-08 5.57284711713423e-09 1.08199911340958e-08
"328" 11543 7.22101121396186e-08 5.37411320269369e-09 8.79596372743512e-09 4.52298486197622e-09 1.13419321836674e-07 4.70334902628953e-08 5.59724307024832e-09 1.08082961672317e-08
"329" 11544 7.1716059717559e-08 5.37411320269369e-09 8.80717351663966e-09 4.52309801211619e-09 1.13829953511316e-07 4.70826346991669e-08 5.6216390233624e-09 1.07966012003676e-08
"330" 11545 7.12220072954994e-08 5.37411320269369e-09 8.81838330584419e-09 4.52321116225615e-09 1.14240585185957e-07 4.71317791354386e-08 5.64603497647649e-09 1.07849062335035e-08
"331" 11546 7.07279548734398e-08 5.37411320269369e-09 8.82959309504872e-09 4.52332431239611e-09 1.14651216860599e-07 4.71809235717102e-08 5.67043092959058e-09 1.07732112666394e-08
"332" 11547 7.02339024513803e-08 5.37411320269369e-09 8.84080288425325e-09 4.52343746253608e-09 1.15061848535241e-07 4.72300680079818e-08 5.69482688270467e-09 1.07615162997754e-08
"333" 11548 6.97398500293207e-08 5.37411320269369e-09 8.85201267345779e-09 4.52355061267604e-09 1.15472480209882e-07 4.72792124442534e-08 5.71922283581876e-09 1.07498213329113e-08
"334" 11549 6.92457976072611e-08 5.37411320269369e-09 8.86322246266232e-09 4.523663762816e-09 1.15883111884524e-07 4.7328356880525e-08 5.74361878893284e-09 1.07381263660472e-08
"335" 11550 7.1522297694332e-08 5.45081627384608e-09 8.86322246266232e-09 4.62068985788459e-09 1.16626132005991e-07 4.77755366341795e-08 5.79184859124099e-09 1.07418841366971e-08
"336" 11551 7.37987977814028e-08 5.52751934499848e-09 8.86322246266232e-09 4.71771595295318e-09 1.17369152127459e-07 4.82227163878339e-08 5.84007839354914e-09 1.07456419073471e-08
"337" 11552 7.65851277473962e-08 5.60818246711782e-09 8.86021535683993e-09 4.77082646617546e-09 1.18045609460835e-07 4.86555096751999e-08 5.88641948382033e-09 1.07738557989789e-08
"338" 11553 7.88154709265684e-08 5.67282554154511e-09 8.85895631811428e-09 4.86658260217235e-09 1.185991131505e-07 4.90222396073646e-08 5.92882369936981e-09 1.08087340807059e-08
"339" 11554 8.10458141057407e-08 5.73746861597241e-09 8.85769727938864e-09 4.96233873816925e-09 1.19152616840166e-07 4.93889695395293e-08 5.97122791491929e-09 1.08436123624328e-08
"340" 11555 8.32761572849129e-08 5.80211169039971e-09 8.856438240663e-09 5.05809487416614e-09 1.19706120529831e-07 4.9755699471694e-08 6.01363213046877e-09 1.08784906441597e-08
"341" 11556 8.55065004640852e-08 5.866754764827e-09 8.85517920193736e-09 5.15385101016304e-09 1.20259624219497e-07 5.01224294038587e-08 6.05603634601824e-09 1.09133689258867e-08
"342" 11557 8.49779251973694e-08 5.85475471604333e-09 8.85692726903411e-09 5.17615644276529e-09 1.20109229401603e-07 5.10972857769163e-08 6.06989513286816e-09 1.09286410638293e-08
"343" 11558 8.44493499306537e-08 5.84275466725965e-09 8.85867533613085e-09 5.19846187536754e-09 1.19958834583709e-07 5.20721421499739e-08 6.08375391971808e-09 1.09439132017719e-08
"344" 11559 8.39207746639379e-08 5.83075461847597e-09 8.8604234032276e-09 5.22076730796979e-09 1.19808439765815e-07 5.30469985230315e-08 6.097612706568e-09 1.09591853397146e-08
"345" 11560 8.33921993972222e-08 5.81875456969229e-09 8.86217147032435e-09 5.24307274057204e-09 1.19658044947921e-07 5.4021854896089e-08 6.11147149341792e-09 1.09744574776572e-08
"346" 11561 8.28636241305064e-08 5.80675452090862e-09 8.8639195374211e-09 5.2653781731743e-09 1.19507650130027e-07 5.49967112691466e-08 6.12533028026784e-09 1.09897296155999e-08
"347" 11562 8.23350488637907e-08 5.79475447212494e-09 8.86566760451785e-09 5.28768360577655e-09 1.19357255312133e-07 5.59715676422042e-08 6.13918906711776e-09 1.10050017535425e-08
"348" 11563 8.18064735970749e-08 5.78275442334126e-09 8.8674156716146e-09 5.3099890383788e-09 1.19206860494239e-07 5.69464240152618e-08 6.15304785396768e-09 1.10202738914852e-08
"349" 11564 8.12778983303591e-08 5.77075437455759e-09 8.86916373871135e-09 5.33229447098105e-09 1.19056465676345e-07 5.79212803883193e-08 6.1669066408176e-09 1.10355460294278e-08
"350" 11565 8.07493230636434e-08 5.75875432577391e-09 8.8709118058081e-09 5.3545999035833e-09 1.18906070858451e-07 5.88961367613769e-08 6.18076542766752e-09 1.10508181673705e-08
"351" 11566 8.02207477969276e-08 5.74675427699023e-09 8.87265987290485e-09 5.37690533618555e-09 1.18755676040557e-07 5.98709931344345e-08 6.19462421451744e-09 1.10660903053131e-08
"352" 11567 7.96921725302119e-08 5.73475422820656e-09 8.8744079400016e-09 5.3992107687878e-09 1.18605281222663e-07 6.08458495074921e-08 6.20848300136736e-09 1.10813624432557e-08
"353" 11568 7.91635972634961e-08 5.72275417942288e-09 8.87615600709835e-09 5.42151620139005e-09 1.18454886404769e-07 6.18207058805496e-08 6.22234178821728e-09 1.10966345811984e-08
"354" 11569 7.86350219967804e-08 5.7107541306392e-09 8.8779040741951e-09 5.44382163399231e-09 1.18304491586876e-07 6.27955622536072e-08 6.2362005750672e-09 1.1111906719141e-08
"355" 11570 7.81064467300646e-08 5.69875408185552e-09 8.87965214129185e-09 5.46612706659456e-09 1.18154096768982e-07 6.37704186266648e-08 6.25005936191712e-09 1.11271788570837e-08
"356" 11571 7.75778714633488e-08 5.68675403307185e-09 8.8814002083886e-09 5.48843249919681e-09 1.18003701951088e-07 6.47452749997224e-08 6.26391814876704e-09 1.11424509950263e-08
"357" 11572 7.76052829834542e-08 5.68457708547851e-09 8.8814196578808e-09 5.46503725524544e-09 1.16463110500987e-07 6.58377513771265e-08 6.21226042544127e-09 1.11557367296195e-08
"358" 11573 7.77564789412867e-08 5.67862202204274e-09 8.8814196578808e-09 5.4293324860612e-09 1.15471995292136e-07 6.62787871665513e-08 6.1409183285069e-09 1.11545758420525e-08
"359" 11574 7.79089440264692e-08 5.6765970356032e-09 8.84946055939515e-09 5.43876264273078e-09 1.14440928575059e-07 6.51545328020617e-08 6.1254467812866e-09 1.11554013578349e-08
"360" 11575 7.7949323127622e-08 5.68052711259944e-09 8.81974341875041e-09 5.44508713055716e-09 1.12842799069192e-07 6.38301487609619e-08 6.13013795961833e-09 1.116206574793e-08
"361" 11576 7.79897022287747e-08 5.68445718959568e-09 8.79002627810567e-09 5.45141161838353e-09 1.11244669563325e-07 6.2505764719862e-08 6.13482913795006e-09 1.11687301380251e-08
"362" 11577 7.80300813299275e-08 5.68838726659191e-09 8.76030913746093e-09 5.4577361062099e-09 1.09646540057457e-07 6.11813806787622e-08 6.13952031628179e-09 1.11753945281201e-08
"363" 11578 7.80704604310802e-08 5.69231734358815e-09 8.73059199681619e-09 5.46406059403628e-09 1.0804841055159e-07 5.98569966376623e-08 6.14421149461352e-09 1.11820589182152e-08
"364" 11579 7.8110839532233e-08 5.69624742058439e-09 8.70087485617145e-09 5.47038508186265e-09 1.06450281045723e-07 5.85326125965625e-08 6.14890267294525e-09 1.11887233083103e-08
"365" 11580 7.81512186333858e-08 5.70017749758062e-09 8.67115771552671e-09 5.47670956968902e-09 1.04852151539855e-07 5.72082285554626e-08 6.15359385127698e-09 1.11953876984054e-08
"366" 11581 7.81915977345385e-08 5.70410757457686e-09 8.64144057488197e-09 5.48303405751540e-09 1.03254022033988e-07 5.58838445143628e-08 6.15828502960871e-09 1.12020520885004e-08
"367" 11582 7.82319768356913e-08 5.7080376515731e-09 8.61172343423723e-09 5.48935854534177e-09 1.01655892528121e-07 5.45594604732629e-08 6.16297620794044e-09 1.12087164785955e-08
"368" 11583 7.8272355936844e-08 5.71196772856933e-09 8.58200629359249e-09 5.49568303316814e-09 1.00057763022253e-07 5.32350764321631e-08 6.16766738627217e-09 1.12153808686906e-08
"369" 11584 7.83127350379968e-08 5.71589780556557e-09 8.55228915294775e-09 5.50200752099451e-09 9.8459633516386e-08 5.19106923910632e-08 6.1723585646039e-09 1.12220452587857e-08
"370" 11585 7.83531141391495e-08 5.71982788256181e-09 8.52257201230301e-09 5.50833200882089e-09 9.68615040105186e-08 5.05863083499634e-08 6.17704974293563e-09 1.12287096488807e-08
"371" 11586 7.83720714440353e-08 5.72200483015514e-09 8.52854246259034e-09 5.51637905627881e-09 9.66531041371163e-08 5.0834927881868e-08 6.18508294302688e-09 1.12352106576432e-08
"372" 11587 7.83910287489211e-08 5.72418177774848e-09 8.53451291287768e-09 5.52442610373673e-09 9.64447042637139e-08 5.10835474137726e-08 6.19311614311813e-09 1.12417116664057e-08
"373" 11588 7.84099860538069e-08 5.72635872534181e-09 8.54048336316501e-09 5.53247315119465e-09 9.62363043903115e-08 5.13321669456772e-08 6.20114934320938e-09 1.12482126751681e-08
"374" 11589 7.84289433586927e-08 5.72853567293515e-09 8.54645381345234e-09 5.54052019865257e-09 9.60279045169092e-08 5.15807864775819e-08 6.20918254330063e-09 1.12547136839306e-08
"375" 11590 7.84479006635784e-08 5.73071262052848e-09 8.55242426373968e-09 5.54856724611049e-09 9.58195046435068e-08 5.18294060094865e-08 6.21721574339188e-09 1.12612146926931e-08
"376" 11591 7.84668579684642e-08 5.73288956812182e-09 8.55839471402701e-09 5.55661429356841e-09 9.56111047701045e-08 5.20780255413911e-08 6.22524894348313e-09 1.12677157014555e-08
"377" 11592 7.848581527335e-08 5.73506651571516e-09 8.56436516431435e-09 5.56466134102633e-09 9.54027048967021e-08 5.23266450732957e-08 6.23328214357438e-09 1.1274216710218e-08
"378" 11593 7.85047725782358e-08 5.73724346330849e-09 8.57033561460168e-09 5.57270838848425e-09 9.51943050232997e-08 5.25752646052004e-08 6.24131534366563e-09 1.12807177189805e-08
"379" 11594 7.87272117820782e-08 5.86531601423295e-09 8.64219496246388e-09 5.62338021369154e-09 9.53315508128586e-08 5.27383652317307e-08 6.22996052298863e-09 1.12813798534303e-08
"380" 11595 7.87523074930533e-08 5.80185238116458e-09 8.36022057909256e-09 5.58418417268686e-09 9.53782424058515e-08 5.27408976843721e-08 6.22330708123024e-09 1.1225149696041e-08
"381" 11596 7.87774032040284e-08 5.7383887480962e-09 8.07824619572124e-09 5.54498813168218e-09 9.54249339988445e-08 5.27434301370134e-08 6.21665363947185e-09 1.11689195386516e-08
"382" 11597 7.88024989150035e-08 5.67492511502783e-09 7.79627181234991e-09 5.5057920906775e-09 9.54716255918375e-08 5.27459625896548e-08 6.21000019771347e-09 1.11126893812623e-08
"383" 11598 7.88275946259786e-08 5.61146148195945e-09 7.51429742897859e-09 5.46659604967282e-09 9.55183171848305e-08 5.27484950422961e-08 6.20334675595508e-09 1.10564592238729e-08
"384" 11599 7.88526903369537e-08 5.54799784889108e-09 7.23232304560726e-09 5.42740000866814e-09 9.55650087778235e-08 5.27510274949375e-08 6.19669331419669e-09 1.10002290664836e-08
"385" 11600 7.88777860479288e-08 5.4845342158227e-09 6.95034866223594e-09 5.38820396766346e-09 9.56117003708165e-08 5.27535599475788e-08 6.1900398724383e-09 1.09439989090943e-08
"386" 11601 7.8902881758904e-08 5.42107058275432e-09 6.66837427886462e-09 5.34900792665878e-09 9.56583919638094e-08 5.27560924002202e-08 6.18338643067992e-09 1.08877687517049e-08
"387" 11602 7.89279774698791e-08 5.35760694968595e-09 6.38639989549329e-09 5.3098118856541e-09 9.57050835568024e-08 5.27586248528615e-08 6.17673298892153e-09 1.08315385943156e-08
"388" 11603 7.89530731808542e-08 5.29414331661757e-09 6.10442551212197e-09 5.27061584464942e-09 9.57517751497954e-08 5.27611573055029e-08 6.17007954716314e-09 1.07753084369263e-08
"389" 11604 7.89781688918293e-08 5.2306796835492e-09 5.82245112875064e-09 5.23141980364474e-09 9.57984667427884e-08 5.27636897581442e-08 6.16342610540475e-09 1.07190782795369e-08
"390" 11605 7.90032646028044e-08 5.16721605048082e-09 5.54047674537932e-09 5.19222376264006e-09 9.58451583357814e-08 5.27662222107855e-08 6.15677266364636e-09 1.06628481221476e-08
"391" 11606 7.90283603137795e-08 5.10375241741245e-09 5.258502362008e-09 5.15302772163538e-09 9.58918499287744e-08 5.27687546634269e-08 6.15011922188798e-09 1.06066179647582e-08
"392" 11607 7.89783761224899e-08 5.06016397410558e-09 5.0341072206223e-09 5.10161446051255e-09 9.58742633812332e-08 5.28405792909065e-08 6.147668405931e-09 1.05493816920151e-08
"393" 11608 7.89283919312003e-08 5.01657553079871e-09 4.80971207923661e-09 5.05020119938972e-09 9.5856676833692e-08 5.29124039183862e-08 6.14521758997401e-09 1.0492145419272e-08
"394" 11609 7.88784077399107e-08 4.97298708749184e-09 4.58531693785092e-09 4.9987879382669e-09 9.58390902861508e-08 5.29842285458658e-08 6.14276677401703e-09 1.04349091465288e-08
"395" 11610 7.82944720327983e-08 4.99286227725335e-09 4.61891713122622e-09 4.99164609192868e-09 9.58538478442719e-08 5.29766437237473e-08 6.11866717374329e-09 1.03918099515195e-08
"396" 11611 7.82970793643852e-08 5.00672245563766e-09 4.67048216156706e-09 4.98738361415374e-09 9.58362612967307e-08 5.3046361456194e-08 6.10886176263384e-09 1.03908038361657e-08
"397" 11612 7.8299686695972e-08 5.02058263402197e-09 4.72204719190791e-09 4.98312113637881e-09 9.58186747491895e-08 5.31160791886407e-08 6.0990563515244e-09 1.03897977208119e-08
"398" 11613 7.83022940275589e-08 5.03444281240628e-09 4.77361222224876e-09 4.97885865860387e-09 9.58010882016483e-08 5.31857969210875e-08 6.08925094041496e-09 1.03887916054581e-08
"399" 11614 7.83065310858392e-08 5.06417107732884e-09 4.76237812117898e-09 4.97459618082893e-09 9.57629128351259e-08 5.31968123553232e-08 6.07335419146716e-09 1.04528384313901e-08
"400" 11615 7.83107681441195e-08 5.0938993422514e-09 4.7511440201092e-09 4.970333703054e-09 9.57247374686036e-08 5.32078277895589e-08 6.05745744251935e-09 1.05168852573222e-08
"401" 11616 7.83150052023998e-08 5.12362760717395e-09 4.73990991903941e-09 4.96607122527906e-09 9.56865621020812e-08 5.32188432237946e-08 6.04156069357155e-09 1.05809320832542e-08
"402" 11617 7.83192422606801e-08 5.15335587209651e-09 4.72867581796963e-09 4.96180874750413e-09 9.56483867355588e-08 5.32298586580303e-08 6.02566394462375e-09 1.06449789091862e-08
"403" 11618 7.83234793189604e-08 5.18308413701907e-09 4.71744171689985e-09 4.95754626972919e-09 9.56102113690365e-08 5.3240874092266e-08 6.00976719567595e-09 1.07090257351183e-08
"404" 11619 7.83277163772407e-08 5.21281240194162e-09 4.70620761583007e-09 4.95328379195425e-09 9.55720360025141e-08 5.32518895265017e-08 5.99387044672815e-09 1.07730725610503e-08
"405" 11620 7.83319534355209e-08 5.24254066686418e-09 4.69497351476029e-09 4.94902131417932e-09 9.55338606359917e-08 5.32629049607374e-08 5.97797369778034e-09 1.08371193869824e-08
"406" 11621 7.83361904938013e-08 5.27226893178674e-09 4.6837394136905e-09 4.94475883640438e-09 9.54956852694694e-08 5.32739203949731e-08 5.96207694883254e-09 1.09011662129144e-08
"407" 11622 7.83404275520816e-08 5.30199719670930e-09 4.67250531262072e-09 4.94049635862944e-09 9.5457509902947e-08 5.32849358292088e-08 5.94618019988474e-09 1.09652130388465e-08
"408" 11623 7.83446646103618e-08 5.33172546163185e-09 4.66127121155094e-09 4.93623388085451e-09 9.54193345364247e-08 5.32959512634445e-08 5.93028345093694e-09 1.10292598647785e-08
"409" 11624 7.83489016686422e-08 5.36145372655441e-09 4.65003711048116e-09 4.93197140307957e-09 9.53811591699023e-08 5.33069666976802e-08 5.91438670198913e-09 1.10933066907105e-08
"410" 11625 7.83531387269225e-08 5.39118199147697e-09 4.63880300941138e-09 4.92770892530463e-09 9.53429838033799e-08 5.33179821319159e-08 5.89848995304133e-09 1.11573535166426e-08
"411" 11626 7.83573757852027e-08 5.42091025639952e-09 4.62756890834159e-09 4.9234464475297e-09 9.53048084368576e-08 5.33289975661516e-08 5.88259320409353e-09 1.12214003425746e-08
"412" 11627 7.83616128434831e-08 5.45063852132208e-09 4.61633480727181e-09 4.91918396975476e-09 9.52666330703352e-08 5.33400130003873e-08 5.86669645514573e-09 1.12854471685067e-08
"413" 11628 7.83658499017633e-08 5.48036678624464e-09 4.60510070620203e-09 4.91492149197982e-09 9.52284577038128e-08 5.3351028434623e-08 5.85079970619793e-09 1.13494939944387e-08
"414" 11629 7.83700869600436e-08 5.51009505116719e-09 4.59386660513225e-09 4.91065901420489e-09 9.51902823372905e-08 5.33620438688588e-08 5.83490295725012e-09 1.14135408203708e-08
"415" 11630 7.80233107033791e-08 5.44840162578733e-09 4.66572595299445e-09 4.91337908007085e-09 9.51514861944799e-08 5.32908643855139e-08 5.84588572641556e-09 1.14113824265693e-08
"416" 11631 7.76765344467146e-08 5.38670820040746e-09 4.73758530085666e-09 4.91609914593681e-09 9.51126900516692e-08 5.3219684902169e-08 5.856868495581e-09 1.14092240327679e-08
"417" 11632 7.78951955427119e-08 5.40684026022024e-09 4.74057295718685e-09 4.9291337245668e-09 9.52534311956825e-08 5.3315781148365e-08 5.856868495581e-09 1.13763321543904e-08
"418" 11633 7.81138566387092e-08 5.42697232003303e-09 4.74356061351704e-09 4.94216830319679e-09 9.53941723396957e-08 5.3411877394561e-08 5.856868495581e-09 1.13434402760129e-08
"419" 11634 7.83325177347065e-08 5.44710437984582e-09 4.74654826984723e-09 4.95520288182678e-09 9.55349134837089e-08 5.35079736407571e-08 5.856868495581e-09 1.13105483976354e-08
"420" 11635 7.85511788307037e-08 5.4672364396586e-09 4.74953592617743e-09 4.96823746045677e-09 9.56756546277221e-08 5.36040698869531e-08 5.856868495581e-09 1.12776565192579e-08
"421" 11636 7.8769839926701e-08 5.48736849947139e-09 4.75252358250762e-09 4.98127203908676e-09 9.58163957717353e-08 5.37001661331491e-08 5.856868495581e-09 1.12447646408804e-08
"422" 11637 7.89885010226983e-08 5.50750055928418e-09 4.75551123883781e-09 4.99430661771675e-09 9.59571369157485e-08 5.37962623793451e-08 5.856868495581e-09 1.12118727625029e-08
"423" 11638 7.92071621186956e-08 5.52763261909696e-09 4.758498895168e-09 5.00734119634674e-09 9.60978780597617e-08 5.38923586255412e-08 5.856868495581e-09 1.11789808841254e-08
"424" 11639 7.94258232146928e-08 5.54776467890975e-09 4.76148655149819e-09 5.02037577497673e-09 9.6238619203775e-08 5.39884548717372e-08 5.856868495581e-09 1.11460890057479e-08
"425" 11640 7.96444843106901e-08 5.56789673872254e-09 4.76447420782838e-09 5.03341035360672e-09 9.63793603477882e-08 5.40845511179332e-08 5.856868495581e-09 1.11131971273704e-08
"426" 11641 7.98631454066874e-08 5.58802879853532e-09 4.76746186415858e-09 5.04644493223671e-09 9.65201014918014e-08 5.41806473641292e-08 5.856868495581e-09 1.10803052489929e-08
"427" 11642 8.00818065026847e-08 5.60816085834811e-09 4.77044952048877e-09 5.0594795108667e-09 9.66608426358146e-08 5.42767436103253e-08 5.856868495581e-09 1.10474133706154e-08
"428" 11643 8.0300467598682e-08 5.6282929181609e-09 4.77343717681896e-09 5.07251408949669e-09 9.68015837798278e-08 5.43728398565213e-08 5.856868495581e-09 1.1014521492238e-08
"429" 11644 8.06051706370453e-08 5.63949238282002e-09 4.77516579442351e-09 5.08183109602631e-09 9.67189819623959e-08 5.44601948475413e-08 5.86080537030272e-09 1.10048904107978e-08
"430" 11645 8.09098736754087e-08 5.65069184747915e-09 4.77689441202806e-09 5.09114810255593e-09 9.6636380144964e-08 5.45475498385613e-08 5.86474224502444e-09 1.09952593293577e-08
"431" 11646 8.1214576713772e-08 5.66189131213827e-09 4.77862302963261e-09 5.10046510908554e-09 9.65537783275322e-08 5.46349048295813e-08 5.86867911974615e-09 1.09856282479175e-08
"432" 11647 8.15192797521354e-08 5.6730907767974e-09 4.78035164723716e-09 5.10978211561515e-09 9.64711765101003e-08 5.47222598206013e-08 5.87261599446787e-09 1.09759971664774e-08
"433" 11648 8.18239827904988e-08 5.68429024145652e-09 4.78208026484171e-09 5.11909912214477e-09 9.63885746926684e-08 5.48096148116213e-08 5.87655286918959e-09 1.09663660850372e-08
"434" 11649 8.21286858288621e-08 5.69548970611565e-09 4.78380888244626e-09 5.12841612867439e-09 9.63059728752365e-08 5.48969698026413e-08 5.88048974391131e-09 1.09567350035971e-08
"435" 11650 8.24333888672255e-08 5.70668917077477e-09 4.78553750005081e-09 5.137733135204e-09 9.62233710578046e-08 5.49843247936613e-08 5.88442661863303e-09 1.09471039221569e-08
"436" 11651 8.24017203874988e-08 5.7067790926869e-09 4.78726611765536e-09 5.13483292161547e-09 9.59898618339909e-08 5.49715548264923e-08 5.8822619549295e-09 1.09379888120727e-08
"437" 11652 8.23700519077721e-08 5.70686901459903e-09 4.78899473525991e-09 5.13193270802693e-09 9.57563526101772e-08 5.49587848593233e-08 5.88009729122598e-09 1.09288737019886e-08
"438" 11653 8.23704370948885e-08 5.70316583368336e-09 4.78024953740311e-09 5.08114773267969e-09 9.588560451449e-08 5.53738426209963e-08 5.91792682946248e-09 1.08549893676868e-08
"439" 11654 8.23708222820049e-08 5.6994626527677e-09 4.77150433954631e-09 5.03036275733244e-09 9.60148564188028e-08 5.57889003826692e-08 5.95575636769899e-09 1.07811050333851e-08
"440" 11655 8.23712074691213e-08 5.69575947185203e-09 4.76275914168952e-09 4.97957778198519e-09 9.61441083231156e-08 5.62039581443422e-08 5.99358590593549e-09 1.07072206990833e-08
"441" 11656 8.23715926562377e-08 5.69205629093637e-09 4.75401394383272e-09 4.92879280663794e-09 9.62733602274284e-08 5.66190159060151e-08 6.031415444172e-09 1.06333363647816e-08
"442" 11657 8.23719778433541e-08 5.6883531100207e-09 4.74526874597592e-09 4.87800783129069e-09 9.64026121317413e-08 5.70340736676881e-08 6.06924498240851e-09 1.05594520304799e-08
"443" 11658 8.23723630304705e-08 5.68464992910504e-09 4.73652354811912e-09 4.82722285594344e-09 9.65318640360541e-08 5.7449131429361e-08 6.10707452064501e-09 1.04855676961781e-08
"444" 11659 8.23727482175869e-08 5.68094674818937e-09 4.72777835026233e-09 4.77643788059619e-09 9.66611159403669e-08 5.7864189191034e-08 6.14490405888152e-09 1.04116833618764e-08
"445" 11660 8.23731334047033e-08 5.6772435672737e-09 4.71903315240553e-09 4.72565290524894e-09 9.67903678446797e-08 5.82792469527069e-08 6.18273359711803e-09 1.03377990275746e-08
"446" 11661 8.23735185918197e-08 5.67354038635804e-09 4.71028795454873e-09 4.67486792990169e-09 9.69196197489925e-08 5.86943047143798e-08 6.22056313535453e-09 1.02639146932729e-08
"447" 11662 8.23739037789361e-08 5.66983720544237e-09 4.70154275669194e-09 4.62408295455445e-09 9.70488716533053e-08 5.91093624760528e-08 6.25839267359104e-09 1.01900303589711e-08
"448" 11663 8.23742889660524e-08 5.66613402452671e-09 4.69279755883514e-09 4.5732979792072e-09 9.71781235576182e-08 5.95244202377257e-08 6.29622221182754e-09 1.01161460246694e-08
"449" 11664 8.23746741531688e-08 5.66243084361104e-09 4.68405236097834e-09 4.52251300385995e-09 9.7307375461931e-08 5.99394779993987e-08 6.33405175006405e-09 1.00422616903677e-08
"450" 11665 8.23746741531688e-08 5.6584707926441e-09 4.68128247578193e-09 4.4717280285127e-09 9.76527217370673e-08 5.98673051884212e-08 6.29372629895999e-09 9.96940929877788e-09
"451" 11666 8.20282526538025e-08 5.64953819749043e-09 4.43206533983562e-09 4.46481248245441e-09 9.71837758663557e-08 5.93311675600717e-08 6.28385753704772e-09 9.9477823151666e-09
"452" 11667 8.20278674666861e-08 5.61928120547996e-09 4.43728522926061e-09 4.4629767726829e-09 9.75335084018493e-08 5.91323846528324e-08 6.27688519399371e-09 9.94062778107371e-09
"453" 11668 8.20274822795697e-08 5.58902421346949e-09 4.44250511868561e-09 4.46114106291139e-09 9.78832409373429e-08 5.89336017455932e-08 6.2699128509397e-09 9.93347324698082e-09
"454" 11669 8.20270970924533e-08 5.55876722145901e-09 4.44772500811061e-09 4.45930535313988e-09 9.82329734728365e-08 5.8734818838354e-08 6.26294050788568e-09 9.92631871288792e-09
"455" 11670 8.2026711905337e-08 5.52851022944854e-09 4.45294489753561e-09 4.45746964336837e-09 9.85827060083302e-08 5.85360359311147e-08 6.25596816483167e-09 9.91916417879503e-09
"456" 11671 8.20263267182206e-08 5.49825323743807e-09 4.45816478696061e-09 4.45563393359686e-09 9.89324385438238e-08 5.83372530238755e-08 6.24899582177765e-09 9.91200964470214e-09
"457" 11672 8.20391116563803e-08 5.48812830524038e-09 4.46612538734372e-09 4.45724334308844e-09 9.895759507045e-08 5.8138818300134e-08 6.24013476668669e-09 9.89734798649298e-09
"458" 11673 8.20518965945399e-08 5.47800337304269e-09 4.47408598772683e-09 4.45885275258003e-09 9.89827515970762e-08 5.79403835763926e-08 6.23127371159572e-09 9.88268632828381e-09
"459" 11674 8.20646815326996e-08 5.46787844084501e-09 4.48204658810994e-09 4.46046216207161e-09 9.90079081237024e-08 5.77419488526512e-08 6.22241265650475e-09 9.86802467007465e-09
"460" 11675 8.20774664708593e-08 5.45775350864732e-09 4.49000718849305e-09 4.46207157156320e-09 9.90330646503285e-08 5.75435141289097e-08 6.21355160141379e-09 9.85336301186549e-09
"461" 11676 8.2090251409019e-08 5.44762857644963e-09 4.49796778887617e-09 4.46368098105478e-09 9.90582211769547e-08 5.73450794051683e-08 6.20469054632282e-09 9.83870135365632e-09
"462" 11677 8.21030363471787e-08 5.43750364425195e-09 4.50592838925928e-09 4.46529039054636e-09 9.90833777035809e-08 5.71466446814269e-08 6.19582949123185e-09 9.82403969544716e-09
"463" 11678 8.21158212853384e-08 5.42737871205426e-09 4.51388898964239e-09 4.46689980003795e-09 9.91085342302071e-08 5.69482099576854e-08 6.18696843614089e-09 9.80937803723800e-09
"464" 11679 8.21286062234981e-08 5.41725377985657e-09 4.5218495900255e-09 4.46850920952953e-09 9.91336907568333e-08 5.6749775233944e-08 6.17810738104992e-09 9.79471637902883e-09
"465" 11680 8.21413911616578e-08 5.40712884765889e-09 4.52981019040861e-09 4.47011861902112e-09 9.91588472834595e-08 5.65513405102026e-08 6.16924632595895e-09 9.78005472081967e-09
"466" 11681 8.21541760998175e-08 5.3970039154612e-09 4.53777079079173e-09 4.4717280285127e-09 9.91840038100857e-08 5.63529057864611e-08 6.16038527086799e-09 9.76539306261051e-09
"467" 11682 8.21669610379772e-08 5.38687898326351e-09 4.54573139117484e-09 4.47333743800428e-09 9.92091603367119e-08 5.61544710627197e-08 6.15152421577702e-09 9.75073140440134e-09
"468" 11683 8.21797459761369e-08 5.37675405106583e-09 4.55369199155795e-09 4.47494684749587e-09 9.92343168633381e-08 5.59560363389783e-08 6.14266316068606e-09 9.73606974619218e-09
"469" 11684 8.21925309142966e-08 5.36662911886814e-09 4.56165259194106e-09 4.47655625698745e-09 9.92594733899643e-08 5.57576016152368e-08 6.13380210559509e-09 9.72140808798302e-09
"470" 11685 8.22053158524563e-08 5.35650418667045e-09 4.56961319232417e-09 4.47816566647904e-09 9.92846299165905e-08 5.55591668914954e-08 6.12494105050412e-09 9.70674642977385e-09
"471" 11686 8.22181007906159e-08 5.34637925447277e-09 4.57757379270728e-09 4.47977507597062e-09 9.93097864432166e-08 5.53607321677539e-08 6.11607999541316e-09 9.69208477156469e-09
"472" 11687 8.22325892187879e-08 5.32505485761596e-09 4.58055172429138e-09 4.49936490521376e-09 1.01482230503434e-07 5.51678611024124e-08 6.1108267131614e-09 9.67742311335553e-09
"473" 11688 8.21771878200959e-08 5.31119467923164e-09 4.47290857368957e-09 4.43842918230664e-09 1.0080709614739e-07 5.54570950447353e-08 6.15838811111764e-09 9.75380982236269e-09
"474" 11689 8.21217864214039e-08 5.29733450084733e-09 4.36526542308776e-09 4.37749345939952e-09 1.00131961791345e-07 5.57463289870582e-08 6.20594950907388e-09 9.83019653136986e-09
"475" 11690 8.18897479694699e-08 5.29458386521002e-09 4.38098343983935e-09 4.37783290981941e-09 1.01361751119836e-07 5.63202610493901e-08 6.25035893767907e-09 9.90658324037703e-09
"476" 11691 8.16577095175359e-08 5.2918332295727e-09 4.39670145659095e-09 4.3781723602393e-09 1.02591540448327e-07 5.68941931117221e-08 6.29476836628426e-09 9.98296994938419e-09
"477" 11692 8.14256710656019e-08 5.28908259393538e-09 4.41241947334254e-09 4.37851181065919e-09 1.03821329776817e-07 5.7468125174054e-08 6.33917779488945e-09 1.00593566583914e-08
"478" 11693 8.11936326136679e-08 5.28633195829807e-09 4.42813749009414e-09 4.37885126107908e-09 1.05051119105308e-07 5.8042057236386e-08 6.38358722349464e-09 1.01357433673985e-08
"479" 11694 8.0961594161734e-08 5.28358132266075e-09 4.44385550684573e-09 4.37919071149897e-09 1.06280908433799e-07 5.86159892987179e-08 6.42799665209983e-09 1.02121300764057e-08
"480" 11695 8.07295557098e-08 5.28083068702344e-09 4.45957352359733e-09 4.37953016191886e-09 1.07510697762289e-07 5.91899213610499e-08 6.47240608070502e-09 1.02885167854129e-08
"481" 11696 8.0497517257866e-08 5.27808005138612e-09 4.47529154034892e-09 4.37986961233875e-09 1.0874048709078e-07 5.97638534233818e-08 6.5168155093102e-09 1.036490349442e-08
"482" 11697 8.0265478805932e-08 5.2753294157488e-09 4.49100955710052e-09 4.38020906275864e-09 1.09970276419271e-07 6.03377854857138e-08 6.56122493791539e-09 1.04412902034272e-08
"483" 11698 8.0033440353998e-08 5.27257878011149e-09 4.50672757385211e-09 4.38054851317853e-09 1.11200065747761e-07 6.09117175480457e-08 6.60563436652058e-09 1.05176769124344e-08
"484" 11699 7.9801401902064e-08 5.26982814447417e-09 4.52244559060371e-09 4.38088796359842e-09 1.12429855076252e-07 6.14856496103776e-08 6.65004379512577e-09 1.05940636214415e-08
"485" 11700 7.95693634501301e-08 5.26707750883686e-09 4.5381636073553e-09 4.38122741401831e-09 1.13659644404743e-07 6.20595816727096e-08 6.69445322373096e-09 1.06704503304487e-08
"486" 11701 7.93373249981961e-08 5.26432687319954e-09 4.5538816241069e-09 4.3815668644382e-09 1.14889433733233e-07 6.26335137350415e-08 6.73886265233615e-09 1.07468370394559e-08
"487" 11702 7.93559170173065e-08 5.26833188512255e-09 4.58758392731624e-09 4.37673863596345e-09 1.16204336562747e-07 6.32130094557734e-08 6.78736840631087e-09 1.08326914485706e-08
"488" 11703 7.93745090364169e-08 5.27233689704556e-09 4.62128623052559e-09 4.37191040748869e-09 1.1751923939226e-07 6.37925051765052e-08 6.83587416028559e-09 1.09185458576853e-08
"489" 11704 7.93931010555273e-08 5.27634190896857e-09 4.65498853373494e-09 4.36708217901394e-09 1.18834142221773e-07 6.43720008972371e-08 6.88437991426031e-09 1.10044002668e-08
"490" 11705 7.94116930746377e-08 5.28034692089158e-09 4.68869083694428e-09 4.36225395053919e-09 1.20149045051286e-07 6.49514966179689e-08 6.93288566823503e-09 1.10902546759147e-08
"491" 11706 7.94302850937481e-08 5.28435193281459e-09 4.72239314015363e-09 4.35742572206444e-09 1.214639478808e-07 6.55309923387007e-08 6.98139142220975e-09 1.11761090850294e-08
"492" 11707 7.94488771128585e-08 5.2883569447376e-09 4.75609544336298e-09 4.35259749358969e-09 1.22778850710313e-07 6.61104880594326e-08 7.02989717618447e-09 1.12619634941441e-08
"493" 11708 7.94674691319689e-08 5.29236195666062e-09 4.78979774657232e-09 4.34776926511493e-09 1.24093753539826e-07 6.66899837801644e-08 7.07840293015919e-09 1.13478179032588e-08
"494" 11709 7.9454229929806e-08 5.28444185472672e-09 4.798770440309e-09 4.36499486143041e-09 1.24553537232203e-07 6.68382211599372e-08 7.08450446858443e-09 1.13488498459708e-08
"495" 11710 7.94103642432647e-08 5.2915293072651e-09 4.79182193327945e-09 4.36111798663271e-09 1.2444761037133e-07 6.69538241791669e-08 7.10494314580303e-09 1.13570363227757e-08
"496" 11711 7.93664985567234e-08 5.29861675980348e-09 4.7848734262499e-09 4.35724111183502e-09 1.24341683510458e-07 6.70694271983967e-08 7.12538182302164e-09 1.13652227995805e-08
"497" 11712 7.93226328701821e-08 5.30570421234186e-09 4.77792491922035e-09 4.35336423703733e-09 1.24235756649586e-07 6.71850302176264e-08 7.14582050024024e-09 1.13734092763854e-08
"498" 11713 7.92787671836408e-08 5.31279166488025e-09 4.7709764121908e-09 4.34948736223963e-09 1.24129829788713e-07 6.73006332368562e-08 7.16625917745884e-09 1.13815957531902e-08
"499" 11714 7.92349014970996e-08 5.31987911741863e-09 4.76402790516126e-09 4.34561048744194e-09 1.24023902927841e-07 6.7416236256086e-08 7.18669785467744e-09 1.13897822299951e-08
"500" 11715 7.91910358105583e-08 5.32696656995701e-09 4.75707939813171e-09 4.34173361264425e-09 1.23917976066969e-07 6.75318392753157e-08 7.20713653189605e-09 1.13979687068e-08
"501" 11716 7.9147170124017e-08 5.33405402249539e-09 4.75013089110216e-09 4.33785673784656e-09 1.23812049206096e-07 6.76474422945455e-08 7.22757520911465e-09 1.14061551836048e-08
"502" 11717 7.91033044374757e-08 5.34114147503377e-09 4.74318238407261e-09 4.33397986304886e-09 1.23706122345224e-07 6.77630453137753e-08 7.24801388633325e-09 1.14143416604097e-08
"503" 11718 7.90594387509344e-08 5.34822892757215e-09 4.73623387704307e-09 4.33010298825117e-09 1.23600195484351e-07 6.7878648333005e-08 7.26845256355186e-09 1.14225281372145e-08
"504" 11719 7.90155730643931e-08 5.35531638011053e-09 4.72928537001352e-09 4.32622611345348e-09 1.23494268623479e-07 6.79942513522348e-08 7.28889124077046e-09 1.14307146140194e-08
"505" 11720 7.89717073778519e-08 5.36240383264891e-09 4.72233686298397e-09 4.32234923865579e-09 1.23388341762607e-07 6.81098543714646e-08 7.30932991798906e-09 1.14389010908243e-08
"506" 11721 7.89278416913106e-08 5.36949128518729e-09 4.71538835595442e-09 4.31847236385809e-09 1.23282414901734e-07 6.82254573906943e-08 7.32976859520766e-09 1.14470875676291e-08
"507" 11722 7.88839760047693e-08 5.37657873772567e-09 4.70843984892487e-09 4.3145954890604e-09 1.23176488040862e-07 6.83410604099241e-08 7.35020727242627e-09 1.1455274044434e-08
"508" 11723 7.88674773492194e-08 5.37384308907371e-09 4.69649894835021e-09 4.29765872810062e-09 1.22884297643769e-07 6.84176059377905e-08 7.35630881085151e-09 1.14526168975153e-08
"509" 11724 7.88730771995095e-08 5.35990797576262e-09 4.6995060541726e-09 4.29738627526334e-09 1.22548656301362e-07 6.83675371907932e-08 7.33773844449609e-09 1.14499597505967e-08
"510" 11725 7.88002346566244e-08 5.36383805275886e-09 4.69126933417911e-09 4.2826291370018e-09 1.22460666634705e-07 6.83986146322813e-08 7.3436171814707e-09 1.14441467036422e-08
"511" 11726 7.87273921137392e-08 5.3677681297551e-09 4.68303261418562e-09 4.26787199874026e-09 1.22372676968047e-07 6.84296920737694e-08 7.34949591844531e-09 1.14383336566877e-08
"512" 11727 7.86545495708541e-08 5.37169820675134e-09 4.67479589419213e-09 4.25311486047872e-09 1.2228468730139e-07 6.84607695152575e-08 7.35537465541992e-09 1.14325206097332e-08
"513" 11728 7.85817070279689e-08 5.37562828374757e-09 4.66655917419864e-09 4.23835772221719e-09 1.22196697634732e-07 6.84918469567455e-08 7.36125339239453e-09 1.14267075627787e-08
"514" 11729 7.85088644850838e-08 5.37955836074381e-09 4.65832245420515e-09 4.22360058395565e-09 1.22108707968074e-07 6.85229243982336e-08 7.36713212936913e-09 1.14208945158243e-08
"515" 11730 7.87953115159073e-08 5.38622408639201e-09 4.65230824256036e-09 4.2219033318562e-09 1.22093676197705e-07 6.85164019206546e-08 7.36718527958507e-09 1.1433354734635e-08
"516" 11731 7.90817585467307e-08 5.39288981204021e-09 4.64629403091558e-09 4.22020607975675e-09 1.22078644427335e-07 6.85098794430756e-08 7.36723842980101e-09 1.14458149534458e-08
"517" 11732 7.93682055775542e-08 5.3995555376884e-09 4.6402798192708e-09 4.21850882765731e-09 1.22063612656966e-07 6.85033569654966e-08 7.36729158001695e-09 1.14582751722566e-08
"518" 11733 7.96546526083777e-08 5.4062212633366e-09 4.63426560762601e-09 4.21681157555786e-09 1.22048580886596e-07 6.84968344879176e-08 7.36734473023288e-09 1.14707353910674e-08
"519" 11734 7.99410996392012e-08 5.4128869889848e-09 4.62825139598123e-09 4.21511432345841e-09 1.22033549116226e-07 6.84903120103386e-08 7.36739788044882e-09 1.14831956098782e-08
"520" 11735 8.02275466700247e-08 5.419552714633e-09 4.62223718433645e-09 4.21341707135896e-09 1.22018517345857e-07 6.84837895327596e-08 7.36745103066476e-09 1.1495655828689e-08
"521" 11736 8.05139937008482e-08 5.4262184402812e-09 4.61622297269166e-09 4.21171981925952e-09 1.22003485575487e-07 6.84772670551806e-08 7.3675041808807e-09 1.15081160474998e-08
"522" 11737 8.08004407316717e-08 5.43288416592939e-09 4.61020876104688e-09 4.21002256716007e-09 1.21988453805117e-07 6.84707445776016e-08 7.36755733109664e-09 1.15205762663105e-08
"523" 11738 8.10868877624951e-08 5.43954989157759e-09 4.60419454940209e-09 4.20832531506062e-09 1.21973422034748e-07 6.84642221000226e-08 7.36761048131257e-09 1.15330364851213e-08
"524" 11739 8.13733347933186e-08 5.44621561722579e-09 4.59818033775731e-09 4.20662806296117e-09 1.21958390264378e-07 6.84576996224436e-08 7.36766363152851e-09 1.15454967039321e-08
"525" 11740 8.16597818241421e-08 5.45288134287399e-09 4.59216612611253e-09 4.20493081086173e-09 1.21943358494008e-07 6.84511771448646e-08 7.36771678174445e-09 1.15579569227429e-08
"526" 11741 8.19462288549656e-08 5.45954706852219e-09 4.58615191446774e-09 4.20323355876228e-09 1.21928326723639e-07 6.84446546672856e-08 7.36776993196039e-09 1.15704171415537e-08
"527" 11742 8.22326758857891e-08 5.46621279417039e-09 4.58013770282296e-09 4.20153630666283e-09 1.21913294953269e-07 6.84381321897066e-08 7.36782308217632e-09 1.15828773603645e-08
"528" 11743 8.21324663119125e-08 5.47996597235696e-09 4.59281457714081e-09 4.18793597733302e-09 1.21763473735449e-07 6.84877408706419e-08 7.36760028072569e-09 1.15712598755749e-08
"529" 11744 8.20322567380359e-08 5.49371915054354e-09 4.60549145145867e-09 4.17433564800322e-09 1.21613652517628e-07 6.85373495515773e-08 7.36737747927505e-09 1.15596423907853e-08
"530" 11745 8.20972433255238e-08 5.50361927796091e-09 4.602217950772e-09 4.16211842788507e-09 1.21455007520244e-07 6.85443707822735e-08 7.36931934152794e-09 1.15516709500294e-08
"531" 11746 8.15348371386339e-08 5.4997662271917e-09 4.60894382429472e-09 4.15497658154685e-09 1.2131139429323e-07 6.84917695826349e-08 7.34628059829143e-09 1.15295193859427e-08
"532" 11747 8.0972430951744e-08 5.49591317642248e-09 4.61566969781743e-09 4.14783473520864e-09 1.21167781066216e-07 6.84391683829963e-08 7.32324185505492e-09 1.15073678218561e-08
"533" 11748 8.11444270138616e-08 5.49591317642248e-09 4.58869326813081e-09 4.13343789239225e-09 1.20379424082463e-07 6.84813731412842e-08 7.32131019338891e-09 1.14699871654237e-08
"534" 11749 8.13164230759792e-08 5.49591317642248e-09 4.56171683844418e-09 4.11904104957585e-09 1.19591067098709e-07 6.85235778995721e-08 7.31937853172291e-09 1.14326065089913e-08
"535" 11750 8.14884191380969e-08 5.49591317642248e-09 4.53474040875755e-09 4.10464420675946e-09 1.18802710114956e-07 6.856578265786e-08 7.3174468700569e-09 1.1395225852559e-08
"536" 11751 8.16604152002145e-08 5.49591317642248e-09 4.50776397907093e-09 4.09024736394306e-09 1.18014353131203e-07 6.86079874161478e-08 7.31551520839089e-09 1.13578451961266e-08
"537" 11752 8.18324112623321e-08 5.49591317642248e-09 4.4807875493843e-09 4.07585052112667e-09 1.1722599614745e-07 6.86501921744357e-08 7.31358354672489e-09 1.13204645396943e-08
"538" 11753 8.20044073244497e-08 5.49591317642248e-09 4.45381111969767e-09 4.06145367831028e-09 1.16437639163696e-07 6.86923969327236e-08 7.31165188505888e-09 1.12830838832619e-08
"539" 11754 8.21764033865673e-08 5.49591317642248e-09 4.42683469001105e-09 4.04705683549388e-09 1.15649282179943e-07 6.87346016910115e-08 7.30972022339287e-09 1.12457032268296e-08
"540" 11755 8.2348399448685e-08 5.49591317642248e-09 4.39985826032442e-09 4.03265999267749e-09 1.1486092519619e-07 6.87768064492993e-08 7.30778856172687e-09 1.12083225703972e-08
"541" 11756 8.25203955108026e-08 5.49591317642248e-09 4.37288183063779e-09 4.0182631498611e-09 1.14072568212437e-07 6.88190112075872e-08 7.30585690006086e-09 1.11709419139648e-08
"542" 11757 8.26923915729202e-08 5.49591317642248e-09 4.34590540095117e-09 4.0038663070447e-09 1.13284211228683e-07 6.88612159658751e-08 7.30392523839485e-09 1.11335612575325e-08
"543" 11758 8.27467907789458e-08 5.49206012565327e-09 4.33892771968332e-09 4.00307425606496e-09 1.13202733023291e-07 6.83050884461432e-08 7.289917201484e-09 1.11277137741004e-08
"544" 11759 8.28011899849715e-08 5.48820707488406e-09 4.33195003841547e-09 4.00228220508522e-09 1.13121254817898e-07 6.77489609264113e-08 7.27590916457315e-09 1.11218662906684e-08
"545" 11760 8.28555891909972e-08 5.48435402411485e-09 4.32497235714762e-09 4.00149015410548e-09 1.13039776612506e-07 6.71928334066794e-08 7.2619011276623e-09 1.11160188072364e-08
"546" 11761 8.29099883970228e-08 5.48050097334563e-09 4.31799467587977e-09 4.00069810312573e-09 1.12958298407114e-07 6.66367058869475e-08 7.24789309075145e-09 1.11101713238043e-08
"547" 11762 8.29643876030485e-08 5.47664792257642e-09 4.31101699461193e-09 3.99990605214599e-09 1.12876820201721e-07 6.60805783672156e-08 7.2338850538406e-09 1.11043238403723e-08
"548" 11763 8.30187868090742e-08 5.47279487180721e-09 4.30403931334408e-09 3.99911400116625e-09 1.12795341996329e-07 6.55244508474837e-08 7.21987701692976e-09 1.10984763569402e-08
"549" 11764 8.30731860150998e-08 5.46894182103800e-09 4.29706163207623e-09 3.99832195018651e-09 1.12713863790936e-07 6.49683233277518e-08 7.20586898001891e-09 1.10926288735082e-08
"550" 11765 8.31275852211255e-08 5.46508877026878e-09 4.29008395080838e-09 3.99752989920677e-09 1.12632385585544e-07 6.44121958080199e-08 7.19186094310806e-09 1.10867813900761e-08
"551" 11766 8.30117117563868e-08 5.45534060400521e-09 4.27814305023372e-09 3.99419793008363e-09 1.12977704189939e-07 6.38425245800128e-08 7.21191736822821e-09 1.1090109280564e-08
"552" 11767 8.30117117563868e-08 5.46335062785123e-09 4.27639498313697e-09 3.99075281082054e-09 1.13294225301975e-07 6.37842781692618e-08 7.25031115766626e-09 1.10956041739726e-08
"553" 11768 8.30117117563868e-08 5.47136065169726e-09 4.27464691604022e-09 3.98730769155744e-09 1.1361074641401e-07 6.37260317585109e-08 7.28870494710432e-09 1.11010990673813e-08
"554" 11769 8.30117117563868e-08 5.47937067554328e-09 4.27289884894347e-09 3.98386257229435e-09 1.13927267526046e-07 6.36677853477599e-08 7.32709873654237e-09 1.110659396079e-08
"555" 11770 8.30117117563868e-08 5.4873806993893e-09 4.27115078184672e-09 3.98041745303126e-09 1.14243788638082e-07 6.36095389370089e-08 7.36549252598043e-09 1.11120888541986e-08
"556" 11771 8.30117117563868e-08 5.49539072323532e-09 4.26940271474997e-09 3.97697233376816e-09 1.14560309750118e-07 6.3551292526258e-08 7.40388631541848e-09 1.11175837476073e-08
"557" 11772 8.30117117563868e-08 5.50340074708134e-09 4.26765464765322e-09 3.97352721450507e-09 1.14876830862154e-07 6.3493046115507e-08 7.44228010485654e-09 1.1123078641016e-08
"558" 11773 8.30117117563868e-08 5.51141077092736e-09 4.26590658055647e-09 3.97008209524197e-09 1.1519335197419e-07 6.34347997047561e-08 7.48067389429459e-09 1.11285735344246e-08
"559" 11774 8.30117117563868e-08 5.51942079477338e-09 4.26415851345972e-09 3.96663697597888e-09 1.15509873086226e-07 6.33765532940051e-08 7.51906768373264e-09 1.11340684278333e-08
"560" 11775 8.30117117563868e-08 5.5274308186194e-09 4.26241044636297e-09 3.96319185671578e-09 1.15826394198262e-07 6.33183068832541e-08 7.5574614731707e-09 1.1139563321242e-08
"561" 11776 8.30117117563868e-08 5.53544084246543e-09 4.26066237926622e-09 3.95974673745269e-09 1.16142915310298e-07 6.32600604725032e-08 7.59585526260875e-09 1.11450582146506e-08
"562" 11777 8.30117117563868e-08 5.54345086631145e-09 4.25891431216947e-09 3.95630161818959e-09 1.16459436422334e-07 6.32018140617522e-08 7.6342490520468e-09 1.11505531080593e-08
"563" 11778 8.30117117563868e-08 5.55146089015747e-09 4.25716624507272e-09 3.9528564989265e-09 1.1677595753437e-07 6.31435676510012e-08 7.67264284148486e-09 1.1156048001468e-08
"564" 11779 8.30117117563868e-08 5.55947091400349e-09 4.25541817797597e-09 3.9494113796634e-09 1.17092478646405e-07 6.30853212402503e-08 7.71103663092291e-09 1.11615428948766e-08
"565" 11780 8.29991984393427e-08 5.56241847175067e-09 4.2516653736643e-09 3.94861932868366e-09 1.17168722779119e-07 6.3076103204605e-08 7.71330759505831e-09 1.11661778360253e-08
"566" 11781 8.29866851222986e-08 5.56536602949784e-09 4.24791256935262e-09 3.94782727770392e-09 1.17244966911832e-07 6.30668851689597e-08 7.71557855919371e-09 1.1170812777174e-08
"567" 11782 8.29885665687666e-08 5.53906908845432e-09 4.2481595147247e-09 3.94594541537506e-09 1.17321211044545e-07 6.31154106123464e-08 7.72194584869865e-09 1.11722832091675e-08
"568" 11783 8.29233387899814e-08 5.51293700424969e-09 4.24840646009678e-09 3.94168293760012e-09 1.17321211044545e-07 6.31694997141329e-08 7.71949503274166e-09 1.1098837556083e-08
"569" 11784 8.40850296202296e-08 5.49511677489843e-09 4.25240620978053e-09 3.93476739154183e-09 1.17489123233127e-07 6.31785933314086e-08 7.71704421678468e-09 1.10232335091971e-08
"570" 11785 8.52467204504777e-08 5.47729654554717e-09 4.25640595946429e-09 3.92785184548354e-09 1.17657035421708e-07 6.31876869486842e-08 7.7145934008277e-09 1.09476294623112e-08
"571" 11786 8.64084112807259e-08 5.45947631619592e-09 4.26040570914804e-09 3.92093629942525e-09 1.1782494761029e-07 6.31967805659599e-08 7.71214258487072e-09 1.08720254154253e-08
"572" 11787 8.75701021109741e-08 5.44165608684466e-09 4.2644054588318e-09 3.91402075336696e-09 1.17992859798872e-07 6.32058741832356e-08 7.70969176891374e-09 1.07964213685393e-08
"573" 11788 8.87317929412223e-08 5.4238358574934e-09 4.26840520851556e-09 3.90710520730867e-09 1.18160771987454e-07 6.32149678005112e-08 7.70724095295676e-09 1.07208173216534e-08
"574" 11789 8.98934837714705e-08 5.40601562814214e-09 4.27240495819931e-09 3.90018966125039e-09 1.18328684176035e-07 6.32240614177869e-08 7.70479013699978e-09 1.06452132747675e-08
"575" 11790 9.10551746017187e-08 5.38819539879088e-09 4.27640470788307e-09 3.8932741151921e-09 1.18496596364617e-07 6.32331550350625e-08 7.7023393210428e-09 1.05696092278816e-08
"576" 11791 9.22168654319669e-08 5.37037516943962e-09 4.28040445756682e-09 3.88635856913381e-09 1.18664508553199e-07 6.32422486523382e-08 7.69988850508582e-09 1.04940051809957e-08
"577" 11792 9.33785562622151e-08 5.35255494008836e-09 4.28440420725058e-09 3.87944302307552e-09 1.1883242074178e-07 6.32513422696139e-08 7.69743768912884e-09 1.04184011341098e-08
"578" 11793 9.45402470924633e-08 5.3347347107371e-09 4.28840395693433e-09 3.87252747701723e-09 1.19000332930362e-07 6.32604358868895e-08 7.69498687317186e-09 1.03427970872239e-08
"579" 11794 9.57019379227115e-08 5.31691448138584e-09 4.29240370661809e-09 3.86561193095894e-09 1.19168245118944e-07 6.32695295041652e-08 7.69253605721488e-09 1.0267193040338e-08
"580" 11795 9.68636287529597e-08 5.29909425203458e-09 4.29640345630185e-09 3.85869638490065e-09 1.19336157307525e-07 6.32786231214408e-08 7.69008524125789e-09 1.0191588993452e-08
"581" 11796 9.80253195832079e-08 5.28127402268332e-09 4.3004032059856e-09 3.85178083884236e-09 1.19504069496107e-07 6.32877167387165e-08 7.68763442530091e-09 1.01159849465661e-08
"582" 11797 9.91870104134561e-08 5.26345379333207e-09 4.30440295566936e-09 3.84486529278407e-09 1.19671981684689e-07 6.32968103559922e-08 7.68518360934393e-09 1.00403808996802e-08
"583" 11798 1.00348701243704e-07 5.24563356398081e-09 4.30840270535311e-09 3.83794974672579e-09 1.19839893873271e-07 6.33059039732678e-08 7.68273279338695e-09 9.96477685279431e-09
"584" 11799 1.01510392073953e-07 5.22781333462955e-09 4.31240245503687e-09 3.8310342006675e-09 1.20007806061852e-07 6.33149975905435e-08 7.68028197742997e-09 9.8891728059084e-09
"585" 11800 1.02672082904201e-07 5.20999310527829e-09 4.31640220472063e-09 3.82411865460921e-09 1.20175718250434e-07 6.33240912078191e-08 7.67783116147299e-09 9.81356875902249e-09
"586" 11801 1.03404805095356e-07 5.18212287865612e-09 4.33238175396345e-09 3.84887616274699e-09 1.20903446224654e-07 6.3729473966748e-08 7.68104648162687e-09 9.74012310593801e-09
"587" 11802 1.0413752728651e-07 5.15425265203394e-09 4.34836130320627e-09 3.87363367088476e-09 1.21631174198874e-07 6.41348567256769e-08 7.68426180178074e-09 9.66667745285353e-09
"588" 11803 1.04054097362163e-07 5.11220542903476e-09 4.33242065294785e-09 3.90301841474947e-09 1.21591204772644e-07 6.4558817768312e-08 7.67894516872617e-09 9.66915400020079e-09
"589" 11804 1.03923330380795e-07 5.11196354596883e-09 4.31644110370503e-09 3.9379102879287e-09 1.21700762846512e-07 6.5066062224317e-08 7.64440450203324e-09 9.63792176250752e-09
"590" 11805 1.03792563399427e-07 5.11172166290291e-09 4.3004615544622e-09 3.97280216110793e-09 1.21810320920381e-07 6.5573306680322e-08 7.60986383534032e-09 9.60668952481425e-09
"591" 11806 1.03661796418059e-07 5.11147977983698e-09 4.28448200521938e-09 4.00769403428717e-09 1.21919878994249e-07 6.60805511363271e-08 7.57532316864739e-09 9.57545728712098e-09
"592" 11807 1.03531029436691e-07 5.11123789677105e-09 4.26850245597655e-09 4.0425859074664e-09 1.22029437068118e-07 6.65877955923321e-08 7.54078250195447e-09 9.54422504942772e-09
"593" 11808 1.03400262455323e-07 5.11099601370513e-09 4.25252290673373e-09 4.07747778064564e-09 1.22138995141986e-07 6.70950400483371e-08 7.50624183526154e-09 9.51299281173445e-09
"594" 11809 1.03269495473955e-07 5.1107541306392e-09 4.23654335749091e-09 4.11236965382487e-09 1.22248553215855e-07 6.76022845043421e-08 7.47170116856862e-09 9.48176057404118e-09
"595" 11810 1.03138728492587e-07 5.11051224757328e-09 4.22056380824808e-09 4.1472615270041e-09 1.22358111289723e-07 6.81095289603471e-08 7.43716050187569e-09 9.45052833634791e-09
"596" 11811 1.03007961511219e-07 5.11027036450735e-09 4.20458425900526e-09 4.18215340018334e-09 1.22467669363591e-07 6.86167734163522e-08 7.40261983518277e-09 9.41929609865465e-09
"597" 11812 1.02877194529851e-07 5.11002848144142e-09 4.18860470976244e-09 4.21704527336257e-09 1.2257722743746e-07 6.91240178723572e-08 7.36807916848984e-09 9.38806386096138e-09
"598" 11813 1.02746427548483e-07 5.1097865983755e-09 4.17262516051961e-09 4.25193714654181e-09 1.22686785511328e-07 6.96312623283622e-08 7.33353850179692e-09 9.35683162326811e-09
"599" 11814 1.02615660567115e-07 5.10954471530957e-09 4.15664561127679e-09 4.28682901972104e-09 1.22796343585197e-07 7.01385067843672e-08 7.29899783510399e-09 9.32559938557484e-09
"600" 11815 1.02484893585747e-07 5.10930283224365e-09 4.14066606203397e-09 4.32172089290028e-09 1.22905901659065e-07 7.06457512403722e-08 7.26445716841107e-09 9.29436714788157e-09
"601" 11816 1.02354126604379e-07 5.10906094917772e-09 4.12468651279114e-09 4.35661276607951e-09 1.23015459732934e-07 7.11529956963773e-08 7.22991650171815e-09 9.26313491018831e-09
"602" 11817 1.02223359623011e-07 5.10881906611179e-09 4.10870696354832e-09 4.39150463925874e-09 1.23125017806802e-07 7.16602401523823e-08 7.19537583502522e-09 9.23190267249504e-09
"603" 11818 1.02092592641643e-07 5.10857718304587e-09 4.0927274143055e-09 4.42639651243798e-09 1.23234575880671e-07 7.21674846083873e-08 7.1608351683323e-09 9.20067043480177e-09
"604" 11819 1.01961825660275e-07 5.10833529997994e-09 4.07674786506267e-09 4.46128838561721e-09 1.23344133954539e-07 7.26747290643923e-08 7.12629450163937e-09 9.1694381971085e-09
"605" 11820 1.01831058678907e-07 5.10809341691401e-09 4.06076831581985e-09 4.49618025879645e-09 1.23453692028408e-07 7.31819735203973e-08 7.09175383494645e-09 9.13820595941524e-09
"606" 11821 1.01700291697538e-07 5.10785153384809e-09 4.04478876657703e-09 4.53107213197568e-09 1.23563250102276e-07 7.36892179764024e-08 7.05721316825352e-09 9.10697372172197e-09
"607" 11822 1.0156952471617e-07 5.10760965078216e-09 4.0288092173342e-09 4.56596400515492e-09 1.23672808176145e-07 7.41964624324074e-08 7.0226725015606e-09 9.0757414840287e-09
"608" 11823 1.01438757734802e-07 5.10736776771624e-09 4.01282966809138e-09 4.60085587833415e-09 1.23782366250013e-07 7.47037068884124e-08 6.98813183486767e-09 9.04450924633543e-09
"609" 11824 1.01273710255689e-07 5.11939779047062e-09 3.99910180143556e-09 4.59858841302804e-09 1.23918874910216e-07 7.47002501250454e-08 6.95890780122933e-09 9.0099663363931e-09
"610" 11825 1.01322207560491e-07 5.12316091932771e-09 3.99985722467095e-09 4.62653943261689e-09 1.23690869888696e-07 7.4738112496296e-08 6.96062686203158e-09 9.01908144647726e-09
"611" 11826 1.01380428207862e-07 5.12495900968667e-09 3.98491894301999e-09 4.65449045220573e-09 1.21029305971982e-07 7.47692631332929e-08 6.96423463487079e-09 9.03036355948225e-09
"612" 11827 1.01438648855234e-07 5.12675710004564e-09 3.96998066136903e-09 4.68244147179458e-09 1.18367742055269e-07 7.48004137702897e-08 6.96784240771e-09 9.04164567248724e-09
"613" 11828 1.01496869502605e-07 5.1285551904046e-09 3.95504237971807e-09 4.71039249138342e-09 1.15706178138555e-07 7.48315644072866e-08 6.97145018054921e-09 9.05292778549223e-09
"614" 11829 1.01555090149976e-07 5.13035328076357e-09 3.94010409806711e-09 4.73834351097227e-09 1.13044614221842e-07 7.48627150442835e-08 6.97505795338842e-09 9.06420989849722e-09
"615" 11830 1.01613310797348e-07 5.13215137112254e-09 3.92516581641615e-09 4.76629453056111e-09 1.10383050305128e-07 7.48938656812803e-08 6.97866572622762e-09 9.07549201150221e-09
"616" 11831 1.01671531444719e-07 5.1339494614815e-09 3.91022753476519e-09 4.79424555014996e-09 1.07721486388415e-07 7.49250163182772e-08 6.98227349906683e-09 9.08677412450720e-09
"617" 11832 1.0172975209209e-07 5.13574755184047e-09 3.89528925311423e-09 4.82219656973881e-09 1.05059922471702e-07 7.4956166955274e-08 6.98588127190604e-09 9.09805623751218e-09
"618" 11833 1.01787972739462e-07 5.13754564219943e-09 3.88035097146327e-09 4.85014758932765e-09 1.02398358554988e-07 7.49873175922709e-08 6.98948904474525e-09 9.10933835051717e-09
"619" 11834 1.01846193386833e-07 5.1393437325584e-09 3.86541268981231e-09 4.8780986089165e-09 9.97367946382746e-08 7.50184682292678e-08 6.99309681758446e-09 9.12062046352216e-09
"620" 11835 1.01904414034205e-07 5.14114182291737e-09 3.85047440816135e-09 4.90604962850534e-09 9.70752307215611e-08 7.50496188662646e-08 6.99670459042366e-09 9.13190257652715e-09
"621" 11836 1.01907880718252e-07 5.14785250952163e-09 3.83478556564806e-09 4.91511948972978e-09 9.43610316805602e-08 7.50817366796443e-08 6.99747929520744e-09 9.1443886226961e-09
"622" 11837 1.019113474023e-07 5.15456319612589e-09 3.81909672313476e-09 4.92418935095421e-09 9.16468326395593e-08 7.51138544930239e-08 6.99825399999122e-09 9.15687466886505e-09
"623" 11838 1.01914814086347e-07 5.16127388273015e-09 3.80340788062147e-09 4.93325921217864e-09 8.89326335985585e-08 7.51459723064035e-08 6.999028704775e-09 9.16936071503401e-09
"624" 11839 1.01918280770395e-07 5.16798456933441e-09 3.78771903810817e-09 4.94232907340308e-09 8.62184345575576e-08 7.51780901197832e-08 6.99980340955878e-09 9.18184676120296e-09
"625" 11840 1.01863526807071e-07 5.12069503641213e-09 3.7630088781277e-09 4.93895095172259e-09 8.62250208657788e-08 7.50278838787914e-08 6.9967577406396e-09 9.1945047978239e-09
"626" 11841 1.01415182870952e-07 5.12566758059885e-09 3.72737963567223e-09 4.90837217138250e-09 8.61803145325179e-08 7.49902839597243e-08 6.91653204015898e-09 9.00940712750439e-09
"627" 11842 1.00966838934833e-07 5.13064012478556e-09 3.69175039321675e-09 4.8777933910424e-09 8.61356081992571e-08 7.49526840406573e-08 6.83630633967836e-09 8.82430945718488e-09
"628" 11843 1.00516114799129e-07 5.13070007272698e-09 3.65612115076128e-09 4.87169520349595e-09 8.65725989421545e-08 7.509151412811e-08 6.75525278419803e-09 8.62655375024442e-09
"629" 11844 1.00065390663425e-07 5.1307600206684e-09 3.6204919083058e-09 4.8655970159495e-09 8.70095896850519e-08 7.52303442155627e-08 6.67419922871769e-09 8.42879804330397e-09
"630" 11845 9.96146665277203e-08 5.13081996860982e-09 3.58486266585033e-09 4.85949882840306e-09 8.74465804279493e-08 7.53691743030155e-08 6.59314567323735e-09 8.23104233636351e-09
"631" 11846 9.91639423920161e-08 5.13087991655124e-09 3.54923342339486e-09 4.85340064085661e-09 8.78835711708468e-08 7.55080043904682e-08 6.51209211775702e-09 8.03328662942305e-09
"632" 11847 9.87132182563119e-08 5.13093986449265e-09 3.51360418093938e-09 4.84730245331016e-09 8.83205619137442e-08 7.5646834477921e-08 6.43103856227668e-09 7.83553092248259e-09
"633" 11848 9.82624941206077e-08 5.13099981243407e-09 3.47797493848391e-09 4.84120426576372e-09 8.87575526566416e-08 7.57856645653737e-08 6.34998500679635e-09 7.63777521554214e-09
"634" 11849 9.78117699849035e-08 5.13105976037549e-09 3.44234569602843e-09 4.83510607821727e-09 8.9194543399539e-08 7.59244946528264e-08 6.26893145131601e-09 7.44001950860168e-09
"635" 11850 9.73610458491993e-08 5.13111970831691e-09 3.40671645357296e-09 4.82900789067082e-09 8.96315341424365e-08 7.60633247402792e-08 6.18787789583567e-09 7.24226380166122e-09
"636" 11851 9.69103217134951e-08 5.13117965625833e-09 3.37108721111748e-09 4.82290970312437e-09 9.00685248853339e-08 7.62021548277319e-08 6.10682434035534e-09 7.04450809472076e-09
"637" 11852 9.6459597577791e-08 5.13123960419975e-09 3.33545796866201e-09 4.81681151557793e-09 9.05055156282313e-08 7.63409849151847e-08 6.025770784875e-09 6.8467523877803e-09
"638" 11853 9.60088734420868e-08 5.13129955214117e-09 3.29982872620654e-09 4.81071332803148e-09 9.09425063711288e-08 7.64798150026374e-08 5.94471722939466e-09 6.64899668083985e-09
"639" 11854 9.55581493063826e-08 5.13135950008259e-09 3.26419948375106e-09 4.80461514048503e-09 9.13794971140262e-08 7.66186450900901e-08 5.86366367391433e-09 6.45124097389939e-09
"640" 11855 9.51074251706784e-08 5.13141944802401e-09 3.22857024129559e-09 4.79851695293859e-09 9.18164878569236e-08 7.67574751775429e-08 5.78261011843399e-09 6.25348526695893e-09
"641" 11856 9.46567010349742e-08 5.13147939596542e-09 3.19294099884011e-09 4.79241876539214e-09 9.2253478599821e-08 7.68963052649956e-08 5.70155656295366e-09 6.05572956001847e-09
"642" 11857 9.420597689927e-08 5.13153934390684e-09 3.15731175638464e-09 4.78632057784569e-09 9.26904693427185e-08 7.70351353524483e-08 5.62050300747332e-09 5.85797385307802e-09
"643" 11858 9.37552527635658e-08 5.13159929184826e-09 3.12168251392916e-09 4.78022239029925e-09 9.31274600856159e-08 7.71739654399011e-08 5.53944945199298e-09 5.66021814613756e-09
"644" 11859 9.33660087286199e-08 5.12788112394724e-09 3.08605327147369e-09 4.74800889293546e-09 9.31079477024593e-08 7.71146054617498e-08 5.46049720941335e-09 5.48637676146487e-09
"645" 11860 9.33295552619498e-08 5.12812300701317e-09 3.08630507921882e-09 4.75163415992113e-09 9.30868462949902e-08 7.70729810092916e-08 5.45893759925891e-09 5.5019928803115e-09
"646" 11861 9.32557690748081e-08 5.12837987706445e-09 3.08730744782628e-09 4.76414914040866e-09 9.34957920977246e-08 7.7329318138888e-08 5.45721853845665e-09 5.49353129555776e-09
"647" 11862 9.21892019361726e-08 5.11636484129542e-09 3.07931767320487e-09 4.76414914040866e-09 9.39581834135903e-08 7.7639744370271e-08 5.45056509669826e-09 5.48919728971612e-09
"648" 11863 9.11226347975372e-08 5.10434980552638e-09 3.07132789858346e-09 4.76414914040866e-09 9.44205747294561e-08 7.79501706016539e-08 5.44391165493988e-09 5.48486328387447e-09
"649" 11864 9.00560676589018e-08 5.09233476975735e-09 3.06333812396205e-09 4.76414914040866e-09 9.48829660453218e-08 7.82605968330369e-08 5.43725821318149e-09 5.48052927803283e-09
"650" 11865 8.89895005202664e-08 5.08031973398832e-09 3.05534834934063e-09 4.76414914040866e-09 9.53453573611875e-08 7.85710230644199e-08 5.4306047714231e-09 5.47619527219118e-09
"651" 11866 8.7922933381631e-08 5.06830469821929e-09 3.04735857471922e-09 4.76414914040866e-09 9.58077486770532e-08 7.88814492958029e-08 5.42395132966471e-09 5.47186126634954e-09
"652" 11867 8.68563662429956e-08 5.05628966245026e-09 3.03936880009781e-09 4.76414914040866e-09 9.62701399929189e-08 7.91918755271859e-08 5.41729788790633e-09 5.46752726050789e-09
"653" 11868 8.57897991043602e-08 5.04427462668123e-09 3.0313790254764e-09 4.76414914040866e-09 9.67325313087846e-08 7.95023017585689e-08 5.41064444614794e-09 5.46319325466625e-09
"654" 11869 8.47232319657248e-08 5.03225959091220e-09 3.02338925085499e-09 4.76414914040866e-09 9.71949226246503e-08 7.98127279899518e-08 5.40399100438955e-09 5.4588592488246e-09
"655" 11870 8.36566648270893e-08 5.02024455514316e-09 3.01539947623358e-09 4.76414914040866e-09 9.7657313940516e-08 8.01231542213348e-08 5.39733756263116e-09 5.45452524298295e-09
"656" 11871 8.25900976884539e-08 5.00822951937413e-09 3.00740970161217e-09 4.76414914040866e-09 9.81197052563818e-08 8.04335804527178e-08 5.39068412087278e-09 5.45019123714131e-09
"657" 11872 8.15235305498185e-08 4.9962144836051e-09 2.99941992699075e-09 4.76414914040866e-09 9.85820965722475e-08 8.07440066841008e-08 5.38403067911439e-09 5.44585723129966e-09
"658" 11873 8.04569634111831e-08 4.98419944783607e-09 2.99143015236934e-09 4.76414914040866e-09 9.90444878881132e-08 8.10544329154837e-08 5.377377237356e-09 5.44152322545802e-09
"659" 11874 7.93903962725477e-08 4.97218441206704e-09 2.98344037774793e-09 4.76414914040866e-09 9.95068792039789e-08 8.13648591468667e-08 5.37072379559761e-09 5.43718921961637e-09
"660" 11875 7.83238291339123e-08 4.960169376298e-09 2.97545060312652e-09 4.76414914040866e-09 9.99692705198446e-08 8.16752853782497e-08 5.36407035383922e-09 5.43285521377473e-09
"661" 11876 7.72572619952769e-08 4.94815434052897e-09 2.96746082850511e-09 4.76414914040866e-09 1.0043166183571e-07 8.19857116096327e-08 5.35741691208084e-09 5.42852120793308e-09
"662" 11877 7.61906948566414e-08 4.93613930475994e-09 2.95947105388370e-09 4.76414914040866e-09 1.00894053151576e-07 8.22961378410157e-08 5.35076347032245e-09 5.42418720209144e-09
"663" 11878 7.5124127718006e-08 4.92412426899091e-09 2.95148127926228e-09 4.76414914040866e-09 1.01356444467442e-07 8.26065640723986e-08 5.34411002856406e-09 5.41985319624979e-09
"664" 11879 7.40575605793706e-08 4.91210923322188e-09 2.94349150464087e-09 4.76414914040866e-09 1.01818835783307e-07 8.29169903037816e-08 5.33745658680567e-09 5.41551919040815e-09
"665" 11880 7.30549181315337e-08 4.92992946257314e-09 2.96464718195124e-09 4.74782428270605e-09 1.01813260816691e-07 8.31739129974483e-08 5.3288612827944e-09 5.41235468125291e-09
"666" 11881 7.3084295389903e-08 4.92470004833514e-09 2.95244474888535e-09 4.76303848403428e-09 1.0190233667191e-07 8.31396882890358e-08 5.33362601251583e-09 5.40090057779593e-09
"667" 11882 7.31136726482724e-08 4.91947063409715e-09 2.94024231581945e-09 4.77825268536252e-09 1.01991412527129e-07 8.31054635806232e-08 5.33839074223727e-09 5.38944647433894e-09
"668" 11883 7.31508274122883e-08 4.94206648552526e-09 2.94024231581945e-09 4.79530259646226e-09 1.01649159700925e-07 8.30246227099785e-08 5.33839074223727e-09 5.38927448388695e-09
"669" 11884 7.31879821763043e-08 4.96466233695337e-09 2.94024231581945e-09 4.81235250756201e-09 1.0130690687472e-07 8.29437818393338e-08 5.33839074223727e-09 5.38910249343495e-09
"670" 11885 7.32251369403202e-08 4.98725818838148e-09 2.94024231581945e-09 4.82940241866176e-09 1.00964654048516e-07 8.28629409686892e-08 5.33839074223727e-09 5.38893050298296e-09
