"time" "channel1" "channel2" "channel3" "channel4" "channel5" "channel6" "channel7" "channel8"
"1" 4312 2.3756104000853e-07 1.23702035622073e-08 6.24144284144429e-08 1.43636637726413e-07 1.25067879530239e-07 1.10447032347021e-07 1.65850723562013e-07 3.36290002391544e-07
"2" 4313 2.37121882636674e-07 1.23818253638616e-08 6.23966811613247e-08 1.42256929697165e-07 1.25541586634091e-07 1.10745015650778e-07 1.64901598256364e-07 3.36470356146585e-07
"3" 4314 2.36682725264817e-07 1.23934471655158e-08 6.23789339082065e-08 1.40877221667916e-07 1.26015293737942e-07 1.11042998954535e-07 1.63952472950715e-07 3.36650709901626e-07
"4" 4315 2.36243567892961e-07 1.240506896717e-08 6.23611866550883e-08 1.39497513638668e-07 1.26489000841794e-07 1.11340982258291e-07 1.63003347645066e-07 3.36831063656668e-07
"5" 4316 2.35804410521105e-07 1.24166907688242e-08 6.23434394019701e-08 1.3811780560942e-07 1.26962707945646e-07 1.11638965562048e-07 1.62054222339418e-07 3.37011417411709e-07
"6" 4317 2.35427061498878e-07 1.24251142093615e-08 6.207423971738e-08 1.36932841829565e-07 1.27424707249275e-07 1.11591340663113e-07 1.60973025416111e-07 3.37054256229015e-07
"7" 4318 2.36631355833187e-07 1.24502813642565e-08 6.20187527535547e-08 1.35892243271462e-07 1.27776989424888e-07 1.09095316229278e-07 1.58779988161142e-07 3.37841342598742e-07
"8" 4319 2.37835650167497e-07 1.24754485191515e-08 6.19632657897295e-08 1.34851644713358e-07 1.28129271600501e-07 1.06599291795443e-07 1.56586950906173e-07 3.38628428968468e-07
"9" 4320 2.39354029336483e-07 1.24362845711403e-08 6.14786460041489e-08 1.34823240327887e-07 1.28300258464763e-07 1.06389573939666e-07 1.5599255682387e-07 3.40637432978257e-07
"10" 4321 2.40872408505469e-07 1.23971206231291e-08 6.09940262185684e-08 1.34794835942416e-07 1.28471245329025e-07 1.06179856083889e-07 1.55398162741568e-07 3.42646436988045e-07
"11" 4322 2.42390787674455e-07 1.23579566751179e-08 6.05094064329879e-08 1.34766431556945e-07 1.28642232193288e-07 1.05970138228112e-07 1.54803768659266e-07 3.44655440997834e-07
"12" 4323 2.43909166843442e-07 1.23187927271067e-08 6.00247866474073e-08 1.34738027171474e-07 1.2881321905755e-07 1.05760420372334e-07 1.54209374576963e-07 3.46664445007622e-07
"13" 4324 2.44205629898034e-07 1.22551662197315e-08 5.9621712181047e-08 1.35264053058201e-07 1.28631923746199e-07 1.05606357461681e-07 1.53639176377795e-07 3.46994743983294e-07
"14" 4325 2.44205629898034e-07 1.22112205829619e-08 5.92186377146866e-08 1.3535620463664e-07 1.28544587833318e-07 1.06352330088568e-07 1.53074756461726e-07 3.44966247908688e-07
"15" 4326 2.44205629898034e-07 1.21672749461924e-08 5.88155632483262e-08 1.35448356215079e-07 1.28457251920437e-07 1.07098302715455e-07 1.52510336545657e-07 3.42937751834083e-07
"16" 4327 2.44205629898034e-07 1.21233293094229e-08 5.84124887819658e-08 1.35540507793519e-07 1.28369916007556e-07 1.07844275342342e-07 1.51945916629588e-07 3.40909255759477e-07
"17" 4328 2.44205629898034e-07 1.20793836726534e-08 5.80094143156054e-08 1.35632659371958e-07 1.28282580094675e-07 1.08590247969229e-07 1.51381496713519e-07 3.38880759684872e-07
"18" 4329 2.44205629898034e-07 1.20354380358839e-08 5.76063398492451e-08 1.35724810950397e-07 1.28195244181793e-07 1.09336220596116e-07 1.5081707679745e-07 3.36852263610266e-07
"19" 4330 2.44205629898034e-07 1.19914923991144e-08 5.72032653828847e-08 1.35816962528837e-07 1.28107908268912e-07 1.10082193223004e-07 1.50252656881381e-07 3.34823767535661e-07
"20" 4331 2.44205629898034e-07 1.19475467623449e-08 5.68001909165243e-08 1.35909114107276e-07 1.28020572356031e-07 1.10828165849891e-07 1.49688236965312e-07 3.32795271461055e-07
"21" 4332 2.44205629898034e-07 1.19036011255754e-08 5.63971164501639e-08 1.36001265685715e-07 1.2793323644315e-07 1.11574138476778e-07 1.49123817049243e-07 3.3076677538645e-07
"22" 4333 2.44205629898034e-07 1.18596554888059e-08 5.59940419838035e-08 1.36093417264155e-07 1.27845900530269e-07 1.12320111103665e-07 1.48559397133174e-07 3.28738279311844e-07
"23" 4334 2.44205629898034e-07 1.18157098520364e-08 5.55909675174431e-08 1.36185568842594e-07 1.27758564617387e-07 1.13066083730552e-07 1.47994977217105e-07 3.26709783237239e-07
"24" 4335 2.44205629898034e-07 1.17717642152669e-08 5.51878930510828e-08 1.36277720421034e-07 1.27671228704506e-07 1.13812056357439e-07 1.47430557301036e-07 3.24681287162633e-07
"25" 4336 2.44205629898034e-07 1.17278185784974e-08 5.47848185847224e-08 1.36369871999473e-07 1.27583892791625e-07 1.14558028984326e-07 1.46866137384967e-07 3.22652791088028e-07
"26" 4337 2.44205629898034e-07 1.16838729417278e-08 5.4381744118362e-08 1.36462023577912e-07 1.27496556878744e-07 1.15304001611213e-07 1.46301717468898e-07 3.20624295013422e-07
"27" 4338 2.44205629898034e-07 1.16399273049583e-08 5.39786696520016e-08 1.36554175156352e-07 1.27409220965862e-07 1.16049974238101e-07 1.45737297552829e-07 3.18595798938817e-07
"28" 4339 2.44205629898034e-07 1.15959816681888e-08 5.35755951856412e-08 1.36646326734791e-07 1.27321885052981e-07 1.16795946864988e-07 1.4517287763676e-07 3.16567302864211e-07
"29" 4340 2.454274420215e-07 1.15401610741095e-08 5.34686579648593e-08 1.37255605233281e-07 1.27249389154091e-07 1.17069493072252e-07 1.44572036029236e-07 3.15200685197205e-07
"30" 4341 2.45420953601363e-07 1.1592173829044e-08 5.3330752999766e-08 1.36605669438473e-07 1.28789091373525e-07 1.17191880942455e-07 1.4332820369523e-07 3.1118036625545e-07
"31" 4342 2.45351151313019e-07 1.14993106317404e-08 5.3022356416245e-08 1.35642021150873e-07 1.29186925328422e-07 1.17343938599375e-07 1.43103603264588e-07 3.11457409863511e-07
"32" 4343 2.45281349024675e-07 1.14064474344367e-08 5.2713959832724e-08 1.34678372863273e-07 1.29584759283319e-07 1.17495996256294e-07 1.42879002833946e-07 3.11734453471572e-07
"33" 4344 2.45211546736331e-07 1.1313584237133e-08 5.2405563249203e-08 1.33714724575673e-07 1.29982593238216e-07 1.17648053913214e-07 1.42654402403305e-07 3.12011497079633e-07
"34" 4345 2.45141744447987e-07 1.12207210398293e-08 5.2097166665682e-08 1.32751076288073e-07 1.30380427193113e-07 1.17800111570134e-07 1.42429801972663e-07 3.12288540687693e-07
"35" 4346 2.45071942159643e-07 1.11278578425257e-08 5.17887700821611e-08 1.31787428000473e-07 1.3077826114801e-07 1.17952169227053e-07 1.42205201542021e-07 3.12565584295754e-07
"36" 4347 2.45002139871299e-07 1.1034994645222e-08 5.14803734986401e-08 1.30823779712873e-07 1.31176095102907e-07 1.18104226883973e-07 1.4198060111138e-07 3.12842627903815e-07
"37" 4348 2.44932337582955e-07 1.09421314479183e-08 5.11719769151191e-08 1.29860131425273e-07 1.31573929057803e-07 1.18256284540892e-07 1.41756000680738e-07 3.13119671511876e-07
"38" 4349 2.44862535294611e-07 1.08492682506147e-08 5.08635803315981e-08 1.28896483137673e-07 1.319717630127e-07 1.18408342197812e-07 1.41531400250096e-07 3.13396715119937e-07
"39" 4350 2.44792733006267e-07 1.0756405053311e-08 5.05551837480771e-08 1.27932834850073e-07 1.32369596967597e-07 1.18560399854731e-07 1.41306799819454e-07 3.13673758727998e-07
"40" 4351 2.44722930717923e-07 1.06635418560073e-08 5.02467871645562e-08 1.26969186562473e-07 1.32767430922494e-07 1.18712457511651e-07 1.41082199388813e-07 3.13950802336058e-07
"41" 4352 2.44653128429579e-07 1.05706786587036e-08 4.99383905810352e-08 1.26005538274873e-07 1.33165264877391e-07 1.1886451516857e-07 1.40857598958171e-07 3.14227845944119e-07
"42" 4353 2.44583326141235e-07 1.04778154614e-08 4.96299939975142e-08 1.25041889987273e-07 1.33563098832288e-07 1.1901657282549e-07 1.40632998527529e-07 3.1450488955218e-07
"43" 4354 2.44431252736616e-07 1.04675238317315e-08 4.97326551920017e-08 1.25377498532802e-07 1.33966604326139e-07 1.19147860547958e-07 1.40433217995736e-07 3.15247375510555e-07
"44" 4355 2.44279179331998e-07 1.0457232202063e-08 4.98353163864892e-08 1.25713107078331e-07 1.3437010981999e-07 1.19279148270426e-07 1.40233437463942e-07 3.1598986146893e-07
"45" 4356 2.4412710592738e-07 1.04469405723945e-08 4.99379775809767e-08 1.2604871562386e-07 1.34773615313842e-07 1.19410435992894e-07 1.40033656932149e-07 3.16732347427305e-07
"46" 4357 2.43975032522762e-07 1.0436648942726e-08 5.00406387754642e-08 1.26384324169389e-07 1.35177120807693e-07 1.19541723715362e-07 1.39833876400356e-07 3.1747483338568e-07
"47" 4358 2.43822959118143e-07 1.04263573130575e-08 5.01432999699517e-08 1.26719932714918e-07 1.35580626301544e-07 1.1967301143783e-07 1.39634095868562e-07 3.18217319344055e-07
"48" 4359 2.43670885713525e-07 1.0416065683389e-08 5.02459611644392e-08 1.27055541260447e-07 1.35984131795395e-07 1.19804299160298e-07 1.39434315336769e-07 3.1895980530243e-07
"49" 4360 2.43518812308907e-07 1.04057740537205e-08 5.03486223589267e-08 1.27391149805976e-07 1.36387637289247e-07 1.19935586882766e-07 1.39234534804975e-07 3.19702291260805e-07
"50" 4361 2.43264684329394e-07 1.04191613688089e-08 5.06123813539008e-08 1.27607345402215e-07 1.36457793339647e-07 1.20015131981203e-07 1.38853173749613e-07 3.20314687417841e-07
"51" 4362 2.42686911872943e-07 1.03455990631179e-08 4.99369003016003e-08 1.24786935683219e-07 1.36348036316291e-07 1.20050377803569e-07 1.38810221164829e-07 3.19968091441623e-07
"52" 4363 2.42505787033061e-07 1.02666692472616e-08 4.92130407405595e-08 1.21957523865904e-07 1.36930229456906e-07 1.20159401138484e-07 1.39405552936661e-07 3.19621495465406e-07
"53" 4364 2.4232466219318e-07 1.01877394314053e-08 4.84891811795188e-08 1.19128112048589e-07 1.3751242259752e-07 1.202684244734e-07 1.40000884708494e-07 3.19274899489188e-07
"54" 4365 2.42143537353298e-07 1.01088096155491e-08 4.7765321618478e-08 1.16298700231274e-07 1.38094615738135e-07 1.20377447808315e-07 1.40596216480327e-07 3.18928303512971e-07
"55" 4366 2.41962412513416e-07 1.00298797996928e-08 4.70414620574372e-08 1.13469288413959e-07 1.3867680887875e-07 1.20486471143231e-07 1.41191548252159e-07 3.18581707536753e-07
"56" 4367 2.41781287673535e-07 9.95094998383654e-09 4.63176024963964e-08 1.10639876596644e-07 1.39259002019364e-07 1.20595494478146e-07 1.41786880023992e-07 3.18235111560536e-07
"57" 4368 2.41600162833653e-07 9.87202016798027e-09 4.55937429353556e-08 1.07810464779328e-07 1.39841195159979e-07 1.20704517813061e-07 1.42382211795825e-07 3.17888515584318e-07
"58" 4369 2.41419037993772e-07 9.79309035212401e-09 4.48698833743148e-08 1.04981052962013e-07 1.40423388300593e-07 1.20813541147977e-07 1.42977543567658e-07 3.17541919608101e-07
"59" 4370 2.4123791315389e-07 9.71416053626774e-09 4.4146023813274e-08 1.02151641144698e-07 1.41005581441208e-07 1.20922564482892e-07 1.4357287533949e-07 3.17195323631883e-07
"60" 4371 2.41056788314008e-07 9.63523072041147e-09 4.34221642522332e-08 9.93222293273831e-08 1.41587774581823e-07 1.21031587817808e-07 1.44168207111323e-07 3.16848727655666e-07
"61" 4372 2.40875663474127e-07 9.55630090455521e-09 4.26983046911924e-08 9.6492817510068e-08 1.42169967722437e-07 1.21140611152723e-07 1.44763538883156e-07 3.16502131679449e-07
"62" 4373 2.40694538634245e-07 9.47737108869894e-09 4.19744451301516e-08 9.36634056927528e-08 1.42752160863052e-07 1.21249634487639e-07 1.45358870654988e-07 3.16155535703231e-07
"63" 4374 2.40513413794364e-07 9.39844127284267e-09 4.12505855691109e-08 9.08339938754377e-08 1.43334354003666e-07 1.21358657822554e-07 1.45954202426821e-07 3.15808939727014e-07
"64" 4375 2.40374289452341e-07 9.32224277082059e-09 4.06347486626603e-08 8.80028061806684e-08 1.43272468721794e-07 1.21439749176655e-07 1.47015327715635e-07 3.16630408145556e-07
"65" 4376 2.4084591082786e-07 9.3168198982001e-09 4.04369124631026e-08 8.65592495716811e-08 1.42878294177843e-07 1.20874121580444e-07 1.47906205826079e-07 3.16820865794199e-07
"66" 4377 2.39230172949533e-07 9.27236745909990e-09 4.05436467174425e-08 8.65525630076159e-08 1.42909561707132e-07 1.20925670847988e-07 1.4769076240166e-07 3.1416342773785e-07
"67" 4378 2.39679304138648e-07 9.27201918594116e-09 4.064630791193e-08 8.65067627461304e-08 1.42767656440763e-07 1.2091641199028e-07 1.48807151328081e-07 3.15153008977957e-07
"68" 4379 2.40128435327763e-07 9.27167091278241e-09 4.07489691064175e-08 8.6460962484645e-08 1.42625751174394e-07 1.20907153132572e-07 1.49923540254503e-07 3.16142590218064e-07
"69" 4380 2.40577566516879e-07 9.27132263962367e-09 4.0851630300905e-08 8.64151622231595e-08 1.42483845908025e-07 1.20897894274864e-07 1.51039929180925e-07 3.17132171458171e-07
"70" 4381 2.41026697705994e-07 9.27097436646493e-09 4.09542914953925e-08 8.63693619616741e-08 1.42341940641656e-07 1.20888635417156e-07 1.52156318107346e-07 3.18121752698277e-07
"71" 4382 2.41056646041091e-07 9.26772064289264e-09 4.09538763208188e-08 8.65660980056049e-08 1.42459007929135e-07 1.20854592505028e-07 1.52352815998023e-07 3.18631065497991e-07
"72" 4383 2.41086594376189e-07 9.26446691932034e-09 4.09534611462452e-08 8.67628340495357e-08 1.42576075216614e-07 1.208205495929e-07 1.52549313888699e-07 3.19140378297705e-07
"73" 4384 2.41116542711286e-07 9.26121319574804e-09 4.09530459716715e-08 8.69595700934665e-08 1.42693142504093e-07 1.20786506680771e-07 1.52745811779376e-07 3.19649691097419e-07
"74" 4385 2.41146491046383e-07 9.25795947217575e-09 4.09526307970978e-08 8.71563061373973e-08 1.42810209791573e-07 1.20752463768643e-07 1.52942309670052e-07 3.20159003897132e-07
"75" 4386 2.41176439381481e-07 9.25470574860345e-09 4.09522156225241e-08 8.73530421813282e-08 1.42927277079052e-07 1.20718420856515e-07 1.53138807560729e-07 3.20668316696846e-07
"76" 4387 2.41206387716578e-07 9.25145202503115e-09 4.09518004479505e-08 8.7549778225259e-08 1.43044344366531e-07 1.20684377944386e-07 1.53335305451405e-07 3.2117762949656e-07
"77" 4388 2.41236336051675e-07 9.24819830145886e-09 4.09513852733768e-08 8.77465142691898e-08 1.4316141165401e-07 1.20650335032258e-07 1.53531803342081e-07 3.21686942296273e-07
"78" 4389 2.41266284386773e-07 9.24494457788656e-09 4.09509700988031e-08 8.79432503131206e-08 1.43278478941489e-07 1.2061629212013e-07 1.53728301232758e-07 3.22196255095987e-07
"79" 4390 2.4129623272187e-07 9.24169085431426e-09 4.09505549242294e-08 8.81399863570514e-08 1.43395546228968e-07 1.20582249208002e-07 1.53924799123434e-07 3.22705567895701e-07
"80" 4391 2.41326181056967e-07 9.23843713074196e-09 4.09501397496558e-08 8.83367224009823e-08 1.43512613516447e-07 1.20548206295873e-07 1.54121297014111e-07 3.23214880695415e-07
"81" 4392 2.41356129392065e-07 9.23518340716967e-09 4.09497245750821e-08 8.85334584449131e-08 1.43629680803926e-07 1.20514163383745e-07 1.54317794904787e-07 3.23724193495128e-07
"82" 4393 2.41386077727162e-07 9.23192968359737e-09 4.09493094005084e-08 8.87301944888439e-08 1.43746748091405e-07 1.20480120471617e-07 1.54514292795464e-07 3.24233506294842e-07
"83" 4394 2.41416026062259e-07 9.22867596002507e-09 4.09488942259347e-08 8.89269305327747e-08 1.43863815378884e-07 1.20446077559488e-07 1.5471079068614e-07 3.24742819094556e-07
"84" 4395 2.41445974397357e-07 9.22542223645278e-09 4.09484790513611e-08 8.91236665767055e-08 1.43980882666363e-07 1.2041203464736e-07 1.54907288576816e-07 3.2525213189427e-07
"85" 4396 2.41475922732454e-07 9.22216851288048e-09 4.09480638767874e-08 8.93204026206364e-08 1.44097949953842e-07 1.20377991735232e-07 1.55103786467493e-07 3.25761444693983e-07
"86" 4397 2.41505871067551e-07 9.21891478930818e-09 4.09476487022137e-08 8.95171386645672e-08 1.44215017241321e-07 1.20343948823104e-07 1.55300284358169e-07 3.26270757493697e-07
"87" 4398 2.41535819402649e-07 9.21566106573589e-09 4.094723352764e-08 8.9713874708498e-08 1.443320845288e-07 1.20309905910975e-07 1.55496782248846e-07 3.26780070293411e-07
"88" 4399 2.41570339848835e-07 9.20095967708873e-09 4.09494363992101e-08 8.91341812958498e-08 1.43376410881092e-07 1.2035078981282e-07 1.55692574632098e-07 3.26930016618835e-07
"89" 4400 2.41554869242975e-07 9.1994951235715e-09 4.08108259091559e-08 8.930134539748e-08 1.43615681240057e-07 1.20210973291047e-07 1.55023714189414e-07 3.25563398951829e-07
"90" 4401 2.41539398637116e-07 9.19803057005427e-09 4.06722154191018e-08 8.94685094991102e-08 1.43854951599021e-07 1.20071156769273e-07 1.5435485374673e-07 3.24196781284822e-07
"91" 4402 2.41523928031257e-07 9.19656601653704e-09 4.05336049290476e-08 8.96356736007403e-08 1.44094221957985e-07 1.199313402475e-07 1.53685993304046e-07 3.22830163617816e-07
"92" 4403 2.41508457425397e-07 9.19510146301981e-09 4.03949944389934e-08 8.98028377023705e-08 1.44333492316949e-07 1.19791523725726e-07 1.53017132861362e-07 3.21463545950809e-07
"93" 4404 2.42383408036283e-07 9.25726341687783e-09 4.05070472769067e-08 8.98122126248267e-08 1.44263336266549e-07 1.19675341956949e-07 1.52167868851456e-07 3.22685463590871e-07
"94" 4405 2.44449595298341e-07 9.27469611935917e-09 4.04516460661401e-08 9.02050322704491e-08 1.44300791203448e-07 1.19687736693535e-07 1.52784139293104e-07 3.24644493164365e-07
"95" 4406 2.44404176357384e-07 9.27648528941423e-09 4.03079232207274e-08 9.01314359441171e-08 1.44415470189328e-07 1.19493671734629e-07 1.5269823224714e-07 3.22785820868978e-07
"96" 4407 2.44358757416427e-07 9.2782744594693e-09 4.01642003753146e-08 9.00578396177852e-08 1.44530149175208e-07 1.19299606775722e-07 1.52612325201176e-07 3.2092714857359e-07
"97" 4408 2.44313338475471e-07 9.28006362952437e-09 4.00204775299019e-08 8.99842432914532e-08 1.44644828161088e-07 1.19105541816816e-07 1.52526418155212e-07 3.19068476278203e-07
"98" 4409 2.44267919534514e-07 9.28185279957943e-09 3.98767546844891e-08 8.99106469651213e-08 1.44759507146968e-07 1.18911476857909e-07 1.52440511109248e-07 3.17209803982815e-07
"99" 4410 2.44010451815323e-07 9.28601696109646e-09 3.97976184650539e-08 8.97557816408261e-08 1.44846843059849e-07 1.18643299476041e-07 1.52822871547241e-07 3.16613897490125e-07
"100" 4411 2.43947567256038e-07 9.27387274970412e-09 3.97983250772723e-08 8.97601526706371e-08 1.44939514233432e-07 1.18639245601024e-07 1.53049653525175e-07 3.16819204306765e-07
"101" 4412 2.43884682696753e-07 9.26172853831178e-09 3.97990316894908e-08 8.9764523700448e-08 1.45032185407015e-07 1.18635191726008e-07 1.53276435503108e-07 3.17024511123406e-07
"102" 4413 2.43821798137469e-07 9.24958432691945e-09 3.97997383017092e-08 8.97688947302589e-08 1.45124856580598e-07 1.18631137850991e-07 1.53503217481042e-07 3.17229817940046e-07
"103" 4414 2.43758913578184e-07 9.23744011552711e-09 3.98004449139277e-08 8.97732657600699e-08 1.45217527754182e-07 1.18627083975974e-07 1.53729999458976e-07 3.17435124756687e-07
"104" 4415 2.43696029018899e-07 9.22529590413477e-09 3.98011515261461e-08 8.97776367898808e-08 1.45310198927765e-07 1.18623030100957e-07 1.5395678143691e-07 3.17640431573327e-07
"105" 4416 2.43633144459614e-07 9.21315169274243e-09 3.98018581383646e-08 8.97820078196917e-08 1.45402870101348e-07 1.18618976225941e-07 1.54183563414843e-07 3.17845738389967e-07
"106" 4417 2.43570259900329e-07 9.2010074813501e-09 3.9802564750583e-08 8.97863788495027e-08 1.45495541274931e-07 1.18614922350924e-07 1.54410345392777e-07 3.18051045206608e-07
"107" 4418 2.43507375341044e-07 9.18886326995776e-09 3.98032713628014e-08 8.97907498793136e-08 1.45588212448514e-07 1.18610868475907e-07 1.54637127370711e-07 3.18256352023248e-07
"108" 4419 2.43182543543739e-07 9.18886326995776e-09 3.98265043565801e-08 8.97851736069219e-08 1.4549013478132e-07 1.18374972105234e-07 1.52434454155013e-07 3.16737829353796e-07
"109" 4420 2.43113660058209e-07 9.18490495085449e-09 3.98399283578442e-08 8.94364765141698e-08 1.45660742578483e-07 1.17798270141568e-07 1.51425447418312e-07 3.16089522972321e-07
"110" 4421 2.4304227817748e-07 9.18094663175123e-09 3.98321556234413e-08 8.90420773287713e-08 1.45838104875774e-07 1.17291712864707e-07 1.50179085053418e-07 3.16550423698601e-07
"111" 4422 2.4297089629675e-07 9.17698831264796e-09 3.98243828890384e-08 8.86476781433727e-08 1.46015467173065e-07 1.16785155587845e-07 1.48932722688524e-07 3.1701132442488e-07
"112" 4423 2.42899514416021e-07 9.1730299935447e-09 3.98166101546355e-08 8.82532789579742e-08 1.46192829470356e-07 1.16278598310983e-07 1.4768636032363e-07 3.17472225151159e-07
"113" 4424 2.42828132535291e-07 9.16907167444143e-09 3.98088374202327e-08 8.78588797725756e-08 1.46370191767647e-07 1.15772041034122e-07 1.46439997958736e-07 3.17933125877439e-07
"114" 4425 2.42756750654562e-07 9.16511335533817e-09 3.98010646858298e-08 8.7464480587177e-08 1.46547554064939e-07 1.1526548375726e-07 1.45193635593842e-07 3.18394026603718e-07
"115" 4426 2.42685368773833e-07 9.1611550362349e-09 3.97932919514269e-08 8.70700814017785e-08 1.4672491636223e-07 1.14758926480398e-07 1.43947273228948e-07 3.18854927329997e-07
"116" 4427 2.42613986893103e-07 9.15719671713164e-09 3.97855192170241e-08 8.667568221638e-08 1.46902278659521e-07 1.14252369203537e-07 1.42700910864054e-07 3.19315828056277e-07
"117" 4428 2.42542605012374e-07 9.15323839802837e-09 3.97777464826212e-08 8.62812830309814e-08 1.47079640956812e-07 1.13745811926675e-07 1.4145454849916e-07 3.19776728782556e-07
"118" 4429 2.42471223131644e-07 9.14928007892511e-09 3.97699737482183e-08 8.58868838455828e-08 1.47257003254103e-07 1.13239254649814e-07 1.40208186134266e-07 3.20237629508835e-07
"119" 4430 2.42399841250915e-07 9.14532175982184e-09 3.97622010138154e-08 8.54924846601843e-08 1.47434365551394e-07 1.12732697372952e-07 1.38961823769372e-07 3.20698530235115e-07
"120" 4431 2.42328459370185e-07 9.14136344071858e-09 3.97544282794126e-08 8.50980854747857e-08 1.47611727848685e-07 1.1222614009609e-07 1.37715461404478e-07 3.21159430961394e-07
"121" 4432 2.42257077489456e-07 9.13740512161531e-09 3.97466555450097e-08 8.47036862893872e-08 1.47789090145976e-07 1.11719582819229e-07 1.36469099039584e-07 3.21620331687673e-07
"122" 4433 2.42444179352603e-07 9.17595154238523e-09 3.97653579714618e-08 8.42526597823101e-08 1.47891682264534e-07 1.11317011349797e-07 1.3521485270682e-07 3.20910946217065e-07
"123" 4434 2.4292238975466e-07 9.20305029808029e-09 4.03834753481091e-08 8.4527240471335e-08 1.48133788454353e-07 1.11269386450862e-07 1.34911064955637e-07 3.21599316909826e-07
"124" 4435 2.43400600156716e-07 9.23014905377535e-09 4.10015927247564e-08 8.480182116036e-08 1.48375894644172e-07 1.11221761551926e-07 1.34607277204453e-07 3.22287687602587e-07
"125" 4436 2.44615159973903e-07 9.24316394806454e-09 4.1762852789671e-08 8.53515598809612e-08 1.48384513142229e-07 1.10307588649384e-07 1.33170324247371e-07 3.18906405697824e-07
"126" 4437 2.45829719791089e-07 9.25617884235373e-09 4.25241128545855e-08 8.59012986015623e-08 1.48393131640286e-07 1.09393415746842e-07 1.31733371290289e-07 3.15525123793061e-07
"127" 4438 2.46431382716508e-07 9.23249989759685e-09 4.27657595553155e-08 8.60845764920652e-08 1.48156788231377e-07 1.09085383289397e-07 1.30947013742647e-07 3.11568046267824e-07
"128" 4439 2.46393860492393e-07 9.21911258250846e-09 4.27862898371493e-08 8.65226026951486e-08 1.48165406729434e-07 1.082120942887e-07 1.30380448544588e-07 3.083249013612e-07
"129" 4440 2.46356338268278e-07 9.20572526742006e-09 4.28068201189831e-08 8.6960628898232e-08 1.48174025227491e-07 1.07338805288003e-07 1.29813883346529e-07 3.05081756454577e-07
"130" 4441 2.46318816044163e-07 9.19233795233167e-09 4.2827350400817e-08 8.73986551013154e-08 1.48182643725548e-07 1.06465516287306e-07 1.29247318148469e-07 3.01838611547954e-07
"131" 4442 2.46281293820048e-07 9.17895063724328e-09 4.28478806826508e-08 8.78366813043988e-08 1.48191262223606e-07 1.05592227286609e-07 1.2868075295041e-07 2.9859546664133e-07
"132" 4443 2.46243771595932e-07 9.16556332215489e-09 4.28684109644846e-08 8.82747075074822e-08 1.48199880721663e-07 1.04718938285912e-07 1.28114187752351e-07 2.95352321734707e-07
"133" 4444 2.46206249371817e-07 9.1521760070665e-09 4.28889412463185e-08 8.87127337105656e-08 1.4820849921972e-07 1.03845649285214e-07 1.27547622554291e-07 2.92109176828083e-07
"134" 4445 2.46168727147702e-07 9.13878869197811e-09 4.29094715281523e-08 8.9150759913649e-08 1.48217117717777e-07 1.02972360284517e-07 1.26981057356232e-07 2.8886603192146e-07
"135" 4446 2.46131204923587e-07 9.12540137688972e-09 4.29300018099861e-08 8.95887861167324e-08 1.48225736215834e-07 1.0209907128382e-07 1.26414492158173e-07 2.85622887014836e-07
"136" 4447 2.46093682699472e-07 9.11201406180133e-09 4.29505320918199e-08 9.00268123198159e-08 1.48234354713891e-07 1.01225782283123e-07 1.25847926960113e-07 2.82379742108213e-07
"137" 4448 2.46056160475356e-07 9.09862674671294e-09 4.29710623736538e-08 9.04648385228993e-08 1.48242973211948e-07 1.00352493282426e-07 1.25281361762054e-07 2.7913659720159e-07
"138" 4449 2.46018638251241e-07 9.08523943162455e-09 4.29915926554876e-08 9.09028647259827e-08 1.48251591710005e-07 9.94792042817286e-08 1.24714796563995e-07 2.75893452294966e-07
"139" 4450 2.45981116027126e-07 9.07185211653616e-09 4.30121229373214e-08 9.13408909290661e-08 1.48260210208062e-07 9.86059152810314e-08 1.24148231365935e-07 2.72650307388343e-07
"140" 4451 2.45943593803011e-07 9.05846480144776e-09 4.30326532191553e-08 9.17789171321495e-08 1.48268828706119e-07 9.77326262803343e-08 1.23581666167876e-07 2.69407162481719e-07
"141" 4452 2.45906071578896e-07 9.04507748635937e-09 4.30531835009891e-08 9.22169433352329e-08 1.48277447204177e-07 9.68593372796371e-08 1.23015100969817e-07 2.66164017575096e-07
"142" 4453 2.45868549354781e-07 9.03169017127098e-09 4.30737137828229e-08 9.26549695383163e-08 1.48286065702234e-07 9.598604827894e-08 1.22448535771758e-07 2.62920872668472e-07
"143" 4454 2.45831027130665e-07 9.01830285618259e-09 4.30942440646567e-08 9.30929957413997e-08 1.48294684200291e-07 9.51127592782428e-08 1.21881970573698e-07 2.59677727761849e-07
"144" 4455 2.45988199177167e-07 9.0011313585703e-09 4.30942440646567e-08 9.32762736319025e-08 1.48055983827353e-07 9.42254413401847e-08 1.20509333217333e-07 2.55624248857584e-07
"145" 4456 2.46577802820041e-07 9.11354860314215e-09 4.3128117487355e-08 9.37854041406049e-08 1.48077501444301e-07 9.40680407591508e-08 1.20724112607945e-07 2.55223306406917e-07
"146" 4457 2.45932784165244e-07 9.1706676633728e-09 4.31926221656754e-08 9.43482822377218e-08 1.48127955299818e-07 9.39621117418151e-08 1.20883443281647e-07 2.55053535473679e-07
"147" 4458 2.45287765510446e-07 9.22778672360345e-09 4.32571268439958e-08 9.49111603348386e-08 1.48178409155334e-07 9.38561827244794e-08 1.2104277395535e-07 2.54883764540441e-07
"148" 4459 2.44642746855649e-07 9.2849057838341e-09 4.33216315223162e-08 9.54740384319554e-08 1.4822886301085e-07 9.37502537071436e-08 1.21202104629052e-07 2.54713993607204e-07
"149" 4460 2.43997728200851e-07 9.34202484406475e-09 4.33861362006365e-08 9.60369165290723e-08 1.48279316866366e-07 9.36443246898079e-08 1.21361435302755e-07 2.54544222673966e-07
"150" 4461 2.43352709546054e-07 9.3991439042954e-09 4.34506408789569e-08 9.65997946261891e-08 1.48329770721883e-07 9.35383956724722e-08 1.21520765976457e-07 2.54374451740728e-07
"151" 4462 2.42707690891256e-07 9.45626296452606e-09 4.35151455572773e-08 9.71626727233059e-08 1.48380224577399e-07 9.34324666551365e-08 1.2168009665016e-07 2.5420468080749e-07
"152" 4463 2.42062672236459e-07 9.51338202475671e-09 4.35796502355977e-08 9.77255508204227e-08 1.48430678432915e-07 9.33265376378008e-08 1.21839427323862e-07 2.54034909874252e-07
"153" 4464 2.41417653581661e-07 9.57050108498736e-09 4.3644154913918e-08 9.82884289175396e-08 1.48481132288432e-07 9.32206086204651e-08 1.21998757997565e-07 2.53865138941014e-07
"154" 4465 2.40772634926863e-07 9.62762014521801e-09 4.37086595922384e-08 9.88513070146564e-08 1.48531586143948e-07 9.31146796031294e-08 1.22158088671267e-07 2.53695368007776e-07
"155" 4466 2.40127616272066e-07 9.68473920544866e-09 4.37731642705588e-08 9.94141851117732e-08 1.48582039999464e-07 9.30087505857937e-08 1.2231741934497e-07 2.53525597074538e-07
"156" 4467 2.39482597617268e-07 9.74185826567931e-09 4.38376689488791e-08 9.99770632088901e-08 1.4863249385498e-07 9.2902821568458e-08 1.22476750018673e-07 2.533558261413e-07
"157" 4468 2.38837578962471e-07 9.79897732590996e-09 4.39021736271995e-08 1.00539941306007e-07 1.48682947710497e-07 9.27968925511223e-08 1.22636080692375e-07 2.53186055208062e-07
"158" 4469 2.38192560307673e-07 9.85609638614062e-09 4.39666783055199e-08 1.01102819403124e-07 1.48733401566013e-07 9.26909635337865e-08 1.22795411366078e-07 2.53016284274824e-07
"159" 4470 2.37547541652876e-07 9.91321544637127e-09 4.40311829838403e-08 1.01665697500241e-07 1.48783855421529e-07 9.25850345164508e-08 1.2295474203978e-07 2.52846513341587e-07
"160" 4471 2.36902522998078e-07 9.97033450660192e-09 4.40956876621606e-08 1.02228575597357e-07 1.48834309277045e-07 9.24791054991151e-08 1.23114072713483e-07 2.52676742408349e-07
"161" 4472 2.36257504343281e-07 1.00274535668326e-08 4.4160192340481e-08 1.02791453694474e-07 1.48884763132562e-07 9.23731764817794e-08 1.23273403387185e-07 2.52506971475111e-07
"162" 4473 2.35612485688483e-07 1.00845726270632e-08 4.42246970188014e-08 1.03354331791591e-07 1.48935216988078e-07 9.22672474644437e-08 1.23432734060888e-07 2.52337200541873e-07
"163" 4474 2.34967467033685e-07 1.01416916872939e-08 4.42892016971218e-08 1.03917209888708e-07 1.48985670843594e-07 9.2161318447108e-08 1.2359206473459e-07 2.52167429608635e-07
"164" 4475 2.34322448378888e-07 1.01988107475245e-08 4.43537063754421e-08 1.04480087985825e-07 1.4903612469911e-07 9.20553894297723e-08 1.23751395408293e-07 2.51997658675397e-07
"165" 4476 2.34039697027948e-07 1.03202609106614e-08 4.43273972844167e-08 1.04986075504634e-07 1.48963403650216e-07 9.18242631387525e-08 1.23861072114877e-07 2.47968878545977e-07
"166" 4477 2.32956151873746e-07 1.03325792586331e-08 4.43792279938496e-08 1.05089333761369e-07 1.49306166727754e-07 9.15700285553857e-08 1.24317556479718e-07 2.44028912806866e-07
"167" 4478 2.33005477506607e-07 1.03197304517098e-08 4.43389559900575e-08 1.05232533171163e-07 1.49721650854188e-07 9.15633911634221e-08 1.24757396912391e-07 2.44106077512626e-07
"168" 4479 2.33541868588253e-07 1.03835552433049e-08 4.46153515136777e-08 1.05431000970933e-07 1.49671333800228e-07 9.24805879047006e-08 1.25118952904272e-07 2.44183242218385e-07
"169" 4480 2.340782596699e-07 1.04473800348999e-08 4.48917470372979e-08 1.05629468770704e-07 1.49621016746268e-07 9.33977846459792e-08 1.25480508896153e-07 2.44260406924145e-07
"170" 4481 2.34614650751547e-07 1.0511204826495e-08 4.51681425609181e-08 1.05827936570474e-07 1.49570699692309e-07 9.43149813872577e-08 1.25842064888034e-07 2.44337571629905e-07
"171" 4482 2.35151041833194e-07 1.05750296180901e-08 4.54445380845383e-08 1.06026404370244e-07 1.49520382638349e-07 9.52321781285363e-08 1.26203620879915e-07 2.44414736335664e-07
"172" 4483 2.35687432914841e-07 1.06388544096852e-08 4.57209336081585e-08 1.06224872170015e-07 1.49470065584389e-07 9.61493748698148e-08 1.26565176871796e-07 2.44491901041424e-07
"173" 4484 2.36223823996487e-07 1.07026792012803e-08 4.59973291317787e-08 1.06423339969785e-07 1.49419748530429e-07 9.70665716110934e-08 1.26926732863677e-07 2.44569065747183e-07
"174" 4485 2.36760215078134e-07 1.07665039928753e-08 4.62737246553989e-08 1.06621807769555e-07 1.49369431476469e-07 9.79837683523719e-08 1.27288288855558e-07 2.44646230452943e-07
"175" 4486 2.37296606159781e-07 1.08303287844704e-08 4.65501201790191e-08 1.06820275569325e-07 1.4931911442251e-07 9.89009650936505e-08 1.27649844847439e-07 2.44723395158703e-07
"176" 4487 2.37832997241428e-07 1.08941535760655e-08 4.68265157026392e-08 1.07018743369096e-07 1.4926879736855e-07 9.9818161834929e-08 1.2801140083932e-07 2.44800559864462e-07
"177" 4488 2.38369388323075e-07 1.09579783676606e-08 4.71029112262594e-08 1.07217211168866e-07 1.4921848031459e-07 1.00735358576208e-07 1.28372956831201e-07 2.44877724570222e-07
"178" 4489 2.39404117101845e-07 1.09390574550411e-08 4.69221145803439e-08 1.07224226435453e-07 1.49582612878998e-07 1.0072750622649e-07 1.28262598168594e-07 2.44869655338919e-07
"179" 4490 2.40225313486784e-07 1.09262086481178e-08 4.68023742174576e-08 1.07206093091902e-07 1.4956109526205e-07 1.00782049818988e-07 1.28082279845875e-07 2.44900648493493e-07
"180" 4491 2.41042030352894e-07 1.09262086481178e-08 4.66826338545714e-08 1.07037064869588e-07 1.49519875450217e-07 1.00662721930068e-07 1.27540405531275e-07 2.43311652978343e-07
"181" 4492 2.41858747219003e-07 1.09262086481178e-08 4.65628934916851e-08 1.06868036647275e-07 1.49478655638384e-07 1.00543394041147e-07 1.26998531216674e-07 2.41722657463192e-07
"182" 4493 2.41478752899047e-07 1.09231210119114e-08 4.64028762323476e-08 1.06813105140557e-07 1.49501920337998e-07 1.00594280712869e-07 1.2604208426577e-07 2.41724045820996e-07
"183" 4494 2.41098758579091e-07 1.0920033375705e-08 4.62428589730101e-08 1.0675817363384e-07 1.49525185037611e-07 1.0064516738459e-07 1.25085637314865e-07 2.41725434178799e-07
"184" 4495 2.40718764259136e-07 1.09169457394985e-08 4.60828417136726e-08 1.06703242127123e-07 1.49548449737224e-07 1.00696054056311e-07 1.24129190363961e-07 2.41726822536603e-07
"185" 4496 2.39676810057407e-07 1.09022443508514e-08 4.58752762947422e-08 1.06656096077476e-07 1.50136015140371e-07 1.00892410989301e-07 1.234668264257e-07 2.43665436253357e-07
"186" 4497 2.38634855855678e-07 1.08875429622042e-08 4.56677108758118e-08 1.06608950027829e-07 1.50723580543519e-07 1.01088767922291e-07 1.22804462487439e-07 2.45604049970111e-07
"187" 4498 2.37592901653949e-07 1.08728415735571e-08 4.54601454568813e-08 1.06561803978183e-07 1.51311145946667e-07 1.01285124855282e-07 1.22142098549178e-07 2.47542663686865e-07
"188" 4499 2.3655094745222e-07 1.08581401849099e-08 4.52525800379509e-08 1.06514657928536e-07 1.51898711349814e-07 1.01481481788272e-07 1.21479734610917e-07 2.4948127740362e-07
"189" 4500 2.35508993250491e-07 1.08434387962628e-08 4.50450146190205e-08 1.06467511878889e-07 1.52486276752962e-07 1.01677838721262e-07 1.20817370672656e-07 2.51419891120374e-07
"190" 4501 2.34467039048762e-07 1.08287374076156e-08 4.483744920009e-08 1.06420365829242e-07 1.5307384215611e-07 1.01874195654252e-07 1.20155006734395e-07 2.53358504837128e-07
"191" 4502 2.33425084847033e-07 1.08140360189685e-08 4.46298837811596e-08 1.06373219779595e-07 1.53661407559257e-07 1.02070552587242e-07 1.19492642796134e-07 2.55297118553882e-07
"192" 4503 2.32383130645304e-07 1.07993346303213e-08 4.44223183622291e-08 1.06326073729949e-07 1.54248972962405e-07 1.02266909520232e-07 1.18830278857873e-07 2.57235732270636e-07
"193" 4504 2.31341176443576e-07 1.07846332416742e-08 4.42147529432987e-08 1.06278927680302e-07 1.54836538365553e-07 1.02463266453222e-07 1.18167914919612e-07 2.5917434598739e-07
"194" 4505 2.30299222241847e-07 1.0769931853027e-08 4.40071875243683e-08 1.06231781630655e-07 1.554241037687e-07 1.02659623386212e-07 1.17505550981351e-07 2.61112959704144e-07
"195" 4506 2.29257268040118e-07 1.07552304643798e-08 4.37996221054378e-08 1.06184635581008e-07 1.56011669171848e-07 1.02855980319202e-07 1.1684318704309e-07 2.63051573420899e-07
"196" 4507 2.28215313838389e-07 1.07405290757327e-08 4.35920566865074e-08 1.06137489531361e-07 1.56599234574996e-07 1.03052337252193e-07 1.1618082310483e-07 2.64990187137653e-07
"197" 4508 2.2717335963666e-07 1.07258276870855e-08 4.3384491267577e-08 1.06090343481715e-07 1.57186799978143e-07 1.03248694185183e-07 1.15518459166569e-07 2.66928800854407e-07
"198" 4509 2.26131405434931e-07 1.07111262984384e-08 4.31769258486465e-08 1.06043197432068e-07 1.57774365381291e-07 1.03445051118173e-07 1.14856095228308e-07 2.68867414571161e-07
"199" 4510 2.25089451233202e-07 1.06964249097912e-08 4.29693604297161e-08 1.05996051382421e-07 1.58361930784439e-07 1.03641408051163e-07 1.14193731290047e-07 2.70806028287915e-07
"200" 4511 2.25136352544672e-07 1.06880965867572e-08 4.29644152314446e-08 1.05723987256319e-07 1.58938307026773e-07 1.03801777055869e-07 1.144939462777e-07 2.72592076396784e-07
"201" 4512 2.25280570898965e-07 1.06074254051072e-08 4.18578101503216e-08 1.03920846011298e-07 1.59408369064464e-07 1.0400450212674e-07 1.14545695092085e-07 2.73787105376145e-07
"202" 4513 2.2636700796547e-07 1.072625547034e-08 4.18572289059184e-08 1.04198599195231e-07 1.58225845432613e-07 1.02836910838094e-07 1.13990501380923e-07 2.72819152197315e-07
"203" 4514 2.26106603282933e-07 1.07378692227808e-08 4.18652919907085e-08 1.05099739728449e-07 1.57771760732967e-07 1.01702149310072e-07 1.13942151509145e-07 2.71843913699908e-07
"204" 4515 2.25846198600395e-07 1.07494829752215e-08 4.18733550754985e-08 1.06000880261666e-07 1.5731767603332e-07 1.00567387782051e-07 1.13893801637367e-07 2.70868675202502e-07
"205" 4516 2.25585793917857e-07 1.07610967276623e-08 4.18814181602886e-08 1.06902020794884e-07 1.56863591333674e-07 9.94326262540296e-08 1.13845451765589e-07 2.69893436705095e-07
"206" 4517 2.25325389235319e-07 1.0772710480103e-08 4.18894812450786e-08 1.07803161328101e-07 1.56409506634027e-07 9.82978647260083e-08 1.1379710189381e-07 2.68918198207689e-07
"207" 4518 2.25064984552781e-07 1.07843242325437e-08 4.18975443298687e-08 1.08704301861318e-07 1.55955421934381e-07 9.71631031979871e-08 1.13748752022032e-07 2.67942959710282e-07
"208" 4519 2.24804579870243e-07 1.07959379849845e-08 4.19056074146587e-08 1.09605442394536e-07 1.55501337234735e-07 9.60283416699657e-08 1.13700402150254e-07 2.66967721212876e-07
"209" 4520 2.24544175187705e-07 1.08075517374252e-08 4.19136704994488e-08 1.10506582927753e-07 1.55047252535088e-07 9.48935801419444e-08 1.13652052278476e-07 2.65992482715469e-07
"210" 4521 2.24283770505167e-07 1.0819165489866e-08 4.19217335842388e-08 1.11407723460971e-07 1.54593167835442e-07 9.37588186139231e-08 1.13603702406698e-07 2.65017244218063e-07
"211" 4522 2.2402336582263e-07 1.08307792423067e-08 4.19297966690289e-08 1.12308863994188e-07 1.54139083135795e-07 9.26240570859018e-08 1.1355535253492e-07 2.64042005720656e-07
"212" 4523 2.23762961140092e-07 1.08423929947474e-08 4.19378597538189e-08 1.13210004527406e-07 1.53684998436149e-07 9.14892955578805e-08 1.13507002663142e-07 2.6306676722325e-07
"213" 4524 2.23502556457554e-07 1.08540067471882e-08 4.1945922838609e-08 1.14111145060623e-07 1.53230913736503e-07 9.03545340298592e-08 1.13458652791363e-07 2.62091528725843e-07
"214" 4525 2.23242151775016e-07 1.08656204996289e-08 4.1953985923399e-08 1.1501228559384e-07 1.52776829036856e-07 8.92197725018379e-08 1.13410302919585e-07 2.61116290228437e-07
"215" 4526 2.22981747092478e-07 1.08772342520697e-08 4.19620490081891e-08 1.15913426127058e-07 1.5232274433721e-07 8.80850109738166e-08 1.13361953047807e-07 2.6014105173103e-07
"216" 4527 2.2272134240994e-07 1.08888480045104e-08 4.19701120929791e-08 1.16814566660275e-07 1.51868659637563e-07 8.69502494457953e-08 1.13313603176029e-07 2.59165813233624e-07
"217" 4528 2.22460937727402e-07 1.09004617569511e-08 4.19781751777691e-08 1.17715707193493e-07 1.51414574937917e-07 8.5815487917774e-08 1.13265253304251e-07 2.58190574736217e-07
"218" 4529 2.22200533044864e-07 1.09120755093919e-08 4.19862382625592e-08 1.1861684772671e-07 1.50960490238271e-07 8.46807263897527e-08 1.13216903432473e-07 2.57215336238811e-07
"219" 4530 2.21940128362327e-07 1.09236892618326e-08 4.19943013473492e-08 1.19517988259928e-07 1.50506405538624e-07 8.35459648617314e-08 1.13168553560695e-07 2.56240097741404e-07
"220" 4531 2.21679723679789e-07 1.09353030142734e-08 4.20023644321393e-08 1.20419128793145e-07 1.50052320838978e-07 8.24112033337101e-08 1.13120203688917e-07 2.55264859243998e-07
"221" 4532 2.21419318997251e-07 1.09469167667141e-08 4.20104275169293e-08 1.21320269326362e-07 1.49598236139331e-07 8.12764418056888e-08 1.13071853817138e-07 2.54289620746591e-07
"222" 4533 2.21581460056473e-07 1.09592351146858e-08 4.16911403124869e-08 1.20562231507159e-07 1.50357116127224e-07 8.13637115536844e-08 1.13744564852742e-07 2.53880445002712e-07
"223" 4534 2.216727596546e-07 1.09677456235127e-08 4.1352194421001e-08 1.19395886680432e-07 1.50366318833338e-07 8.26520324167285e-08 1.15421048321472e-07 2.53885037263139e-07
"224" 4535 2.21037242947265e-07 1.10711777537809e-08 4.13514047738679e-08 1.19670540996086e-07 1.49561037690006e-07 8.29303071423472e-08 1.15423128578444e-07 2.52996628025342e-07
"225" 4536 2.2040172623993e-07 1.11746098840491e-08 4.13506151267347e-08 1.1994519531174e-07 1.48755756546674e-07 8.32085818679659e-08 1.15425208835415e-07 2.52108218787546e-07
"226" 4537 2.19766209532594e-07 1.12780420143173e-08 4.13498254796015e-08 1.20219849627394e-07 1.47950475403342e-07 8.34868565935846e-08 1.15427289092387e-07 2.51219809549749e-07
"227" 4538 2.19130692825259e-07 1.13814741445855e-08 4.13490358324683e-08 1.20494503943048e-07 1.4714519426001e-07 8.37651313192033e-08 1.15429369349358e-07 2.50331400311953e-07
"228" 4539 2.18495176117924e-07 1.14849062748537e-08 4.13482461853351e-08 1.20769158258703e-07 1.46339913116678e-07 8.4043406044822e-08 1.1543144960633e-07 2.49442991074156e-07
"229" 4540 2.17859659410589e-07 1.15883384051219e-08 4.1347456538202e-08 1.21043812574357e-07 1.45534631973346e-07 8.43216807704407e-08 1.15433529863302e-07 2.4855458183636e-07
"230" 4541 2.17224142703254e-07 1.169177053539e-08 4.13466668910688e-08 1.21318466890011e-07 1.44729350830014e-07 8.45999554960594e-08 1.15435610120273e-07 2.47666172598563e-07
"231" 4542 2.16588625995919e-07 1.17952026656582e-08 4.13458772439356e-08 1.21593121205665e-07 1.43924069686682e-07 8.48782302216781e-08 1.15437690377245e-07 2.46777763360767e-07
"232" 4543 2.15953109288584e-07 1.18986347959264e-08 4.13450875968024e-08 1.21867775521319e-07 1.4311878854335e-07 8.51565049472968e-08 1.15439770634216e-07 2.45889354122971e-07
"233" 4544 2.15317592581249e-07 1.20020669261946e-08 4.13442979496693e-08 1.22142429836974e-07 1.42313507400018e-07 8.54347796729155e-08 1.15441850891188e-07 2.45000944885174e-07
"234" 4545 2.14682075873914e-07 1.21054990564628e-08 4.13435083025361e-08 1.22417084152628e-07 1.41508226256686e-07 8.57130543985343e-08 1.1544393114816e-07 2.44112535647378e-07
"235" 4546 2.14046559166579e-07 1.2208931186731e-08 4.13427186554029e-08 1.22691738468282e-07 1.40702945113354e-07 8.5991329124153e-08 1.15446011405131e-07 2.43224126409581e-07
"236" 4547 2.14528461158899e-07 1.21676454029134e-08 4.13537330132532e-08 1.22718975296924e-07 1.40685953276291e-07 8.6285847057371e-08 1.17423886817862e-07 2.44723747096972e-07
"237" 4548 2.1501036315122e-07 1.21263596190958e-08 4.13647473711035e-08 1.22746212125565e-07 1.40668961439228e-07 8.6580364990589e-08 1.19401762230592e-07 2.46223367784362e-07
"238" 4549 2.15492265143541e-07 1.20850738352782e-08 4.13757617289539e-08 1.22773448954206e-07 1.40651969602165e-07 8.6874882923807e-08 1.21379637643322e-07 2.47722988471753e-07
"239" 4550 2.15974167135861e-07 1.20437880514606e-08 4.13867760868042e-08 1.22800685782848e-07 1.40634977765102e-07 8.7169400857025e-08 1.23357513056053e-07 2.49222609159143e-07
"240" 4551 2.16456069128182e-07 1.2002502267643e-08 4.13977904446545e-08 1.22827922611489e-07 1.40617985928039e-07 8.7463918790243e-08 1.25335388468783e-07 2.50722229846534e-07
"241" 4552 2.16654033694282e-07 1.19674073636457e-08 4.06847791716346e-08 1.21260040621727e-07 1.40698912176814e-07 8.77790910052699e-08 1.27270492623238e-07 2.51511327739262e-07
"242" 4553 2.16627096396339e-07 1.1966615699825e-08 4.04400178461588e-08 1.2041987389779e-07 1.40559492118262e-07 8.80617027137541e-08 1.29263843972898e-07 2.52655586278246e-07
"243" 4554 2.16088557524995e-07 1.19774458376586e-08 4.04065210705352e-08 1.19635076950599e-07 1.40887700113446e-07 8.81203622250967e-08 1.29369351204432e-07 2.51823557072402e-07
"244" 4555 2.15550018653651e-07 1.19882759754922e-08 4.03730242949116e-08 1.18850280003407e-07 1.41215908108629e-07 8.81790217364393e-08 1.29474858435967e-07 2.50991527866559e-07
"245" 4556 2.15011479782307e-07 1.19991061133258e-08 4.0339527519288e-08 1.18065483056216e-07 1.41544116103813e-07 8.82376812477819e-08 1.29580365667501e-07 2.50159498660716e-07
"246" 4557 2.14472940910963e-07 1.20099362511593e-08 4.03060307436644e-08 1.17280686109025e-07 1.41872324098997e-07 8.82963407591245e-08 1.29685872899035e-07 2.49327469454872e-07
"247" 4558 2.13934402039619e-07 1.20207663889929e-08 4.02725339680407e-08 1.16495889161834e-07 1.42200532094181e-07 8.83550002704671e-08 1.2979138013057e-07 2.48495440249029e-07
"248" 4559 2.13395863168274e-07 1.20315965268265e-08 4.02390371924171e-08 1.15711092214643e-07 1.42528740089364e-07 8.84136597818097e-08 1.29896887362104e-07 2.47663411043185e-07
"249" 4560 2.1285732429693e-07 1.20424266646601e-08 4.02055404167935e-08 1.14926295267452e-07 1.42856948084548e-07 8.84723192931523e-08 1.30002394593639e-07 2.46831381837342e-07
"250" 4561 2.12318785425586e-07 1.20532568024936e-08 4.01720436411699e-08 1.14141498320261e-07 1.43185156079732e-07 8.85309788044948e-08 1.30107901825173e-07 2.45999352631499e-07
"251" 4562 2.11780246554242e-07 1.20640869403272e-08 4.01385468655463e-08 1.1335670137307e-07 1.43513364074916e-07 8.85896383158374e-08 1.30213409056707e-07 2.45167323425655e-07
"252" 4563 2.11241707682898e-07 1.20749170781608e-08 4.01050500899227e-08 1.12571904425879e-07 1.438415720701e-07 8.864829782718e-08 1.30318916288242e-07 2.44335294219812e-07
"253" 4564 2.10703168811553e-07 1.20857472159944e-08 4.00715533142991e-08 1.11787107478687e-07 1.44169780065283e-07 8.87069573385226e-08 1.30424423519776e-07 2.43503265013968e-07
"254" 4565 2.10164629940209e-07 1.20965773538279e-08 4.00380565386754e-08 1.11002310531496e-07 1.44497988060467e-07 8.87656168498652e-08 1.3052993075131e-07 2.42671235808125e-07
"255" 4566 2.09626091068865e-07 1.21074074916615e-08 4.00045597630518e-08 1.10217513584305e-07 1.44826196055651e-07 8.88242763612078e-08 1.30635437982845e-07 2.41839206602282e-07
"256" 4567 2.09087552197521e-07 1.21182376294951e-08 3.99710629874282e-08 1.09432716637114e-07 1.45154404050835e-07 8.88829358725504e-08 1.30740945214379e-07 2.41007177396438e-07
"257" 4568 2.08549013326177e-07 1.21290677673287e-08 3.99375662118046e-08 1.08647919689923e-07 1.45482612046019e-07 8.8941595383893e-08 1.30846452445914e-07 2.40175148190595e-07
"258" 4569 2.08010474454832e-07 1.21398979051622e-08 3.9904069436181e-08 1.07863122742732e-07 1.45810820041203e-07 8.90002548952356e-08 1.30951959677448e-07 2.39343118984752e-07
"259" 4570 2.07586142033188e-07 1.21450912787481e-08 3.95968782179957e-08 1.07649429092816e-07 1.45847525401672e-07 8.9135875988068e-08 1.32707556059721e-07 2.39326268175521e-07
"260" 4571 2.07161809611543e-07 1.21214994022809e-08 3.935539541258e-08 1.07731904806419e-07 1.4590647517572e-07 8.94314588901006e-08 1.32334769889357e-07 2.39259024581331e-07
"261" 4572 2.05740505500421e-07 1.21682397645533e-08 3.94231845908771e-08 1.07434428813549e-07 1.45840388940936e-07 8.89483948123112e-08 1.32402941291308e-07 2.37871995476761e-07
"262" 4573 2.04319201389298e-07 1.22149801268258e-08 3.94909737691743e-08 1.07136952820679e-07 1.45774302706152e-07 8.84653307345218e-08 1.3247111269326e-07 2.3648496637219e-07
"263" 4574 2.02897897278176e-07 1.22617204890983e-08 3.95587629474715e-08 1.06839476827809e-07 1.45708216471368e-07 8.79822666567323e-08 1.32539284095211e-07 2.35097937267619e-07
"264" 4575 2.01476593167053e-07 1.23084608513708e-08 3.96265521257687e-08 1.06542000834939e-07 1.45642130236584e-07 8.74992025789429e-08 1.32607455497162e-07 2.33710908163049e-07
"265" 4576 2.0005528905593e-07 1.23552012136433e-08 3.96943413040659e-08 1.06244524842068e-07 1.455760440018e-07 8.70161385011535e-08 1.32675626899113e-07 2.32323879058478e-07
"266" 4577 1.98633984944808e-07 1.24019415759157e-08 3.9762130482363e-08 1.05947048849198e-07 1.45509957767016e-07 8.65330744233641e-08 1.32743798301064e-07 2.30936849953908e-07
"267" 4578 1.97212680833685e-07 1.24486819381882e-08 3.98299196606602e-08 1.05649572856328e-07 1.45443871532232e-07 8.60500103455746e-08 1.32811969703015e-07 2.29549820849337e-07
"268" 4579 1.95791376722562e-07 1.24954223004607e-08 3.98977088389574e-08 1.05352096863458e-07 1.45377785297448e-07 8.55669462677852e-08 1.32880141104966e-07 2.28162791744766e-07
"269" 4580 1.9437007261144e-07 1.25421626627332e-08 3.99654980172546e-08 1.05054620870588e-07 1.45311699062664e-07 8.50838821899958e-08 1.32948312506918e-07 2.26775762640196e-07
"270" 4581 1.92948768500317e-07 1.25889030250056e-08 4.00332871955518e-08 1.04757144877718e-07 1.4524561282788e-07 8.46008181122064e-08 1.33016483908869e-07 2.25388733535625e-07
"271" 4582 1.91527464389194e-07 1.26356433872781e-08 4.0101076373849e-08 1.04459668884848e-07 1.45179526593096e-07 8.4117754034417e-08 1.3308465531082e-07 2.24001704431055e-07
"272" 4583 1.90106160278072e-07 1.26823837495506e-08 4.01688655521461e-08 1.04162192891978e-07 1.45113440358312e-07 8.36346899566275e-08 1.33152826712771e-07 2.22614675326484e-07
"273" 4584 1.88684856166949e-07 1.27291241118231e-08 4.02366547304433e-08 1.03864716899108e-07 1.45047354123528e-07 8.31516258788381e-08 1.33220998114722e-07 2.21227646221913e-07
"274" 4585 1.87263552055827e-07 1.27758644740955e-08 4.03044439087405e-08 1.03567240906238e-07 1.44981267888744e-07 8.26685618010487e-08 1.33289169516673e-07 2.19840617117343e-07
"275" 4586 1.85842247944704e-07 1.2822604836368e-08 4.03722330870377e-08 1.03269764913368e-07 1.4491518165396e-07 8.21854977232593e-08 1.33357340918625e-07 2.18453588012772e-07
"276" 4587 1.84420943833581e-07 1.28693451986405e-08 4.04400222653349e-08 1.02972288920498e-07 1.44849095419176e-07 8.17024336454698e-08 1.33425512320576e-07 2.17066558908202e-07
"277" 4588 1.82999639722459e-07 1.2916085560913e-08 4.0507811443632e-08 1.02674812927628e-07 1.44783009184392e-07 8.12193695676804e-08 1.33493683722527e-07 2.15679529803631e-07
"278" 4589 1.81578335611336e-07 1.29628259231855e-08 4.05756006219292e-08 1.02377336934758e-07 1.44716922949608e-07 8.0736305489891e-08 1.33561855124478e-07 2.1429250069906e-07
"279" 4590 1.81616245477857e-07 1.30449616583527e-08 4.0561883552134e-08 1.02393911790997e-07 1.44855584873961e-07 8.02327545854987e-08 1.33808884855099e-07 2.13066106433678e-07
"280" 4591 1.80119340470588e-07 1.26537172736216e-08 4.02969186481954e-08 1.0234839932835e-07 1.45280841692535e-07 8.01634658510043e-08 1.34246702971107e-07 2.13176630333134e-07
"281" 4592 1.7862243546332e-07 1.22624728888906e-08 4.00319537442568e-08 1.02302886865704e-07 1.45706098511108e-07 8.00941771165099e-08 1.34684521087116e-07 2.13287154232591e-07
"282" 4593 1.74569652211015e-07 1.22646737437732e-08 4.00794595709492e-08 1.02207389523829e-07 1.45748218922958e-07 8.01216603405198e-08 1.35120258946153e-07 2.13148639579033e-07
"283" 4594 1.7051686895871e-07 1.22668745986558e-08 4.01269653976416e-08 1.02111892181955e-07 1.45790339334808e-07 8.01491435645296e-08 1.35555996805191e-07 2.13010124925474e-07
"284" 4595 1.66464085706405e-07 1.22690754535384e-08 4.01744712243339e-08 1.02016394840081e-07 1.45832459746657e-07 8.01766267885395e-08 1.35991734664228e-07 2.12871610271916e-07
"285" 4596 1.6361562118156e-07 1.23079701474671e-08 4.01850704076106e-08 1.01959824783558e-07 1.45500806039254e-07 8.03293488475318e-08 1.36078577523326e-07 2.12419721227606e-07
"286" 4597 1.60767156656715e-07 1.23468648413957e-08 4.01956695908872e-08 1.01903254727036e-07 1.4516915233185e-07 8.04820709065242e-08 1.36165420382424e-07 2.11967832183296e-07
"287" 4598 1.5791869213187e-07 1.23857595353244e-08 4.02062687741639e-08 1.01846684670513e-07 1.44837498624446e-07 8.06347929655165e-08 1.36252263241522e-07 2.11515943138986e-07
"288" 4599 1.55070227607024e-07 1.2424654229253e-08 4.02168679574405e-08 1.01790114613991e-07 1.44505844917042e-07 8.07875150245088e-08 1.36339106100621e-07 2.11064054094676e-07
"289" 4600 1.52221763082179e-07 1.24635489231817e-08 4.02274671407172e-08 1.01733544557468e-07 1.44174191209639e-07 8.09402370835011e-08 1.36425948959719e-07 2.10612165050365e-07
"290" 4601 1.49373298557334e-07 1.25024436171103e-08 4.02380663239938e-08 1.01676974500946e-07 1.43842537502235e-07 8.10929591424934e-08 1.36512791818817e-07 2.10160276006055e-07
"291" 4602 1.46524834032489e-07 1.2541338311039e-08 4.02486655072705e-08 1.01620404444423e-07 1.43510883794831e-07 8.12456812014857e-08 1.36599634677915e-07 2.09708386961745e-07
"292" 4603 1.46382172122516e-07 1.25837559826225e-08 4.02592646905471e-08 1.01659331729775e-07 1.42799239993747e-07 8.07019366986032e-08 1.33829176992446e-07 2.08971215553568e-07
"293" 4604 1.46510651353397e-07 1.25075972356483e-08 4.02539862653591e-08 1.01432229010851e-07 1.42894832453125e-07 8.09736276410722e-08 1.33562151910729e-07 2.0906971874182e-07
"294" 4605 1.46625668879726e-07 1.26786383400355e-08 4.02587670246875e-08 1.01291078660749e-07 1.42895507903138e-07 8.11814938445555e-08 1.33265031152973e-07 2.09178998520468e-07
"295" 4606 1.46740686406056e-07 1.28496794444226e-08 4.02635477840159e-08 1.01149928310648e-07 1.4289618335315e-07 8.13893600480387e-08 1.32967910395218e-07 2.09288278299116e-07
"296" 4607 1.46855703932385e-07 1.30207205488098e-08 4.02683285433443e-08 1.01008777960547e-07 1.42896858803163e-07 8.15972262515219e-08 1.32670789637462e-07 2.09397558077765e-07
"297" 4608 1.46970721458714e-07 1.31917616531969e-08 4.02731093026728e-08 1.00867627610445e-07 1.42897534253176e-07 8.18050924550052e-08 1.32373668879707e-07 2.09506837856413e-07
"298" 4609 1.47085738985044e-07 1.33628027575841e-08 4.02778900620012e-08 1.00726477260344e-07 1.42898209703189e-07 8.20129586584884e-08 1.32076548121952e-07 2.09616117635062e-07
"299" 4610 1.46021603535895e-07 1.36603132621146e-08 4.00092689036703e-08 1.00473715779496e-07 1.42900655015666e-07 8.19653753208514e-08 1.32056088406643e-07 2.08958936075056e-07
"300" 4611 1.46439264843054e-07 1.3836832110558e-08 3.98621340159502e-08 1.00074288159242e-07 1.43761956089482e-07 8.24344502163278e-08 1.32317656384662e-07 2.08883210363492e-07
"301" 4612 1.46856926150213e-07 1.40133509590014e-08 3.97149991282302e-08 9.96748605389887e-08 1.44623257163298e-07 8.29035251118042e-08 1.32579224362681e-07 2.08807484651927e-07
"302" 4613 1.47274587457372e-07 1.41898698074448e-08 3.95678642405101e-08 9.92754329187352e-08 1.45484558237114e-07 8.33726000072806e-08 1.328407923407e-07 2.08731758940363e-07
"303" 4614 1.47692248764531e-07 1.43663886558882e-08 3.94207293527901e-08 9.88760052984817e-08 1.4634585931093e-07 8.3841674902757e-08 1.3310236031872e-07 2.08656033228799e-07
"304" 4615 1.4810991007169e-07 1.45429075043316e-08 3.927359446507e-08 9.84765776782281e-08 1.47207160384746e-07 8.43107497982334e-08 1.33363928296739e-07 2.08580307517235e-07
"305" 4616 1.48527571378849e-07 1.4719426352775e-08 3.912645957735e-08 9.80771500579746e-08 1.48068461458562e-07 8.47798246937098e-08 1.33625496274758e-07 2.08504581805671e-07
"306" 4617 1.48945232686008e-07 1.48959452012184e-08 3.89793246896299e-08 9.7677722437721e-08 1.48929762532378e-07 8.52488995891862e-08 1.33887064252777e-07 2.08428856094107e-07
"307" 4618 1.49362893993167e-07 1.50724640496617e-08 3.88321898019099e-08 9.72782948174675e-08 1.49791063606194e-07 8.57179744846626e-08 1.34148632230796e-07 2.08353130382543e-07
"308" 4619 1.49780555300326e-07 1.52489828981051e-08 3.86850549141898e-08 9.6878867197214e-08 1.5065236468001e-07 8.6187049380139e-08 1.34410200208815e-07 2.08277404670979e-07
"309" 4620 1.50198216607485e-07 1.54255017465485e-08 3.85379200264698e-08 9.64794395769604e-08 1.51513665753826e-07 8.66561242756154e-08 1.34671768186835e-07 2.08201678959415e-07
"310" 4621 1.50615877914644e-07 1.56020205949919e-08 3.83907851387498e-08 9.60800119567069e-08 1.52374966827642e-07 8.71251991710918e-08 1.34933336164854e-07 2.08125953247851e-07
"311" 4622 1.51033539221803e-07 1.57785394434353e-08 3.82436502510297e-08 9.56805843364533e-08 1.53236267901458e-07 8.75942740665682e-08 1.35194904142873e-07 2.08050227536287e-07
"312" 4623 1.51451200528962e-07 1.59550582918787e-08 3.80965153633097e-08 9.52811567161998e-08 1.54097568975274e-07 8.80633489620446e-08 1.35456472120892e-07 2.07974501824723e-07
"313" 4624 1.51868861836121e-07 1.61315771403221e-08 3.79493804755896e-08 9.48817290959463e-08 1.5495887004909e-07 8.8532423857521e-08 1.35718040098911e-07 2.07898776113159e-07
"314" 4625 1.5228652314328e-07 1.63080959887655e-08 3.78022455878696e-08 9.44823014756927e-08 1.55820171122905e-07 8.90014987529974e-08 1.3597960807693e-07 2.07823050401595e-07
"315" 4626 1.52704184450439e-07 1.64846148372089e-08 3.76551107001495e-08 9.40828738554392e-08 1.56681472196721e-07 8.94705736484738e-08 1.3624117605495e-07 2.07747324690031e-07
"316" 4627 1.51794722652593e-07 1.64933311884496e-08 3.76842055380346e-08 9.42980278238286e-08 1.56476630024875e-07 8.95494145897899e-08 1.36722859017474e-07 2.0431448517916e-07
"317" 4628 1.51427344063098e-07 1.64769040414161e-08 3.75270576041002e-08 9.41336911531113e-08 1.55331304719595e-07 8.95092589400969e-08 1.36145567602363e-07 2.0441316783506e-07
"318" 4629 1.51059965473602e-07 1.64604768943827e-08 3.73699096701658e-08 9.3969354482394e-08 1.54185979414314e-07 8.9469103290404e-08 1.35568276187253e-07 2.0451185049096e-07
"319" 4630 1.50692586884107e-07 1.64440497473492e-08 3.72127617362315e-08 9.38050178116767e-08 1.53040654109034e-07 8.9428947640711e-08 1.34990984772143e-07 2.0461053314686e-07
"320" 4631 1.50325208294611e-07 1.64276226003158e-08 3.70556138022971e-08 9.36406811409594e-08 1.51895328803753e-07 8.9388791991018e-08 1.34413693357032e-07 2.04709215802761e-07
"321" 4632 1.49957829705116e-07 1.64111954532824e-08 3.68984658683627e-08 9.34763444702421e-08 1.50750003498473e-07 8.9348636341325e-08 1.33836401941922e-07 2.04807898458661e-07
"322" 4633 1.4959045111562e-07 1.63947683062489e-08 3.67413179344284e-08 9.33120077995249e-08 1.49604678193193e-07 8.93084806916321e-08 1.33259110526811e-07 2.04906581114561e-07
"323" 4634 1.49223072526125e-07 1.63783411592155e-08 3.6584170000494e-08 9.31476711288076e-08 1.48459352887912e-07 8.92683250419391e-08 1.32681819111701e-07 2.05005263770461e-07
"324" 4635 1.4885569393663e-07 1.6361914012182e-08 3.64270220665596e-08 9.29833344580903e-08 1.47314027582632e-07 8.92281693922461e-08 1.3210452769659e-07 2.05103946426362e-07
"325" 4636 1.48488315347134e-07 1.63454868651486e-08 3.62698741326252e-08 9.2818997787373e-08 1.46168702277351e-07 8.91880137425532e-08 1.3152723628148e-07 2.05202629082262e-07
"326" 4637 1.48120936757639e-07 1.63290597181152e-08 3.61127261986909e-08 9.26546611166557e-08 1.45023376972071e-07 8.91478580928602e-08 1.30949944866369e-07 2.05301311738162e-07
"327" 4638 1.47753558168143e-07 1.63126325710817e-08 3.59555782647565e-08 9.24903244459384e-08 1.4387805166679e-07 8.91077024431672e-08 1.30372653451259e-07 2.05399994394062e-07
"328" 4639 1.47386179578648e-07 1.62962054240483e-08 3.57984303308221e-08 9.23259877752211e-08 1.4273272636151e-07 8.90675467934743e-08 1.29795362036148e-07 2.05498677049963e-07
"329" 4640 1.47018800989152e-07 1.62797782770148e-08 3.56412823968878e-08 9.21616511045039e-08 1.41587401056229e-07 8.90273911437813e-08 1.29218070621038e-07 2.05597359705863e-07
"330" 4641 1.46651422399657e-07 1.62633511299814e-08 3.54841344629534e-08 9.19973144337866e-08 1.40442075750949e-07 8.89872354940883e-08 1.28640779205927e-07 2.05696042361763e-07
"331" 4642 1.46284043810161e-07 1.6246923982948e-08 3.5326986529019e-08 9.18329777630693e-08 1.39296750445668e-07 8.89470798443954e-08 1.28063487790817e-07 2.05794725017663e-07
"332" 4643 1.45916665220666e-07 1.62304968359145e-08 3.51698385950846e-08 9.1668641092352e-08 1.38151425140388e-07 8.89069241947024e-08 1.27486196375706e-07 2.05893407673564e-07
"333" 4644 1.4554928663117e-07 1.62140696888811e-08 3.50126906611503e-08 9.15043044216347e-08 1.37006099835108e-07 8.88667685450094e-08 1.26908904960596e-07 2.05992090329464e-07
"334" 4645 1.45181908041675e-07 1.61976425418477e-08 3.48555427272159e-08 9.13399677509174e-08 1.35860774529827e-07 8.88266128953165e-08 1.26331613545485e-07 2.06090772985364e-07
"335" 4646 1.4481452945218e-07 1.61812153948142e-08 3.46983947932815e-08 9.11756310802001e-08 1.34715449224547e-07 8.87864572456235e-08 1.25754322130375e-07 2.06189455641264e-07
"336" 4647 1.44447150862684e-07 1.61647882477808e-08 3.45412468593472e-08 9.10112944094829e-08 1.33570123919266e-07 8.87463015959305e-08 1.25177030715264e-07 2.06288138297165e-07
"337" 4648 1.42570014180112e-07 1.60203954412524e-08 3.44475664827422e-08 9.15069340418109e-08 1.32807516181026e-07 8.97393810961182e-08 1.26381211027818e-07 2.06236236056704e-07
"338" 4649 1.4069287749754e-07 1.5876002634724e-08 3.43538861061372e-08 9.2002573674139e-08 1.32044908442786e-07 9.07324605963059e-08 1.27585391340371e-07 2.06184333816243e-07
"339" 4650 1.39953905932746e-07 1.58957942302403e-08 3.45550892969577e-08 9.19166540282623e-08 1.32006681149656e-07 9.08465594075037e-08 1.27542364348587e-07 2.06160039150495e-07
"340" 4651 1.39214934367952e-07 1.59155858257567e-08 3.47562924877781e-08 9.18307343823856e-08 1.31968453856527e-07 9.09606582187015e-08 1.27499337356804e-07 2.06135744484748e-07
"341" 4652 1.38475962803157e-07 1.5935377421273e-08 3.49574956785986e-08 9.17448147365089e-08 1.31930226563398e-07 9.10747570298993e-08 1.2745631036502e-07 2.06111449819e-07
"342" 4653 1.37736991238363e-07 1.59551690167893e-08 3.5158698869419e-08 9.16588950906322e-08 1.31891999270268e-07 9.11888558410971e-08 1.27413283373237e-07 2.06087155153252e-07
"343" 4654 1.36998019673569e-07 1.59749606123056e-08 3.53599020602395e-08 9.15729754447555e-08 1.31853771977139e-07 9.13029546522949e-08 1.27370256381453e-07 2.06062860487505e-07
"344" 4655 1.36259048108775e-07 1.5994752207822e-08 3.556110525106e-08 9.14870557988788e-08 1.3181554468401e-07 9.14170534634927e-08 1.27327229389669e-07 2.06038565821757e-07
"345" 4656 1.3552007654398e-07 1.60145438033383e-08 3.57623084418804e-08 9.14011361530021e-08 1.31777317390881e-07 9.15311522746905e-08 1.27284202397886e-07 2.06014271156009e-07
"346" 4657 1.34781104979186e-07 1.60343353988546e-08 3.59635116327009e-08 9.13152165071254e-08 1.31739090097751e-07 9.16452510858883e-08 1.27241175406102e-07 2.05989976490262e-07
"347" 4658 1.34042133414392e-07 1.60541269943709e-08 3.61647148235213e-08 9.12292968612487e-08 1.31700862804622e-07 9.17593498970862e-08 1.27198148414319e-07 2.05965681824514e-07
"348" 4659 1.33303161849597e-07 1.60739185898873e-08 3.63659180143418e-08 9.1143377215372e-08 1.31662635511493e-07 9.18734487082839e-08 1.27155121422535e-07 2.05941387158766e-07
"349" 4660 1.32564190284803e-07 1.60937101854036e-08 3.65671212051622e-08 9.10574575694953e-08 1.31624408218363e-07 9.19875475194818e-08 1.27112094430752e-07 2.05917092493019e-07
"350" 4661 1.3261642047372e-07 1.61226061603672e-08 3.68214424184084e-08 9.04279101694045e-08 1.31346673964988e-07 9.19632724594437e-08 1.27069067438968e-07 2.0597632080668e-07
"351" 4662 1.32590905361322e-07 1.62008947923613e-08 3.69281766727483e-08 8.98585418459004e-08 1.31272943958581e-07 9.18625622785652e-08 1.27572468985732e-07 2.05961964867829e-07
"352" 4663 1.32565390248924e-07 1.62791834243554e-08 3.70349109270882e-08 8.92891735223964e-08 1.31199213952174e-07 9.17618520976868e-08 1.28075870532496e-07 2.05947608928978e-07
"353" 4664 1.32539875136525e-07 1.63574720563494e-08 3.71416451814281e-08 8.87198051988924e-08 1.31125483945767e-07 9.16611419168083e-08 1.28579272079261e-07 2.05933252990127e-07
"354" 4665 1.32514360024127e-07 1.64357606883435e-08 3.7248379435768e-08 8.81504368753883e-08 1.3105175393936e-07 9.15604317359298e-08 1.29082673626025e-07 2.05918897051276e-07
"355" 4666 1.32488844911729e-07 1.65140493203376e-08 3.73551136901079e-08 8.75810685518843e-08 1.30978023932953e-07 9.14597215550514e-08 1.29586075172789e-07 2.05904541112425e-07
"356" 4667 1.32307899381668e-07 1.65038684155797e-08 3.73997122075269e-08 8.75679554624515e-08 1.3108266518135e-07 9.12505801562366e-08 1.30136578980777e-07 2.05914338916709e-07
"357" 4668 1.32126953851608e-07 1.64936875108218e-08 3.7444310724946e-08 8.75548423730187e-08 1.31187306429746e-07 9.10414387574219e-08 1.30687082788765e-07 2.05924136720992e-07
"358" 4669 1.31946008321547e-07 1.64835066060639e-08 3.74889092423651e-08 8.75417292835859e-08 1.31291947678142e-07 9.08322973586071e-08 1.31237586596754e-07 2.05933934525275e-07
"359" 4670 1.31765062791487e-07 1.6473325701306e-08 3.75335077597841e-08 8.75286161941531e-08 1.31396588926538e-07 9.06231559597923e-08 1.31788090404742e-07 2.05943732329558e-07
"360" 4671 1.31738874245763e-07 1.63702815992444e-08 3.75417787036754e-08 8.75202387779313e-08 1.31280211311103e-07 9.05591878606316e-08 1.32902313829689e-07 2.06975347544536e-07
"361" 4672 1.3171268570004e-07 1.62672374971828e-08 3.75500496475667e-08 8.75118613617095e-08 1.31163833695667e-07 9.04952197614709e-08 1.34016537254637e-07 2.08006962759514e-07
"362" 4673 1.31686497154316e-07 1.61641933951213e-08 3.75583205914579e-08 8.75034839454878e-08 1.31047456080232e-07 9.04312516623102e-08 1.35130760679584e-07 2.09038577974491e-07
"363" 4674 1.31660308608592e-07 1.60611492930597e-08 3.75665915353492e-08 8.7495106529266e-08 1.30931078464796e-07 9.03672835631495e-08 1.36244984104531e-07 2.10070193189469e-07
"364" 4675 1.31634120062868e-07 1.59581051909981e-08 3.75748624792405e-08 8.74867291130443e-08 1.30814700849361e-07 9.03033154639888e-08 1.37359207529479e-07 2.11101808404446e-07
"365" 4676 1.31607931517145e-07 1.58550610889366e-08 3.75831334231318e-08 8.74783516968225e-08 1.30698323233926e-07 9.02393473648281e-08 1.38473430954426e-07 2.12133423619424e-07
"366" 4677 1.31581742971421e-07 1.5752016986875e-08 3.75914043670231e-08 8.74699742806007e-08 1.3058194561849e-07 9.01753792656674e-08 1.39587654379373e-07 2.13165038834401e-07
"367" 4678 1.31555554425697e-07 1.56489728848134e-08 3.75996753109144e-08 8.7461596864379e-08 1.30465568003055e-07 9.01114111665067e-08 1.40701877804321e-07 2.14196654049379e-07
"368" 4679 1.31529365879974e-07 1.55459287827518e-08 3.76079462548056e-08 8.74532194481572e-08 1.30349190387619e-07 9.0047443067346e-08 1.41816101229268e-07 2.15228269264357e-07
"369" 4680 1.3150317733425e-07 1.54428846806903e-08 3.76162171986969e-08 8.74448420319355e-08 1.30232812772184e-07 8.99834749681853e-08 1.42930324654215e-07 2.16259884479334e-07
"370" 4681 1.31476988788526e-07 1.53398405786287e-08 3.76244881425882e-08 8.74364646157137e-08 1.30116435156749e-07 8.99195068690246e-08 1.44044548079163e-07 2.17291499694312e-07
"371" 4682 1.31450800242803e-07 1.52367964765671e-08 3.76327590864795e-08 8.74280871994919e-08 1.30000057541313e-07 8.98555387698639e-08 1.4515877150411e-07 2.18323114909289e-07
"372" 4683 1.31386433313005e-07 1.51259071971813e-08 3.76327590864795e-08 8.78079147218572e-08 1.29657243117158e-07 8.97254142025859e-08 1.45046709827845e-07 2.18788538539483e-07
"373" 4684 1.31139448668502e-07 1.51478442851249e-08 3.76319287373321e-08 8.8420238041402e-08 1.28749264514036e-07 8.99894581993413e-08 1.46738545847304e-07 2.17579502613423e-07
"374" 4685 1.31121927494818e-07 1.5189422979646e-08 3.76677152248421e-08 8.82662492571655e-08 1.27896020510021e-07 8.96403792073589e-08 1.46791643983437e-07 2.17011278575929e-07
"375" 4686 1.31104406321134e-07 1.5231001674167e-08 3.77035017123521e-08 8.81122604729291e-08 1.27042776506005e-07 8.92913002153764e-08 1.46844742119571e-07 2.16443054538434e-07
"376" 4687 1.3108688514745e-07 1.5272580368688e-08 3.77392881998621e-08 8.79582716886926e-08 1.2618953250199e-07 8.8942221223394e-08 1.46897840255704e-07 2.1587483050094e-07
"377" 4688 1.31069363973766e-07 1.53141590632091e-08 3.77750746873721e-08 8.78042829044562e-08 1.25336288497974e-07 8.85931422314115e-08 1.46950938391838e-07 2.15306606463446e-07
"378" 4689 1.31051842800082e-07 1.53557377577301e-08 3.78108611748821e-08 8.76502941202197e-08 1.24483044493959e-07 8.82440632394291e-08 1.47004036527971e-07 2.14738382425952e-07
"379" 4690 1.31034321626397e-07 1.53973164522511e-08 3.78466476623921e-08 8.74963053359833e-08 1.23629800489944e-07 8.78949842474467e-08 1.47057134664105e-07 2.14170158388457e-07
"380" 4691 1.31016800452713e-07 1.54388951467722e-08 3.78824341499021e-08 8.73423165517468e-08 1.22776556485928e-07 8.75459052554642e-08 1.47110232800239e-07 2.13601934350963e-07
"381" 4692 1.30999279279029e-07 1.54804738412932e-08 3.79182206374121e-08 8.71883277675104e-08 1.21923312481913e-07 8.71968262634818e-08 1.47163330936372e-07 2.13033710313469e-07
"382" 4693 1.30981758105345e-07 1.55220525358143e-08 3.79540071249221e-08 8.70343389832739e-08 1.21070068477897e-07 8.68477472714993e-08 1.47216429072506e-07 2.12465486275975e-07
"383" 4694 1.30964236931661e-07 1.55636312303353e-08 3.79897936124321e-08 8.68803501990375e-08 1.20216824473882e-07 8.64986682795169e-08 1.47269527208639e-07 2.1189726223848e-07
"384" 4695 1.30946715757977e-07 1.56052099248563e-08 3.80255800999421e-08 8.6726361414801e-08 1.19363580469866e-07 8.61495892875345e-08 1.47322625344773e-07 2.11329038200986e-07
"385" 4696 1.30929194584293e-07 1.56467886193774e-08 3.80613665874521e-08 8.65723726305646e-08 1.18510336465851e-07 8.5800510295552e-08 1.47375723480907e-07 2.10760814163492e-07
"386" 4697 1.30911673410609e-07 1.56883673138984e-08 3.80971530749621e-08 8.64183838463281e-08 1.17657092461835e-07 8.54514313035696e-08 1.4742882161704e-07 2.10192590125998e-07
"387" 4698 1.30894152236925e-07 1.57299460084194e-08 3.81329395624721e-08 8.62643950620917e-08 1.1680384845782e-07 8.51023523115872e-08 1.47481919753174e-07 2.09624366088503e-07
"388" 4699 1.30876631063241e-07 1.57715247029405e-08 3.81687260499821e-08 8.61104062778552e-08 1.15950604453804e-07 8.47532733196047e-08 1.47535017889307e-07 2.09056142051009e-07
"389" 4700 1.30859109889557e-07 1.58131033974615e-08 3.82045125374921e-08 8.59564174936188e-08 1.15097360449789e-07 8.44041943276223e-08 1.47588116025441e-07 2.08487918013515e-07
"390" 4701 1.30841588715873e-07 1.58546820919825e-08 3.82402990250021e-08 8.58024287093823e-08 1.14244116445773e-07 8.40551153356398e-08 1.47641214161575e-07 2.07919693976021e-07
"391" 4702 1.30824067542189e-07 1.58962607865036e-08 3.82760855125121e-08 8.56484399251459e-08 1.13390872441758e-07 8.37060363436574e-08 1.47694312297708e-07 2.07351469938526e-07
"392" 4703 1.30806546368505e-07 1.59378394810246e-08 3.83118720000221e-08 8.54944511409095e-08 1.12537628437742e-07 8.3356957351675e-08 1.47747410433842e-07 2.06783245901032e-07
"393" 4704 1.30778542120133e-07 1.59497224875479e-08 3.83482397319352e-08 8.53861644493194e-08 1.12205339175665e-07 8.34637405150702e-08 1.47594391185261e-07 2.0632362894539e-07
"394" 4705 1.30750537871762e-07 1.59616054940712e-08 3.83846074638484e-08 8.52778777577295e-08 1.11873049913587e-07 8.35705236784655e-08 1.47441371936681e-07 2.05864011989748e-07
"395" 4706 1.30777595539642e-07 1.5962214972099e-08 3.80863965199167e-08 8.52878119163907e-08 1.11576573969732e-07 8.42327003629103e-08 1.49568064189558e-07 2.05692315400554e-07
"396" 4707 1.30804653207522e-07 1.59628244501268e-08 3.77881855759851e-08 8.52977460750519e-08 1.11280098025876e-07 8.48948770473551e-08 1.51694756442436e-07 2.0552061881136e-07
"397" 4708 1.30933765450296e-07 1.59532847292311e-08 3.7580166454982e-08 8.52807557461205e-08 1.10901476070515e-07 8.4632676267879e-08 1.51584035126812e-07 2.05630359902885e-07
"398" 4709 1.31062877693071e-07 1.59437450083353e-08 3.7372147333979e-08 8.52637654171891e-08 1.10522854115154e-07 8.4370475488403e-08 1.51473313811188e-07 2.05740100994409e-07
"399" 4710 1.31191989935846e-07 1.59342052874396e-08 3.71641282129759e-08 8.52467750882578e-08 1.10144232159793e-07 8.4108274708927e-08 1.51362592495565e-07 2.05849842085933e-07
"400" 4711 1.31321102178621e-07 1.59246655665439e-08 3.69561090919728e-08 8.52297847593264e-08 1.09765610204432e-07 8.3846073929451e-08 1.51251871179941e-07 2.05959583177457e-07
"401" 4712 1.31450214421396e-07 1.59151258456482e-08 3.67480899709697e-08 8.5212794430395e-08 1.09386988249071e-07 8.3583873149975e-08 1.51141149864317e-07 2.06069324268981e-07
"402" 4713 1.3157932666417e-07 1.59055861247525e-08 3.65400708499666e-08 8.51958041014637e-08 1.09008366293711e-07 8.3321672370499e-08 1.51030428548693e-07 2.06179065360506e-07
"403" 4714 1.31708438906945e-07 1.58960464038568e-08 3.63320517289635e-08 8.51788137725323e-08 1.0862974433835e-07 8.3059471591023e-08 1.50919707233069e-07 2.0628880645203e-07
"404" 4715 1.3183755114972e-07 1.58865066829611e-08 3.61240326079604e-08 8.51618234436009e-08 1.08251122382989e-07 8.27972708115469e-08 1.50808985917446e-07 2.06398547543554e-07
"405" 4716 1.31966663392495e-07 1.58769669620653e-08 3.59160134869573e-08 8.51448331146695e-08 1.07872500427628e-07 8.25350700320709e-08 1.50698264601822e-07 2.06508288635078e-07
"406" 4717 1.3209577563527e-07 1.58674272411696e-08 3.57079943659542e-08 8.51278427857382e-08 1.07493878472267e-07 8.22728692525949e-08 1.50587543286198e-07 2.06618029726602e-07
"407" 4718 1.32163079528415e-07 1.58610858813909e-08 3.5751427676423e-08 8.4916108207413e-08 1.07126964317129e-07 8.23562766758111e-08 1.50608893588232e-07 2.06865285755862e-07
"408" 4719 1.30858846001617e-07 1.58839812115406e-08 3.65592856202558e-08 8.56319007379709e-08 1.09032460483187e-07 8.23562766758111e-08 1.50633089471366e-07 2.04386617057193e-07
"409" 4720 1.30296905260838e-07 1.60155569169801e-08 3.82806866814368e-08 8.70423450484177e-08 1.10468815343373e-07 8.24544551423061e-08 1.50627554207876e-07 2.00416520209723e-07
"410" 4721 1.2973496452006e-07 1.61471326224196e-08 4.00020877426177e-08 8.84527893588644e-08 1.11905170203559e-07 8.25526336088012e-08 1.50622018944386e-07 1.96446423362252e-07
"411" 4722 1.29173023779282e-07 1.6278708327859e-08 4.17234888037987e-08 8.98632336693112e-08 1.13341525063745e-07 8.26508120752963e-08 1.50616483680895e-07 1.92476326514782e-07
"412" 4723 1.28611083038503e-07 1.64102840332985e-08 4.34448898649796e-08 9.1273677979758e-08 1.14777879923931e-07 8.27489905417913e-08 1.50610948417405e-07 1.88506229667312e-07
"413" 4724 1.28049142297725e-07 1.6541859738738e-08 4.51662909261606e-08 9.26841222902047e-08 1.16214234784117e-07 8.28471690082864e-08 1.50605413153915e-07 1.84536132819841e-07
"414" 4725 1.2870911767134e-07 1.66978980035415e-08 4.68061466681214e-08 9.35401363284539e-08 1.18002871819916e-07 8.28896925296577e-08 1.5057568200729e-07 1.82244741006488e-07
"415" 4726 1.29665556099548e-07 1.68342553977393e-08 4.84460024100822e-08 9.48300246749903e-08 1.19697549457246e-07 8.20321805134884e-08 1.50540172577567e-07 1.82312144243412e-07
"416" 4727 1.29686600952343e-07 1.68178282507058e-08 4.8545131630735e-08 9.47115651103195e-08 1.19613057810234e-07 8.11569290303682e-08 1.51100415513001e-07 1.82437883979722e-07
"417" 4728 1.29707645805139e-07 1.68014011036724e-08 4.86442608513879e-08 9.45931055456486e-08 1.19528566163222e-07 8.0281677547248e-08 1.51660658448435e-07 1.82563623716032e-07
"418" 4729 1.29728690657934e-07 1.6784973956639e-08 4.87433900720408e-08 9.44746459809778e-08 1.1944407451621e-07 7.94064260641278e-08 1.52220901383869e-07 1.82689363452342e-07
"419" 4730 1.2974973551073e-07 1.67685468096055e-08 4.88425192926937e-08 9.4356186416307e-08 1.19359582869198e-07 7.85311745810077e-08 1.52781144319303e-07 1.82815103188652e-07
"420" 4731 1.29770780363525e-07 1.67521196625721e-08 4.89416485133466e-08 9.42377268516361e-08 1.19275091222186e-07 7.76559230978875e-08 1.53341387254737e-07 1.82940842924963e-07
"421" 4732 1.2979182521632e-07 1.67356925155386e-08 4.90407777339994e-08 9.41192672869653e-08 1.19190599575174e-07 7.67806716147673e-08 1.53901630190172e-07 1.83066582661273e-07
"422" 4733 1.29812870069116e-07 1.67192653685052e-08 4.91399069546523e-08 9.40008077222945e-08 1.19106107928162e-07 7.59054201316471e-08 1.54461873125606e-07 1.83192322397583e-07
"423" 4734 1.29833914921911e-07 1.67028382214718e-08 4.92390361753052e-08 9.38823481576237e-08 1.1902161628115e-07 7.50301686485269e-08 1.5502211606104e-07 1.83318062133893e-07
"424" 4735 1.29854959774707e-07 1.66864110744383e-08 4.93381653959581e-08 9.37638885929528e-08 1.18937124634138e-07 7.41549171654067e-08 1.55582358996474e-07 1.83443801870203e-07
"425" 4736 1.29876004627502e-07 1.66699839274049e-08 4.9437294616611e-08 9.3645429028282e-08 1.18852632987126e-07 7.32796656822865e-08 1.56142601931908e-07 1.83569541606514e-07
"426" 4737 1.29897049480297e-07 1.66535567803714e-08 4.95364238372638e-08 9.35269694636112e-08 1.18768141340114e-07 7.24044141991663e-08 1.56702844867342e-07 1.83695281342824e-07
"427" 4738 1.29918094333093e-07 1.6637129633338e-08 4.96355530579167e-08 9.34085098989404e-08 1.18683649693102e-07 7.15291627160461e-08 1.57263087802777e-07 1.83821021079134e-07
"428" 4739 1.29939139185888e-07 1.66207024863046e-08 4.97346822785696e-08 9.32900503342695e-08 1.1859915804609e-07 7.06539112329259e-08 1.57823330738211e-07 1.83946760815444e-07
"429" 4740 1.29960184038684e-07 1.66042753392711e-08 4.98338114992225e-08 9.31715907695987e-08 1.18514666399078e-07 6.97786597498057e-08 1.58383573673645e-07 1.84072500551755e-07
"430" 4741 1.28759416768013e-07 1.65997231495475e-08 4.96368034742969e-08 9.2536004284877e-08 1.18415334738076e-07 6.93758346863085e-08 1.58980238300535e-07 1.83536361880466e-07
"431" 4742 1.28796846399869e-07 1.65439025554682e-08 4.92631570727381e-08 9.21301092355729e-08 1.16878784618701e-07 6.92895485907812e-08 1.59384886730092e-07 1.83769010937125e-07
"432" 4743 1.28796846399869e-07 1.65417017005856e-08 4.92185585553191e-08 9.24064739827886e-08 1.16616218222554e-07 6.93654488159575e-08 1.59723166606155e-07 1.82963914399611e-07
"433" 4744 1.28796846399869e-07 1.6539500845703e-08 4.91739600379e-08 9.26828387300043e-08 1.16353651826407e-07 6.94413490411338e-08 1.60061446482218e-07 1.82158817862097e-07
"434" 4745 1.28796846399869e-07 1.65372999908204e-08 4.9129361520481e-08 9.295920347722e-08 1.1609108543026e-07 6.95172492663101e-08 1.60399726358281e-07 1.81353721324583e-07
"435" 4746 1.28796846399869e-07 1.65350991359378e-08 4.90847630030619e-08 9.32355682244356e-08 1.15828519034113e-07 6.95931494914865e-08 1.60738006234344e-07 1.80548624787068e-07
"436" 4747 1.28796846399869e-07 1.65328982810552e-08 4.90401644856429e-08 9.35119329716513e-08 1.15565952637966e-07 6.96690497166628e-08 1.61076286110408e-07 1.79743528249554e-07
"437" 4748 1.28796846399869e-07 1.65306974261727e-08 4.89955659682238e-08 9.3788297718867e-08 1.15303386241819e-07 6.97449499418391e-08 1.61414565986471e-07 1.7893843171204e-07
"438" 4749 1.28796846399869e-07 1.65284965712901e-08 4.89509674508048e-08 9.40646624660827e-08 1.15040819845671e-07 6.98208501670154e-08 1.61752845862534e-07 1.78133335174526e-07
"439" 4750 1.28796846399869e-07 1.65262957164075e-08 4.89063689333857e-08 9.43410272132984e-08 1.14778253449524e-07 6.98967503921917e-08 1.62091125738597e-07 1.77328238637012e-07
"440" 4751 1.28796846399869e-07 1.65240948615249e-08 4.88617704159667e-08 9.4617391960514e-08 1.14515687053377e-07 6.9972650617368e-08 1.6242940561466e-07 1.76523142099497e-07
"441" 4752 1.28796846399869e-07 1.65218940066423e-08 4.88171718985476e-08 9.48937567077297e-08 1.1425312065723e-07 7.00485508425443e-08 1.62767685490723e-07 1.75718045561983e-07
"442" 4753 1.28796846399869e-07 1.65196931517597e-08 4.87725733811286e-08 9.51701214549454e-08 1.13990554261083e-07 7.01244510677206e-08 1.63105965366787e-07 1.74912949024469e-07
"443" 4754 1.28796846399869e-07 1.65174922968771e-08 4.87279748637095e-08 9.54464862021611e-08 1.13727987864936e-07 7.02003512928969e-08 1.6344424524285e-07 1.74107852486955e-07
"444" 4755 1.28796846399869e-07 1.65152914419945e-08 4.86833763462905e-08 9.57228509493768e-08 1.13465421468789e-07 7.02762515180732e-08 1.63782525118913e-07 1.73302755949441e-07
"445" 4756 1.28796846399869e-07 1.65130905871119e-08 4.86387778288714e-08 9.59992156965924e-08 1.13202855072642e-07 7.03521517432495e-08 1.64120804994976e-07 1.72497659411926e-07
"446" 4757 1.28796846399869e-07 1.65108897322293e-08 4.85941793114524e-08 9.62755804438081e-08 1.12940288676495e-07 7.04280519684259e-08 1.64459084871039e-07 1.71692562874412e-07
"447" 4758 1.28796846399869e-07 1.65086888773468e-08 4.85495807940333e-08 9.65519451910238e-08 1.12677722280348e-07 7.05039521936022e-08 1.64797364747102e-07 1.70887466336898e-07
"448" 4759 1.28796846399869e-07 1.65064880224642e-08 4.85049822766143e-08 9.68283099382395e-08 1.12415155884201e-07 7.05798524187785e-08 1.65135644623165e-07 1.70082369799384e-07
"449" 4760 1.28796846399869e-07 1.65042871675816e-08 4.84603837591952e-08 9.71046746854551e-08 1.12152589488054e-07 7.06557526439548e-08 1.65473924499229e-07 1.6927727326187e-07
"450" 4761 1.28796846399869e-07 1.6502086312699e-08 4.84157852417762e-08 9.73810394326708e-08 1.11890023091907e-07 7.07316528691311e-08 1.65812204375292e-07 1.68472176724355e-07
"451" 4762 1.28898900974764e-07 1.64762065130595e-08 4.82100889238705e-08 9.77768171291771e-08 1.11960806139211e-07 7.08592957183387e-08 1.66332064774924e-07 1.67797169988181e-07
"452" 4763 1.2902790673644e-07 1.64735703167285e-08 4.82251345523014e-08 9.83887904219218e-08 1.12099163122882e-07 7.10942861403884e-08 1.66896156426881e-07 1.67783721269343e-07
"453" 4764 1.28877933580304e-07 1.64748607336664e-08 4.82656589226105e-08 9.83921803069715e-08 1.11589465881158e-07 7.10840936265253e-08 1.67651294074131e-07 1.69281230265742e-07
"454" 4765 1.28727960424168e-07 1.64761511506042e-08 4.83061832929195e-08 9.83955701920212e-08 1.11079768639434e-07 7.10739011126621e-08 1.68406431721381e-07 1.70778739262141e-07
"455" 4766 1.28561833969621e-07 1.68180738481675e-08 4.83866480709905e-08 9.84824955248689e-08 1.10526175459134e-07 7.09669366402946e-08 1.68285270979201e-07 1.71576474495802e-07
"456" 4767 1.28395707515074e-07 1.71599965457307e-08 4.84671128490615e-08 9.85694208577165e-08 1.09972582278835e-07 7.08599721679271e-08 1.68164110237022e-07 1.72374209729463e-07
"457" 4768 1.28229581060527e-07 1.7501919243294e-08 4.85475776271325e-08 9.86563461905642e-08 1.09418989098535e-07 7.07530076955596e-08 1.68042949494842e-07 1.73171944963123e-07
"458" 4769 1.2806345460598e-07 1.78438419408572e-08 4.86280424052035e-08 9.87432715234119e-08 1.08865395918236e-07 7.06460432231921e-08 1.67921788752663e-07 1.73969680196784e-07
"459" 4770 1.27897328151434e-07 1.81857646384205e-08 4.87085071832745e-08 9.88301968562596e-08 1.08311802737936e-07 7.05390787508247e-08 1.67800628010483e-07 1.74767415430445e-07
"460" 4771 1.27731201696887e-07 1.85276873359838e-08 4.87889719613455e-08 9.89171221891073e-08 1.07758209557637e-07 7.04321142784572e-08 1.67679467268304e-07 1.75565150664106e-07
"461" 4772 1.2756507524234e-07 1.8869610033547e-08 4.88694367394165e-08 9.9004047521955e-08 1.07204616377337e-07 7.03251498060897e-08 1.67558306526124e-07 1.76362885897767e-07
"462" 4773 1.27398948787793e-07 1.92115327311103e-08 4.89499015174875e-08 9.90909728548027e-08 1.06651023197038e-07 7.02181853337222e-08 1.67437145783944e-07 1.77160621131428e-07
"463" 4774 1.27232822333246e-07 1.95534554286735e-08 4.90303662955585e-08 9.91778981876504e-08 1.06097430016738e-07 7.01112208613547e-08 1.67315985041765e-07 1.77958356365089e-07
"464" 4775 1.270666958787e-07 1.98953781262368e-08 4.91108310736295e-08 9.92648235204981e-08 1.05543836836439e-07 7.00042563889873e-08 1.67194824299585e-07 1.78756091598749e-07
"465" 4776 1.2665485543305e-07 1.99222156770628e-08 4.95085836946437e-08 9.98384010039544e-08 1.05559024579959e-07 7.02630990155526e-08 1.6720053568127e-07 1.7838576243765e-07
"466" 4777 1.26243014987401e-07 1.99490532278888e-08 4.99063363156579e-08 1.00411978487411e-07 1.0557421232348e-07 7.05219416421179e-08 1.67206247062954e-07 1.78015433276551e-07
"467" 4778 1.25831174541752e-07 1.99758907787148e-08 5.03040889366721e-08 1.00985555970867e-07 1.05589400067e-07 7.07807842686833e-08 1.67211958444638e-07 1.77645104115452e-07
"468" 4779 1.25419334096102e-07 2.00027283295408e-08 5.07018415576862e-08 1.01559133454324e-07 1.05604587810521e-07 7.10396268952486e-08 1.67217669826323e-07 1.77274774954353e-07
"469" 4780 1.25007493650453e-07 2.00295658803668e-08 5.10995941787004e-08 1.0213271093778e-07 1.05619775554041e-07 7.12984695218139e-08 1.67223381208007e-07 1.76904445793253e-07
"470" 4781 1.24595653204804e-07 2.00564034311928e-08 5.14973467997146e-08 1.02706288421236e-07 1.05634963297562e-07 7.15573121483793e-08 1.67229092589691e-07 1.76534116632154e-07
"471" 4782 1.24183812759154e-07 2.00832409820188e-08 5.18950994207288e-08 1.03279865904693e-07 1.05650151041082e-07 7.18161547749446e-08 1.67234803971376e-07 1.76163787471055e-07
"472" 4783 1.24191155167523e-07 2.01129839832584e-08 5.23959284108041e-08 1.03610907082733e-07 1.05406366230755e-07 7.20997814559303e-08 1.68160406388805e-07 1.76273726750349e-07
"473" 4784 1.26004954833822e-07 2.01276853719055e-08 5.2676769292321e-08 1.04984453588116e-07 1.05123003227272e-07 7.23158174532757e-08 1.68564543351346e-07 1.77540957148388e-07
"474" 4785 1.26303315679011e-07 2.03377631099468e-08 5.30882422449032e-08 1.04919618900811e-07 1.04818017142854e-07 7.36271773398361e-08 1.69881721153299e-07 1.775949292818e-07
"475" 4786 1.26601676524199e-07 2.0547840847988e-08 5.34997151974853e-08 1.04854784213506e-07 1.04513031058436e-07 7.49385372263966e-08 1.71198898955251e-07 1.77648901415212e-07
"476" 4787 1.26900037369388e-07 2.07579185860292e-08 5.39111881500675e-08 1.047899495262e-07 1.04208044974018e-07 7.6249897112957e-08 1.72516076757204e-07 1.77702873548625e-07
"477" 4788 1.27198398214576e-07 2.09679963240705e-08 5.43226611026496e-08 1.04725114838895e-07 1.039030588896e-07 7.75612569995175e-08 1.73833254559157e-07 1.77756845682037e-07
"478" 4789 1.27496759059765e-07 2.11780740621117e-08 5.47341340552318e-08 1.0466028015159e-07 1.03598072805182e-07 7.88726168860779e-08 1.75150432361109e-07 1.7781081781545e-07
"479" 4790 1.27795119904953e-07 2.1388151800153e-08 5.5145607007814e-08 1.04595445464285e-07 1.03293086720764e-07 8.01839767726384e-08 1.76467610163062e-07 1.77864789948862e-07
"480" 4791 1.28093480750141e-07 2.15982295381942e-08 5.55570799603961e-08 1.0453061077698e-07 1.02988100636346e-07 8.14953366591988e-08 1.77784787965015e-07 1.77918762082275e-07
"481" 4792 1.2839184159533e-07 2.18083072762354e-08 5.59685529129783e-08 1.04465776089675e-07 1.02683114551928e-07 8.28066965457593e-08 1.79101965766967e-07 1.77972734215687e-07
"482" 4793 1.28690202440518e-07 2.20183850142767e-08 5.63800258655604e-08 1.04400941402369e-07 1.0237812846751e-07 8.41180564323197e-08 1.8041914356892e-07 1.780267063491e-07
"483" 4794 1.28988563285707e-07 2.22284627523179e-08 5.67914988181426e-08 1.04336106715064e-07 1.02073142383092e-07 8.54294163188802e-08 1.81736321370873e-07 1.78080678482512e-07
"484" 4795 1.29286924130895e-07 2.24385404903592e-08 5.72029717707247e-08 1.04271272027759e-07 1.01768156298674e-07 8.67407762054406e-08 1.83053499172826e-07 1.78134650615925e-07
"485" 4796 1.29585284976084e-07 2.26486182284004e-08 5.76144447233069e-08 1.04206437340454e-07 1.01463170214256e-07 8.80521360920011e-08 1.84370676974778e-07 1.78188622749337e-07
"486" 4797 1.29883645821272e-07 2.28586959664416e-08 5.8025917675889e-08 1.04141602653149e-07 1.01158184129838e-07 8.93634959785615e-08 1.85687854776731e-07 1.7824259488275e-07
"487" 4798 1.30182006666461e-07 2.30687737044829e-08 5.84373906284712e-08 1.04076767965844e-07 1.0085319804542e-07 9.0674855865122e-08 1.87005032578684e-07 1.78296567016162e-07
"488" 4799 1.32597937743448e-07 2.30803874569236e-08 5.84808228516824e-08 1.03829540108831e-07 1.00728606672336e-07 9.0667592019883e-08 1.90772800581762e-07 1.8049619930389e-07
"489" 4800 1.33820645521663e-07 2.30818520104409e-08 5.84953691833673e-08 1.03616600287925e-07 1.01370804104111e-07 9.12580036705145e-08 1.9364393344543e-07 1.80444222182946e-07
"490" 4801 1.35227206770522e-07 2.33349100758711e-08 5.85146951871231e-08 1.03379229745013e-07 1.01922815570119e-07 9.25280122221462e-08 1.93847936184267e-07 1.79937899692348e-07
"491" 4802 1.36633768019381e-07 2.35879681413014e-08 5.85340211908788e-08 1.031418592021e-07 1.02474827036127e-07 9.37980207737779e-08 1.94051938923104e-07 1.79431577201749e-07
"492" 4803 1.3804032926824e-07 2.38410262067317e-08 5.85533471946346e-08 1.02904488659188e-07 1.03026838502135e-07 9.50680293254096e-08 1.9425594166194e-07 1.78925254711151e-07
"493" 4804 1.39446890517099e-07 2.4094084272162e-08 5.85726731983904e-08 1.02667118116275e-07 1.03578849968143e-07 9.63380378770413e-08 1.94459944400777e-07 1.78418932220552e-07
"494" 4805 1.39963030549214e-07 2.4283515830217e-08 5.83413358741787e-08 1.02587536752537e-07 1.04440287843516e-07 9.75844116756765e-08 1.94844350706836e-07 1.75324074422885e-07
"495" 4806 1.39287933930155e-07 2.45176766396488e-08 5.82774525986468e-08 1.02124510665632e-07 1.05194114731589e-07 9.87022089689487e-08 1.93763222561341e-07 1.71492104691786e-07
"496" 4807 1.40724443514112e-07 2.47674809815067e-08 5.83018909577612e-08 1.02127900550682e-07 1.05870717570681e-07 1.00026465957713e-07 1.93384271903458e-07 1.71477836829569e-07
"497" 4808 1.42160953098068e-07 2.50172853233647e-08 5.83263293168755e-08 1.02131290435732e-07 1.06547320409774e-07 1.01350722946478e-07 1.93005321245575e-07 1.71463568967351e-07
"498" 4809 1.43597462682025e-07 2.52670896652227e-08 5.83507676759899e-08 1.02134680320781e-07 1.07223923248867e-07 1.02674979935243e-07 1.92626370587692e-07 1.71449301105134e-07
"499" 4810 1.45033972265981e-07 2.55168940070807e-08 5.83752060351042e-08 1.02138070205831e-07 1.07900526087959e-07 1.03999236924007e-07 1.92247419929809e-07 1.71435033242916e-07
"500" 4811 1.46470481849938e-07 2.57666983489387e-08 5.83996443942185e-08 1.02141460090881e-07 1.08577128927052e-07 1.05323493912772e-07 1.91868469271926e-07 1.71420765380699e-07
"501" 4812 1.47906991433894e-07 2.60165026907967e-08 5.84240827533329e-08 1.0214484997593e-07 1.09253731766145e-07 1.06647750901537e-07 1.91489518614044e-07 1.71406497518481e-07
"502" 4813 1.49343501017851e-07 2.62663070326547e-08 5.84485211124472e-08 1.0214823986098e-07 1.09930334605237e-07 1.07972007890301e-07 1.91110567956161e-07 1.71392229656264e-07
"503" 4814 1.50780010601807e-07 2.65161113745127e-08 5.84729594715616e-08 1.0215162974603e-07 1.1060693744433e-07 1.09296264879066e-07 1.90731617298278e-07 1.71377961794046e-07
"504" 4815 1.52216520185764e-07 2.67659157163706e-08 5.84973978306759e-08 1.0215501963108e-07 1.11283540283422e-07 1.10620521867831e-07 1.90352666640395e-07 1.71363693931829e-07
"505" 4816 1.5365302976972e-07 2.70157200582286e-08 5.85218361897903e-08 1.02158409516129e-07 1.11960143122515e-07 1.11944778856596e-07 1.89973715982512e-07 1.71349426069611e-07
"506" 4817 1.55089539353677e-07 2.72655244000866e-08 5.85462745489046e-08 1.02161799401179e-07 1.12636745961608e-07 1.1326903584536e-07 1.89594765324629e-07 1.71335158207394e-07
"507" 4818 1.56526048937633e-07 2.75153287419446e-08 5.8570712908019e-08 1.02165189286229e-07 1.133133488007e-07 1.14593292834125e-07 1.89215814666746e-07 1.71320890345177e-07
"508" 4819 1.5796255852159e-07 2.77651330838026e-08 5.85951512671333e-08 1.02168579171278e-07 1.13989951639793e-07 1.1591754982289e-07 1.88836864008863e-07 1.71306622482959e-07
"509" 4820 1.59414049217514e-07 2.80188957447639e-08 5.85951512671333e-08 1.01996043315671e-07 1.14630327862486e-07 1.17223660149198e-07 1.88950741247485e-07 1.71421869683687e-07
"510" 4821 1.59922541286803e-07 2.82444348294385e-08 5.92462715589462e-08 1.02277712897912e-07 1.16014282185041e-07 1.17275785873703e-07 1.88745476307798e-07 1.72295403299807e-07
"511" 4822 1.60197178329091e-07 2.82561436993824e-08 5.92904120252622e-08 1.02161081513047e-07 1.16390735324546e-07 1.17205641186899e-07 1.88721365669167e-07 1.75183387560175e-07
"512" 4823 1.60471815371378e-07 2.82678525693263e-08 5.93345524915783e-08 1.02044450128182e-07 1.1676718846405e-07 1.17135496500094e-07 1.88697255030535e-07 1.78071371820543e-07
"513" 4824 1.60746452413666e-07 2.82795614392702e-08 5.93786929578943e-08 1.01927818743316e-07 1.17143641603555e-07 1.1706535181329e-07 1.88673144391904e-07 1.80959356080911e-07
"514" 4825 1.61021089455953e-07 2.82912703092142e-08 5.94228334242103e-08 1.01811187358451e-07 1.17520094743059e-07 1.16995207126485e-07 1.88649033753273e-07 1.83847340341279e-07
"515" 4826 1.61295726498241e-07 2.83029791791581e-08 5.94669738905263e-08 1.01694555973585e-07 1.17896547882564e-07 1.16925062439681e-07 1.88624923114641e-07 1.86735324601647e-07
"516" 4827 1.61570363540528e-07 2.8314688049102e-08 5.95111143568423e-08 1.0157792458872e-07 1.18273001022068e-07 1.16854917752877e-07 1.8860081247601e-07 1.89623308862015e-07
"517" 4828 1.61845000582816e-07 2.83263969190459e-08 5.95552548231583e-08 1.01461293203854e-07 1.18649454161573e-07 1.16784773066072e-07 1.88576701837378e-07 1.92511293122383e-07
"518" 4829 1.62119637625104e-07 2.83381057889898e-08 5.95993952894743e-08 1.01344661818989e-07 1.19025907301077e-07 1.16714628379268e-07 1.88552591198747e-07 1.95399277382751e-07
"519" 4830 1.62394274667391e-07 2.83498146589337e-08 5.96435357557904e-08 1.01228030434124e-07 1.19402360440582e-07 1.16644483692463e-07 1.88528480560115e-07 1.98287261643119e-07
"520" 4831 1.62668911709679e-07 2.83615235288776e-08 5.96876762221064e-08 1.01111399049258e-07 1.19778813580087e-07 1.16574339005659e-07 1.88504369921484e-07 2.01175245903487e-07
"521" 4832 1.62943548751966e-07 2.83732323988215e-08 5.97318166884224e-08 1.00994767664393e-07 1.20155266719591e-07 1.16504194318854e-07 1.88480259282853e-07 2.04063230163855e-07
"522" 4833 1.62983864421426e-07 2.83730265564078e-08 5.99978615898813e-08 1.00994767664393e-07 1.20595910881136e-07 1.16544748729038e-07 1.88598255140927e-07 2.02872263880327e-07
"523" 4834 1.6276569634701e-07 2.83303159741208e-08 6.02374313304853e-08 1.01051394986071e-07 1.21111325221415e-07 1.16481317331792e-07 1.88724134966871e-07 2.02851583793687e-07
"524" 4835 1.61536538430648e-07 2.82876053918339e-08 5.9666321571042e-08 1.00633655790935e-07 1.21528026339826e-07 1.1659679855595e-07 1.88891398587644e-07 2.02153915154554e-07
"525" 4836 1.60307380514286e-07 2.8244894809547e-08 5.90952118115986e-08 1.00215916595798e-07 1.21944727458237e-07 1.16712279780107e-07 1.89058662208417e-07 2.0145624651542e-07
"526" 4837 1.59078222597923e-07 2.820218422726e-08 5.85241020521552e-08 9.97981774006618e-08 1.22361428576648e-07 1.16827761004264e-07 1.8922592582919e-07 2.00758577876287e-07
"527" 4838 1.57849064681562e-07 2.81594736449731e-08 5.79529922927118e-08 9.93804382055253e-08 1.22778129695059e-07 1.16943242228422e-07 1.89393189449963e-07 2.00060909237154e-07
"528" 4839 1.57232803656967e-07 2.81534569017322e-08 5.7901495897453e-08 9.93291598404871e-08 1.23439792720436e-07 1.16452583007482e-07 1.88909857661295e-07 1.99939036218495e-07
"529" 4840 1.57255727781906e-07 2.81371485288228e-08 5.80711159210903e-08 9.90231331628684e-08 1.23856493838847e-07 1.16527180329795e-07 1.88206733523046e-07 1.99103230581222e-07
"530" 4841 1.57293250006022e-07 2.81624188504345e-08 5.8019993998391e-08 9.85788177620662e-08 1.24184701834031e-07 1.16851138550694e-07 1.87356722111225e-07 1.98366107599849e-07
"531" 4842 1.57323152044989e-07 2.8161722304117e-08 5.79447658562363e-08 9.82255386852251e-08 1.23949803337857e-07 1.17018031100971e-07 1.86669073909904e-07 1.98083684504253e-07
"532" 4843 1.57353054083957e-07 2.81610257577995e-08 5.78695377140816e-08 9.78722596083839e-08 1.23714904841683e-07 1.17184923651249e-07 1.85981425708583e-07 1.97801261408657e-07
"533" 4844 1.57382956122924e-07 2.81603292114821e-08 5.77943095719269e-08 9.75189805315428e-08 1.2348000634551e-07 1.17351816201527e-07 1.85293777507263e-07 1.97518838313061e-07
"534" 4845 1.57412858161891e-07 2.81596326651646e-08 5.77190814297721e-08 9.71657014547016e-08 1.23245107849336e-07 1.17518708751804e-07 1.84606129305942e-07 1.97236415217465e-07
"535" 4846 1.57442760200859e-07 2.81589361188471e-08 5.76438532876174e-08 9.68124223778605e-08 1.23010209353162e-07 1.17685601302082e-07 1.83918481104621e-07 1.96953992121869e-07
"536" 4847 1.57472662239826e-07 2.81582395725296e-08 5.75686251454627e-08 9.64591433010194e-08 1.22775310856989e-07 1.17852493852359e-07 1.832308329033e-07 1.96671569026273e-07
"537" 4848 1.57502564278794e-07 2.81575430262121e-08 5.7493397003308e-08 9.61058642241782e-08 1.22540412360815e-07 1.18019386402637e-07 1.82543184701979e-07 1.96389145930677e-07
"538" 4849 1.57532466317761e-07 2.81568464798947e-08 5.74181688611533e-08 9.57525851473371e-08 1.22305513864641e-07 1.18186278952914e-07 1.81855536500659e-07 1.96106722835081e-07
"539" 4850 1.57562368356729e-07 2.81561499335772e-08 5.73429407189985e-08 9.53993060704959e-08 1.22070615368467e-07 1.18353171503192e-07 1.81167888299338e-07 1.95824299739486e-07
"540" 4851 1.57592270395696e-07 2.81554533872597e-08 5.72677125768438e-08 9.50460269936548e-08 1.21835716872294e-07 1.18520064053469e-07 1.80480240098017e-07 1.9554187664389e-07
"541" 4852 1.57622172434664e-07 2.81547568409422e-08 5.71924844346891e-08 9.46927479168136e-08 1.2160081837612e-07 1.18686956603747e-07 1.79792591896696e-07 1.95259453548294e-07
"542" 4853 1.57652074473631e-07 2.81540602946247e-08 5.71172562925344e-08 9.43394688399725e-08 1.21365919879946e-07 1.18853849154024e-07 1.79104943695375e-07 1.94977030452698e-07
"543" 4854 1.57681976512599e-07 2.81533637483073e-08 5.70420281503796e-08 9.39861897631314e-08 1.21131021383773e-07 1.19020741704302e-07 1.78417295494054e-07 1.94694607357102e-07
"544" 4855 1.57711878551566e-07 2.81526672019898e-08 5.69668000082249e-08 9.36329106862902e-08 1.20896122887599e-07 1.1918763425458e-07 1.77729647292734e-07 1.94412184261506e-07
"545" 4856 1.57547086319917e-07 2.81557548381962e-08 5.6912102147904e-08 9.35343799220297e-08 1.20908543262421e-07 1.19368555742218e-07 1.77848071249718e-07 1.94940095163551e-07
"546" 4857 1.57731098442488e-07 2.85371273272997e-08 5.71344651777788e-08 9.68449298455227e-08 1.22799168076918e-07 1.21022724669255e-07 1.79515595084553e-07 1.9544728964351e-07
"547" 4858 1.56881011413655e-07 2.85352118249267e-08 5.70791871603123e-08 9.64552695512669e-08 1.22840878084099e-07 1.21340045498191e-07 1.79366395371905e-07 1.95545776321228e-07
"548" 4859 1.56030924384823e-07 2.85332963225536e-08 5.70239091428459e-08 9.60656092570112e-08 1.22882588091279e-07 1.21657366327127e-07 1.79217195659256e-07 1.95644262998947e-07
"549" 4860 1.5518083735599e-07 2.85313808201805e-08 5.69686311253795e-08 9.56759489627555e-08 1.22924298098459e-07 1.21974687156062e-07 1.79067995946608e-07 1.95742749676666e-07
"550" 4861 1.54330750327157e-07 2.85294653178074e-08 5.6913353107913e-08 9.52862886684997e-08 1.22966008105639e-07 1.22292007984998e-07 1.78918796233959e-07 1.95841236354384e-07
"551" 4862 1.53480663298324e-07 2.85275498154344e-08 5.68580750904466e-08 9.4896628374244e-08 1.2300771811282e-07 1.22609328813934e-07 1.78769596521311e-07 1.95939723032103e-07
"552" 4863 1.52630576269492e-07 2.85256343130613e-08 5.68027970729801e-08 9.45069680799882e-08 1.2304942812e-07 1.2292664964287e-07 1.78620396808663e-07 1.96038209709822e-07
"553" 4864 1.51780489240659e-07 2.85237188106882e-08 5.67475190555137e-08 9.41173077857325e-08 1.2309113812718e-07 1.23243970471805e-07 1.78471197096014e-07 1.9613669638754e-07
"554" 4865 1.50930402211826e-07 2.85218033083152e-08 5.66922410380473e-08 9.37276474914767e-08 1.2313284813436e-07 1.23561291300741e-07 1.78321997383366e-07 1.96235183065259e-07
"555" 4866 1.50080315182993e-07 2.85198878059421e-08 5.66369630205808e-08 9.3337987197221e-08 1.23174558141541e-07 1.23878612129677e-07 1.78172797670718e-07 1.96333669742978e-07
"556" 4867 1.49230228154161e-07 2.8517972303569e-08 5.65816850031144e-08 9.29483269029652e-08 1.23216268148721e-07 1.24195932958612e-07 1.78023597958069e-07 1.96432156420697e-07
"557" 4868 1.48380141125328e-07 2.85160568011959e-08 5.65264069856479e-08 9.25586666087095e-08 1.23257978155901e-07 1.24513253787548e-07 1.77874398245421e-07 1.96530643098415e-07
"558" 4869 1.47530054096495e-07 2.85141412988229e-08 5.64711289681815e-08 9.21690063144537e-08 1.23299688163082e-07 1.24830574616484e-07 1.77725198532773e-07 1.96629129776134e-07
"559" 4870 1.46679967067662e-07 2.85122257964498e-08 5.6415850950715e-08 9.1779346020198e-08 1.23341398170262e-07 1.2514789544542e-07 1.77575998820124e-07 1.96727616453853e-07
"560" 4871 1.4582988003883e-07 2.85103102940767e-08 5.63605729332486e-08 9.13896857259423e-08 1.23383108177442e-07 1.25465216274355e-07 1.77426799107476e-07 1.96826103131571e-07
"561" 4872 1.44979793009997e-07 2.85083947917037e-08 5.63052949157822e-08 9.10000254316865e-08 1.23424818184622e-07 1.25782537103291e-07 1.77277599394828e-07 1.9692458980929e-07
"562" 4873 1.44129705981164e-07 2.85064792893306e-08 5.62500168983157e-08 9.06103651374308e-08 1.23466528191803e-07 1.26099857932227e-07 1.77128399682179e-07 1.97023076487009e-07
"563" 4874 1.43279618952331e-07 2.85045637869575e-08 5.61947388808493e-08 9.0220704843175e-08 1.23508238198983e-07 1.26417178761162e-07 1.76979199969531e-07 1.97121563164727e-07
"564" 4875 1.42429531923499e-07 2.85026482845844e-08 5.61394608633828e-08 8.98310445489193e-08 1.23549948206163e-07 1.26734499590098e-07 1.76830000256883e-07 1.97220049842446e-07
"565" 4876 1.41579444894666e-07 2.85007327822114e-08 5.60841828459164e-08 8.94413842546635e-08 1.23591658213344e-07 1.27051820419034e-07 1.76680800544234e-07 1.97318536520165e-07
"566" 4877 1.42635981167289e-07 2.84358395145192e-08 5.60679747286792e-08 8.93413849911929e-08 1.24432205468671e-07 1.27385450111898e-07 1.76412204796166e-07 1.98375427396592e-07
"567" 4878 1.4289772933195e-07 2.84256903155957e-08 5.59559615055224e-08 8.94769608137756e-08 1.24020688587375e-07 1.27446631096359e-07 1.7605113109071e-07 1.98298262690832e-07
"568" 4879 1.42850394081945e-07 2.8413371967624e-08 5.58331428708742e-08 8.96481508812215e-08 1.23790911653177e-07 1.27625416017605e-07 1.76625257621716e-07 1.99202391981192e-07
"569" 4880 1.42315993383154e-07 2.83243800211339e-08 5.53936567088137e-08 8.97640725586916e-08 1.24026935899372e-07 1.26880366805608e-07 1.77277668593513e-07 2.00106521271552e-07
"570" 4881 1.41781592684363e-07 2.82353880746438e-08 5.49541705467532e-08 8.98799942361617e-08 1.24262960145567e-07 1.26135317593611e-07 1.7793007956531e-07 2.01010650561913e-07
"571" 4882 1.41247191985572e-07 2.81463961281537e-08 5.45146843846928e-08 8.99959159136318e-08 1.24498984391762e-07 1.25390268381614e-07 1.78582490537107e-07 2.01914779852273e-07
"572" 4883 1.40712791286781e-07 2.80574041816636e-08 5.40751982226323e-08 9.0111837591102e-08 1.24735008637957e-07 1.24645219169617e-07 1.79234901508904e-07 2.02818909142633e-07
"573" 4884 1.4017839058799e-07 2.79684122351735e-08 5.36357120605718e-08 9.02277592685721e-08 1.24971032884152e-07 1.2390016995762e-07 1.79887312480701e-07 2.03723038432993e-07
"574" 4885 1.39643989889199e-07 2.78794202886834e-08 5.31962258985113e-08 9.03436809460422e-08 1.25207057130347e-07 1.23155120745623e-07 1.80539723452498e-07 2.04627167723353e-07
"575" 4886 1.39109589190408e-07 2.77904283421933e-08 5.27567397364509e-08 9.04596026235123e-08 1.25443081376542e-07 1.22410071533626e-07 1.81192134424295e-07 2.05531297013713e-07
"576" 4887 1.38575188491617e-07 2.77014363957032e-08 5.23172535743904e-08 9.05755243009824e-08 1.25679105622738e-07 1.21665022321629e-07 1.81844545396092e-07 2.06435426304073e-07
"577" 4888 1.38040787792826e-07 2.76124444492131e-08 5.18777674123299e-08 9.06914459784526e-08 1.25915129868933e-07 1.20919973109632e-07 1.82496956367889e-07 2.07339555594433e-07
"578" 4889 1.37506387094035e-07 2.7523452502723e-08 5.14382812502694e-08 9.08073676559227e-08 1.26151154115128e-07 1.20174923897636e-07 1.83149367339686e-07 2.08243684884794e-07
"579" 4890 1.36473648698121e-07 2.75172062604475e-08 5.14559872577447e-08 9.11147418665759e-08 1.25972728742955e-07 1.20354923776634e-07 1.8427369296597e-07 2.09233048112216e-07
"580" 4891 1.35775556370486e-07 2.75529503975205e-08 5.14820472440259e-08 9.15044267030414e-08 1.25994246359903e-07 1.21811291313893e-07 1.8428464010675e-07 2.09607221956463e-07
"581" 4892 1.3507746404285e-07 2.75886945345935e-08 5.15081072303072e-08 9.18941115395069e-08 1.26015763976852e-07 1.23267658851152e-07 1.8429558724753e-07 2.09981395800711e-07
"582" 4893 1.34379371715215e-07 2.76244386716666e-08 5.15341672165884e-08 9.22837963759724e-08 1.26037281593801e-07 1.24724026388411e-07 1.8430653438831e-07 2.10355569644958e-07
"583" 4894 1.3368127938758e-07 2.76601828087396e-08 5.15602272028697e-08 9.26734812124378e-08 1.2605879921075e-07 1.2618039392567e-07 1.8431748152909e-07 2.10729743489205e-07
"584" 4895 1.32983187059945e-07 2.76959269458126e-08 5.1586287189151e-08 9.30631660489034e-08 1.26080316827699e-07 1.27636761462929e-07 1.8432842866987e-07 2.11103917333453e-07
"585" 4896 1.32285094732309e-07 2.77316710828856e-08 5.16123471754322e-08 9.34528508853688e-08 1.26101834444647e-07 1.29093129000188e-07 1.8433937581065e-07 2.114780911777e-07
"586" 4897 1.32248962286447e-07 2.77790289723994e-08 5.16859553213064e-08 9.3834750264764e-08 1.25559051358062e-07 1.30404026276178e-07 1.84056239938786e-07 2.09915039662997e-07
"587" 4898 1.32212829840585e-07 2.78263868619131e-08 5.17595634671806e-08 9.42166496441591e-08 1.25016268271476e-07 1.31714923552168e-07 1.83773104066923e-07 2.08351988148294e-07
"588" 4899 1.32176697394723e-07 2.78737447514269e-08 5.18331716130548e-08 9.45985490235542e-08 1.2447348518489e-07 1.33025820828158e-07 1.83489968195059e-07 2.0678893663359e-07
"589" 4900 1.32328863391601e-07 2.78934256220326e-08 5.19181246255519e-08 9.46062330938538e-08 1.23884688567734e-07 1.32880350566889e-07 1.83307859737782e-07 2.04825259744101e-07
"590" 4901 1.32481029388479e-07 2.79131064926384e-08 5.20030776380489e-08 9.46139171641534e-08 1.23295891950579e-07 1.32734880305621e-07 1.83125751280505e-07 2.02861582854612e-07
"591" 4902 1.32633195385356e-07 2.79327873632441e-08 5.2088030650546e-08 9.46216012344531e-08 1.22707095333423e-07 1.32589410044352e-07 1.82943642823228e-07 2.00897905965122e-07
"592" 4903 1.32785361382234e-07 2.79524682338498e-08 5.21729836630431e-08 9.46292853047527e-08 1.22118298716267e-07 1.32443939783083e-07 1.82761534365951e-07 1.98934229075633e-07
"593" 4904 1.32937527379112e-07 2.79721491044556e-08 5.22579366755401e-08 9.46369693750523e-08 1.21529502099111e-07 1.32298469521814e-07 1.82579425908674e-07 1.96970552186144e-07
"594" 4905 1.3308969337599e-07 2.79918299750613e-08 5.23428896880372e-08 9.46446534453519e-08 1.20940705481955e-07 1.32152999260545e-07 1.82397317451397e-07 1.95006875296655e-07
"595" 4906 1.33241859372868e-07 2.80115108456671e-08 5.24278427005343e-08 9.46523375156515e-08 1.20351908864799e-07 1.32007528999276e-07 1.8221520899412e-07 1.93043198407165e-07
"596" 4907 1.33394025369746e-07 2.80311917162728e-08 5.25127957130313e-08 9.46600215859512e-08 1.19763112247644e-07 1.31862058738007e-07 1.82033100536843e-07 1.91079521517676e-07
"597" 4908 1.33546191366624e-07 2.80508725868785e-08 5.25977487255284e-08 9.46677056562508e-08 1.19174315630488e-07 1.31716588476738e-07 1.81850992079566e-07 1.89115844628187e-07
"598" 4909 1.33698357363502e-07 2.80705534574843e-08 5.26827017380254e-08 9.46753897265504e-08 1.18585519013332e-07 1.3157111821547e-07 1.81668883622289e-07 1.87152167738697e-07
"599" 4910 1.3385052336038e-07 2.809023432809e-08 5.27676547505225e-08 9.468307379685e-08 1.17996722396176e-07 1.31425647954201e-07 1.81486775165012e-07 1.85188490849208e-07
"600" 4911 1.34002689357258e-07 2.81099151986957e-08 5.28526077630196e-08 9.46907578671497e-08 1.1740792577902e-07 1.31280177692932e-07 1.81304666707735e-07 1.83224813959719e-07
"601" 4912 1.34154855354136e-07 2.81295960693015e-08 5.29375607755166e-08 9.46984419374493e-08 1.16819129161865e-07 1.31134707431663e-07 1.81122558250458e-07 1.8126113707023e-07
"602" 4913 1.34307021351014e-07 2.81492769399072e-08 5.30225137880137e-08 9.47061260077489e-08 1.16230332544709e-07 1.30989237170394e-07 1.80940449793181e-07 1.7929746018074e-07
"603" 4914 1.32923761365189e-07 2.80501277452801e-08 5.31111659314324e-08 9.44417459519463e-08 1.16187471114199e-07 1.30995978167485e-07 1.80913381024751e-07 1.79256936766166e-07
"604" 4915 1.32649192522011e-07 2.80385139928394e-08 5.31025216022392e-08 9.36279476973279e-08 1.15432943102804e-07 1.30908708419489e-07 1.80241010967159e-07 1.81452861978977e-07
"605" 4916 1.32374623678833e-07 2.80269002403986e-08 5.30938772730461e-08 9.28141494427095e-08 1.1467841509141e-07 1.30821438671493e-07 1.79568640909567e-07 1.83648787191788e-07
"606" 4917 1.32100054835655e-07 2.80152864879579e-08 5.30852329438529e-08 9.20003511880912e-08 1.13923887080015e-07 1.30734168923498e-07 1.78896270851975e-07 1.85844712404599e-07
"607" 4918 1.31825485992477e-07 2.80036727355172e-08 5.30765886146597e-08 9.11865529334728e-08 1.13169359068621e-07 1.30646899175502e-07 1.78223900794383e-07 1.88040637617409e-07
"608" 4919 1.31550917149299e-07 2.79920589830764e-08 5.30679442854665e-08 9.03727546788544e-08 1.12414831057226e-07 1.30559629427507e-07 1.7755153073679e-07 1.9023656283022e-07
"609" 4920 1.31276348306121e-07 2.79804452306357e-08 5.30592999562733e-08 8.95589564242361e-08 1.11660303045832e-07 1.30472359679511e-07 1.76879160679198e-07 1.92432488043031e-07
"610" 4921 1.31001779462942e-07 2.79688314781949e-08 5.30506556270801e-08 8.87451581696177e-08 1.10905775034437e-07 1.30385089931515e-07 1.76206790621606e-07 1.94628413255842e-07
"611" 4922 1.30727210619764e-07 2.79572177257542e-08 5.30420112978869e-08 8.79313599149993e-08 1.10151247023043e-07 1.3029782018352e-07 1.75534420564014e-07 1.96824338468653e-07
"612" 4923 1.30452641776586e-07 2.79456039733135e-08 5.30333669686937e-08 8.7117561660381e-08 1.09396719011648e-07 1.30210550435524e-07 1.74862050506422e-07 1.99020263681464e-07
"613" 4924 1.30178072933408e-07 2.79339902208727e-08 5.30247226395005e-08 8.63037634057626e-08 1.08642191000254e-07 1.30123280687529e-07 1.74189680448829e-07 2.01216188894275e-07
"614" 4925 1.2990350409023e-07 2.7922376468432e-08 5.30160783103073e-08 8.54899651511442e-08 1.0788766298886e-07 1.30036010939533e-07 1.73517310391237e-07 2.03412114107086e-07
"615" 4926 1.29628935247052e-07 2.79107627159912e-08 5.30074339811141e-08 8.46761668965259e-08 1.07133134977465e-07 1.29948741191537e-07 1.72844940333645e-07 2.05608039319897e-07
"616" 4927 1.29354366403874e-07 2.78991489635505e-08 5.2998789651921e-08 8.38623686419075e-08 1.06378606966071e-07 1.29861471443542e-07 1.72172570276053e-07 2.07803964532708e-07
"617" 4928 1.29079797560696e-07 2.78875352111098e-08 5.29901453227278e-08 8.30485703872891e-08 1.05624078954676e-07 1.29774201695546e-07 1.7150020021846e-07 2.09999889745519e-07
"618" 4929 1.28805228717518e-07 2.7875921458669e-08 5.29815009935346e-08 8.22347721326708e-08 1.04869550943282e-07 1.29686931947551e-07 1.70827830160868e-07 2.1219581495833e-07
"619" 4930 1.2853065987434e-07 2.78643077062283e-08 5.29728566643414e-08 8.14209738780524e-08 1.04115022931887e-07 1.29599662199555e-07 1.70155460103276e-07 2.14391740171141e-07
"620" 4931 1.28256091031162e-07 2.78526939537875e-08 5.29642123351482e-08 8.0607175623434e-08 1.03360494920493e-07 1.29512392451559e-07 1.69483090045684e-07 2.16587665383952e-07
"621" 4932 1.27981522187984e-07 2.78410802013468e-08 5.2955568005955e-08 7.97933773688157e-08 1.02605966909098e-07 1.29425122703564e-07 1.68810719988092e-07 2.18783590596763e-07
"622" 4933 1.27706953344805e-07 2.78294664489061e-08 5.29469236767618e-08 7.89795791141973e-08 1.01851438897704e-07 1.29337852955568e-07 1.68138349930499e-07 2.20979515809574e-07
"623" 4934 1.27432384501627e-07 2.78178526964653e-08 5.29382793475686e-08 7.81657808595789e-08 1.01096910886309e-07 1.29250583207572e-07 1.67465979872907e-07 2.23175441022385e-07
"624" 4935 1.27788572930734e-07 2.78216605356101e-08 5.2962717706683e-08 7.77701632880582e-08 1.01074387205357e-07 1.27962453894766e-07 1.66741637779931e-07 2.22718549041164e-07
"625" 4936 1.28453012689254e-07 2.77501883598911e-08 5.30179137764923e-08 7.75475984316082e-08 1.00943104007283e-07 1.274187250519e-07 1.6724233505401e-07 2.2202387733991e-07
"626" 4937 1.28653201258301e-07 2.76720265512345e-08 5.30268495433302e-08 7.74307037901134e-08 1.00955436033657e-07 1.27001065095045e-07 1.67384626630017e-07 2.21517554849311e-07
"627" 4938 1.28853389827348e-07 2.7593864742578e-08 5.30357853101682e-08 7.73138091486186e-08 1.00967768060031e-07 1.26583405138189e-07 1.67526918206024e-07 2.21011232358713e-07
"628" 4939 1.29053578396395e-07 2.75157029339215e-08 5.30447210770061e-08 7.71969145071239e-08 1.00980100086404e-07 1.26165745181334e-07 1.67669209782031e-07 2.20504909868114e-07
"629" 4940 1.29253766965443e-07 2.7437541125265e-08 5.30536568438441e-08 7.70800198656291e-08 1.00992432112778e-07 1.25748085224479e-07 1.67811501358038e-07 2.19998587377516e-07
"630" 4941 1.2945395553449e-07 2.73593793166085e-08 5.30625926106821e-08 7.69631252241343e-08 1.01004764139152e-07 1.25330425267624e-07 1.67953792934045e-07 2.19492264886917e-07
"631" 4942 1.29654144103537e-07 2.7281217507952e-08 5.307152837752e-08 7.68462305826395e-08 1.01017096165525e-07 1.24912765310769e-07 1.68096084510052e-07 2.18985942396319e-07
"632" 4943 1.29854332672584e-07 2.72030556992954e-08 5.3080464144358e-08 7.67293359411447e-08 1.01029428191899e-07 1.24495105353914e-07 1.68238376086059e-07 2.1847961990572e-07
"633" 4944 1.30054521241631e-07 2.71248938906389e-08 5.30893999111959e-08 7.66124412996499e-08 1.01041760218273e-07 1.24077445397058e-07 1.68380667662066e-07 2.17973297415122e-07
"634" 4945 1.30254709810678e-07 2.70467320819824e-08 5.30983356780339e-08 7.64955466581552e-08 1.01054092244647e-07 1.23659785440203e-07 1.68522959238073e-07 2.17466974924523e-07
"635" 4946 1.30454898379725e-07 2.69685702733259e-08 5.31072714448719e-08 7.63786520166604e-08 1.0106642427102e-07 1.23242125483348e-07 1.6866525081408e-07 2.16960652433925e-07
"636" 4947 1.30655086948772e-07 2.68904084646694e-08 5.31162072117098e-08 7.62617573751656e-08 1.01078756297394e-07 1.22824465526493e-07 1.68807542390087e-07 2.16454329943326e-07
"637" 4948 1.29942631387139e-07 2.70327116322453e-08 5.32133815782792e-08 7.61719409103854e-08 1.01095748134457e-07 1.23719834589508e-07 1.68286332668707e-07 2.14505027712808e-07
"638" 4949 1.29354956697066e-07 2.71140003411366e-08 5.33230643875354e-08 7.63858160095648e-08 1.01071295009683e-07 1.23564901872778e-07 1.66161932635423e-07 2.12962621054092e-07
"639" 4950 1.28767282006994e-07 2.71952890500278e-08 5.34327471967916e-08 7.65996911087442e-08 1.01046841884909e-07 1.23409969156048e-07 1.64037532602139e-07 2.11420214395376e-07
"640" 4951 1.28179607316921e-07 2.72765777589191e-08 5.35424300060478e-08 7.68135662079235e-08 1.01022388760135e-07 1.23255036439319e-07 1.61913132568854e-07 2.0987780773666e-07
"641" 4952 1.27591932626849e-07 2.73578664678103e-08 5.36521128153039e-08 7.70274413071029e-08 1.00997935635361e-07 1.23100103722589e-07 1.5978873253557e-07 2.08335401077943e-07
"642" 4953 1.27004257936777e-07 2.74391551767016e-08 5.37617956245601e-08 7.72413164062823e-08 1.00973482510587e-07 1.22945171005859e-07 1.57664332502286e-07 2.06792994419227e-07
"643" 4954 1.26416583246704e-07 2.75204438855928e-08 5.38714784338163e-08 7.74551915054617e-08 1.00949029385813e-07 1.22790238289129e-07 1.55539932469002e-07 2.05250587760511e-07
"644" 4955 1.26340510130034e-07 2.75901107928298e-08 5.37698966932204e-08 7.76136968278945e-08 1.00456948207303e-07 1.22859257769541e-07 1.55303376553843e-07 2.05684468846622e-07
"645" 4956 1.26264437013363e-07 2.76597777000669e-08 5.36683149526244e-08 7.77722021503273e-08 9.99648670287931e-08 1.22928277249953e-07 1.55066820638684e-07 2.06118349932732e-07
"646" 4957 1.26188363896693e-07 2.77294446073039e-08 5.35667332120285e-08 7.79307074727601e-08 9.9472785850283e-08 1.22997296730365e-07 1.54830264723525e-07 2.06552231018843e-07
"647" 4958 1.26699470101506e-07 2.77213457833045e-08 5.3359167793098e-08 7.82122315466161e-08 9.89849825218543e-08 1.23317418527767e-07 1.54598877666046e-07 2.08100595217871e-07
"648" 4959 1.27210576306318e-07 2.77132469593051e-08 5.31516023741676e-08 7.84937556204721e-08 9.84971791934257e-08 1.23637540325168e-07 1.54367490608568e-07 2.09648959416898e-07
"649" 4960 1.27721682511131e-07 2.77051481353057e-08 5.29440369552372e-08 7.87752796943281e-08 9.8009375864997e-08 1.2395766212257e-07 1.54136103551089e-07 2.11197323615925e-07
"650" 4961 1.28232788715943e-07 2.76970493113063e-08 5.27364715363067e-08 7.90568037681841e-08 9.75215725365683e-08 1.24277783919972e-07 1.53904716493611e-07 2.12745687814953e-07
"651" 4962 1.28743894920756e-07 2.7688950487307e-08 5.25289061173763e-08 7.93383278420401e-08 9.70337692081396e-08 1.24597905717373e-07 1.53673329436132e-07 2.1429405201398e-07
"652" 4963 1.29255001125568e-07 2.76808516633076e-08 5.23213406984459e-08 7.96198519158962e-08 9.65459658797109e-08 1.24918027514775e-07 1.53441942378654e-07 2.15842416213008e-07
"653" 4964 1.29766107330381e-07 2.76727528393082e-08 5.21137752795154e-08 7.99013759897522e-08 9.60581625512822e-08 1.25238149312177e-07 1.53210555321175e-07 2.17390780412035e-07
"654" 4965 1.30277213535193e-07 2.76646540153088e-08 5.1906209860585e-08 8.01829000636082e-08 9.55703592228535e-08 1.25558271109578e-07 1.52979168263697e-07 2.18939144611062e-07
"655" 4966 1.30788319740006e-07 2.76565551913094e-08 5.16986444416545e-08 8.04644241374642e-08 9.50825558944248e-08 1.2587839290698e-07 1.52747781206218e-07 2.2048750881009e-07
"656" 4967 1.31299425944818e-07 2.764845636731e-08 5.14910790227241e-08 8.07459482113202e-08 9.45947525659961e-08 1.26198514704382e-07 1.5251639414874e-07 2.22035873009117e-07
"657" 4968 1.31810532149631e-07 2.76403575433106e-08 5.12835136037937e-08 8.10274722851762e-08 9.41069492375674e-08 1.26518636501783e-07 1.52285007091261e-07 2.23584237208145e-07
"658" 4969 1.32321638354443e-07 2.76322587193112e-08 5.10759481848632e-08 8.13089963590322e-08 9.36191459091387e-08 1.26838758299185e-07 1.52053620033783e-07 2.25132601407172e-07
"659" 4970 1.32832744559256e-07 2.76241598953119e-08 5.08683827659328e-08 8.15905204328882e-08 9.31313425807101e-08 1.27158880096587e-07 1.51822232976304e-07 2.26680965606199e-07
"660" 4971 1.33059612413003e-07 2.75953746452588e-08 5.07728294829015e-08 8.19546511121322e-08 9.30692407066024e-08 1.27030177697316e-07 1.51189870508472e-07 2.28290408894361e-07
"661" 4972 1.33194553531428e-07 2.75986283688311e-08 5.05959816162807e-08 8.23241012430021e-08 9.32403186900657e-08 1.2678239739069e-07 1.52248830295811e-07 2.28359574830125e-07
"662" 4973 1.33490979549116e-07 2.7547335816835e-08 5.04848421624294e-08 8.25829932696423e-08 9.34678697975297e-08 1.26818499165366e-07 1.53221431386874e-07 2.28421615090046e-07
"663" 4974 1.33787405566805e-07 2.74960432648389e-08 5.03737027085782e-08 8.28418852962826e-08 9.36954209049936e-08 1.26854600940042e-07 1.54194032477937e-07 2.28483655349967e-07
"664" 4975 1.34083831584493e-07 2.74447507128428e-08 5.0262563254727e-08 8.31007773229229e-08 9.39229720124575e-08 1.26890702714719e-07 1.55166633569e-07 2.28545695609888e-07
"665" 4976 1.34380257602182e-07 2.73934581608466e-08 5.01514238008758e-08 8.33596693495631e-08 9.41505231199214e-08 1.26926804489395e-07 1.56139234660063e-07 2.28607735869809e-07
"666" 4977 1.3467668361987e-07 2.73421656088505e-08 5.00402843470246e-08 8.36185613762034e-08 9.43780742273854e-08 1.26962906264071e-07 1.57111835751126e-07 2.28669776129731e-07
"667" 4978 1.34973109637559e-07 2.72908730568544e-08 4.99291448931733e-08 8.38774534028437e-08 9.46056253348493e-08 1.26999008038747e-07 1.58084436842189e-07 2.28731816389652e-07
"668" 4979 1.35269535655247e-07 2.72395805048583e-08 4.98180054393221e-08 8.41363454294839e-08 9.48331764423132e-08 1.27035109813423e-07 1.59057037933252e-07 2.28793856649573e-07
"669" 4980 1.35565961672936e-07 2.71882879528622e-08 4.97068659854709e-08 8.43952374561242e-08 9.50607275497771e-08 1.270712115881e-07 1.60029639024315e-07 2.28855896909494e-07
"670" 4981 1.35862387690624e-07 2.7136995400866e-08 4.95957265316197e-08 8.46541294827645e-08 9.52882786572411e-08 1.27107313362776e-07 1.61002240115378e-07 2.28917937169415e-07
"671" 4982 1.36158813708313e-07 2.70857028488699e-08 4.94845870777685e-08 8.49130215094047e-08 9.5515829764705e-08 1.27143415137452e-07 1.61974841206441e-07 2.28979977429337e-07
"672" 4983 1.36455239726001e-07 2.70344102968738e-08 4.93734476239172e-08 8.5171913536045e-08 9.57433808721689e-08 1.27179516912128e-07 1.62947442297504e-07 2.29042017689258e-07
"673" 4984 1.36751665743689e-07 2.69831177448777e-08 4.9262308170066e-08 8.54308055626853e-08 9.59709319796329e-08 1.27215618686804e-07 1.63920043388567e-07 2.29104057949179e-07
