"time" "channel1" "channel2" "channel3" "channel4" "channel5" "channel6" "channel7" "channel8"
"1828" 43807 9.04022211319497e-08 3.60168996350952e-09 1.26786962772089e-09 2.42922379842809e-09 4.81099978324858e-08 1.7724448548253e-08 5.43830349942871e-09 2.51711101378404e-09
"1829" 43808 9.01138575384081e-08 3.59266744644373e-09 1.26187972794136e-09 2.42595882688756e-09 4.82652443230101e-08 1.76743798012558e-08 5.38644337582607e-09 2.49248290235013e-09
"1830" 43809 8.92873650747865e-08 3.58373485129007e-09 1.26414599764751e-09 2.40365339428531e-09 4.75725372547951e-08 1.77440975337025e-08 5.24365288152546e-09 2.49282688325412e-09
"1831" 43810 8.87474086202162e-08 3.57753790478837e-09 1.2701407598001e-09 2.39676315575912e-09 4.7639575207896e-08 1.77538916965756e-08 5.24365288152546e-09 2.49282688325412e-09
"1832" 43811 8.85392904165671e-08 3.57356286683607e-09 1.2701407598001e-09 2.38987291723293e-09 4.74659912051033e-08 1.77137248164137e-08 5.24365288152546e-09 2.50692952451035e-09
"1833" 43812 8.8331172212918e-08 3.56958782888377e-09 1.2701407598001e-09 2.38298267870674e-09 4.72924072023106e-08 1.76735579362518e-08 5.24365288152546e-09 2.52103216576659e-09
"1834" 43813 8.8123054009269e-08 3.56561279093147e-09 1.2701407598001e-09 2.37609244018056e-09 4.7118823199518e-08 1.76333910560899e-08 5.24365288152546e-09 2.53513480702283e-09
"1835" 43814 8.79149358056199e-08 3.56163775297917e-09 1.2701407598001e-09 2.36920220165437e-09 4.69452391967253e-08 1.7593224175928e-08 5.24365288152546e-09 2.54923744827906e-09
"1836" 43815 8.77068176019709e-08 3.55766271502687e-09 1.2701407598001e-09 2.36231196312818e-09 4.67716551939326e-08 1.75530572957661e-08 5.24365288152546e-09 2.5633400895353e-09
"1837" 43816 8.74986993983218e-08 3.55368767707457e-09 1.2701407598001e-09 2.35542172460199e-09 4.659807119114e-08 1.75128904156042e-08 5.24365288152546e-09 2.57744273079153e-09
"1838" 43817 8.83097457302192e-08 3.54847324982192e-09 1.27386925224652e-09 2.34798658040124e-09 4.63710319224793e-08 1.74559206776785e-08 5.37425049956247e-09 2.57660860588972e-09
"1839" 43818 8.91207920621165e-08 3.54325882256928e-09 1.27759774469295e-09 2.34055143620049e-09 4.61439926538186e-08 1.73989509397528e-08 5.50484811759947e-09 2.57577448098792e-09
"1840" 43819 8.99318383940138e-08 3.53804439531664e-09 1.28132623713938e-09 2.33311629199974e-09 4.59169533851579e-08 1.73419812018271e-08 5.63544573563648e-09 2.57494035608611e-09
"1841" 43820 9.07428847259112e-08 3.532829968064e-09 1.2850547295858e-09 2.32568114779899e-09 4.56899141164972e-08 1.72850114639015e-08 5.76604335367348e-09 2.5741062311843e-09
"1842" 43821 9.15539310578085e-08 3.52761554081136e-09 1.28878322203223e-09 2.31824600359824e-09 4.54628748478365e-08 1.72280417259758e-08 5.89664097171049e-09 2.57327210628249e-09
"1843" 43822 9.23649773897059e-08 3.52240111355872e-09 1.29251171447866e-09 2.31081085939749e-09 4.52358355791757e-08 1.71710719880501e-08 6.02723858974749e-09 2.57243798138069e-09
"1844" 43823 9.31760237216032e-08 3.51718668630608e-09 1.29624020692509e-09 2.30337571519673e-09 4.5008796310515e-08 1.71141022501244e-08 6.15783620778450e-09 2.57160385647888e-09
"1845" 43824 9.39870700535006e-08 3.51197225905344e-09 1.29996869937151e-09 2.29594057099598e-09 4.47817570418543e-08 1.70571325121987e-08 6.2884338258215e-09 2.57076973157707e-09
"1846" 43825 9.47981163853979e-08 3.50675783180079e-09 1.30369719181794e-09 2.28850542679523e-09 4.45547177731936e-08 1.7000162774273e-08 6.4190314438585e-09 2.56993560667526e-09
"1847" 43826 9.56091627172953e-08 3.50154340454815e-09 1.30742568426437e-09 2.28107028259448e-09 4.43276785045329e-08 1.69431930363473e-08 6.54962906189551e-09 2.56910148177345e-09
"1848" 43827 9.64202090491926e-08 3.49632897729551e-09 1.3111541767108e-09 2.27363513839373e-09 4.41006392358722e-08 1.68862232984216e-08 6.68022667993251e-09 2.56826735687165e-09
"1849" 43828 9.723125538109e-08 3.49111455004287e-09 1.31488266915722e-09 2.26619999419298e-09 4.38735999672115e-08 1.68292535604959e-08 6.81082429796952e-09 2.56743323196984e-09
"1850" 43829 9.80423017129873e-08 3.48590012279023e-09 1.31861116160365e-09 2.25876484999223e-09 4.36465606985508e-08 1.67722838225702e-08 6.94142191600652e-09 2.56659910706803e-09
"1851" 43830 9.88533480448847e-08 3.48068569553759e-09 1.32233965405008e-09 2.25132970579148e-09 4.34195214298901e-08 1.67153140846446e-08 7.07201953404353e-09 2.56576498216622e-09
"1852" 43831 9.9664394376782e-08 3.47547126828495e-09 1.32606814649651e-09 2.24389456159073e-09 4.31924821612294e-08 1.66583443467189e-08 7.20261715208053e-09 2.56493085726441e-09
"1853" 43832 9.92590708340394e-08 3.49171821205756e-09 1.33106054004163e-09 2.25523188812127e-09 4.29123464386422e-08 1.6209595138204e-08 7.19258893952046e-09 2.53913324914409e-09
"1854" 43833 9.88005738791205e-08 3.59757586008853e-09 1.33778641356435e-09 2.26998902638281e-09 4.29640906570267e-08 1.62314587226487e-08 7.18593549776207e-09 2.51622504223013e-09
"1855" 43834 9.83420769242016e-08 3.7034335081195e-09 1.34451228708707e-09 2.28474616464435e-09 4.30158348754112e-08 1.62533223070933e-08 7.17928205600368e-09 2.49331683531616e-09
"1856" 43835 9.78835799692828e-08 3.80929115615047e-09 1.35123816060978e-09 2.29950330290589e-09 4.30675790937958e-08 1.6275185891538e-08 7.17262861424529e-09 2.47040862840219e-09
"1857" 43836 9.74250830143639e-08 3.91514880418144e-09 1.3579640341325e-09 2.31426044116743e-09 4.31193233121803e-08 1.62970494759826e-08 7.1659751724869e-09 2.44750042148823e-09
"1858" 43837 9.6966586059445e-08 4.0210064522124e-09 1.36468990765522e-09 2.32901757942896e-09 4.31710675305648e-08 1.63189130604273e-08 7.15932173072852e-09 2.42459221457426e-09
"1859" 43838 9.65080891045261e-08 4.12686410024337e-09 1.37141578117794e-09 2.3437747176905e-09 4.32228117489493e-08 1.63407766448719e-08 7.15266828897013e-09 2.40168400766029e-09
"1860" 43839 9.60495921496072e-08 4.23272174827434e-09 1.37814165470066e-09 2.35853185595204e-09 4.32745559673339e-08 1.63626402293165e-08 7.14601484721174e-09 2.37877580074633e-09
"1861" 43840 9.55910951946883e-08 4.33857939630531e-09 1.38486752822338e-09 2.37328899421358e-09 4.33263001857184e-08 1.63845038137612e-08 7.13936140545335e-09 2.35586759383236e-09
"1862" 43841 9.51325982397695e-08 4.44443704433628e-09 1.3915934017461e-09 2.38804613247511e-09 4.33780444041029e-08 1.64063673982058e-08 7.13270796369497e-09 2.33295938691839e-09
"1863" 43842 9.46741012848506e-08 4.55029469236725e-09 1.39831927526882e-09 2.40280327073665e-09 4.34297886224875e-08 1.64282309826505e-08 7.12605452193658e-09 2.31005118000443e-09
"1864" 43843 9.42156043299317e-08 4.65615234039822e-09 1.40504514879154e-09 2.41756040899819e-09 4.3481532840872e-08 1.64500945670951e-08 7.11940108017819e-09 2.28714297309046e-09
"1865" 43844 9.37571073750128e-08 4.76200998842919e-09 1.41177102231426e-09 2.43231754725973e-09 4.35332770592565e-08 1.64719581515398e-08 7.1127476384198e-09 2.26423476617649e-09
"1866" 43845 9.32986104200939e-08 4.86786763646016e-09 1.41849689583698e-09 2.44707468552126e-09 4.3585021277641e-08 1.64938217359844e-08 7.10609419666142e-09 2.24132655926253e-09
"1867" 43846 9.2840113465175e-08 4.97372528449112e-09 1.4252227693597e-09 2.4618318237828e-09 4.36367654960256e-08 1.65156853204291e-08 7.09944075490303e-09 2.21841835234856e-09
"1868" 43847 9.23816165102562e-08 5.07958293252209e-09 1.43194864288242e-09 2.47658896204434e-09 4.36885097144101e-08 1.65375489048737e-08 7.09278731314464e-09 2.19551014543459e-09
"1869" 43848 9.19231195553373e-08 5.18544058055306e-09 1.43867451640514e-09 2.49134610030588e-09 4.37402539327946e-08 1.65594124893183e-08 7.08613387138625e-09 2.17260193852063e-09
"1870" 43849 9.14646226004184e-08 5.29129822858403e-09 1.44540038992785e-09 2.50610323856742e-09 4.37919981511792e-08 1.6581276073763e-08 7.07948042962787e-09 2.14969373160666e-09
"1871" 43850 9.10061256454995e-08 5.397155876615e-09 1.45212626345057e-09 2.52086037682895e-09 4.38437423695637e-08 1.66031396582076e-08 7.07282698786948e-09 2.12678552469269e-09
"1872" 43851 9.05476286905806e-08 5.50301352464597e-09 1.45885213697329e-09 2.53561751509049e-09 4.38954865879482e-08 1.66250032426523e-08 7.06617354611109e-09 2.10387731777873e-09
"1873" 43852 9.05136291868146e-08 5.61283122364388e-09 1.46381535628011e-09 2.53343789239225e-09 4.36705155912437e-08 1.66061196411054e-08 7.05920120305708e-09 2.10422129868272e-09
"1874" 43853 8.99967523737962e-08 5.72163642942203e-09 1.47054122980283e-09 2.53704231435266e-09 4.32275813170519e-08 1.6484466746164e-08 7.04933244114481e-09 2.10505542358452e-09
"1875" 43854 8.95466195002557e-08 5.72163642942203e-09 1.46830413433498e-09 2.52922156717466e-09 4.27331591187194e-08 1.63358079873847e-08 7.03752181697966e-09 2.10554556758234e-09
"1876" 43855 8.89893635860846e-08 5.72088080625354e-09 1.46830413433498e-09 2.52060876901693e-09 4.24381454023089e-08 1.62475799084999e-08 7.0257111928145e-09 2.10719659914718e-09
"1877" 43856 8.84321076719135e-08 5.72012518308505e-09 1.46830413433498e-09 2.51199597085919e-09 4.21431316858984e-08 1.61593518296151e-08 7.01390056864935e-09 2.10884763071202e-09
"1878" 43857 8.78748517577423e-08 5.71936955991657e-09 1.46830413433498e-09 2.50338317270145e-09 4.1848117969488e-08 1.60711237507303e-08 7.00208994448420e-09 2.11049866227686e-09
"1879" 43858 8.73175958435712e-08 5.71861393674808e-09 1.46830413433498e-09 2.49477037454372e-09 4.15531042530775e-08 1.59828956718455e-08 6.99027932031904e-09 2.1121496938417e-09
"1880" 43859 8.67603399294001e-08 5.71785831357959e-09 1.46830413433498e-09 2.48615757638598e-09 4.1258090536667e-08 1.58946675929607e-08 6.97846869615389e-09 2.11380072540653e-09
"1881" 43860 8.6203084015229e-08 5.7171026904111e-09 1.46830413433498e-09 2.47754477822824e-09 4.09630768202565e-08 1.58064395140759e-08 6.96665807198873e-09 2.11545175697137e-09
"1882" 43861 8.56458281010579e-08 5.71634706724261e-09 1.46830413433498e-09 2.46893198007051e-09 4.0668063103846e-08 1.57182114351911e-08 6.95484744782358e-09 2.11710278853621e-09
"1883" 43862 8.50885721868868e-08 5.71559144407413e-09 1.46830413433498e-09 2.46031918191277e-09 4.03730493874355e-08 1.56299833563063e-08 6.94303682365842e-09 2.11875382010105e-09
"1884" 43863 8.45313162727156e-08 5.71483582090564e-09 1.46830413433498e-09 2.45170638375504e-09 4.0078035671025e-08 1.55417552774214e-08 6.93122619949327e-09 2.12040485166589e-09
"1885" 43864 8.39740603585445e-08 5.71408019773715e-09 1.46830413433498e-09 2.4430935855973e-09 3.97830219546145e-08 1.54535271985366e-08 6.91941557532811e-09 2.12205588323073e-09
"1886" 43865 8.34168044443734e-08 5.71332457456866e-09 1.46830413433498e-09 2.43448078743956e-09 3.9488008238204e-08 1.53652991196518e-08 6.90760495116296e-09 2.12370691479556e-09
"1887" 43866 8.28595485302023e-08 5.71256895140018e-09 1.46830413433498e-09 2.42586798928183e-09 3.91929945217935e-08 1.5277071040767e-08 6.89579432699781e-09 2.1253579463604e-09
"1888" 43867 8.25231770121122e-08 5.70662887494976e-09 1.46157826081226e-09 2.374454728159e-09 3.91450312103176e-08 1.52926568057701e-08 6.89574117678187e-09 2.11572686492025e-09
"1889" 43868 8.25197302294057e-08 5.70461887549557e-09 1.46356354853498e-09 2.37257286583013e-09 3.92617256043733e-08 1.5202533061175e-08 6.86549708845382e-09 2.10821974080398e-09
"1890" 43869 8.25162834466992e-08 5.70260887604139e-09 1.46554883625771e-09 2.37069100350127e-09 3.93784199984291e-08 1.51124093165799e-08 6.83525300012578e-09 2.10071261668771e-09
"1891" 43870 8.25128366639927e-08 5.70059887658721e-09 1.46753412398044e-09 2.3688091411724e-09 3.94951143924848e-08 1.50222855719849e-08 6.80500891179773e-09 2.09320549257144e-09
"1892" 43871 8.25093898812862e-08 5.69858887713303e-09 1.46951941170317e-09 2.36692727884354e-09 3.96118087865406e-08 1.49321618273898e-08 6.77476482346969e-09 2.08569836845517e-09
"1893" 43872 8.25059430985797e-08 5.69657887767884e-09 1.4715046994259e-09 2.36504541651467e-09 3.97285031805963e-08 1.48420380827948e-08 6.74452073514164e-09 2.0781912443389e-09
"1894" 43873 8.25024963158732e-08 5.69456887822466e-09 1.47348998714862e-09 2.36316355418581e-09 3.98451975746521e-08 1.47519143381997e-08 6.7142766468136e-09 2.07068412022263e-09
"1895" 43874 8.24990495331667e-08 5.69255887877048e-09 1.47547527487135e-09 2.36128169185694e-09 3.99618919687078e-08 1.46617905936047e-08 6.68403255848555e-09 2.06317699610636e-09
"1896" 43875 8.31628548159191e-08 5.70619216107422e-09 1.49540108769438e-09 2.43509269069673e-09 4.27648593118348e-08 1.48419743241284e-08 6.68344790611023e-09 2.05948790647575e-09
"1897" 43876 8.3283094119848e-08 5.7199453392608e-09 1.56726043555659e-09 2.53303291189872e-09 4.3240679538387e-08 1.48419743241284e-08 6.68921014206608e-09 2.05845596376378e-09
"1898" 43877 8.34033334237769e-08 5.73369851744738e-09 1.63911978341879e-09 2.6309731331007e-09 4.37164997649392e-08 1.48419743241284e-08 6.69497237802193e-09 2.05742402105181e-09
"1899" 43878 8.35235727277058e-08 5.74745169563396e-09 1.710979131281e-09 2.72891335430269e-09 4.41923199914914e-08 1.48419743241284e-08 6.70073461397778e-09 2.05639207833984e-09
"1900" 43879 8.36438120316347e-08 5.76120487382053e-09 1.7828384791432e-09 2.82685357550468e-09 4.46681402180436e-08 1.48419743241284e-08 6.70649684993363e-09 2.05536013562787e-09
"1901" 43880 8.37640513355636e-08 5.77495805200711e-09 1.85469782700541e-09 2.92479379670666e-09 4.51439604445958e-08 1.48419743241284e-08 6.71225908588948e-09 2.05432819291591e-09
"1902" 43881 8.38842906394925e-08 5.78871123019369e-09 1.92655717486761e-09 3.02273401790865e-09 4.5619780671148e-08 1.48419743241284e-08 6.71802132184533e-09 2.05329625020394e-09
"1903" 43882 8.40045299434214e-08 5.80246440838027e-09 1.99841652272982e-09 3.12067423911063e-09 4.60956008977002e-08 1.48419743241284e-08 6.72378355780118e-09 2.05226430749197e-09
"1904" 43883 8.41247692473503e-08 5.81621758656685e-09 2.07027587059202e-09 3.21861446031262e-09 4.65714211242524e-08 1.48419743241284e-08 6.72954579375703e-09 2.05123236478e-09
"1905" 43884 8.42450085512792e-08 5.82997076475343e-09 2.14213521845423e-09 3.3165546815146e-09 4.70472413508046e-08 1.48419743241284e-08 6.73530802971288e-09 2.05020042206803e-09
"1906" 43885 8.43652478552081e-08 5.84372394294001e-09 2.21399456631644e-09 3.41449490271659e-09 4.75230615773568e-08 1.48419743241284e-08 6.74107026566873e-09 2.04916847935606e-09
"1907" 43886 8.4485487159137e-08 5.85747712112659e-09 2.28585391417864e-09 3.51243512391858e-09 4.7998881803909e-08 1.48419743241284e-08 6.74683250162458e-09 2.04813653664409e-09
"1908" 43887 8.46057264630659e-08 5.87123029931316e-09 2.35771326204085e-09 3.61037534512056e-09 4.84747020304612e-08 1.48419743241284e-08 6.75259473758042e-09 2.04710459393213e-09
"1909" 43888 8.44939718041748e-08 5.87831775185155e-09 2.42758732218032e-09 3.70831556632255e-09 4.90025325223786e-08 1.4978292851949e-08 6.70850421027086e-09 2.04976174085077e-09
"1910" 43889 8.4432195494528e-08 5.80417048552686e-09 2.49744679520065e-09 3.80387517207846e-09 4.95397603939327e-08 1.50532344165015e-08 6.69622758203067e-09 2.05788795381991e-09
"1911" 43890 8.42474589833646e-08 5.72990332331933e-09 2.52010845660874e-09 3.83123513343539e-09 4.95629080727194e-08 1.49996785762856e-08 6.65382336648120e-09 2.06335701987041e-09
"1912" 43891 8.40638335444365e-08 5.63999287935388e-09 2.52183707421329e-09 3.8255895464488e-09 4.95723054523562e-08 1.49240270292933e-08 6.61413571796839e-09 2.06318502941841e-09
"1913" 43892 8.38802081055084e-08 5.55008243538843e-09 2.52356569181784e-09 3.8199439594622e-09 4.9581702831993e-08 1.48483754823009e-08 6.57444806945558e-09 2.06301303896642e-09
"1914" 43893 8.36965826665802e-08 5.46017199142298e-09 2.52529430942239e-09 3.81429837247561e-09 4.95911002116297e-08 1.47727239353085e-08 6.53476042094277e-09 2.06284104851442e-09
"1915" 43894 8.35129572276521e-08 5.37026154745754e-09 2.52702292702694e-09 3.80865278548902e-09 4.96004975912665e-08 1.46970723883161e-08 6.49507277242996e-09 2.06266905806243e-09
"1916" 43895 8.3329331788724e-08 5.28035110349209e-09 2.52875154463149e-09 3.80300719850242e-09 4.96098949709033e-08 1.46214208413238e-08 6.45538512391716e-09 2.06249706761043e-09
"1917" 43896 8.31457063497958e-08 5.19044065952664e-09 2.53048016223604e-09 3.79736161151583e-09 4.961929235054e-08 1.45457692943314e-08 6.41569747540435e-09 2.06232507715844e-09
"1918" 43897 8.29620809108677e-08 5.10053021556119e-09 2.53220877984059e-09 3.79171602452923e-09 4.96286897301768e-08 1.4470117747339e-08 6.37600982689154e-09 2.06215308670644e-09
"1919" 43898 8.27784554719396e-08 5.01061977159574e-09 2.53393739744514e-09 3.78607043754264e-09 4.96380871098136e-08 1.43944662003466e-08 6.33632217837873e-09 2.06198109625445e-09
"1920" 43899 8.25948300330114e-08 4.92070932763029e-09 2.53566601504969e-09 3.78042485055604e-09 4.96474844894504e-08 1.43188146533543e-08 6.29663452986593e-09 2.06180910580245e-09
"1921" 43900 8.24112045940833e-08 4.83079888366484e-09 2.53739463265424e-09 3.77477926356945e-09 4.96568818690871e-08 1.42431631063619e-08 6.25694688135312e-09 2.06163711535046e-09
"1922" 43901 8.22275791551552e-08 4.74088843969939e-09 2.53912325025879e-09 3.76913367658286e-09 4.96662792487239e-08 1.41675115593695e-08 6.21725923284031e-09 2.06146512489846e-09
"1923" 43902 8.2043953716227e-08 4.65097799573394e-09 2.54085186786334e-09 3.76348808959626e-09 4.96756766283607e-08 1.40918600123771e-08 6.1775715843275e-09 2.06129313444647e-09
"1924" 43903 8.18603282772989e-08 4.56106755176849e-09 2.54258048546789e-09 3.75784250260967e-09 4.96850740079975e-08 1.40162084653848e-08 6.1378839358147e-09 2.06112114399447e-09
"1925" 43904 8.16767028383708e-08 4.47115710780304e-09 2.54430910307244e-09 3.75219691562307e-09 4.96944713876342e-08 1.39405569183924e-08 6.09819628730189e-09 2.06094915354248e-09
"1926" 43905 8.14930773994426e-08 4.38124666383759e-09 2.54603772067699e-09 3.74655132863648e-09 4.9703868767271e-08 1.38649053714e-08 6.05850863878908e-09 2.06077716309049e-09
"1927" 43906 8.13094519605145e-08 4.29133621987214e-09 2.54776633828154e-09 3.74090574164988e-09 4.97132661469078e-08 1.37892538244076e-08 6.01882099027627e-09 2.06060517263849e-09
"1928" 43907 8.11258265215864e-08 4.2014257759067e-09 2.54949495588609e-09 3.73526015466329e-09 4.97226635265446e-08 1.37136022774152e-08 5.97913334176347e-09 2.0604331821865e-09
"1929" 43908 8.09422010826582e-08 4.11151533194125e-09 2.55122357349063e-09 3.7296145676767e-09 4.97320609061813e-08 1.36379507304229e-08 5.93944569325066e-09 2.0602611917345e-09
"1930" 43909 8.07585756437301e-08 4.0216048879758e-09 2.55295219109518e-09 3.7239689806901e-09 4.97414582858181e-08 1.35622991834305e-08 5.89975804473785e-09 2.06008920128251e-09
"1931" 43910 8.07585756437301e-08 4.01790170706013e-09 2.54796952229616e-09 3.71832339370351e-09 4.96129988523445e-08 1.35394684226031e-08 5.90447982483023e-09 2.06025258261511e-09
"1932" 43911 8.0561098683521e-08 4.01413857820305e-09 2.5359702732449e-09 3.68204841131262e-09 4.96278076693144e-08 1.35342874561544e-08 5.91302197862557e-09 2.04376790238912e-09
"1933" 43912 8.03934532456845e-08 4.01639046072316e-09 2.52023766937415e-09 3.64715653813338e-09 4.96119126637832e-08 1.35739900916526e-08 5.92188303371654e-09 2.02910624417995e-09
"1934" 43913 8.0225807807848e-08 4.01864234324326e-09 2.50450506550341e-09 3.61226466495415e-09 4.95960176582521e-08 1.36136927271508e-08 5.9307440888075e-09 2.01444458597079e-09
"1935" 43914 8.00581623700115e-08 4.02089422576337e-09 2.48877246163266e-09 3.57737279177491e-09 4.95801226527209e-08 1.36533953626489e-08 5.93960514389847e-09 1.99978292776163e-09
"1936" 43915 7.9890516932175e-08 4.02314610828348e-09 2.47303985776192e-09 3.54248091859568e-09 4.95642276471898e-08 1.36930979981471e-08 5.94846619898944e-09 1.98512126955246e-09
"1937" 43916 7.97228714943385e-08 4.02539799080359e-09 2.45730725389117e-09 3.50758904541644e-09 4.95483326416586e-08 1.37328006336453e-08 5.9573272540804e-09 1.9704596113433e-09
"1938" 43917 7.9555226056502e-08 4.0276498733237e-09 2.44157465002043e-09 3.47269717223721e-09 4.95324376361275e-08 1.37725032691434e-08 5.96618830917137e-09 1.95579795313414e-09
"1939" 43918 7.93875806186655e-08 4.02990175584381e-09 2.42584204614968e-09 3.43780529905798e-09 4.95165426305963e-08 1.38122059046416e-08 5.97504936426234e-09 1.94113629492497e-09
"1940" 43919 7.9219935180829e-08 4.03215363836392e-09 2.41010944227894e-09 3.40291342587874e-09 4.95006476250652e-08 1.38519085401397e-08 5.9839104193533e-09 1.92647463671581e-09
"1941" 43920 7.90522897429925e-08 4.03440552088403e-09 2.39437683840819e-09 3.36802155269951e-09 4.9484752619534e-08 1.38916111756379e-08 5.99277147444427e-09 1.91181297850665e-09
"1942" 43921 7.8884644305156e-08 4.03665740340414e-09 2.37864423453745e-09 3.33312967952027e-09 4.94688576140029e-08 1.39313138111361e-08 6.00163252953524e-09 1.89715132029748e-09
"1943" 43922 7.87169988673195e-08 4.03890928592424e-09 2.3629116306667e-09 3.29823780634104e-09 4.94529626084717e-08 1.39710164466342e-08 6.0104935846262e-09 1.88248966208832e-09
"1944" 43923 7.8549353429483e-08 4.04116116844435e-09 2.34717902679596e-09 3.2633459331618e-09 4.94370676029406e-08 1.40107190821324e-08 6.01935463971717e-09 1.86782800387916e-09
"1945" 43924 7.83817079916465e-08 4.04341305096446e-09 2.33144642292521e-09 3.22845405998257e-09 4.94211725974094e-08 1.40504217176306e-08 6.02821569480814e-09 1.85316634566999e-09
"1946" 43925 7.84514690376005e-08 4.03739803958727e-09 2.32846849134112e-09 3.22720940844298e-09 4.87747055452851e-08 1.37221731496014e-08 5.99650809617064e-09 1.85316634566999e-09
"1947" 43926 7.84595626534766e-08 4.03145796313685e-09 2.32723376448073e-09 3.21925466609976e-09 4.86864359962762e-08 1.37808670906088e-08 5.96416269494189e-09 1.85134332365316e-09
"1948" 43927 7.84676562693528e-08 4.02551788668643e-09 2.32599903762034e-09 3.21129992375655e-09 4.85981664472673e-08 1.38395610316161e-08 5.93181729371314e-09 1.84952030163633e-09
"1949" 43928 7.84757498852289e-08 4.01957781023601e-09 2.32476431075994e-09 3.20334518141334e-09 4.85098968982584e-08 1.38982549726234e-08 5.89947189248439e-09 1.84769727961949e-09
"1950" 43929 7.8483843501105e-08 4.01363773378559e-09 2.32352958389955e-09 3.19539043907013e-09 4.84216273492495e-08 1.39569489136308e-08 5.86712649125565e-09 1.84587425760266e-09
"1951" 43930 7.84919371169811e-08 4.00769765733517e-09 2.32229485703916e-09 3.18743569672692e-09 4.83333578002406e-08 1.40156428546381e-08 5.8347810900269e-09 1.84405123558583e-09
"1952" 43931 7.85000307328573e-08 4.00175758088475e-09 2.32106013017877e-09 3.1794809543837e-09 4.82450882512317e-08 1.40743367956455e-08 5.80243568879815e-09 1.84222821356900e-09
"1953" 43932 7.85081243487334e-08 3.99581750443433e-09 2.31982540331837e-09 3.17152621204049e-09 4.81568187022228e-08 1.41330307366528e-08 5.7700902875694e-09 1.84040519155216e-09
"1954" 43933 7.90631077872749e-08 3.99358060889958e-09 2.3178352532226e-09 3.15676907377895e-09 4.80562479372008e-08 1.41658365598244e-08 5.7402284513398e-09 1.85784433241563e-09
"1955" 43934 7.96180912258163e-08 3.99134371336482e-09 2.31584510312682e-09 3.14201193551742e-09 4.79556771721787e-08 1.41986423829959e-08 5.7103666151102e-09 1.8752834732791e-09
"1956" 43935 8.01730746643578e-08 3.98910681783007e-09 2.31385495303104e-09 3.12725479725588e-09 4.78551064071567e-08 1.42314482061675e-08 5.68050477888061e-09 1.89272261414256e-09
"1957" 43936 8.07280581028992e-08 3.98686992229531e-09 2.31186480293526e-09 3.11249765899434e-09 4.77545356421347e-08 1.42642540293391e-08 5.65064294265101e-09 1.91016175500603e-09
"1958" 43937 8.12830415414407e-08 3.98463302676056e-09 2.30987465283948e-09 3.0977405207328e-09 4.76539648771127e-08 1.42970598525106e-08 5.62078110642141e-09 1.9276008958695e-09
"1959" 43938 8.18380249799822e-08 3.98239613122581e-09 2.30788450274371e-09 3.08298338247127e-09 4.75533941120906e-08 1.43298656756822e-08 5.59091927019181e-09 1.94504003673296e-09
"1960" 43939 8.23930084185236e-08 3.98015923569105e-09 2.30589435264793e-09 3.06822624420973e-09 4.74528233470686e-08 1.43626714988538e-08 5.56105743396222e-09 1.96247917759643e-09
"1961" 43940 8.29479918570651e-08 3.9779223401563e-09 2.30390420255215e-09 3.05346910594819e-09 4.73522525820466e-08 1.43954773220253e-08 5.53119559773262e-09 1.9799183184599e-09
"1962" 43941 8.35029752956066e-08 3.97568544462154e-09 2.30191405245637e-09 3.03871196768665e-09 4.72516818170246e-08 1.44282831451969e-08 5.50133376150302e-09 1.99735745932337e-09
"1963" 43942 8.4057958734148e-08 3.97344854908679e-09 2.29992390236059e-09 3.02395482942511e-09 4.71511110520025e-08 1.44610889683685e-08 5.47147192527342e-09 2.01479660018683e-09
"1964" 43943 8.46129421726895e-08 3.97121165355204e-09 2.29793375226482e-09 3.00919769116358e-09 4.70505402869805e-08 1.449389479154e-08 5.44161008904383e-09 2.0322357410503e-09
"1965" 43944 8.5167925611231e-08 3.96897475801728e-09 2.29594360216904e-09 2.99444055290204e-09 4.69499695219585e-08 1.45267006147116e-08 5.41174825281423e-09 2.04967488191377e-09
"1966" 43945 8.57229090497724e-08 3.96673786248253e-09 2.29395345207326e-09 2.9796834146405e-09 4.68493987569365e-08 1.45595064378832e-08 5.38188641658463e-09 2.06711402277723e-09
"1967" 43946 8.61870948332093e-08 3.96971539420041e-09 2.29194871485833e-09 2.90541089022717e-09 4.67295857383725e-08 1.4591276067765e-08 5.35202458035503e-09 2.06556610870928e-09
"1968" 43947 8.62197456042613e-08 3.96971539420041e-09 2.29320775358398e-09 2.90751905283596e-09 4.68214116534213e-08 1.4591276067765e-08 5.33234020674644e-09 2.07389013948858e-09
"1969" 43948 8.62643371759214e-08 3.96601221328475e-09 2.29843736775507e-09 2.91533980001396e-09 4.75612618915316e-08 1.46220011471534e-08 5.32441330708707e-09 2.07354615858459e-09
"1970" 43949 8.63089287475815e-08 3.96230903236908e-09 2.30366698192617e-09 2.92316054719195e-09 4.8301112129642e-08 1.46527262265419e-08 5.31648640742769e-09 2.0732021776806e-09
"1971" 43950 8.63535203192417e-08 3.95860585145342e-09 2.30889659609727e-09 2.93098129436994e-09 4.90409623677523e-08 1.46834513059303e-08 5.30855950776832e-09 2.07285819677661e-09
"1972" 43951 8.63981118909018e-08 3.95490267053775e-09 2.31412621026837e-09 2.93880204154794e-09 4.97808126058626e-08 1.47141763853187e-08 5.30063260810895e-09 2.07251421587262e-09
"1973" 43952 8.64427034625619e-08 3.95119948962209e-09 2.31935582443947e-09 2.94662278872593e-09 5.05206628439729e-08 1.47449014647072e-08 5.29270570844957e-09 2.07217023496863e-09
"1974" 43953 8.6487295034222e-08 3.94749630870642e-09 2.32458543861057e-09 2.95444353590393e-09 5.12605130820833e-08 1.47756265440956e-08 5.2847788087902e-09 2.07182625406465e-09
"1975" 43954 8.65318866058822e-08 3.94379312779076e-09 2.32981505278166e-09 2.96226428308192e-09 5.20003633201936e-08 1.48063516234841e-08 5.27685190913082e-09 2.07148227316066e-09
"1976" 43955 8.65764781775423e-08 3.94008994687509e-09 2.33504466695276e-09 2.97008503025992e-09 5.27402135583039e-08 1.48370767028725e-08 5.26892500947145e-09 2.07113829225667e-09
"1977" 43956 8.66210697492024e-08 3.93638676595942e-09 2.34027428112386e-09 2.97790577743791e-09 5.34800637964143e-08 1.48678017822609e-08 5.26099810981208e-09 2.07079431135268e-09
"1978" 43957 8.66656613208625e-08 3.93268358504376e-09 2.34550389529496e-09 2.9857265246159e-09 5.42199140345246e-08 1.48985268616494e-08 5.2530712101527e-09 2.07045033044869e-09
"1979" 43958 8.67102528925226e-08 3.92898040412809e-09 2.35073350946606e-09 2.9935472717939e-09 5.49597642726349e-08 1.49292519410378e-08 5.24514431049333e-09 2.0701063495447e-09
"1980" 43959 8.67548444641828e-08 3.92527722321243e-09 2.35596312363716e-09 3.00136801897189e-09 5.56996145107452e-08 1.49599770204262e-08 5.23721741083395e-09 2.06976236864071e-09
"1981" 43960 8.67994360358429e-08 3.92157404229676e-09 2.36119273780825e-09 3.00918876614989e-09 5.64394647488556e-08 1.49907020998147e-08 5.22929051117458e-09 2.06941838773672e-09
"1982" 43961 8.6844027607503e-08 3.9178708613811e-09 2.36642235197935e-09 3.01700951332788e-09 5.71793149869659e-08 1.50214271792031e-08 5.22136361151521e-09 2.06907440683273e-09
"1983" 43962 8.68886191791631e-08 3.91416768046543e-09 2.37165196615045e-09 3.02483026050587e-09 5.79191652250762e-08 1.50521522585915e-08 5.21343671185583e-09 2.06873042592874e-09
"1984" 43963 8.69332107508232e-08 3.91046449954976e-09 2.37688158032155e-09 3.03265100768387e-09 5.86590154631866e-08 1.508287733798e-08 5.20550981219646e-09 2.06838644502475e-09
"1985" 43964 8.69778023224834e-08 3.9067613186341e-09 2.38211119449265e-09 3.04047175486186e-09 5.93988657012969e-08 1.51136024173684e-08 5.19758291253709e-09 2.06804246412076e-09
"1986" 43965 8.70223938941435e-08 3.90305813771843e-09 2.38734080866375e-09 3.04829250203986e-09 6.01387159394072e-08 1.51443274967569e-08 5.18965601287771e-09 2.06769848321677e-09
"1987" 43966 8.70669854658036e-08 3.89935495680277e-09 2.39257042283484e-09 3.05611324921785e-09 6.08785661775175e-08 1.51750525761453e-08 5.18172911321834e-09 2.06735450231278e-09
"1988" 43967 8.70490104522432e-08 3.89640739905559e-09 2.39258014758094e-09 3.05266812995476e-09 6.08967165723954e-08 1.51677992231172e-08 5.1639334516467e-09 2.06701052140879e-09
"1989" 43968 8.77491275170733e-08 3.87381154762748e-09 2.39585364826761e-09 3.04151541365363e-09 6.03998754554331e-08 1.51851782081088e-08 5.13956810029326e-09 2.06185099978473e-09
"1990" 43969 8.86336099652461e-08 3.86391142021011e-09 2.40809011794486e-09 3.0403586047219e-09 6.00920243464142e-08 1.51941170771633e-08 5.11578740131514e-09 2.06185099978473e-09
"1991" 43970 8.9518092413419e-08 3.85401129279275e-09 2.42032658762211e-09 3.03920179579017e-09 5.97841732373953e-08 1.52030559462177e-08 5.09200670233702e-09 2.06185099978473e-09
"1992" 43971 9.04025748615918e-08 3.84411116537538e-09 2.43256305729935e-09 3.03804498685844e-09 5.94763221283764e-08 1.52119948152721e-08 5.0682260033589e-09 2.06185099978473e-09
"1993" 43972 9.12870573097646e-08 3.83421103795801e-09 2.4447995269766e-09 3.03688817792671e-09 5.91684710193575e-08 1.52209336843265e-08 5.04444530438077e-09 2.06185099978473e-09
"1994" 43973 9.21715397579375e-08 3.82431091054065e-09 2.45703599665384e-09 3.03573136899497e-09 5.88606199103385e-08 1.52298725533809e-08 5.02066460540265e-09 2.06185099978473e-09
"1995" 43974 9.30560222061103e-08 3.81441078312328e-09 2.46927246633109e-09 3.03457456006324e-09 5.85527688013196e-08 1.52388114224353e-08 4.99688390642453e-09 2.06185099978473e-09
"1996" 43975 9.39405046542832e-08 3.80451065570591e-09 2.48150893600834e-09 3.03341775113151e-09 5.82449176923007e-08 1.52477502914897e-08 4.97310320744641e-09 2.06185099978473e-09
"1997" 43976 9.4824987102456e-08 3.79461052828855e-09 2.49374540568558e-09 3.03226094219978e-09 5.79370665832818e-08 1.52566891605442e-08 4.94932250846829e-09 2.06185099978473e-09
"1998" 43977 9.57094695506288e-08 3.78471040087118e-09 2.50598187536283e-09 3.03110413326805e-09 5.76292154742629e-08 1.52656280295986e-08 4.92554180949016e-09 2.06185099978473e-09
"1999" 43978 9.65939519988017e-08 3.77481027345382e-09 2.51821834504007e-09 3.02994732433632e-09 5.73213643652439e-08 1.5274566898653e-08 4.90176111051204e-09 2.06185099978473e-09
"2000" 43979 9.74784344469745e-08 3.76491014603645e-09 2.53045481471732e-09 3.02879051540459e-09 5.7013513256225e-08 1.52835057677074e-08 4.87798041153392e-09 2.06185099978473e-09
"2001" 43980 9.83629168951474e-08 3.75501001861908e-09 2.54269128439457e-09 3.02763370647285e-09 5.67056621472061e-08 1.52924446367618e-08 4.8541997125558e-09 2.06185099978473e-09
"2002" 43981 9.83629168951474e-08 3.75176062986456e-09 2.54194558590528e-09 3.0249806381895e-09 5.60972012622182e-08 1.52382311166057e-08 4.85802008625876e-09 2.03277715589289e-09
"2003" 43982 9.75174062670035e-08 3.74881307211738e-09 2.5487006336663e-09 3.03466240267111e-09 5.62326432393327e-08 1.54095397367414e-08 4.89945954461599e-09 2.03277715589289e-09
"2004" 43983 9.66718956388597e-08 3.74586551437021e-09 2.55545568142732e-09 3.04434416715271e-09 5.63680852164471e-08 1.55808483568771e-08 4.94089900297322e-09 2.03277715589289e-09
"2005" 43984 9.58263850107159e-08 3.74291795662303e-09 2.56221072918834e-09 3.05402593163432e-09 5.65035271935616e-08 1.57521569770128e-08 4.98233846133046e-09 2.03277715589289e-09
"2006" 43985 9.49808743825721e-08 3.73997039887585e-09 2.56896577694936e-09 3.06370769611592e-09 5.6638969170676e-08 1.59234655971485e-08 5.02377791968769e-09 2.03277715589289e-09
"2007" 43986 9.41353637544282e-08 3.73702284112867e-09 2.57572082471038e-09 3.07338946059752e-09 5.67744111477905e-08 1.60947742172842e-08 5.06521737804493e-09 2.03277715589289e-09
"2008" 43987 9.32898531262844e-08 3.73407528338149e-09 2.5824758724714e-09 3.08307122507913e-09 5.69098531249049e-08 1.62660828374199e-08 5.10665683640216e-09 2.03277715589289e-09
"2009" 43988 9.24443424981406e-08 3.73112772563432e-09 2.58923092023241e-09 3.09275298956073e-09 5.70452951020194e-08 1.64373914575556e-08 5.14809629475939e-09 2.03277715589289e-09
"2010" 43989 9.15988318699968e-08 3.72818016788714e-09 2.59598596799343e-09 3.10243475404234e-09 5.71807370791339e-08 1.66087000776913e-08 5.18953575311663e-09 2.03277715589289e-09
"2011" 43990 9.115648703058e-08 3.72446199998612e-09 2.59474151638694e-09 3.10304665729951e-09 5.71532820695801e-08 1.6591815667215e-08 5.20051852228206e-09 2.03810005884956e-09
"2012" 43991 9.07141421911633e-08 3.7207438320851e-09 2.59349706478045e-09 3.10365856055668e-09 5.71258270600263e-08 1.65749312567388e-08 5.2115012914475e-09 2.04342296180623e-09
"2013" 43992 9.02717973517466e-08 3.71702566418408e-09 2.59225261317396e-09 3.10427046381385e-09 5.70983720504724e-08 1.65580468462625e-08 5.22248406061294e-09 2.04874586476291e-09
"2014" 43993 8.98294525123299e-08 3.71330749628306e-09 2.59100816156746e-09 3.10488236707102e-09 5.70709170409187e-08 1.65411624357863e-08 5.23346682977838e-09 2.05406876771958e-09
"2015" 43994 8.93871076729131e-08 3.70958932838204e-09 2.58976370996097e-09 3.10549427032819e-09 5.70434620313648e-08 1.652427802531e-08 5.24444959894381e-09 2.05939167067625e-09
"2016" 43995 8.89447628334964e-08 3.70587116048102e-09 2.58851925835448e-09 3.10610617358536e-09 5.7016007021811e-08 1.65073936148338e-08 5.25543236810925e-09 2.06471457363292e-09
"2017" 43996 8.85024179940797e-08 3.70215299258e-09 2.58727480674799e-09 3.10671807684253e-09 5.69885520122572e-08 1.64905092043575e-08 5.26641513727469e-09 2.07003747658959e-09
"2018" 43997 8.80600731546629e-08 3.69843482467898e-09 2.58603035514149e-09 3.1073299800997e-09 5.69610970027034e-08 1.64736247938812e-08 5.27739790644012e-09 2.07536037954626e-09
"2019" 43998 8.76177283152462e-08 3.69471665677796e-09 2.584785903535e-09 3.10794188335687e-09 5.69336419931496e-08 1.6456740383405e-08 5.28838067560556e-09 2.08068328250293e-09
"2020" 43999 8.71753834758295e-08 3.69099848887694e-09 2.58354145192851e-09 3.10855378661404e-09 5.69061869835958e-08 1.64398559729287e-08 5.299363444771e-09 2.0860061854596e-09
"2021" 44000 8.67330386364127e-08 3.68728032097592e-09 2.58229700032202e-09 3.10916568987121e-09 5.6878731974042e-08 1.64229715624525e-08 5.31034621393644e-09 2.09132908841627e-09
"2022" 44001 8.6290693796996e-08 3.6835621530749e-09 2.58105254871552e-09 3.10977759312838e-09 5.68512769644882e-08 1.64060871519762e-08 5.32132898310187e-09 2.09665199137294e-09
"2023" 44002 8.58483489575793e-08 3.67984398517387e-09 2.57980809710903e-09 3.11038949638555e-09 5.68238219549344e-08 1.63892027415e-08 5.33231175226731e-09 2.10197489432961e-09
"2024" 44003 8.54060041181625e-08 3.67612581727285e-09 2.57856364550254e-09 3.11100139964272e-09 5.67963669453806e-08 1.63723183310237e-08 5.34329452143275e-09 2.10729779728628e-09
"2025" 44004 8.57487716041617e-08 3.66409579451847e-09 2.57855392075644e-09 3.09030091402521e-09 5.63798747516686e-08 1.63458802372099e-08 5.2837098984476e-09 2.12995672360954e-09
"2026" 44005 8.57487716041617e-08 3.66805584548541e-09 2.57631682528858e-09 3.09084581969977e-09 5.64744979027623e-08 1.63770308742068e-08 5.28731767128681e-09 2.13110039293778e-09
"2027" 44006 8.57487716041617e-08 3.67201589645236e-09 2.57407972982073e-09 3.09139072537433e-09 5.65691210538559e-08 1.64081815112036e-08 5.29092544412602e-09 2.13224406226602e-09
"2028" 44007 8.57487716041617e-08 3.67597594741931e-09 2.57184263435287e-09 3.09193563104889e-09 5.66637442049496e-08 1.64393321482005e-08 5.29453321696522e-09 2.13338773159426e-09
"2029" 44008 8.57487716041617e-08 3.67993599838625e-09 2.56960553888501e-09 3.09248053672345e-09 5.67583673560432e-08 1.64704827851973e-08 5.29814098980443e-09 2.13453140092251e-09
"2030" 44009 8.57487716041617e-08 3.6838960493532e-09 2.56736844341716e-09 3.09302544239801e-09 5.68529905071369e-08 1.65016334221942e-08 5.30174876264364e-09 2.13567507025075e-09
"2031" 44010 8.57487716041617e-08 3.68785610032015e-09 2.5651313479493e-09 3.09357034807258e-09 5.69476136582305e-08 1.65327840591911e-08 5.30535653548285e-09 2.13681873957899e-09
"2032" 44011 8.57487716041617e-08 3.69181615128709e-09 2.56289425248144e-09 3.09411525374714e-09 5.70422368093241e-08 1.65639346961879e-08 5.30896430832206e-09 2.13796240890723e-09
"2033" 44012 8.57487716041617e-08 3.69577620225404e-09 2.56065715701359e-09 3.0946601594217e-09 5.71368599604178e-08 1.65950853331848e-08 5.31257208116126e-09 2.13910607823548e-09
"2034" 44013 8.57487716041617e-08 3.69973625322099e-09 2.55842006154573e-09 3.09520506509626e-09 5.72314831115114e-08 1.66262359701816e-08 5.31617985400047e-09 2.14024974756372e-09
"2035" 44014 8.57487716041617e-08 3.70369630418793e-09 2.55618296607788e-09 3.09574997077082e-09 5.73261062626051e-08 1.66573866071785e-08 5.31978762683968e-09 2.14139341689196e-09
"2036" 44015 8.57487716041617e-08 3.70765635515488e-09 2.55394587061002e-09 3.09629487644538e-09 5.74207294136987e-08 1.66885372441754e-08 5.32339539967889e-09 2.14253708622021e-09
"2037" 44016 8.57487716041617e-08 3.71161640612183e-09 2.55170877514216e-09 3.09683978211994e-09 5.75153525647924e-08 1.67196878811722e-08 5.32700317251810e-09 2.14368075554845e-09
"2038" 44017 8.57487716041617e-08 3.71557645708877e-09 2.54947167967431e-09 3.0973846877945e-09 5.7609975715886e-08 1.67508385181691e-08 5.3306109453573e-09 2.14482442487669e-09
"2039" 44018 8.57487716041617e-08 3.71953650805572e-09 2.54723458420645e-09 3.09792959346907e-09 5.77045988669796e-08 1.6781989155166e-08 5.33421871819651e-09 2.14596809420493e-09
"2040" 44019 8.57487716041617e-08 3.72349655902267e-09 2.54499748873859e-09 3.09847449914363e-09 5.77992220180733e-08 1.68131397921628e-08 5.33782649103572e-09 2.14711176353318e-09
"2041" 44020 8.57487716041617e-08 3.72745660998961e-09 2.54276039327074e-09 3.09901940481819e-09 5.78938451691669e-08 1.68442904291597e-08 5.34143426387493e-09 2.14825543286142e-09
"2042" 44021 8.57487716041617e-08 3.73141666095656e-09 2.54052329780288e-09 3.09956431049275e-09 5.79884683202606e-08 1.68754410661565e-08 5.34504203671414e-09 2.14939910218966e-09
"2043" 44022 8.57487716041617e-08 3.7353767119235e-09 2.53828620233502e-09 3.10010921616731e-09 5.80830914713542e-08 1.69065917031534e-08 5.34864980955334e-09 2.15054277151791e-09
"2044" 44023 8.57487716041617e-08 3.73933676289045e-09 2.53604910686717e-09 3.10065412184187e-09 5.81777146224479e-08 1.69377423401503e-08 5.35225758239255e-09 2.15168644084615e-09
"2045" 44024 8.57411767414028e-08 3.73933676289045e-09 2.53405895677139e-09 3.1000422185847e-09 5.80392760439962e-08 1.69481000944457e-08 5.38186386812934e-09 2.15117046949016e-09
"2046" 44025 8.58311548467288e-08 3.74102994435193e-09 2.52730390901037e-09 3.10457714919692e-09 5.81052513966432e-08 1.7005422194471e-08 5.37505097572314e-09 2.15117046949016e-09
"2047" 44026 8.59211329520547e-08 3.74272312581342e-09 2.52054886124935e-09 3.10911207980914e-09 5.81712267492902e-08 1.70627442944963e-08 5.36823808331694e-09 2.15117046949016e-09
"2048" 44027 8.60111110573807e-08 3.7444163072749e-09 2.51379381348833e-09 3.11364701042135e-09 5.82372021019372e-08 1.71200663945217e-08 5.36142519091074e-09 2.15117046949016e-09
"2049" 44028 8.61010891627066e-08 3.74610948873638e-09 2.50703876572731e-09 3.11818194103357e-09 5.83031774545842e-08 1.7177388494547e-08 5.35461229850454e-09 2.15117046949016e-09
"2050" 44029 8.61910672680326e-08 3.74780267019787e-09 2.50028371796629e-09 3.12271687164579e-09 5.83691528072312e-08 1.72347105945723e-08 5.34779940609834e-09 2.15117046949016e-09
"2051" 44030 8.62810453733586e-08 3.74949585165935e-09 2.49352867020527e-09 3.127251802258e-09 5.84351281598782e-08 1.72920326945977e-08 5.34098651369214e-09 2.15117046949016e-09
"2052" 44031 8.63710234786845e-08 3.75118903312083e-09 2.48677362244425e-09 3.13178673287022e-09 5.85011035125252e-08 1.7349354794623e-08 5.33417362128594e-09 2.15117046949016e-09
"2053" 44032 8.64610015840105e-08 3.75288221458232e-09 2.48001857468324e-09 3.13632166348244e-09 5.85670788651723e-08 1.74066768946483e-08 5.32736072887974e-09 2.15117046949016e-09
"2054" 44033 8.65509796893364e-08 3.7545753960438e-09 2.47326352692222e-09 3.14085659409466e-09 5.86330542178193e-08 1.74639989946737e-08 5.32054783647354e-09 2.15117046949016e-09
"2055" 44034 8.66409577946624e-08 3.75626857750528e-09 2.4665084791612e-09 3.14539152470687e-09 5.86990295704663e-08 1.7521321094699e-08 5.31373494406734e-09 2.15117046949016e-09
"2056" 44035 8.67309358999883e-08 3.75796175896676e-09 2.45975343140018e-09 3.14992645531909e-09 5.87650049231133e-08 1.75786431947243e-08 5.30692205166113e-09 2.15117046949016e-09
"2057" 44036 8.68209140053143e-08 3.75965494042825e-09 2.45299838363916e-09 3.15446138593131e-09 5.88309802757603e-08 1.76359652947497e-08 5.30010915925493e-09 2.15117046949016e-09
"2058" 44037 8.69108921106403e-08 3.76134812188973e-09 2.44624333587814e-09 3.15899631654352e-09 5.88969556284073e-08 1.7693287394775e-08 5.29329626684873e-09 2.15117046949016e-09
"2059" 44038 8.70928878228749e-08 3.76128817394831e-09 2.44747806273853e-09 3.1421057081411e-09 5.82288729928571e-08 1.75501410715347e-08 5.23911202889475e-09 2.12004995841317e-09
"2060" 44039 8.72448845847584e-08 3.74934807310605e-09 2.44747806273853e-09 3.14319551949022e-09 5.83491473410602e-08 1.76105717514292e-08 5.23755241874031e-09 2.10843247362358e-09
"2061" 44040 8.73968813466419e-08 3.73740797226379e-09 2.44747806273853e-09 3.14428533083934e-09 5.84694216892633e-08 1.76710024313238e-08 5.23599280858587e-09 2.09681498883399e-09
"2062" 44041 8.75488781085254e-08 3.72546787142154e-09 2.44747806273853e-09 3.14537514218846e-09 5.85896960374664e-08 1.77314331112183e-08 5.23443319843142e-09 2.0851975040444e-09
"2063" 44042 8.77008748704088e-08 3.71352777057928e-09 2.44747806273853e-09 3.14646495353759e-09 5.87099703856695e-08 1.77918637911128e-08 5.23287358827698e-09 2.07358001925481e-09
"2064" 44043 8.78528716322923e-08 3.70158766973702e-09 2.44747806273853e-09 3.14755476488671e-09 5.88302447338726e-08 1.78522944710073e-08 5.23131397812254e-09 2.06196253446522e-09
"2065" 44044 8.80048683941758e-08 3.68964756889476e-09 2.44747806273853e-09 3.14864457623583e-09 5.89505190820757e-08 1.79127251509018e-08 5.2297543679681e-09 2.05034504967563e-09
"2066" 44045 8.81568651560593e-08 3.6777074680525e-09 2.44747806273853e-09 3.14973438758495e-09 5.90707934302788e-08 1.79731558307963e-08 5.22819475781366e-09 2.03872756488604e-09
"2067" 44046 8.83088619179427e-08 3.66576736721025e-09 2.44747806273853e-09 3.15082419893408e-09 5.91910677784819e-08 1.80335865106908e-08 5.22663514765921e-09 2.02711008009646e-09
"2068" 44047 8.82506412705713e-08 3.6508497346501e-09 2.44747806273853e-09 3.1663525431501e-09 6.0359896956239e-08 1.83827398439855e-08 5.24742332793409e-09 2.01631811108928e-09
"2069" 44048 8.84992134943053e-08 3.65096963053294e-09 2.47020293499627e-09 3.18920734393376e-09 6.096357534545e-08 1.84221068317914e-08 5.24459025987866e-09 2.00903463214134e-09
"2070" 44049 8.86885617223882e-08 3.6360819719435e-09 2.47196558921217e-09 3.18587537481063e-09 6.18151837052927e-08 1.84977196917284e-08 5.24707382487782e-09 1.99824266313417e-09
"2071" 44050 8.8877909950471e-08 3.62119431335407e-09 2.47372824342807e-09 3.1825434056875e-09 6.26667920651355e-08 1.85733325516655e-08 5.24955738987697e-09 1.987450694127e-09
"2072" 44051 8.90672581785539e-08 3.60630665476463e-09 2.47549089764397e-09 3.17921143656437e-09 6.35184004249783e-08 1.86489454116026e-08 5.25204095487612e-09 1.97665872511983e-09
"2073" 44052 8.92566064066368e-08 3.59141899617519e-09 2.47725355185987e-09 3.17587946744123e-09 6.43700087848211e-08 1.87245582715396e-08 5.25452451987527e-09 1.96586675611266e-09
"2074" 44053 8.94459546347197e-08 3.57653133758576e-09 2.47901620607577e-09 3.1725474983181e-09 6.52216171446639e-08 1.88001711314767e-08 5.25700808487442e-09 1.95507478710549e-09
"2075" 44054 8.96353028628026e-08 3.56164367899632e-09 2.48077886029167e-09 3.16921552919497e-09 6.60732255045067e-08 1.88757839914137e-08 5.25949164987357e-09 1.94428281809832e-09
"2076" 44055 8.98246510908855e-08 3.54675602040689e-09 2.48254151450757e-09 3.16588356007184e-09 6.69248338643495e-08 1.89513968513508e-08 5.26197521487272e-09 1.93349084909115e-09
"2077" 44056 9.00139993189683e-08 3.53186836181745e-09 2.48430416872347e-09 3.16255159094871e-09 6.77764422241923e-08 1.90270097112879e-08 5.26445877987187e-09 1.92269888008398e-09
"2078" 44057 9.02033475470512e-08 3.51698070322801e-09 2.48606682293937e-09 3.15921962182558e-09 6.86280505840351e-08 1.91026225712249e-08 5.26694234487103e-09 1.91190691107681e-09
"2079" 44058 9.03926957751341e-08 3.50209304463858e-09 2.48782947715527e-09 3.15588765270245e-09 6.94796589438779e-08 1.9178235431162e-08 5.26942590987018e-09 1.90111494206964e-09
"2080" 44059 9.0582044003217e-08 3.48720538604914e-09 2.48959213137117e-09 3.15255568357931e-09 7.03312673037207e-08 1.92538482910991e-08 5.27190947486933e-09 1.89032297306247e-09
"2081" 44060 9.08856371249585e-08 3.47526528520688e-09 2.49133533609487e-09 3.15255568357931e-09 7.03934950903033e-08 1.92610974655253e-08 5.28377324925042e-09 1.87870548827288e-09
"2082" 44061 9.10017084474939e-08 3.47251464956957e-09 2.48333583672736e-09 3.14065260634896e-09 7.06549775822615e-08 1.91997205022572e-08 5.31191602467776e-09 1.88153462564352e-09
"2083" 44062 9.11723417176018e-08 3.47878653099804e-09 2.48034818039716e-09 3.14065260634896e-09 7.08656287623766e-08 1.9118458252606e-08 5.34216011300581e-09 1.88738210907556e-09
"2084" 44063 9.13429749877096e-08 3.48505841242652e-09 2.47736052406697e-09 3.14065260634896e-09 7.10762799424918e-08 1.90371960029547e-08 5.37240420133385e-09 1.8932295925076e-09
"2085" 44064 9.15136082578174e-08 3.49133029385499e-09 2.47437286773678e-09 3.14065260634896e-09 7.12869311226069e-08 1.89559337533034e-08 5.4026482896619e-09 1.89907707593965e-09
"2086" 44065 9.16842415279252e-08 3.49760217528346e-09 2.47138521140659e-09 3.14065260634896e-09 7.1497582302722e-08 1.88746715036522e-08 5.43289237798995e-09 1.90492455937169e-09
"2087" 44066 9.1854874798033e-08 3.50387405671194e-09 2.4683975550764e-09 3.14065260634896e-09 7.17082334828372e-08 1.87934092540009e-08 5.46313646631799e-09 1.91077204280373e-09
"2088" 44067 9.20255080681409e-08 3.51014593814041e-09 2.4654098987462e-09 3.14065260634896e-09 7.19188846629523e-08 1.87121470043496e-08 5.49338055464604e-09 1.91661952623578e-09
"2089" 44068 9.21961413382487e-08 3.51641781956889e-09 2.46242224241601e-09 3.14065260634896e-09 7.21295358430674e-08 1.86308847546984e-08 5.52362464297408e-09 1.92246700966782e-09
"2090" 44069 9.23667746083565e-08 3.52268970099736e-09 2.45943458608582e-09 3.14065260634896e-09 7.23401870231826e-08 1.85496225050471e-08 5.55386873130213e-09 1.92831449309986e-09
"2091" 44070 9.25374078784643e-08 3.52896158242583e-09 2.45644692975563e-09 3.14065260634896e-09 7.25508382032977e-08 1.84683602553958e-08 5.58411281963017e-09 1.93416197653191e-09
"2092" 44071 9.27080411485722e-08 3.53523346385431e-09 2.45345927342544e-09 3.14065260634896e-09 7.27614893834129e-08 1.83870980057446e-08 5.61435690795822e-09 1.94000945996395e-09
"2093" 44072 9.287867441868e-08 3.54150534528278e-09 2.45047161709524e-09 3.14065260634896e-09 7.2972140563528e-08 1.83058357560933e-08 5.64460099628626e-09 1.94585694339600e-09
"2094" 44073 9.30493076887878e-08 3.54777722671126e-09 2.44748396076505e-09 3.14065260634896e-09 7.31827917436431e-08 1.8224573506442e-08 5.67484508461431e-09 1.95170442682804e-09
"2095" 44074 9.32199409588956e-08 3.55404910813973e-09 2.44449630443486e-09 3.14065260634896e-09 7.33934429237583e-08 1.81433112567908e-08 5.70508917294235e-09 1.95755191026008e-09
"2096" 44075 9.33905742290035e-08 3.5603209895682e-09 2.44150864810467e-09 3.14065260634896e-09 7.36040941038734e-08 1.80620490071395e-08 5.7353332612704e-09 1.96339939369213e-09
"2097" 44076 9.35612074991113e-08 3.56659287099668e-09 2.43852099177448e-09 3.14065260634896e-09 7.38147452839885e-08 1.79807867574882e-08 5.76557734959844e-09 1.96924687712417e-09
"2098" 44077 9.37318407692191e-08 3.57286475242515e-09 2.43553333544429e-09 3.14065260634896e-09 7.40253964641036e-08 1.7899524507837e-08 5.79582143792649e-09 1.97509436055621e-09
"2099" 44078 9.39024740393269e-08 3.57913663385363e-09 2.43254567911409e-09 3.14065260634896e-09 7.42360476442188e-08 1.78182622581857e-08 5.82606552625454e-09 1.98094184398826e-09
"2100" 44079 9.40731073094347e-08 3.5854085152821e-09 2.4295580227839e-09 3.14065260634896e-09 7.44466988243339e-08 1.77370000085344e-08 5.85630961458258e-09 1.9867893274203e-09
"2101" 44080 9.42437405795426e-08 3.59168039671057e-09 2.42657036645371e-09 3.14065260634896e-09 7.4657350004449e-08 1.76557377588831e-08 5.88655370291063e-09 1.99263681085234e-09
"2102" 44081 9.44361410303517e-08 3.59573036958965e-09 2.42531132772807e-09 3.1392694971373e-09 7.44384624802147e-08 1.7601524238727e-08 5.90084789207493e-09 2.00096084163165e-09
"2103" 44082 9.36948018824306e-08 3.59947851146138e-09 2.42731120256994e-09 3.11913922472645e-09 7.46475051305439e-08 1.7643724818413e-08 5.90273660411188e-09 2.02558895306556e-09
"2104" 44083 9.34818354569966e-08 3.59347848706954e-09 2.42806176343228e-09 3.10535874767407e-09 7.48520882610284e-08 1.76523667268305e-08 5.90882794195024e-09 2.04539291466001e-09
"2105" 44084 9.32688690315625e-08 3.5874784626777e-09 2.42881232429462e-09 3.09157827062169e-09 7.50566713915129e-08 1.76610086352479e-08 5.9149192797886e-09 2.06519687625446e-09
"2106" 44085 9.30559026061285e-08 3.58147843828586e-09 2.42956288515695e-09 3.07779779356931e-09 7.52612545219975e-08 1.76696505436654e-08 5.92101061762696e-09 2.08500083784891e-09
"2107" 44086 9.28429361806944e-08 3.57547841389403e-09 2.43031344601929e-09 3.06401731651693e-09 7.5465837652482e-08 1.76782924520828e-08 5.92710195546532e-09 2.10480479944336e-09
"2108" 44087 9.26299697552604e-08 3.56947838950219e-09 2.43106400688162e-09 3.05023683946456e-09 7.56704207829666e-08 1.76869343605003e-08 5.93319329330368e-09 2.12460876103781e-09
"2109" 44088 9.24170033298263e-08 3.56347836511035e-09 2.43181456774396e-09 3.03645636241218e-09 7.58750039134511e-08 1.76955762689177e-08 5.93928463114204e-09 2.14441272263226e-09
"2110" 44089 9.22040369043923e-08 3.55747834071851e-09 2.43256512860629e-09 3.0226758853598e-09 7.60795870439356e-08 1.77042181773351e-08 5.9453759689804e-09 2.16421668422671e-09
"2111" 44090 9.19910704789582e-08 3.55147831632667e-09 2.43331568946863e-09 3.00889540830742e-09 7.62841701744202e-08 1.77128600857526e-08 5.95146730681876e-09 2.18402064582116e-09
"2112" 44091 9.17781040535242e-08 3.54547829193483e-09 2.43406625033096e-09 2.99511493125504e-09 7.64887533049047e-08 1.772150199417e-08 5.95755864465712e-09 2.20382460741561e-09
"2113" 44092 9.15651376280901e-08 3.53947826754299e-09 2.4348168111933e-09 2.98133445420266e-09 7.66933364353893e-08 1.77301439025875e-08 5.96364998249548e-09 2.22362856901006e-09
"2114" 44093 9.13521712026561e-08 3.53347824315116e-09 2.43556737205563e-09 2.96755397715029e-09 7.68979195658738e-08 1.77387858110049e-08 5.96974132033384e-09 2.24343253060452e-09
"2115" 44094 9.1139204777222e-08 3.52747821875932e-09 2.43631793291797e-09 2.95377350009791e-09 7.71025026963583e-08 1.77474277194224e-08 5.9758326581722e-09 2.26323649219897e-09
"2116" 44095 9.0926238351788e-08 3.52147819436748e-09 2.43706849378031e-09 2.93999302304553e-09 7.73070858268429e-08 1.77560696278398e-08 5.98192399601056e-09 2.28304045379342e-09
"2117" 44096 9.00094458305656e-08 3.52552816724655e-09 2.41789324181961e-09 2.93852207122601e-09 7.76809138759776e-08 1.77408874477972e-08 5.97254378662861e-09 2.29967990623263e-09
"2118" 44097 8.90926533093432e-08 3.52957814012563e-09 2.39871798985892e-09 2.93705111940649e-09 7.80547419251124e-08 1.77257052677547e-08 5.96316357724667e-09 2.31631935867184e-09
"2119" 44098 8.81758607881208e-08 3.5336281130047e-09 2.37954273789822e-09 2.93558016758697e-09 7.84285699742472e-08 1.77105230877121e-08 5.95378336786473e-09 2.33295881111106e-09
"2120" 44099 8.72590682668984e-08 3.53767808588378e-09 2.36036748593753e-09 2.93410921576744e-09 7.88023980233819e-08 1.76953409076696e-08 5.94440315848279e-09 2.34959826355027e-09
"2121" 44100 8.6342275745676e-08 3.54172805876285e-09 2.34119223397684e-09 2.93263826394792e-09 7.91762260725167e-08 1.7680158727627e-08 5.93502294910085e-09 2.36623771598949e-09
"2122" 44101 8.54254832244536e-08 3.54577803164193e-09 2.32201698201614e-09 2.9311673121284e-09 7.95500541216514e-08 1.76649765475845e-08 5.92564273971891e-09 2.3828771684287e-09
"2123" 44102 8.45086907032312e-08 3.549828004521e-09 2.30284173005545e-09 2.92969636030888e-09 7.99238821707862e-08 1.76497943675419e-08 5.91626253033697e-09 2.39951662086791e-09
"2124" 44103 8.35918981820088e-08 3.55387797740008e-09 2.28366647809475e-09 2.92822540848936e-09 8.0297710219921e-08 1.76346121874993e-08 5.90688232095503e-09 2.41615607330713e-09
"2125" 44104 8.36386919967983e-08 3.55605492499341e-09 2.29186916147689e-09 2.93155737761249e-09 8.03463040604219e-08 1.77269160226361e-08 5.90666972009128e-09 2.4209716140272e-09
"2126" 44105 8.38909077054222e-08 3.55304741930481e-09 2.28812121953827e-09 2.93597915808474e-09 8.19479996850659e-08 1.77894107319064e-08 5.92253371999691e-09 2.42578715474728e-09
"2127" 44106 8.41431234140461e-08 3.55003991361622e-09 2.28437327759964e-09 2.940400938557e-09 8.35496953097099e-08 1.78519054411767e-08 5.93839771990254e-09 2.43060269546735e-09
"2128" 44107 8.439533912267e-08 3.54703240792762e-09 2.28062533566101e-09 2.94482271902925e-09 8.51513909343539e-08 1.79144001504469e-08 5.95426171980817e-09 2.43541823618743e-09
"2129" 44108 8.46475548312939e-08 3.54402490223902e-09 2.27687739372238e-09 2.94924449950151e-09 8.67530865589979e-08 1.79768948597172e-08 5.9701257197138e-09 2.4402337769075e-09
"2130" 44109 8.48997705399178e-08 3.54101739655043e-09 2.27312945178376e-09 2.95366627997376e-09 8.83547821836419e-08 1.80393895689875e-08 5.98598971961944e-09 2.44504931762758e-09
"2131" 44110 8.51519862485417e-08 3.53800989086183e-09 2.26938150984513e-09 2.95808806044601e-09 8.99564778082859e-08 1.81018842782578e-08 6.00185371952507e-09 2.44986485834765e-09
"2132" 44111 8.54042019571656e-08 3.53500238517324e-09 2.2656335679065e-09 2.96250984091827e-09 9.15581734329299e-08 1.8164378987528e-08 6.0177177194307e-09 2.45468039906773e-09
"2133" 44112 8.56564176657895e-08 3.53199487948464e-09 2.26188562596788e-09 2.96693162139052e-09 9.31598690575739e-08 1.82268736967983e-08 6.03358171933633e-09 2.4594959397878e-09
"2134" 44113 8.59086333744134e-08 3.52898737379604e-09 2.25813768402925e-09 2.97135340186278e-09 9.47615646822179e-08 1.82893684060686e-08 6.04944571924196e-09 2.46431148050788e-09
"2135" 44114 8.61608490830373e-08 3.52597986810745e-09 2.25438974209062e-09 2.97577518233503e-09 9.63632603068619e-08 1.83518631153389e-08 6.06530971914759e-09 2.46912702122795e-09
"2136" 44115 8.64130647916612e-08 3.52297236241885e-09 2.25064180015199e-09 2.98019696280728e-09 9.79649559315058e-08 1.84143578246092e-08 6.08117371905323e-09 2.47394256194803e-09
"2137" 44116 8.66652805002851e-08 3.51996485673025e-09 2.24689385821337e-09 2.98461874327954e-09 9.95666515561499e-08 1.84768525338794e-08 6.09703771895886e-09 2.4787581026681e-09
"2138" 44117 8.6917496208909e-08 3.51695735104166e-09 2.24314591627474e-09 2.98904052375179e-09 1.01168347180794e-07 1.85393472431497e-08 6.11290171886449e-09 2.48357364338818e-09
"2139" 44118 8.69240443898876e-08 3.51920923356176e-09 2.23939311196306e-09 2.99237249287492e-09 1.01196034896484e-07 1.85224325028218e-08 6.11290171886449e-09 2.48942112682022e-09
"2140" 44119 8.7092291618365e-08 3.5243936868437e-09 2.24908719232377e-09 3.04190389166889e-09 1.01183272350832e-07 1.85262249138811e-08 6.11290171886449e-09 2.50435789297826e-09
"2141" 44120 8.72849086726986e-08 3.5243936868437e-09 2.26403519872083e-09 3.0958570709351e-09 1.01121044564249e-07 1.85212760697643e-08 6.10430641485321e-09 2.5194666495883e-09
"2142" 44121 8.74775257270322e-08 3.5243936868437e-09 2.27898320511789e-09 3.14981025020132e-09 1.01058816777667e-07 1.85163272256476e-08 6.09571111084193e-09 2.53457540619834e-09
"2143" 44122 8.76701427813658e-08 3.5243936868437e-09 2.29393121151495e-09 3.20376342946754e-09 1.00996588991084e-07 1.85113783815308e-08 6.08711580683065e-09 2.54968416280838e-09
"2144" 44123 8.78627598356994e-08 3.5243936868437e-09 2.30887921791201e-09 3.25771660873376e-09 1.00934361204502e-07 1.85064295374141e-08 6.07852050281938e-09 2.56479291941842e-09
"2145" 44124 8.80553768900331e-08 3.5243936868437e-09 2.32382722430907e-09 3.31166978799997e-09 1.00872133417919e-07 1.85014806932973e-08 6.0699251988081e-09 2.57990167602846e-09
"2146" 44125 8.82479939443667e-08 3.5243936868437e-09 2.33877523070613e-09 3.36562296726619e-09 1.00809905631336e-07 1.84965318491805e-08 6.06132989479682e-09 2.59501043263849e-09
"2147" 44126 8.84406109987003e-08 3.5243936868437e-09 2.35372323710319e-09 3.41957614653241e-09 1.00747677844754e-07 1.84915830050638e-08 6.05273459078554e-09 2.61011918924853e-09
"2148" 44127 8.86332280530339e-08 3.5243936868437e-09 2.36867124350025e-09 3.47352932579863e-09 1.00685450058171e-07 1.8486634160947e-08 6.04413928677427e-09 2.62522794585857e-09
"2149" 44128 8.88258451073676e-08 3.5243936868437e-09 2.38361924989731e-09 3.52748250506485e-09 1.00623222271588e-07 1.84816853168303e-08 6.03554398276299e-09 2.64033670246861e-09
"2150" 44129 8.90184621617012e-08 3.5243936868437e-09 2.39856725629437e-09 3.58143568433106e-09 1.00560994485006e-07 1.84767364727135e-08 6.02694867875171e-09 2.65544545907865e-09
"2151" 44130 8.92110792160348e-08 3.5243936868437e-09 2.41351526269143e-09 3.63538886359728e-09 1.00498766698423e-07 1.84717876285967e-08 6.01835337474043e-09 2.67055421568869e-09
"2152" 44131 8.94036962703684e-08 3.5243936868437e-09 2.42846326908849e-09 3.6893420428635e-09 1.00436538911841e-07 1.846683878448e-08 6.00975807072915e-09 2.68566297229872e-09
"2153" 44132 8.9596313324702e-08 3.5243936868437e-09 2.44341127548555e-09 3.74329522212971e-09 1.00374311125258e-07 1.84618899403632e-08 6.00116276671788e-09 2.70077172890876e-09
"2154" 44133 8.97889303790356e-08 3.5243936868437e-09 2.45835928188261e-09 3.79724840139593e-09 1.00312083338675e-07 1.84569410962465e-08 5.9925674627066e-09 2.7158804855188e-09
"2155" 44134 8.99815474333693e-08 3.5243936868437e-09 2.47330728827967e-09 3.85120158066215e-09 1.00249855552093e-07 1.84519922521297e-08 5.98397215869532e-09 2.73098924212884e-09
"2156" 44135 9.01741644877029e-08 3.5243936868437e-09 2.48825529467673e-09 3.90515475992837e-09 1.0018762776551e-07 1.8447043408013e-08 5.97537685468404e-09 2.74609799873888e-09
"2157" 44136 9.03667815420365e-08 3.5243936868437e-09 2.50320330107379e-09 3.95910793919458e-09 1.00125399978928e-07 1.84420945638962e-08 5.96678155067277e-09 2.76120675534892e-09
"2158" 44137 9.05593985963701e-08 3.5243936868437e-09 2.51815130747084e-09 4.0130611184608e-09 1.00063172192345e-07 1.84371457197794e-08 5.95818624666149e-09 2.77631551195895e-09
"2159" 44138 9.07520156507038e-08 3.5243936868437e-09 2.5330993138679e-09 4.06701429772702e-09 1.00000944405762e-07 1.84321968756627e-08 5.94959094265021e-09 2.79142426856899e-09
"2160" 44139 9.09565337029635e-08 3.51842363642257e-09 2.54281770609387e-09 4.10981476069211e-09 9.98017466293384e-08 1.84209106320398e-08 5.94764908039732e-09 2.78572294823078e-09
"2161" 44140 9.09004216340617e-08 3.51766801325408e-09 2.54280311897472e-09 4.10843165148045e-09 9.97945964737804e-08 1.840978331524e-08 5.92826105962907e-09 2.78572294823078e-09
"2162" 44141 9.084430956516e-08 3.52067551894268e-09 2.54155380499517e-09 4.10843165148045e-09 1.00167249652027e-07 1.85225830724412e-08 5.916959389168e-09 2.7933590172021e-09
"2163" 44142 9.07881974962582e-08 3.52368302463127e-09 2.54030449101563e-09 4.10843165148045e-09 1.00539902830274e-07 1.86353828296425e-08 5.90565771870694e-09 2.80099508617342e-09
"2164" 44143 9.07320854273565e-08 3.52669053031987e-09 2.53905517703609e-09 4.10843165148045e-09 1.0091255600852e-07 1.87481825868437e-08 5.89435604824588e-09 2.80863115514474e-09
"2165" 44144 9.06759733584547e-08 3.52969803600847e-09 2.53780586305655e-09 4.10843165148045e-09 1.01285209186767e-07 1.8860982344045e-08 5.88305437778481e-09 2.81626722411607e-09
"2166" 44145 9.0619861289553e-08 3.53270554169706e-09 2.536556549077e-09 4.10843165148045e-09 1.01657862365013e-07 1.89737821012462e-08 5.87175270732375e-09 2.82390329308739e-09
"2167" 44146 9.05637492206512e-08 3.53571304738566e-09 2.53530723509746e-09 4.10843165148045e-09 1.0203051554326e-07 1.90865818584474e-08 5.86045103686269e-09 2.83153936205871e-09
"2168" 44147 9.05076371517495e-08 3.53872055307426e-09 2.53405792111792e-09 4.10843165148045e-09 1.02403168721506e-07 1.91993816156487e-08 5.84914936640162e-09 2.83917543103003e-09
"2169" 44148 9.04515250828478e-08 3.54172805876285e-09 2.53280860713838e-09 4.10843165148045e-09 1.02775821899753e-07 1.93121813728499e-08 5.83784769594056e-09 2.84681150000135e-09
"2170" 44149 9.0395413013946e-08 3.54473556445145e-09 2.53155929315883e-09 4.10843165148045e-09 1.03148475077999e-07 1.94249811300512e-08 5.82654602547949e-09 2.85444756897268e-09
"2171" 44150 9.03393009450443e-08 3.54774307014005e-09 2.53030997917929e-09 4.10843165148045e-09 1.03521128256246e-07 1.95377808872524e-08 5.81524435501843e-09 2.862083637944e-09
"2172" 44151 9.02831888761425e-08 3.55075057582864e-09 2.52906066519975e-09 4.10843165148045e-09 1.03893781434493e-07 1.96505806444536e-08 5.80394268455737e-09 2.86971970691532e-09
"2173" 44152 9.02270768072408e-08 3.55375808151724e-09 2.52781135122021e-09 4.10843165148045e-09 1.04266434612739e-07 1.97633804016549e-08 5.7926410140963e-09 2.87735577588664e-09
"2174" 44153 9.02325186024161e-08 3.55752121037432e-09 2.52656203724066e-09 4.09791168346175e-09 1.04358447645178e-07 1.98044329054871e-08 5.78603052196697e-09 2.88383095729095e-09
"2175" 44154 9.02093933161369e-08 3.55931930073329e-09 2.52656203724066e-09 4.10045160160514e-09 1.04659215280328e-07 1.99314685593573e-08 5.79516752872451e-09 2.89030613869525e-09
"2176" 44155 9.01862680298577e-08 3.56111739109225e-09 2.52656203724066e-09 4.10299151974853e-09 1.04959982915477e-07 2.00585042132275e-08 5.80430453548205e-09 2.89678132009955e-09
"2177" 44156 9.01631427435785e-08 3.56291548145122e-09 2.52656203724066e-09 4.10553143789192e-09 1.05260750550626e-07 2.01855398670977e-08 5.81344154223959e-09 2.90325650150385e-09
"2178" 44157 9.01400174572993e-08 3.56471357181019e-09 2.52656203724066e-09 4.10807135603531e-09 1.05561518185776e-07 2.0312575520968e-08 5.82257854899713e-09 2.90973168290815e-09
"2179" 44158 9.011689217102e-08 3.56651166216915e-09 2.52656203724066e-09 4.1106112741787e-09 1.05862285820925e-07 2.04396111748382e-08 5.83171555575466e-09 2.91620686431246e-09
"2180" 44159 9.00937668847408e-08 3.56830975252812e-09 2.52656203724066e-09 4.11315119232209e-09 1.06163053456074e-07 2.05666468287084e-08 5.8408525625122e-09 2.92268204571676e-09
"2181" 44160 9.00706415984616e-08 3.57010784288708e-09 2.52656203724066e-09 4.11569111046548e-09 1.06463821091223e-07 2.06936824825786e-08 5.84998956926974e-09 2.92915722712106e-09
"2182" 44161 9.00475163121824e-08 3.57190593324605e-09 2.52656203724066e-09 4.11823102860887e-09 1.06764588726373e-07 2.08207181364488e-08 5.85912657602728e-09 2.93563240852536e-09
"2183" 44162 9.08211421009935e-08 3.57193590721676e-09 2.52282868242119e-09 4.13536878231648e-09 1.06909599777675e-07 2.08230184667583e-08 5.85896712537947e-09 2.93460046581339e-09
"2184" 44163 9.15947678898045e-08 3.57196588118747e-09 2.51909532760171e-09 4.15250653602409e-09 1.07054610828977e-07 2.08253187970678e-08 5.85880767473166e-09 2.93356852310143e-09
"2185" 44164 9.23683936786156e-08 3.57199585515818e-09 2.51536197278223e-09 4.16964428973170e-09 1.07199621880279e-07 2.08276191273773e-08 5.85864822408384e-09 2.93253658038946e-09
"2186" 44165 9.31420194674267e-08 3.57202582912889e-09 2.51162861796275e-09 4.1867820434393e-09 1.07344632931582e-07 2.08299194576867e-08 5.85848877343603e-09 2.93150463767749e-09
"2187" 44166 9.39156452562377e-08 3.5720558030996e-09 2.50789526314328e-09 4.20391979714691e-09 1.07489643982884e-07 2.08322197879962e-08 5.85832932278822e-09 2.93047269496552e-09
"2188" 44167 9.46892710450488e-08 3.57208577707031e-09 2.5041619083238e-09 4.22105755085452e-09 1.07634655034186e-07 2.08345201183057e-08 5.8581698721404e-09 2.92944075225355e-09
"2189" 44168 9.54628968338599e-08 3.57211575104102e-09 2.50042855350432e-09 4.23819530456213e-09 1.07779666085488e-07 2.08368204486152e-08 5.85801042149259e-09 2.92840880954158e-09
"2190" 44169 9.62365226226709e-08 3.57214572501173e-09 2.49669519868484e-09 4.25533305826974e-09 1.07924677136791e-07 2.08391207789246e-08 5.85785097084478e-09 2.92737686682961e-09
"2191" 44170 9.7010148411482e-08 3.57217569898243e-09 2.49296184386537e-09 4.27247081197735e-09 1.08069688188093e-07 2.08414211092341e-08 5.85769152019696e-09 2.92634492411765e-09
"2192" 44171 9.7783774200293e-08 3.57220567295314e-09 2.48922848904589e-09 4.28960856568496e-09 1.08214699239395e-07 2.08437214395436e-08 5.85753206954915e-09 2.92531298140568e-09
"2193" 44172 9.85573999891041e-08 3.57223564692385e-09 2.48549513422641e-09 4.30674631939257e-09 1.08359710290697e-07 2.08460217698531e-08 5.85737261890134e-09 2.92428103869371e-09
"2194" 44173 9.93310257779152e-08 3.57226562089456e-09 2.48176177940694e-09 4.32388407310018e-09 1.08504721342e-07 2.08483221001626e-08 5.85721316825352e-09 2.92324909598174e-09
"2195" 44174 1.00104651566726e-07 3.57229559486527e-09 2.47802842458746e-09 4.34102182680779e-09 1.08649732393302e-07 2.0850622430472e-08 5.85705371760571e-09 2.92221715326977e-09
"2196" 44175 1.00957164639852e-07 3.57330808808504e-09 2.47802356221441e-09 4.35020037566534e-09 1.0850073948233e-07 2.08140932131482e-08 5.82362705816596e-09 2.92869233467407e-09
"2197" 44176 1.0110779276768e-07 3.57255246491655e-09 2.47703091835304e-09 4.35131103203972e-09 1.1006551354093e-07 2.10541785405976e-08 5.87933815723221e-09 2.92817636331809e-09
"2198" 44177 1.01146334911479e-07 3.5838118775171e-09 2.48003802417544e-09 4.35131103203972e-09 1.10002079130084e-07 2.10157787291745e-08 5.88028251325069e-09 2.92600936039727e-09
"2199" 44178 1.01184877055278e-07 3.59507129011764e-09 2.48304512999783e-09 4.35131103203972e-09 1.09938644719237e-07 2.09773789177514e-08 5.88122686926916e-09 2.92384235747644e-09
"2200" 44179 1.01223419199076e-07 3.60633070271818e-09 2.48605223582022e-09 4.35131103203972e-09 1.09875210308391e-07 2.09389791063283e-08 5.88217122528764e-09 2.92167535455562e-09
"2201" 44180 1.01261961342875e-07 3.61759011531873e-09 2.48905934164261e-09 4.35131103203972e-09 1.09811775897545e-07 2.09005792949052e-08 5.88311558130612e-09 2.9195083516348e-09
"2202" 44181 1.01300503486674e-07 3.62884952791927e-09 2.492066447465e-09 4.35131103203972e-09 1.09748341486699e-07 2.08621794834821e-08 5.88405993732459e-09 2.91734134871398e-09
"2203" 44182 1.01339045630473e-07 3.64010894051982e-09 2.49507355328739e-09 4.35131103203972e-09 1.09684907075853e-07 2.0823779672059e-08 5.88500429334307e-09 2.91517434579315e-09
"2204" 44183 1.01377587774271e-07 3.65136835312036e-09 2.49808065910979e-09 4.35131103203972e-09 1.09621472665007e-07 2.07853798606359e-08 5.88594864936154e-09 2.91300734287233e-09
"2205" 44184 1.0141612991807e-07 3.6626277657209e-09 2.50108776493218e-09 4.35131103203972e-09 1.09558038254161e-07 2.07469800492128e-08 5.88689300538002e-09 2.91084033995151e-09
"2206" 44185 1.01454672061869e-07 3.67388717832145e-09 2.50409487075457e-09 4.35131103203972e-09 1.09494603843315e-07 2.07085802377897e-08 5.8878373613985e-09 2.90867333703068e-09
"2207" 44186 1.01493214205667e-07 3.68514659092199e-09 2.50710197657696e-09 4.35131103203972e-09 1.09431169432468e-07 2.06701804263666e-08 5.88878171741697e-09 2.90650633410986e-09
"2208" 44187 1.01531756349466e-07 3.69640600352254e-09 2.51010908239935e-09 4.35131103203972e-09 1.09367735021622e-07 2.06317806149435e-08 5.88972607343545e-09 2.90433933118904e-09
"2209" 44188 1.01570298493265e-07 3.70766541612308e-09 2.51311618822175e-09 4.35131103203972e-09 1.09304300610776e-07 2.05933808035204e-08 5.89067042945393e-09 2.90217232826822e-09
"2210" 44189 1.01608840637063e-07 3.71892482872362e-09 2.51612329404414e-09 4.35131103203972e-09 1.0924086619993e-07 2.05549809920973e-08 5.8916147854724e-09 2.90000532534739e-09
"2211" 44190 1.01647382780862e-07 3.73018424132417e-09 2.51913039986653e-09 4.35131103203972e-09 1.09177431789084e-07 2.05165811806742e-08 5.89255914149088e-09 2.89783832242657e-09
"2212" 44191 1.01685924924661e-07 3.74144365392471e-09 2.52213750568892e-09 4.35131103203972e-09 1.09113997378238e-07 2.04781813692511e-08 5.89350349750935e-09 2.89567131950575e-09
"2213" 44192 1.01724467068459e-07 3.75270306652525e-09 2.52514461151131e-09 4.35131103203972e-09 1.09050562967392e-07 2.0439781557828e-08 5.89444785352783e-09 2.89350431658493e-09
"2214" 44193 1.01763009212258e-07 3.7639624791258e-09 2.5281517173337e-09 4.35131103203972e-09 1.08987128556546e-07 2.04013817464049e-08 5.89539220954631e-09 2.8913373136641e-09
"2215" 44194 1.01801551356057e-07 3.77522189172634e-09 2.5311588231561e-09 4.35131103203972e-09 1.08923694145699e-07 2.03629819349818e-08 5.89633656556478e-09 2.88917031074328e-09
"2216" 44195 1.01840093499855e-07 3.78648130432689e-09 2.53416592897849e-09 4.35131103203972e-09 1.08860259734853e-07 2.03245821235587e-08 5.89728092158326e-09 2.88700330782246e-09
"2217" 44196 1.01878635643654e-07 3.79774071692743e-09 2.53717303480088e-09 4.35131103203972e-09 1.08796825324007e-07 2.02861823121356e-08 5.89822527760173e-09 2.88483630490164e-09
"2218" 44197 1.00920683118569e-07 3.80774575324228e-09 2.54117278448464e-09 4.35203608543685e-09 1.08639215256336e-07 2.02105694521986e-08 5.87920930834505e-09 2.88083767084459e-09
"2219" 44198 1.00990528456319e-07 3.81001262274774e-09 2.535173159959e-09 4.36393916266721e-09 1.08374806927363e-07 2.01563946190977e-08 5.86702663266833e-09 2.88812975891192e-09
"2220" 44199 1.01032971646827e-07 3.81403262165611e-09 2.52991923392265e-09 4.40963983922084e-09 1.08222174638127e-07 2.01639794412162e-08 5.8567858192445e-09 2.88894666557495e-09
"2221" 44200 1.01075414837336e-07 3.81805262056447e-09 2.52466530788631e-09 4.45534051577446e-09 1.08069542348891e-07 2.01715642633348e-08 5.84654500582067e-09 2.88976357223798e-09
"2222" 44201 1.01117858027844e-07 3.82207261947284e-09 2.51941138184996e-09 4.50104119232809e-09 1.07916910059655e-07 2.01791490854533e-08 5.83630419239684e-09 2.89058047890102e-09
"2223" 44202 1.01160301218353e-07 3.8260926183812e-09 2.51415745581361e-09 4.54674186888171e-09 1.07764277770419e-07 2.01867339075718e-08 5.82606337897302e-09 2.89139738556405e-09
"2224" 44203 1.01202744408861e-07 3.83011261728957e-09 2.50890352977726e-09 4.59244254543534e-09 1.07611645481183e-07 2.01943187296903e-08 5.81582256554919e-09 2.89221429222708e-09
"2225" 44204 1.0124518759937e-07 3.83413261619793e-09 2.50364960374091e-09 4.63814322198896e-09 1.07459013191947e-07 2.02019035518088e-08 5.80558175212536e-09 2.89303119889011e-09
"2226" 44205 1.01287630789878e-07 3.8381526151063e-09 2.49839567770456e-09 4.68384389854259e-09 1.0730638090271e-07 2.02094883739274e-08 5.79534093870153e-09 2.89384810555314e-09
"2227" 44206 1.01330073980387e-07 3.84217261401466e-09 2.49314175166822e-09 4.72954457509621e-09 1.07153748613474e-07 2.02170731960459e-08 5.7851001252777e-09 2.89466501221617e-09
"2228" 44207 1.01372517170895e-07 3.84619261292303e-09 2.48788782563187e-09 4.77524525164984e-09 1.07001116324238e-07 2.02246580181644e-08 5.77485931185387e-09 2.8954819188792e-09
"2229" 44208 1.01414960361404e-07 3.8502126118314e-09 2.48263389959552e-09 4.82094592820346e-09 1.06848484035002e-07 2.02322428402829e-08 5.76461849843005e-09 2.89629882554223e-09
"2230" 44209 1.01457403551912e-07 3.85423261073976e-09 2.47737997355917e-09 4.86664660475709e-09 1.06695851745766e-07 2.02398276624014e-08 5.75437768500622e-09 2.89711573220526e-09
"2231" 44210 1.0149984674242e-07 3.85825260964813e-09 2.47212604752282e-09 4.91234728131071e-09 1.0654321945653e-07 2.024741248452e-08 5.74413687158239e-09 2.89793263886829e-09
"2232" 44211 1.01542289932929e-07 3.86227260855649e-09 2.46687212148648e-09 4.95804795786434e-09 1.06390587167294e-07 2.02549973066385e-08 5.73389605815856e-09 2.89874954553132e-09
"2233" 44212 1.01252894872516e-07 3.86407069891546e-09 2.46761295760271e-09 5.00374863441796e-09 1.06478576833952e-07 2.0312543171792e-08 5.72365524473473e-09 2.88546381093812e-09
"2234" 44213 1.00963499812103e-07 3.86586878927442e-09 2.46835379371895e-09 5.04944931097159e-09 1.06566566500609e-07 2.03700890369455e-08 5.7134144313109e-09 2.87217807634491e-09
"2235" 44214 1.00674104751691e-07 3.86766687963339e-09 2.46909462983518e-09 5.09514998752521e-09 1.06654556167267e-07 2.0427634902099e-08 5.70317361788707e-09 2.8588923417517e-09
"2236" 44215 1.00384709691278e-07 3.86946496999235e-09 2.46983546595142e-09 5.14085066407884e-09 1.06742545833924e-07 2.04851807672526e-08 5.69293280446325e-09 2.8456066071585e-09
"2237" 44216 1.00095314630865e-07 3.87126306035132e-09 2.47057630206765e-09 5.18655134063246e-09 1.06830535500582e-07 2.05427266324061e-08 5.68269199103942e-09 2.83232087256530e-09
"2238" 44217 9.98059195704522e-08 3.87306115071029e-09 2.47131713818389e-09 5.23225201718609e-09 1.0691852516724e-07 2.06002724975596e-08 5.67245117761559e-09 2.81903513797209e-09
"2239" 44218 9.84549167839845e-08 3.87306115071029e-09 2.46758864573746e-09 5.23708024566084e-09 1.07287620391977e-07 2.06037250823247e-08 5.53826618791314e-09 2.81952528196991e-09
"2240" 44219 9.76333088140113e-08 3.87233550151251e-09 2.4636083455459e-09 5.23635519226371e-09 1.07287620391977e-07 2.06071776670899e-08 5.45097419181504e-09 2.82169228489073e-09
"2241" 44220 9.68117008440381e-08 3.87160985231473e-09 2.45962804535435e-09 5.23563013886658e-09 1.07287620391977e-07 2.0610630251855e-08 5.36368219571693e-09 2.82385928781155e-09
"2242" 44221 9.59900928740648e-08 3.87088420311695e-09 2.45564774516279e-09 5.23490508546944e-09 1.07287620391977e-07 2.06140828366201e-08 5.27639019961883e-09 2.82602629073238e-09
"2243" 44222 9.51684849040916e-08 3.87015855391917e-09 2.45166744497124e-09 5.23418003207231e-09 1.07287620391977e-07 2.06175354213853e-08 5.18909820352072e-09 2.8281932936532e-09
"2244" 44223 9.43468769341183e-08 3.86943290472139e-09 2.44768714477968e-09 5.23345497867518e-09 1.07287620391977e-07 2.06209880061504e-08 5.10180620742262e-09 2.83036029657402e-09
"2245" 44224 9.35252689641451e-08 3.86870725552362e-09 2.44370684458813e-09 5.23272992527804e-09 1.07287620391977e-07 2.06244405909156e-08 5.01451421132451e-09 2.83252729949484e-09
"2246" 44225 9.27036609941718e-08 3.86798160632584e-09 2.43972654439657e-09 5.23200487188091e-09 1.07287620391977e-07 2.06278931756807e-08 4.92722221522641e-09 2.83469430241567e-09
"2247" 44226 9.18820530241986e-08 3.86725595712806e-09 2.43574624420501e-09 5.23127981848377e-09 1.07287620391977e-07 2.06313457604458e-08 4.8399302191283e-09 2.83686130533649e-09
"2248" 44227 9.10604450542253e-08 3.86653030793028e-09 2.43176594401346e-09 5.23055476508664e-09 1.07287620391977e-07 2.0634798345211e-08 4.75263822303019e-09 2.83902830825731e-09
"2249" 44228 9.02388370842521e-08 3.8658046587325e-09 2.4277856438219e-09 5.22982971168951e-09 1.07287620391977e-07 2.06382509299761e-08 4.66534622693209e-09 2.84119531117814e-09
"2250" 44229 8.94172291142788e-08 3.86507900953472e-09 2.42380534363035e-09 5.22910465829238e-09 1.07287620391977e-07 2.06417035147412e-08 4.57805423083398e-09 2.84336231409896e-09
"2251" 44230 8.85956211443056e-08 3.86435336033695e-09 2.41982504343879e-09 5.22837960489524e-09 1.07287620391977e-07 2.06451560995064e-08 4.49076223473588e-09 2.84552931701978e-09
"2252" 44231 8.77740131743323e-08 3.86362771113917e-09 2.41584474324723e-09 5.22765455149811e-09 1.07287620391977e-07 2.06486086842715e-08 4.40347023863777e-09 2.8476963199406e-09
"2253" 44232 8.69524052043591e-08 3.86290206194139e-09 2.41186444305568e-09 5.22692949810098e-09 1.07287620391977e-07 2.06520612690367e-08 4.31617824253967e-09 2.84986332286143e-09
"2254" 44233 8.66764659496337e-08 3.84263511926041e-09 2.40312410757193e-09 5.24005638184567e-09 1.07696528771234e-07 2.07906456187133e-08 4.29668392133954e-09 2.85350936689509e-09
"2255" 44234 8.66596663987634e-08 3.73508428976796e-09 2.4063976082586e-09 5.24661163245882e-09 1.07992117675186e-07 2.0869151650595e-08 4.3370093724436e-09 2.86898793176729e-09
"2256" 44235 8.66428668478932e-08 3.62753346027551e-09 2.40967110894527e-09 5.25316688307196e-09 1.08287706579139e-07 2.09476576824767e-08 4.37733482354766e-09 2.88446649663948e-09
"2257" 44236 8.66260672970229e-08 3.51998263078305e-09 2.41294460963194e-09 5.25972213368511e-09 1.08583295483092e-07 2.10261637143584e-08 4.41766027465172e-09 2.89994506151167e-09
"2258" 44237 8.66092677461526e-08 3.4124318012906e-09 2.41621811031861e-09 5.26627738429825e-09 1.08878884387045e-07 2.11046697462402e-08 4.45798572575578e-09 2.91542362638387e-09
"2259" 44238 8.65924681952823e-08 3.30488097179815e-09 2.41949161100528e-09 5.2728326349114e-09 1.09174473290997e-07 2.11831757781219e-08 4.49831117685984e-09 2.93090219125606e-09
"2260" 44239 8.6575668644412e-08 3.1973301423057e-09 2.42276511169195e-09 5.27938788552454e-09 1.0947006219495e-07 2.12616818100036e-08 4.5386366279639e-09 2.94638075612825e-09
"2261" 44240 8.65588690935418e-08 3.08977931281325e-09 2.42603861237862e-09 5.28594313613769e-09 1.09765651098903e-07 2.13401878418854e-08 4.57896207906796e-09 2.96185932100045e-09
"2262" 44241 8.65420695426715e-08 2.98222848332079e-09 2.42931211306529e-09 5.29249838675083e-09 1.10061240002856e-07 2.14186938737671e-08 4.61928753017202e-09 2.97733788587264e-09
"2263" 44242 8.65252699918012e-08 2.87467765382834e-09 2.43258561375196e-09 5.29905363736398e-09 1.10356828906808e-07 2.14971999056488e-08 4.65961298127609e-09 2.99281645074484e-09
"2264" 44243 8.65084704409309e-08 2.76712682433589e-09 2.43585911443863e-09 5.30560888797712e-09 1.10652417810761e-07 2.15757059375306e-08 4.69993843238015e-09 3.00829501561703e-09
"2265" 44244 8.64916708900607e-08 2.65957599484344e-09 2.4391326151253e-09 5.31216413859027e-09 1.10948006714714e-07 2.16542119694123e-08 4.74026388348421e-09 3.02377358048922e-09
"2266" 44245 8.64748713391904e-08 2.55202516535099e-09 2.44240611581197e-09 5.31871938920341e-09 1.11243595618667e-07 2.1732718001294e-08 4.78058933458827e-09 3.03925214536142e-09
"2267" 44246 8.64580717883201e-08 2.44447433585854e-09 2.44567961649864e-09 5.32527463981656e-09 1.11539184522619e-07 2.18112240331758e-08 4.82091478569233e-09 3.05473071023361e-09
"2268" 44247 8.64412722374498e-08 2.33692350636608e-09 2.44895311718531e-09 5.3318298904297e-09 1.11834773426572e-07 2.18897300650575e-08 4.86124023679639e-09 3.0702092751058e-09
"2269" 44248 8.64244726865795e-08 2.22937267687363e-09 2.45222661787198e-09 5.33838514104285e-09 1.12130362330525e-07 2.19682360969392e-08 4.90156568790045e-09 3.085687839978e-09
"2270" 44249 8.64076731357093e-08 2.12182184738118e-09 2.45550011855865e-09 5.34494039165599e-09 1.12425951234477e-07 2.2046742128821e-08 4.94189113900451e-09 3.10116640485019e-09
"2271" 44250 8.6390873584839e-08 2.01427101788873e-09 2.45877361924533e-09 5.35149564226914e-09 1.1272154013843e-07 2.21252481607027e-08 4.98221659010857e-09 3.11664496972239e-09
"2272" 44251 8.63740740339687e-08 1.90672018839628e-09 2.46204711993200e-09 5.35805089288228e-09 1.13017129042383e-07 2.22037541925844e-08 5.02254204121263e-09 3.13212353459458e-09
"2273" 44252 8.63572744830984e-08 1.79916935890382e-09 2.46532062061867e-09 5.36460614349543e-09 1.13312717946336e-07 2.22822602244662e-08 5.06286749231669e-09 3.14760209946677e-09
"2274" 44253 8.63404749322281e-08 1.69161852941137e-09 2.46859412130534e-09 5.37116139410857e-09 1.13608306850288e-07 2.23607662563479e-08 5.10319294342075e-09 3.16308066433897e-09
"2275" 44254 8.67553532339484e-08 1.58180083041346e-09 2.45987809768684e-09 5.35667670868431e-09 1.1355516889025e-07 2.23341817715165e-08 5.1366196028605e-09 3.19678944937949e-09
"2276" 44255 8.71034875961908e-08 1.58078833719369e-09 2.46012504305892e-09 5.35361719239846e-09 1.13553518854352e-07 2.23346031505231e-08 5.17198812455314e-09 3.23084221532401e-09
"2277" 44256 8.77707396616497e-08 1.58077335020833e-09 2.46413451748877e-09 5.40174909946236e-09 1.13720088560128e-07 2.22884083672976e-08 5.17813261260744e-09 3.22919118375917e-09
"2278" 44257 8.84379917271086e-08 1.58075836322298e-09 2.46814399191863e-09 5.44988100652626e-09 1.13886658265905e-07 2.2242213584072e-08 5.18427710066174e-09 3.22754015219433e-09
"2279" 44258 8.91052437925675e-08 1.58074337623763e-09 2.47215346634848e-09 5.49801291359015e-09 1.14053227971681e-07 2.21960188008465e-08 5.19042158871604e-09 3.22588912062949e-09
"2280" 44259 8.97724958580264e-08 1.58072838925227e-09 2.47616294077834e-09 5.54614482065405e-09 1.14219797677458e-07 2.2149824017621e-08 5.19656607677033e-09 3.22423808906465e-09
"2281" 44260 9.04397479234853e-08 1.58071340226692e-09 2.4801724152082e-09 5.59427672771795e-09 1.14386367383234e-07 2.21036292343954e-08 5.20271056482463e-09 3.22258705749982e-09
"2282" 44261 9.11069999889442e-08 1.58069841528156e-09 2.48418188963805e-09 5.64240863478184e-09 1.14552937089011e-07 2.20574344511699e-08 5.20885505287893e-09 3.22093602593498e-09
"2283" 44262 9.17742520544031e-08 1.58068342829621e-09 2.48819136406791e-09 5.69054054184574e-09 1.14719506794787e-07 2.20112396679444e-08 5.21499954093322e-09 3.21928499437014e-09
"2284" 44263 9.2441504119862e-08 1.58066844131085e-09 2.49220083849776e-09 5.73867244890963e-09 1.14886076500563e-07 2.19650448847188e-08 5.22114402898752e-09 3.2176339628053e-09
"2285" 44264 9.31087561853209e-08 1.5806534543255e-09 2.49621031292762e-09 5.78680435597353e-09 1.1505264620634e-07 2.19188501014933e-08 5.22728851704182e-09 3.21598293124046e-09
"2286" 44265 9.37760082507798e-08 1.58063846734014e-09 2.50021978735747e-09 5.83493626303743e-09 1.15219215912116e-07 2.18726553182678e-08 5.23343300509611e-09 3.21433189967562e-09
"2287" 44266 9.44432603162387e-08 1.58062348035479e-09 2.50422926178733e-09 5.88306817010132e-09 1.15385785617893e-07 2.18264605350422e-08 5.23957749315041e-09 3.21268086811079e-09
"2288" 44267 9.51105123816976e-08 1.58060849336943e-09 2.50823873621719e-09 5.93120007716522e-09 1.15552355323669e-07 2.17802657518167e-08 5.24572198120471e-09 3.21102983654595e-09
"2289" 44268 9.57777644471565e-08 1.58059350638408e-09 2.51224821064704e-09 5.97933198422912e-09 1.15718925029446e-07 2.17340709685912e-08 5.25186646925901e-09 3.20937880498111e-09
"2290" 44269 9.64450165126153e-08 1.58057851939872e-09 2.5162576850769e-09 6.02746389129301e-09 1.15885494735222e-07 2.16878761853657e-08 5.2580109573133e-09 3.20772777341627e-09
"2291" 44270 9.71122685780743e-08 1.58056353241337e-09 2.52026715950675e-09 6.07559579835691e-09 1.16052064440999e-07 2.16416814021401e-08 5.2641554453676e-09 3.20607674185143e-09
"2292" 44271 9.77795206435331e-08 1.58054854542801e-09 2.52427663393661e-09 6.12372770542081e-09 1.16218634146775e-07 2.15954866189146e-08 5.2702999334219e-09 3.20442571028659e-09
"2293" 44272 9.8446772708992e-08 1.58053355844266e-09 2.52828610836647e-09 6.1718596124847e-09 1.16385203852551e-07 2.15492918356891e-08 5.27644442147619e-09 3.20277467872176e-09
"2294" 44273 9.91140247744509e-08 1.5805185714573e-09 2.53229558279632e-09 6.2199915195486e-09 1.16551773558328e-07 2.15030970524635e-08 5.28258890953049e-09 3.20112364715692e-09
"2295" 44274 9.97812768399098e-08 1.58050358447195e-09 2.53630505722618e-09 6.26812342661250e-09 1.16718343264104e-07 2.1456902269238e-08 5.28873339758479e-09 3.19947261559208e-09
"2296" 44275 1.00448528905369e-07 1.58048859748660e-09 2.54031453165603e-09 6.31625533367639e-09 1.16884912969881e-07 2.14107074860125e-08 5.29487788563909e-09 3.19782158402724e-09
"2297" 44276 1.0010935803994e-07 1.58048859748660e-09 2.52635916912034e-09 6.25277969262589e-09 1.14083842204159e-07 2.10901723370733e-08 5.2688793727415e-09 3.19318664287855e-09
"2298" 44277 9.99938346460679e-08 1.56669045834395e-09 2.45648510898086e-09 6.15041769095165e-09 1.13674565260224e-07 2.10649126489649e-08 5.24505572413432e-09 3.18488843945741e-09
"2299" 44278 9.98783112521955e-08 1.55289231920131e-09 2.38661104884138e-09 6.04805568927741e-09 1.1326528831629e-07 2.10396529608566e-08 5.22123207552715e-09 3.17659023603628e-09
"2300" 44279 9.97627878583231e-08 1.53909418005867e-09 2.3167369887019e-09 5.94569368760317e-09 1.12856011372355e-07 2.10143932727482e-08 5.19740842691997e-09 3.16829203261514e-09
"2301" 44280 9.96472644644507e-08 1.52529604091602e-09 2.24686292856243e-09 5.84333168592893e-09 1.12446734428421e-07 2.09891335846399e-08 5.1735847783128e-09 3.15999382919401e-09
"2302" 44281 9.95317410705783e-08 1.51149790177338e-09 2.17698886842295e-09 5.74096968425469e-09 1.12037457484486e-07 2.09638738965315e-08 5.14976112970562e-09 3.15169562577287e-09
"2303" 44282 9.94162176767058e-08 1.49769976263074e-09 2.10711480828347e-09 5.63860768258045e-09 1.11628180540552e-07 2.09386142084231e-08 5.12593748109844e-09 3.14339742235174e-09
"2304" 44283 9.93006942828334e-08 1.48390162348810e-09 2.037240748144e-09 5.53624568090621e-09 1.11218903596617e-07 2.09133545203148e-08 5.10211383249127e-09 3.1350992189306e-09
"2305" 44284 9.9185170888961e-08 1.47010348434545e-09 1.96736668800452e-09 5.43388367923197e-09 1.10809626652683e-07 2.08880948322064e-08 5.07829018388409e-09 3.12680101550947e-09
"2306" 44285 9.90696474950886e-08 1.45630534520281e-09 1.89749262786504e-09 5.33152167755773e-09 1.10400349708748e-07 2.08628351440981e-08 5.05446653527692e-09 3.11850281208833e-09
"2307" 44286 9.89541241012162e-08 1.44250720606017e-09 1.82761856772556e-09 5.22915967588349e-09 1.09991072764813e-07 2.08375754559897e-08 5.03064288666974e-09 3.11020460866720e-09
"2308" 44287 9.88386007073438e-08 1.42870906691752e-09 1.75774450758609e-09 5.12679767420925e-09 1.09581795820879e-07 2.08123157678813e-08 5.00681923806256e-09 3.10190640524606e-09
"2309" 44288 9.87230773134714e-08 1.41491092777488e-09 1.68787044744661e-09 5.02443567253501e-09 1.09172518876944e-07 2.0787056079773e-08 4.98299558945539e-09 3.09360820182492e-09
"2310" 44289 9.8607553919599e-08 1.40111278863224e-09 1.61799638730713e-09 4.92207367086077e-09 1.0876324193301e-07 2.07617963916646e-08 4.95917194084821e-09 3.08530999840379e-09
"2311" 44290 9.84920305257266e-08 1.38731464948959e-09 1.54812232716765e-09 4.81971166918653e-09 1.08353964989075e-07 2.07365367035563e-08 4.93534829224104e-09 3.07701179498265e-09
"2312" 44291 9.85656832455265e-08 1.37239701692945e-09 1.52346079091768e-09 4.78554931191127e-09 1.08679435986479e-07 2.07246826899092e-08 4.93141141751932e-09 3.0755413629892e-09
"2313" 44292 9.86146254414678e-08 1.37239701692945e-09 1.52572706062384e-09 4.78983263471147e-09 1.08750795105718e-07 2.08302332726842e-08 4.95882243779193e-09 3.076547478343e-09
"2314" 44293 9.8663567637409e-08 1.37239701692945e-09 1.52799333033e-09 4.79411595751166e-09 1.08822154224957e-07 2.09357838554592e-08 4.98623345806455e-09 3.0775535936968e-09
"2315" 44294 9.87125098333502e-08 1.37239701692945e-09 1.53025960003615e-09 4.79839928031185e-09 1.08893513344196e-07 2.10413344382342e-08 5.01364447833717e-09 3.07855970905061e-09
"2316" 44295 9.87614520292915e-08 1.37239701692945e-09 1.53252586974231e-09 4.80268260311204e-09 1.08964872463434e-07 2.11468850210092e-08 5.04105549860979e-09 3.07956582440441e-09
"2317" 44296 9.88103942252327e-08 1.37239701692945e-09 1.53479213944846e-09 4.80696592591223e-09 1.09036231582673e-07 2.12524356037842e-08 5.0684665188824e-09 3.08057193975821e-09
"2318" 44297 9.8859336421174e-08 1.37239701692945e-09 1.53705840915462e-09 4.81124924871242e-09 1.09107590701912e-07 2.13579861865593e-08 5.09587753915502e-09 3.08157805511201e-09
"2319" 44298 9.89082786171152e-08 1.37239701692945e-09 1.53932467886078e-09 4.81553257151261e-09 1.0917894982115e-07 2.14635367693343e-08 5.12328855942764e-09 3.08258417046582e-09
"2320" 44299 9.89572208130564e-08 1.37239701692945e-09 1.54159094856693e-09 4.8198158943128e-09 1.09250308940389e-07 2.15690873521093e-08 5.15069957970025e-09 3.08359028581962e-09
"2321" 44300 9.90061630089977e-08 1.37239701692945e-09 1.54385721827309e-09 4.82409921711299e-09 1.09321668059628e-07 2.16746379348843e-08 5.17811059997287e-09 3.08459640117342e-09
"2322" 44301 9.90551052049389e-08 1.37239701692945e-09 1.54612348797925e-09 4.82838253991318e-09 1.09393027178866e-07 2.17801885176593e-08 5.20552162024549e-09 3.08560251652723e-09
"2323" 44302 9.91040474008801e-08 1.37239701692945e-09 1.5483897576854e-09 4.83266586271338e-09 1.09464386298105e-07 2.18857391004343e-08 5.2329326405181e-09 3.08660863188103e-09
"2324" 44303 9.91529895968214e-08 1.37239701692945e-09 1.55065602739156e-09 4.83694918551357e-09 1.09535745417344e-07 2.19912896832093e-08 5.26034366079072e-09 3.08761474723483e-09
"2325" 44304 9.92019317927626e-08 1.37239701692945e-09 1.55292229709772e-09 4.84123250831376e-09 1.09607104536583e-07 2.20968402659843e-08 5.28775468106334e-09 3.08862086258863e-09
"2326" 44305 9.92508739887038e-08 1.37239701692945e-09 1.55518856680387e-09 4.84551583111395e-09 1.09678463655821e-07 2.22023908487593e-08 5.31516570133595e-09 3.08962697794244e-09
"2327" 44306 9.92998161846451e-08 1.37239701692945e-09 1.55745483651003e-09 4.84979915391414e-09 1.0974982277506e-07 2.23079414315343e-08 5.34257672160857e-09 3.09063309329624e-09
"2328" 44307 9.93487583805863e-08 1.37239701692945e-09 1.55972110621618e-09 4.85408247671433e-09 1.09821181894299e-07 2.24134920143093e-08 5.36998774188119e-09 3.09163920865004e-09
"2329" 44308 9.93977005765276e-08 1.37239701692945e-09 1.56198737592234e-09 4.85836579951452e-09 1.09892541013537e-07 2.25190425970843e-08 5.3973987621538e-09 3.09264532400384e-09
"2330" 44309 9.94466427724688e-08 1.37239701692945e-09 1.5642536456285e-09 4.86264912231471e-09 1.09963900132776e-07 2.26245931798593e-08 5.42480978242642e-09 3.09365143935765e-09
"2331" 44310 9.949558496841e-08 1.37239701692945e-09 1.56651991533465e-09 4.8669324451149e-09 1.10035259252015e-07 2.27301437626343e-08 5.45222080269904e-09 3.09465755471145e-09
"2332" 44311 9.95254164907827e-08 1.37312266612723e-09 1.5625396151431e-09 4.87883552234526e-09 1.1005455684704e-07 2.28071493565626e-08 5.53393256194439e-09 3.10115856347392e-09
"2333" 44312 9.98072412762095e-08 1.37906274257765e-09 1.55855931495154e-09 4.88448110933186e-09 1.10433282157551e-07 2.29812058372641e-08 5.58852965375747e-09 3.10298158549075e-09
"2334" 44313 1.00059234539264e-07 1.37898780765087e-09 1.55831236957946e-09 4.88874358710679e-09 1.10842711290563e-07 2.31103787160189e-08 5.64280784427493e-09 3.10298158549075e-09
"2335" 44314 1.00311227802318e-07 1.3789128727241e-09 1.55806542420738e-09 4.89300606488173e-09 1.11252140423575e-07 2.32395515947737e-08 5.69708603479238e-09 3.10298158549075e-09
"2336" 44315 1.00563221065372e-07 1.37883793779733e-09 1.55781847883531e-09 4.89726854265667e-09 1.11661569556587e-07 2.33687244735284e-08 5.75136422530983e-09 3.10298158549075e-09
"2337" 44316 1.00815214328426e-07 1.37876300287055e-09 1.55757153346323e-09 4.9015310204316e-09 1.12070998689599e-07 2.34978973522832e-08 5.80564241582728e-09 3.10298158549075e-09
"2338" 44317 1.0106720759148e-07 1.37868806794378e-09 1.55732458809115e-09 4.90579349820654e-09 1.12480427822611e-07 2.3627070231038e-08 5.85992060634474e-09 3.10298158549075e-09
"2339" 44318 1.01319200854535e-07 1.37861313301701e-09 1.55707764271907e-09 4.91005597598148e-09 1.12889856955623e-07 2.37562431097927e-08 5.91419879686219e-09 3.10298158549075e-09
"2340" 44319 1.01571194117589e-07 1.37853819809023e-09 1.55683069734699e-09 4.91431845375641e-09 1.13299286088635e-07 2.38854159885475e-08 5.96847698737964e-09 3.10298158549075e-09
"2341" 44320 1.01823187380643e-07 1.37846326316346e-09 1.55658375197491e-09 4.91858093153135e-09 1.13708715221647e-07 2.40145888673023e-08 6.0227551778971e-09 3.10298158549075e-09
"2342" 44321 1.02075180643697e-07 1.37838832823669e-09 1.55633680660284e-09 4.92284340930629e-09 1.14118144354659e-07 2.4143761746057e-08 6.07703336841455e-09 3.10298158549075e-09
"2343" 44322 1.02327173906751e-07 1.37831339330991e-09 1.55608986123076e-09 4.92710588708122e-09 1.14527573487672e-07 2.42729346248118e-08 6.131311558932e-09 3.10298158549075e-09
"2344" 44323 1.02579167169805e-07 1.37823845838314e-09 1.55584291585868e-09 4.93136836485616e-09 1.14937002620684e-07 2.44021075035666e-08 6.18558974944945e-09 3.10298158549075e-09
"2345" 44324 1.0283116043286e-07 1.37816352345637e-09 1.5555959704866e-09 4.93563084263109e-09 1.15346431753696e-07 2.45312803823214e-08 6.23986793996691e-09 3.10298158549075e-09
"2346" 44325 1.03083153695914e-07 1.37808858852959e-09 1.55534902511452e-09 4.93989332040603e-09 1.15755860886708e-07 2.46604532610761e-08 6.29414613048436e-09 3.10298158549075e-09
"2347" 44326 1.03297054392741e-07 1.38402866498001e-09 1.55434665650706e-09 4.93989332040603e-09 1.16149395014189e-07 2.47752396735425e-08 6.35367760325357e-09 3.10480460750758e-09
"2348" 44327 1.03510955089568e-07 1.38996874143043e-09 1.55334428789959e-09 4.93989332040603e-09 1.1654292914167e-07 2.48900260860089e-08 6.41320907602278e-09 3.10662762952442e-09
"2349" 44328 1.03724855786394e-07 1.39590881788085e-09 1.55234191929213e-09 4.93989332040603e-09 1.16936463269151e-07 2.50048124984753e-08 6.47274054879199e-09 3.10845065154125e-09
"2350" 44329 1.03938756483221e-07 1.40184889433127e-09 1.55133955068467e-09 4.93989332040603e-09 1.17329997396632e-07 2.51195989109417e-08 6.5322720215612e-09 3.11027367355808e-09
"2351" 44330 1.04152657180048e-07 1.40778897078169e-09 1.5503371820772e-09 4.93989332040603e-09 1.17723531524113e-07 2.52343853234081e-08 6.59180349433042e-09 3.11209669557492e-09
"2352" 44331 1.04366557876875e-07 1.41372904723211e-09 1.54933481346974e-09 4.93989332040603e-09 1.18117065651594e-07 2.53491717358745e-08 6.65133496709963e-09 3.11391971759175e-09
"2353" 44332 1.04580458573702e-07 1.41966912368253e-09 1.54833244486227e-09 4.93989332040603e-09 1.18510599779074e-07 2.54639581483408e-08 6.71086643986884e-09 3.11574273960858e-09
"2354" 44333 1.06157857783926e-07 1.42843477069704e-09 1.55132982593857e-09 4.93989332040603e-09 1.18738847259468e-07 2.56083037702957e-08 6.82826562210246e-09 3.18911110255434e-09
"2355" 44334 1.05545740182475e-07 1.43349723679588e-09 1.55133468831162e-09 4.94243323854942e-09 1.18740828436566e-07 2.56519274138246e-08 6.83430380972489e-09 3.1733316023751e-09
"2356" 44335 1.04933622581025e-07 1.43855970289473e-09 1.55133955068467e-09 4.94497315669281e-09 1.18742809613664e-07 2.56955510573535e-08 6.84034199734731e-09 3.15755210219586e-09
"2357" 44336 1.04321504979574e-07 1.44362216899357e-09 1.55134441305772e-09 4.9475130748362e-09 1.18744790790762e-07 2.57391747008824e-08 6.84638018496973e-09 3.14177260201662e-09
"2358" 44337 1.03709387378124e-07 1.44868463509241e-09 1.55134927543077e-09 4.95005299297959e-09 1.1874677196786e-07 2.57827983444112e-08 6.85241837259215e-09 3.12599310183738e-09
"2359" 44338 1.03097269776673e-07 1.45374710119126e-09 1.55135413780382e-09 4.95259291112298e-09 1.18748753144958e-07 2.58264219879401e-08 6.85845656021457e-09 3.11021360165814e-09
"2360" 44339 1.02485152175223e-07 1.4588095672901e-09 1.55135900017687e-09 4.95513282926637e-09 1.18750734322056e-07 2.5870045631469e-08 6.86449474783699e-09 3.0944341014789e-09
"2361" 44340 1.01873034573772e-07 1.46387203338894e-09 1.55136386254992e-09 4.95767274740976e-09 1.18752715499155e-07 2.59136692749979e-08 6.87053293545941e-09 3.07865460129966e-09
"2362" 44341 1.01260916972322e-07 1.46893449948779e-09 1.55136872492297e-09 4.96021266555315e-09 1.18754696676253e-07 2.59572929185267e-08 6.87657112308184e-09 3.06287510112042e-09
"2363" 44342 1.00648799370871e-07 1.47399696558663e-09 1.55137358729602e-09 4.96275258369653e-09 1.18756677853351e-07 2.60009165620556e-08 6.88260931070426e-09 3.04709560094118e-09
"2364" 44343 1.0003668176942e-07 1.47905943168547e-09 1.55137844966907e-09 4.96529250183992e-09 1.18758659030449e-07 2.60445402055845e-08 6.88864749832668e-09 3.03131610076194e-09
"2365" 44344 9.94245641679699e-08 1.48412189778432e-09 1.55138331204212e-09 4.96783241998331e-09 1.18760640207547e-07 2.60881638491134e-08 6.8946856859491e-09 3.0155366005827e-09
"2366" 44345 9.88124465665193e-08 1.48918436388316e-09 1.55138817441517e-09 4.9703723381267e-09 1.18762621384645e-07 2.61317874926422e-08 6.90072387357152e-09 2.99975710040346e-09
"2367" 44346 9.82003289650688e-08 1.494246829982e-09 1.55139303678822e-09 4.97291225627009e-09 1.18764602561743e-07 2.61754111361711e-08 6.90676206119394e-09 2.98397760022422e-09
"2368" 44347 9.76762834347032e-08 1.49028677901506e-09 1.55338318688399e-09 4.98766939453163e-09 1.1878735400511e-07 2.6144905643309e-08 6.90255943539254e-09 2.96705443071674e-09
"2369" 44348 9.77148162056381e-08 1.48632672804811e-09 1.55336859976484e-09 4.99698640106124e-09 1.18664441867512e-07 2.61400686817564e-08 6.90444814742949e-09 2.96006327795645e-09
"2370" 44349 9.77414081759648e-08 1.48606985799683e-09 1.54938343720024e-09 5.00059082302166e-09 1.17893505406851e-07 2.61045066408153e-08 6.89457938551723e-09 2.96174013687946e-09
"2371" 44350 9.77680001462915e-08 1.48581298794555e-09 1.54539827463563e-09 5.00419524498207e-09 1.17122568946191e-07 2.60689445998742e-08 6.88471062360496e-09 2.96341699580246e-09
"2372" 44351 9.77945921166183e-08 1.48555611789427e-09 1.54141311207103e-09 5.00779966694248e-09 1.16351632485531e-07 2.60333825589331e-08 6.8748418616927e-09 2.96509385472546e-09
"2373" 44352 9.7821184086945e-08 1.48529924784299e-09 1.53742794950642e-09 5.01140408890289e-09 1.15580696024871e-07 2.5997820517992e-08 6.86497309978043e-09 2.96677071364847e-09
"2374" 44353 9.78477760572717e-08 1.4850423777917e-09 1.53344278694181e-09 5.0150085108633e-09 1.1480975956421e-07 2.59622584770509e-08 6.85510433786817e-09 2.96844757257147e-09
"2375" 44354 9.78743680275984e-08 1.48478550774042e-09 1.52945762437721e-09 5.01861293282372e-09 1.1403882310355e-07 2.59266964361098e-08 6.8452355759559e-09 2.97012443149448e-09
"2376" 44355 9.79009599979252e-08 1.48452863768914e-09 1.5254724618126e-09 5.02221735478413e-09 1.1326788664289e-07 2.58911343951686e-08 6.83536681404364e-09 2.97180129041748e-09
"2377" 44356 9.79275519682519e-08 1.48427176763786e-09 1.521487299248e-09 5.02582177674454e-09 1.1249695018223e-07 2.58555723542275e-08 6.82549805213138e-09 2.97347814934049e-09
"2378" 44357 9.79541439385786e-08 1.48401489758658e-09 1.51750213668339e-09 5.02942619870495e-09 1.11726013721569e-07 2.58200103132864e-08 6.81562929021911e-09 2.97515500826349e-09
"2379" 44358 9.79807359089054e-08 1.4837580275353e-09 1.51351697411878e-09 5.03303062066536e-09 1.10955077260909e-07 2.57844482723453e-08 6.80576052830685e-09 2.97683186718649e-09
"2380" 44359 9.80073278792321e-08 1.48350115748402e-09 1.50953181155418e-09 5.03663504262578e-09 1.10184140800249e-07 2.57488862314042e-08 6.79589176639458e-09 2.9785087261095e-09
"2381" 44360 9.80339198495588e-08 1.48324428743274e-09 1.50554664898957e-09 5.04023946458619e-09 1.09413204339589e-07 2.57133241904631e-08 6.78602300448232e-09 2.9801855850325e-09
"2382" 44361 9.80605118198855e-08 1.48298741738146e-09 1.50156148642497e-09 5.0438438865466e-09 1.08642267878928e-07 2.5677762149522e-08 6.77615424257006e-09 2.98186244395551e-09
"2383" 44362 9.80871037902123e-08 1.48273054733018e-09 1.49757632386036e-09 5.04744830850701e-09 1.07871331418268e-07 2.56422001085809e-08 6.76628548065779e-09 2.98353930287851e-09
"2384" 44363 9.8113695760539e-08 1.4824736772789e-09 1.49359116129575e-09 5.05105273046742e-09 1.07100394957608e-07 2.56066380676398e-08 6.75641671874553e-09 2.98521616180152e-09
"2385" 44364 9.81402877308657e-08 1.48221680722762e-09 1.48960599873115e-09 5.05465715242784e-09 1.06329458496947e-07 2.55710760266987e-08 6.74654795683326e-09 2.98689302072452e-09
"2386" 44365 9.81668797011925e-08 1.48195993717633e-09 1.48562083616654e-09 5.05826157438825e-09 1.05558522036287e-07 2.55355139857576e-08 6.736679194921e-09 2.98856987964753e-09
"2387" 44366 9.81934716715192e-08 1.48170306712505e-09 1.48163567360194e-09 5.06186599634866e-09 1.04787585575627e-07 2.54999519448165e-08 6.72681043300873e-09 2.99024673857053e-09
"2388" 44367 9.82200636418459e-08 1.48144619707377e-09 1.47765051103733e-09 5.06547041830907e-09 1.04016649114967e-07 2.54643899038754e-08 6.71694167109647e-09 2.99192359749353e-09
"2389" 44368 9.93604989481924e-08 1.51625400638078e-09 1.49682576299803e-09 5.07363061590696e-09 1.04045231819194e-07 2.54909743887068e-08 6.75036833053622e-09 2.99690251954622e-09
"2390" 44369 9.85329481187e-08 1.51800713578368e-09 1.48484110106591e-09 5.08331238038856e-09 1.04174241264633e-07 2.54115649391086e-08 6.74454274377755e-09 2.99455491705401e-09
"2391" 44370 9.77053972892075e-08 1.51976026518658e-09 1.47285643913379e-09 5.09299414487017e-09 1.04303250710073e-07 2.53321554895105e-08 6.73871715701888e-09 2.9922073145618e-09
"2392" 44371 9.6877846459715e-08 1.52151339458948e-09 1.46087177720167e-09 5.10267590935177e-09 1.04432260155513e-07 2.52527460399123e-08 6.73289157026021e-09 2.9898597120696e-09
"2393" 44372 9.60502956302226e-08 1.52326652399239e-09 1.44888711526956e-09 5.11235767383338e-09 1.04561269600952e-07 2.51733365903142e-08 6.72706598350154e-09 2.98751210957739e-09
"2394" 44373 9.52227448007301e-08 1.52501965339529e-09 1.43690245333744e-09 5.12203943831498e-09 1.04690279046392e-07 2.5093927140716e-08 6.72124039674287e-09 2.98516450708518e-09
"2395" 44374 9.43951939712377e-08 1.52677278279819e-09 1.42491779140532e-09 5.13172120279658e-09 1.04819288491831e-07 2.50145176911178e-08 6.7154148099842e-09 2.98281690459298e-09
"2396" 44375 9.35676431417452e-08 1.52852591220109e-09 1.4129331294732e-09 5.14140296727819e-09 1.04948297937271e-07 2.49351082415197e-08 6.70958922322553e-09 2.98046930210077e-09
"2397" 44376 9.27400923122528e-08 1.53027904160399e-09 1.40094846754109e-09 5.15108473175979e-09 1.0507730738271e-07 2.48556987919215e-08 6.70376363646686e-09 2.97812169960857e-09
"2398" 44377 9.19125414827603e-08 1.5320321710069e-09 1.38896380560897e-09 5.1607664962414e-09 1.0520631682815e-07 2.47762893423233e-08 6.69793804970819e-09 2.97577409711636e-09
"2399" 44378 9.10849906532679e-08 1.5337853004098e-09 1.37697914367685e-09 5.170448260723e-09 1.05335326273589e-07 2.46968798927252e-08 6.69211246294952e-09 2.97342649462415e-09
"2400" 44379 9.02574398237754e-08 1.5355384298127e-09 1.36499448174473e-09 5.18013002520461e-09 1.05464335719029e-07 2.4617470443127e-08 6.68628687619085e-09 2.97107889213195e-09
"2401" 44380 8.9429888994283e-08 1.5372915592156e-09 1.35300981981262e-09 5.18981178968621e-09 1.05593345164469e-07 2.45380609935288e-08 6.68046128943218e-09 2.96873128963974e-09
"2402" 44381 8.86023381647905e-08 1.5390446886185e-09 1.3410251578805e-09 5.19949355416781e-09 1.05722354609908e-07 2.44586515439307e-08 6.6746357026735e-09 2.96638368714754e-09
"2403" 44382 8.86543958182997e-08 1.53404217046108e-09 1.34103002025355e-09 5.20928846878938e-09 1.05896084223979e-07 2.4449557926655e-08 6.67081532897055e-09 2.96256565266187e-09
"2404" 44383 8.8731480105897e-08 1.53704967614967e-09 1.3322896847698e-09 5.20928846878938e-09 1.05896084223979e-07 2.42651269772507e-08 6.62860116582953e-09 2.93875444789099e-09
"2405" 44384 8.88085643934944e-08 1.54005718183827e-09 1.32354934928605e-09 5.20928846878938e-09 1.05896084223979e-07 2.40806960278464e-08 6.58638700268852e-09 2.91494324312011e-09
"2406" 44385 8.88856486810918e-08 1.54306468752687e-09 1.31480901380231e-09 5.20928846878938e-09 1.05896084223979e-07 2.3896265078442e-08 6.54417283954751e-09 2.89113203834922e-09
"2407" 44386 8.89627329686891e-08 1.54607219321546e-09 1.30606867831856e-09 5.20928846878938e-09 1.05896084223979e-07 2.37118341290377e-08 6.50195867640649e-09 2.86732083357834e-09
"2408" 44387 8.90398172562865e-08 1.54907969890406e-09 1.29732834283481e-09 5.20928846878938e-09 1.05896084223979e-07 2.35274031796334e-08 6.45974451326548e-09 2.84350962880746e-09
"2409" 44388 8.91169015438839e-08 1.55208720459266e-09 1.28858800735106e-09 5.20928846878938e-09 1.05896084223979e-07 2.3342972230229e-08 6.41753035012447e-09 2.81969842403657e-09
"2410" 44389 8.91939858314813e-08 1.55509471028125e-09 1.27984767186732e-09 5.20928846878938e-09 1.05896084223979e-07 2.31585412808247e-08 6.37531618698346e-09 2.79588721926569e-09
"2411" 44390 8.91939858314813e-08 1.55630412561088e-09 1.27110733638357e-09 5.20214662245117e-09 1.05797792436411e-07 2.29705416854893e-08 6.34196307893341e-09 2.78291102909892e-09
"2412" 44391 8.87908200427542e-08 1.55828415109436e-09 1.27036650026734e-09 5.20407463733739e-09 1.05862397635512e-07 2.29707351207659e-08 6.33906666007516e-09 2.76461193597548e-09
"2413" 44392 8.83876542540271e-08 1.56026417657783e-09 1.2696256641511e-09 5.2060026522236e-09 1.05927002834612e-07 2.29709285560424e-08 6.33617024121691e-09 2.74631284285204e-09
"2414" 44393 8.79844884653e-08 1.5622442020613e-09 1.26888482803486e-09 5.20793066710982e-09 1.05991608033712e-07 2.2971121991319e-08 6.33327382235866e-09 2.7280137497286e-09
"2415" 44394 8.75813226765729e-08 1.56422422754478e-09 1.26814399191863e-09 5.20985868199604e-09 1.06056213232813e-07 2.29713154265955e-08 6.33037740350041e-09 2.70971465660516e-09
"2416" 44395 8.71781568878458e-08 1.56620425302825e-09 1.26740315580239e-09 5.21178669688226e-09 1.06120818431913e-07 2.29715088618721e-08 6.32748098464216e-09 2.69141556348171e-09
"2417" 44396 8.67749910991187e-08 1.56818427851172e-09 1.26666231968616e-09 5.21371471176848e-09 1.06185423631014e-07 2.29717022971486e-08 6.32458456578391e-09 2.67311647035827e-09
"2418" 44397 8.63718253103916e-08 1.5701643039952e-09 1.26592148356992e-09 5.2156427266547e-09 1.06250028830114e-07 2.29718957324252e-08 6.32168814692566e-09 2.65481737723483e-09
"2419" 44398 8.59686595216645e-08 1.57214432947867e-09 1.26518064745369e-09 5.21757074154092e-09 1.06314634029214e-07 2.29720891677018e-08 6.31879172806741e-09 2.63651828411139e-09
"2420" 44399 8.55654937329374e-08 1.57412435496214e-09 1.26443981133745e-09 5.21949875642714e-09 1.06379239228315e-07 2.29722826029783e-08 6.31589530920916e-09 2.61821919098795e-09
"2421" 44400 8.51623279442103e-08 1.57610438044562e-09 1.26369897522122e-09 5.22142677131336e-09 1.06443844427415e-07 2.29724760382549e-08 6.31299889035091e-09 2.59992009786451e-09
"2422" 44401 8.47591621554833e-08 1.57808440592909e-09 1.26295813910498e-09 5.22335478619958e-09 1.06508449626516e-07 2.29726694735314e-08 6.31010247149266e-09 2.58162100474107e-09
"2423" 44402 8.43559963667562e-08 1.58006443141256e-09 1.26221730298874e-09 5.2252828010858e-09 1.06573054825616e-07 2.2972862908808e-08 6.30720605263441e-09 2.56332191161763e-09
"2424" 44403 8.39528305780291e-08 1.58204445689604e-09 1.26147646687251e-09 5.22721081597202e-09 1.06637660024716e-07 2.29730563440845e-08 6.30430963377616e-09 2.54502281849419e-09
"2425" 44404 8.35923058376072e-08 1.5908250908959e-09 1.27646337225397e-09 5.2704013444212e-09 1.07392087961129e-07 2.34236750670598e-08 6.2986434976653e-09 2.5233958348829e-09
"2426" 44405 8.31991396989972e-08 1.59058320782997e-09 1.2876731614585e-09 5.31664692664938e-09 1.09041817661571e-07 2.40562320534922e-08 6.41791904406747e-09 2.49807976164101e-09
"2427" 44406 8.31487410463864e-08 1.58662315686303e-09 1.2998755945244e-09 5.36234760320301e-09 1.10468870765602e-07 2.46517694266871e-08 6.54534429157966e-09 2.50023815544244e-09
"2428" 44407 8.30983423937755e-08 1.58266310589608e-09 1.31207802759029e-09 5.40804827975663e-09 1.11895923869634e-07 2.5247306799882e-08 6.67276953909184e-09 2.50239654924388e-09
"2429" 44408 8.30479437411647e-08 1.57870305492913e-09 1.32428046065619e-09 5.45374895631026e-09 1.13322976973665e-07 2.5842844173077e-08 6.80019478660402e-09 2.50455494304531e-09
"2430" 44409 8.29975450885538e-08 1.57474300396219e-09 1.33648289372209e-09 5.49944963286388e-09 1.14750030077697e-07 2.64383815462719e-08 6.9276200341162e-09 2.50671333684675e-09
"2431" 44410 8.2947146435943e-08 1.57078295299524e-09 1.34868532678798e-09 5.54515030941751e-09 1.16177083181728e-07 2.70339189194668e-08 7.05504528162839e-09 2.50887173064818e-09
"2432" 44411 8.28967477833322e-08 1.5668229020283e-09 1.36088775985388e-09 5.59085098597113e-09 1.17604136285759e-07 2.76294562926618e-08 7.18247052914057e-09 2.51103012444961e-09
"2433" 44412 8.28463491307213e-08 1.56286285106135e-09 1.37309019291977e-09 5.63655166252476e-09 1.19031189389791e-07 2.82249936658567e-08 7.30989577665275e-09 2.51318851825105e-09
"2434" 44413 8.27959504781105e-08 1.5589028000944e-09 1.38529262598567e-09 5.68225233907838e-09 1.20458242493822e-07 2.88205310390516e-08 7.43732102416493e-09 2.51534691205248e-09
"2435" 44414 8.27455518254997e-08 1.55494274912746e-09 1.39749505905157e-09 5.72795301563201e-09 1.21885295597854e-07 2.94160684122465e-08 7.56474627167712e-09 2.51750530585392e-09
"2436" 44415 8.26951531728888e-08 1.55098269816051e-09 1.40969749211746e-09 5.77365369218563e-09 1.23312348701885e-07 3.00116057854415e-08 7.6921715191893e-09 2.51966369965535e-09
"2437" 44416 8.2644754520278e-08 1.54702264719356e-09 1.42189992518336e-09 5.81935436873926e-09 1.24739401805916e-07 3.06071431586364e-08 7.81959676670148e-09 2.52182209345678e-09
"2438" 44417 8.25943558676672e-08 1.54306259622662e-09 1.43410235824925e-09 5.86505504529288e-09 1.26166454909948e-07 3.12026805318313e-08 7.94702201421366e-09 2.52398048725822e-09
"2439" 44418 8.25439572150563e-08 1.53910254525967e-09 1.44630479131515e-09 5.91075572184651e-09 1.27593508013979e-07 3.17982179050263e-08 8.07444726172585e-09 2.52613888105965e-09
"2440" 44419 8.24935585624455e-08 1.53514249429272e-09 1.45850722438105e-09 5.95645639840013e-09 1.2902056111801e-07 3.23937552782212e-08 8.20187250923803e-09 2.52829727486109e-09
"2441" 44420 8.24431599098346e-08 1.53118244332578e-09 1.47070965744694e-09 6.00215707495376e-09 1.30447614222042e-07 3.29892926514161e-08 8.32929775675021e-09 2.53045566866252e-09
"2442" 44421 8.23927612572238e-08 1.52722239235883e-09 1.48291209051284e-09 6.04785775150739e-09 1.31874667326073e-07 3.3584830024611e-08 8.45672300426239e-09 2.53261406246395e-09
"2443" 44422 8.2342362604613e-08 1.52326234139188e-09 1.49511452357873e-09 6.09355842806101e-09 1.33301720430105e-07 3.4180367397806e-08 8.58414825177458e-09 2.53477245626539e-09
"2444" 44423 8.22919639520021e-08 1.51930229042494e-09 1.50731695664463e-09 6.13925910461463e-09 1.34728773534136e-07 3.47759047710009e-08 8.71157349928676e-09 2.53693085006682e-09
"2445" 44424 8.22415652993913e-08 1.51534223945799e-09 1.51951938971053e-09 6.18495978116826e-09 1.36155826638167e-07 3.53714421441958e-08 8.83899874679894e-09 2.53908924386826e-09
"2446" 44425 8.21987615095394e-08 1.51534223945799e-09 1.53147487740434e-09 6.23181726665362e-09 1.37815941471744e-07 3.59877724000922e-08 8.94042548141354e-09 2.54290727835392e-09
"2447" 44426 8.19963660950451e-08 1.51138218849104e-09 1.54144021500238e-09 6.27425297166672e-09 1.39351446955609e-07 3.65612789048157e-08 9.06941033908016e-09 2.54871171618902e-09
"2448" 44427 8.18701464401416e-08 1.51635473267776e-09 1.53920311953453e-09 6.27044309445164e-09 1.39330103089267e-07 3.65236402986933e-08 9.07949170185618e-09 2.54953723197144e-09
"2449" 44428 8.20410806055699e-08 1.51466155121628e-09 1.5372178318118e-09 6.26629376681666e-09 1.39289410369051e-07 3.65161203148799e-08 9.08326912593008e-09 2.56235864992499e-09
"2450" 44429 8.22120147709981e-08 1.51296836975479e-09 1.53523254408907e-09 6.26214443918169e-09 1.39248717648835e-07 3.65086003310665e-08 9.08704655000399e-09 2.57518006787854e-09
"2451" 44430 8.23829489364263e-08 1.51127518829331e-09 1.53324725636634e-09 6.25799511154672e-09 1.39208024928619e-07 3.65010803472531e-08 9.09082397407789e-09 2.5880014858321e-09
"2452" 44431 8.25538831018546e-08 1.50958200683183e-09 1.53126196864362e-09 6.25384578391174e-09 1.39167332208404e-07 3.64935603634397e-08 9.0946013981518e-09 2.60082290378565e-09
"2453" 44432 8.27248172672828e-08 1.50788882537035e-09 1.52927668092089e-09 6.24969645627677e-09 1.39126639488188e-07 3.64860403796262e-08 9.0983788222257e-09 2.6136443217392e-09
"2454" 44433 8.28957514327111e-08 1.50619564390886e-09 1.52729139319816e-09 6.2455471286418e-09 1.39085946767972e-07 3.64785203958128e-08 9.10215624629961e-09 2.62646573969275e-09
"2455" 44434 8.30666855981393e-08 1.50450246244738e-09 1.52530610547543e-09 6.24139780100682e-09 1.39045254047756e-07 3.64710004119994e-08 9.10593367037351e-09 2.63928715764631e-09
"2456" 44435 8.32376197635676e-08 1.5028092809859e-09 1.5233208177527e-09 6.23724847337185e-09 1.3900456132754e-07 3.6463480428186e-08 9.10971109444742e-09 2.65210857559986e-09
"2457" 44436 8.34085539289958e-08 1.50111609952441e-09 1.52133553002998e-09 6.23309914573688e-09 1.38963868607325e-07 3.64559604443726e-08 9.11348851852132e-09 2.66492999355341e-09
"2458" 44437 8.35794880944241e-08 1.49942291806293e-09 1.51935024230725e-09 6.2289498181019e-09 1.38923175887109e-07 3.64484404605592e-08 9.11726594259523e-09 2.67775141150697e-09
"2459" 44438 8.37504222598523e-08 1.49772973660145e-09 1.51736495458452e-09 6.22480049046693e-09 1.38882483166893e-07 3.64409204767458e-08 9.12104336666913e-09 2.69057282946052e-09
"2460" 44439 8.39213564252806e-08 1.49603655513996e-09 1.51537966686179e-09 6.22065116283196e-09 1.38841790446677e-07 3.64334004929323e-08 9.12482079074304e-09 2.70339424741407e-09
"2461" 44440 8.40922905907088e-08 1.49434337367848e-09 1.51339437913906e-09 6.21650183519698e-09 1.38801097726461e-07 3.64258805091189e-08 9.12859821481694e-09 2.71621566536762e-09
"2462" 44441 8.42632247561371e-08 1.492650192217e-09 1.51140909141634e-09 6.21235250756201e-09 1.38760405006245e-07 3.64183605253055e-08 9.13237563889085e-09 2.72903708332118e-09
"2463" 44442 8.44341589215653e-08 1.49095701075552e-09 1.50942380369361e-09 6.20820317992704e-09 1.3871971228603e-07 3.64108405414921e-08 9.13615306296475e-09 2.74185850127473e-09
"2464" 44443 8.46050930869936e-08 1.48926382929403e-09 1.50743851597088e-09 6.20405385229206e-09 1.38679019565814e-07 3.64033205576787e-08 9.13993048703866e-09 2.75467991922828e-09
"2465" 44444 8.47760272524218e-08 1.48757064783255e-09 1.50545322824815e-09 6.19990452465709e-09 1.38638326845598e-07 3.63958005738653e-08 9.14370791111256e-09 2.76750133718183e-09
"2466" 44445 8.49469614178501e-08 1.48587746637107e-09 1.50346794052542e-09 6.19575519702212e-09 1.38597634125382e-07 3.63882805900518e-08 9.14748533518647e-09 2.78032275513539e-09
"2467" 44446 8.51178955832783e-08 1.48418428490958e-09 1.5014826528027e-09 6.19160586938714e-09 1.38556941405166e-07 3.63807606062384e-08 9.15126275926037e-09 2.79314417308894e-09
"2468" 44447 8.50763410194354e-08 1.48649611537111e-09 1.49949736507997e-09 6.18707093877492e-09 1.38459879829969e-07 3.63596969141498e-08 9.27022155164844e-09 2.79314417308894e-09
"2469" 44448 8.50826866561853e-08 1.48575547918798e-09 1.49826263821958e-09 6.17789238991737e-09 1.38320394073903e-07 3.60333356546272e-08 9.25468665362532e-09 2.79248203863913e-09
"2470" 44449 8.47822394218299e-08 1.46997731456186e-09 1.47430303910144e-09 6.16138738449219e-09 1.38746059106384e-07 3.60167607405935e-08 9.2627730039325e-09 2.78831141413009e-09
"2471" 44450 8.45410161831256e-08 1.46920670440802e-09 1.47130565802515e-09 6.17106914897379e-09 1.38923794168232e-07 3.59639399544285e-08 9.26554272118511e-09 2.78764927968027e-09
"2472" 44451 8.42997929444213e-08 1.46843609425418e-09 1.46830827694886e-09 6.1807509134554e-09 1.3910152923008e-07 3.59111191682636e-08 9.26831243843772e-09 2.78698714523046e-09
"2473" 44452 8.40585697057169e-08 1.46766548410033e-09 1.46531089587257e-09 6.190432677937e-09 1.39279264291928e-07 3.58582983820986e-08 9.27108215569033e-09 2.78632501078065e-09
"2474" 44453 8.38173464670126e-08 1.46689487394649e-09 1.46231351479627e-09 6.20011444241861e-09 1.39456999353777e-07 3.58054775959337e-08 9.27385187294293e-09 2.78566287633083e-09
"2475" 44454 8.35761232283083e-08 1.46612426379265e-09 1.45931613371998e-09 6.20979620690021e-09 1.39634734415625e-07 3.57526568097687e-08 9.27662159019554e-09 2.78500074188102e-09
"2476" 44455 8.3334899989604e-08 1.46535365363881e-09 1.45631875264369e-09 6.21947797138182e-09 1.39812469477473e-07 3.56998360236038e-08 9.27939130744815e-09 2.78433860743121e-09
"2477" 44456 8.30936767508996e-08 1.46458304348496e-09 1.4533213715674e-09 6.22915973586342e-09 1.39990204539322e-07 3.56470152374388e-08 9.28216102470075e-09 2.7836764729814e-09
"2478" 44457 8.28524535121953e-08 1.46381243333112e-09 1.45032399049111e-09 6.23884150034502e-09 1.4016793960117e-07 3.55941944512739e-08 9.28493074195336e-09 2.78301433853158e-09
"2479" 44458 8.2611230273491e-08 1.46304182317728e-09 1.44732660941481e-09 6.24852326482663e-09 1.40345674663018e-07 3.55413736651089e-08 9.28770045920597e-09 2.78235220408177e-09
"2480" 44459 8.23700070347866e-08 1.46227121302344e-09 1.44432922833852e-09 6.25820502930823e-09 1.40523409724867e-07 3.5488552878944e-08 9.29047017645858e-09 2.78169006963196e-09
"2481" 44460 8.21287837960823e-08 1.46150060286959e-09 1.44133184726223e-09 6.26788679378984e-09 1.40701144786715e-07 3.5435732092779e-08 9.29323989371118e-09 2.78102793518214e-09
"2482" 44461 8.17733156637194e-08 1.45778243496857e-09 1.43835391567814e-09 6.27423658914831e-09 1.41668260421823e-07 3.54512749921249e-08 9.28662940158185e-09 2.78119131651475e-09
"2483" 44462 8.15809152129102e-08 1.46044314869376e-09 1.43736127181677e-09 6.27369168347375e-09 1.41391661559803e-07 3.54370390954559e-08 9.37744541854258e-09 2.77420016375446e-09
"2484" 44463 8.14786357076327e-08 1.45441315033121e-09 1.43862031054242e-09 6.28559476070411e-09 1.41099843810022e-07 3.54364587896263e-08 9.36693885403906e-09 2.78878433988913e-09
"2485" 44464 8.13763562023552e-08 1.44838315196867e-09 1.43987934926806e-09 6.29749783793447e-09 1.40808026060241e-07 3.54358784837966e-08 9.35643228953554e-09 2.80336851602379e-09
"2486" 44465 8.12740766970776e-08 1.44235315360612e-09 1.4411383879937e-09 6.30940091516482e-09 1.4051620831046e-07 3.54352981779669e-08 9.34592572503202e-09 2.81795269215846e-09
"2487" 44466 8.11717971918001e-08 1.43632315524357e-09 1.44239742671934e-09 6.32130399239518e-09 1.40224390560679e-07 3.54347178721373e-08 9.33541916052851e-09 2.83253686829312e-09
"2488" 44467 8.10695176865226e-08 1.43029315688102e-09 1.44365646544499e-09 6.33320706962554e-09 1.39932572810898e-07 3.54341375663076e-08 9.32491259602499e-09 2.84712104442779e-09
"2489" 44468 8.0967238181245e-08 1.42426315851847e-09 1.44491550417063e-09 6.3451101468559e-09 1.39640755061117e-07 3.54335572604779e-08 9.31440603152147e-09 2.86170522056245e-09
"2490" 44469 8.08649586759675e-08 1.41823316015593e-09 1.44617454289627e-09 6.35701322408626e-09 1.39348937311336e-07 3.54329769546482e-08 9.30389946701796e-09 2.87628939669712e-09
"2491" 44470 8.076267917069e-08 1.41220316179338e-09 1.44743358162191e-09 6.36891630131662e-09 1.39057119561555e-07 3.54323966488186e-08 9.29339290251444e-09 2.89087357283179e-09
"2492" 44471 8.06603996654124e-08 1.40617316343083e-09 1.44869262034756e-09 6.38081937854698e-09 1.38765301811774e-07 3.54318163429889e-08 9.28288633801092e-09 2.90545774896645e-09
