"time" "channel1" "channel2" "channel3" "channel4" "channel5" "channel6" "channel7" "channel8"
"1483" 27715 3.19335244165938e-10 3.85621224371357e-10 7.79541240747683e-10 2.39074259373087e-09 2.07098034569519e-09 1.73917271382059e-09 1.7805010573648e-10 1.203525679282e-10
"1484" 27716 3.19637523398187e-10 3.85878892855234e-10 7.88170697836017e-10 2.39252671902557e-09 2.07098034569519e-09 1.74741802914461e-09 1.7805010573648e-10 1.1873671826052e-10
"1485" 27717 3.19939802630437e-10 3.86136561339111e-10 7.96800154924352e-10 2.39431084432028e-09 2.07098034569519e-09 1.75566334446863e-09 1.7805010573648e-10 1.1712086859284e-10
"1486" 27718 3.20242081862686e-10 3.86394229822988e-10 8.05429612012687e-10 2.39609496961498e-09 2.07098034569519e-09 1.76390865979265e-09 1.7805010573648e-10 1.15505018925159e-10
"1487" 27719 3.20544361094936e-10 3.86651898306865e-10 8.14059069101021e-10 2.39787909490968e-09 2.07098034569519e-09 1.77215397511667e-09 1.7805010573648e-10 1.13889169257479e-10
"1488" 27720 3.21244633700309e-10 3.77882259129375e-10 8.21960141006103e-10 2.39976866379145e-09 2.06447566827822e-09 1.78039929044070e-09 1.77221141689259e-10 1.14233336516369e-10
"1489" 27721 3.21244633700309e-10 3.77125837528291e-10 8.30550109109323e-10 2.39807574967476e-09 2.06111430646039e-09 1.76496972158749e-09 1.75549466706074e-10 1.1457750377526e-10
"1490" 27722 3.21244633700309e-10 3.76369415927207e-10 8.39140077212543e-10 2.39638283555806e-09 2.05775294464256e-09 1.74954015273428e-09 1.73877791722889e-10 1.1492167103415e-10
"1491" 27723 3.21244633700309e-10 3.75612994326122e-10 8.47730045315762e-10 2.39468992144137e-09 2.05439158282474e-09 1.73411058388108e-09 1.72206116739703e-10 1.1526583829304e-10
"1492" 27724 3.21244633700309e-10 3.74856572725038e-10 8.56320013418982e-10 2.39299700732468e-09 2.05103022100691e-09 1.71868101502787e-09 1.70534441756518e-10 1.15610005551931e-10
"1493" 27725 3.20645120839019e-10 3.74083567273407e-10 8.56280524433867e-10 2.38941452432622e-09 2.04630250984009e-09 1.70014356403805e-09 1.68701098030511e-10 1.15954172810821e-10
"1494" 27726 3.19944848233646e-10 3.73069477188446e-10 8.56280524433867e-10 2.38593748491482e-09 2.04163975367457e-09 1.6757537083661e-09 1.66699212117312e-10 1.16298340069711e-10
"1495" 27727 3.19244575628272e-10 3.72055387103484e-10 8.56280524433867e-10 2.38246044550342e-09 2.03697699750906e-09 1.65136385269416e-09 1.64697326204113e-10 1.16642507328602e-10
"1496" 27728 3.18544303022899e-10 3.71041297018523e-10 8.56280524433867e-10 2.37898340609203e-09 2.03231424134355e-09 1.62697399702221e-09 1.62695440290913e-10 1.16986674587492e-10
"1497" 27729 3.17844030417526e-10 3.70027206933562e-10 8.56280524433867e-10 2.37550636668063e-09 2.02765148517803e-09 1.60258414135026e-09 1.60693554377714e-10 1.17330841846383e-10
"1498" 27730 3.17143757812152e-10 3.690131168486e-10 8.56280524433867e-10 2.37202932726923e-09 2.02298872901252e-09 1.57819428567831e-09 1.58691668464514e-10 1.17675009105273e-10
"1499" 27731 3.16443485206779e-10 3.67999026763639e-10 8.56280524433867e-10 2.36855228785784e-09 2.01832597284701e-09 1.55380443000636e-09 1.56689782551315e-10 1.18019176364163e-10
"1500" 27732 3.15743212601405e-10 3.66984936678678e-10 8.56280524433867e-10 2.36507524844644e-09 2.0136632166815e-09 1.52941457433442e-09 1.54687896638115e-10 1.18363343623054e-10
"1501" 27733 3.15042939996032e-10 3.65970846593717e-10 8.56280524433867e-10 2.36159820903504e-09 2.00900046051598e-09 1.50502471866247e-09 1.52686010724916e-10 1.18707510881944e-10
"1502" 27734 3.14342667390659e-10 3.64956756508755e-10 8.56280524433867e-10 2.35812116962364e-09 2.00433770435047e-09 1.48063486299052e-09 1.50684124811717e-10 1.19051678140834e-10
"1503" 27735 3.13642394785285e-10 3.63942666423794e-10 8.56280524433867e-10 2.35464413021225e-09 1.99967494818496e-09 1.45624500731857e-09 1.48682238898517e-10 1.19395845399725e-10
"1504" 27736 3.12942122179912e-10 3.62928576338833e-10 8.56280524433867e-10 2.35116709080085e-09 1.99501219201944e-09 1.43185515164662e-09 1.46680352985318e-10 1.19740012658615e-10
"1505" 27737 3.12241849574539e-10 3.61914486253871e-10 8.56280524433867e-10 2.34769005138945e-09 1.99034943585393e-09 1.40746529597467e-09 1.44678467072118e-10 1.20084179917506e-10
"1506" 27738 3.11541576969165e-10 3.6090039616891e-10 8.56280524433867e-10 2.34421301197806e-09 1.98568667968842e-09 1.38307544030273e-09 1.42676581158919e-10 1.20428347176396e-10
"1507" 27739 3.10841304363792e-10 3.59886306083949e-10 8.56280524433867e-10 2.34073597256666e-09 1.98102392352291e-09 1.35868558463078e-09 1.40674695245719e-10 1.20772514435286e-10
"1508" 27740 3.10141031758418e-10 3.58872215998987e-10 8.56280524433867e-10 2.33725893315526e-09 1.97636116735739e-09 1.33429572895883e-09 1.3867280933252e-10 1.21116681694177e-10
"1509" 27741 3.09440759153045e-10 3.57858125914026e-10 8.56280524433867e-10 2.33378189374387e-09 1.97169841119188e-09 1.30990587328688e-09 1.3667092341932e-10 1.21460848953067e-10
"1510" 27742 3.08740486547672e-10 3.56844035829065e-10 8.56280524433867e-10 2.33030485433247e-09 1.96703565502637e-09 1.28551601761493e-09 1.34669037506121e-10 1.21805016211957e-10
"1511" 27743 3.08740486547672e-10 3.55829945744104e-10 8.50413953982728e-10 2.31875655386775e-09 1.94856090279642e-09 1.27933203112192e-09 1.34338826576107e-10 1.21805016211957e-10
"1512" 27744 3.06050247076679e-10 3.54849023360237e-10 8.4972505778459e-10 2.31527951445635e-09 1.94537351908925e-09 1.27848442690284e-09 1.34338826576107e-10 1.22149183470848e-10
"1513" 27745 3.03360007605687e-10 3.5386810097637e-10 8.49036161586452e-10 2.31180247504495e-09 1.94218613538207e-09 1.27763682268377e-09 1.34338826576107e-10 1.22493350729738e-10
"1514" 27746 3.00669768134695e-10 3.52887178592504e-10 8.48347265388314e-10 2.30832543563356e-09 1.9389987516749e-09 1.27678921846469e-09 1.34338826576107e-10 1.22837517988629e-10
"1515" 27747 2.97979528663703e-10 3.51906256208637e-10 8.47658369190176e-10 2.30484839622216e-09 1.93581136796772e-09 1.27594161424561e-09 1.34338826576107e-10 1.23181685247519e-10
"1516" 27748 2.95989561798084e-10 3.51939423909732e-10 8.47737347160406e-10 2.3012659132237e-09 1.93255902925923e-09 1.27873518386232e-09 1.34669037506121e-10 1.23336271105836e-10
"1517" 27749 2.93400082071174e-10 3.54915358762426e-10 8.50848332818993e-10 2.29768343022524e-09 1.92930669055075e-09 1.27767136126573e-09 1.34669037506121e-10 1.23336271105836e-10
"1518" 27750 2.90810602344265e-10 3.57891293615121e-10 8.5395931847758e-10 2.29410094722678e-09 1.92605435184226e-09 1.27660753866914e-09 1.34669037506121e-10 1.23336271105836e-10
"1519" 27751 2.88221122617356e-10 3.60867228467815e-10 8.57070304136167e-10 2.29051846422832e-09 1.92280201313377e-09 1.27554371607255e-09 1.34669037506121e-10 1.23336271105836e-10
"1520" 27752 2.85631642890447e-10 3.6384316332051e-10 8.60181289794754e-10 2.28693598122986e-09 1.91954967442528e-09 1.27447989347596e-09 1.34669037506121e-10 1.23336271105836e-10
"1521" 27753 2.83042163163538e-10 3.66819098173205e-10 8.63292275453341e-10 2.28335349823141e-09 1.9162973357168e-09 1.27341607087937e-09 1.34669037506121e-10 1.23336271105836e-10
"1522" 27754 2.80452683436629e-10 3.69795033025899e-10 8.66403261111928e-10 2.27977101523295e-09 1.91304499700831e-09 1.27235224828278e-09 1.34669037506121e-10 1.23336271105836e-10
"1523" 27755 2.7786320370972e-10 3.72770967878594e-10 8.69514246770514e-10 2.27618853223449e-09 1.90979265829982e-09 1.27128842568619e-09 1.34669037506121e-10 1.23336271105836e-10
"1524" 27756 2.75273723982811e-10 3.75746902731288e-10 8.72625232429101e-10 2.27260604923603e-09 1.90654031959133e-09 1.27022460308959e-09 1.34669037506121e-10 1.23336271105836e-10
"1525" 27757 2.72684244255902e-10 3.78722837583983e-10 8.75736218087688e-10 2.26902356623757e-09 1.90328798088285e-09 1.269160780493e-09 1.34669037506121e-10 1.23336271105836e-10
"1526" 27758 2.70986465416114e-10 3.70402199972057e-10 8.550650100608e-10 2.20622337069664e-09 1.90003564217436e-09 1.26809695789641e-09 1.34669037506121e-10 1.23181685247519e-10
"1527" 27759 2.71087225160197e-10 3.74117972575289e-10 8.58864891917525e-10 2.16359000374182e-09 1.90003564217436e-09 1.2639743002344e-09 1.34338826576107e-10 1.23181685247519e-10
"1528" 27760 2.71187984904281e-10 3.73876887941959e-10 8.59553788115663e-10 2.12165204466928e-09 1.90283329587367e-09 1.2639743002344e-09 1.34008615646093e-10 1.23336271105836e-10
"1529" 27761 2.71288744648364e-10 3.73635803308629e-10 8.60242684313801e-10 2.07971408559674e-09 1.90563094957297e-09 1.2639743002344e-09 1.33678404716079e-10 1.23490856964152e-10
"1530" 27762 2.71389504392447e-10 3.73394718675299e-10 8.60931580511939e-10 2.0377761265242e-09 1.90842860327228e-09 1.2639743002344e-09 1.33348193786064e-10 1.23645442822469e-10
"1531" 27763 2.7149026413653e-10 3.73153634041969e-10 8.61620476710077e-10 1.99583816745166e-09 1.91122625697159e-09 1.2639743002344e-09 1.3301798285605e-10 1.23800028680785e-10
"1532" 27764 2.71591023880613e-10 3.7291254940864e-10 8.62309372908215e-10 1.95390020837911e-09 1.9140239106709e-09 1.2639743002344e-09 1.32687771926036e-10 1.23954614539102e-10
"1533" 27765 2.71691783624697e-10 3.7267146477531e-10 8.62998269106353e-10 1.91196224930657e-09 1.91682156437021e-09 1.2639743002344e-09 1.32357560996022e-10 1.24109200397419e-10
"1534" 27766 2.7179254336878e-10 3.7243038014198e-10 8.63687165304491e-10 1.87002429023403e-09 1.91961921806951e-09 1.2639743002344e-09 1.32027350066008e-10 1.24263786255735e-10
"1535" 27767 2.71893303112863e-10 3.7218929550865e-10 8.64376061502629e-10 1.82808633116149e-09 1.92241687176882e-09 1.2639743002344e-09 1.31697139135994e-10 1.24418372114052e-10
"1536" 27768 2.71994062856946e-10 3.72962300960282e-10 8.66292096001227e-10 1.78614837208895e-09 1.92957339352037e-09 1.26370903478569e-09 1.31697139135994e-10 1.26378389040623e-10
"1537" 27769 2.72094822601029e-10 3.73735306411913e-10 8.68208130499824e-10 1.7442104130164e-09 1.93672991527192e-09 1.26344376933698e-09 1.31697139135994e-10 1.28338405967193e-10
"1538" 27770 2.72195582345113e-10 3.74508311863544e-10 8.70124164998422e-10 1.70227245394386e-09 1.94388643702346e-09 1.26317850388827e-09 1.31697139135994e-10 1.30298422893764e-10
"1539" 27771 2.72296342089196e-10 3.75281317315176e-10 8.7204019949702e-10 1.66033449487132e-09 1.95104295877501e-09 1.26291323843957e-09 1.31697139135994e-10 1.32258439820335e-10
"1540" 27772 2.72397101833279e-10 3.76054322766807e-10 8.73956233995618e-10 1.61839653579878e-09 1.95819948052656e-09 1.26264797299086e-09 1.31697139135994e-10 1.34218456746906e-10
"1541" 27773 2.72497861577362e-10 3.76827328218439e-10 8.75872268494216e-10 1.57645857672624e-09 1.96535600227811e-09 1.26238270754215e-09 1.31697139135994e-10 1.36178473673476e-10
"1542" 27774 2.72598621321445e-10 3.7760033367007e-10 8.77788302992814e-10 1.53452061765369e-09 1.97251252402966e-09 1.26211744209344e-09 1.31697139135994e-10 1.38138490600047e-10
"1543" 27775 2.72699381065529e-10 3.78373339121702e-10 8.79704337491412e-10 1.49258265858115e-09 1.9796690457812e-09 1.26185217664473e-09 1.31697139135994e-10 1.40098507526618e-10
"1544" 27776 2.72800140809612e-10 3.79146344573333e-10 8.8162037199001e-10 1.45064469950861e-09 1.98682556753275e-09 1.26158691119602e-09 1.31697139135994e-10 1.42058524453189e-10
"1545" 27777 2.72900900553695e-10 3.79919350024965e-10 8.83536406488608e-10 1.40870674043607e-09 1.9939820892843e-09 1.26132164574731e-09 1.31697139135994e-10 1.4401854137976e-10
"1546" 27778 2.73001660297778e-10 3.80692355476596e-10 8.85452440987206e-10 1.36676878136353e-09 2.00113861103585e-09 1.2610563802986e-09 1.31697139135994e-10 1.4597855830633e-10
"1547" 27779 2.73102420041861e-10 3.81465360928228e-10 8.87368475485804e-10 1.32483082229098e-09 2.00829513278739e-09 1.2607911148499e-09 1.31697139135994e-10 1.47938575232901e-10
"1548" 27780 2.73203179785945e-10 3.82238366379859e-10 8.89284509984402e-10 1.28289286321844e-09 2.01545165453894e-09 1.26052584940119e-09 1.31697139135994e-10 1.49898592159472e-10
"1549" 27781 2.73303939530028e-10 3.83011371831491e-10 8.91200544483e-10 1.2409549041459e-09 2.02260817629049e-09 1.26026058395248e-09 1.31697139135994e-10 1.51858609086043e-10
"1550" 27782 2.73404699274111e-10 3.83784377283122e-10 8.93116578981598e-10 1.19901694507336e-09 2.02976469804204e-09 1.25999531850377e-09 1.31697139135994e-10 1.53818626012613e-10
"1551" 27783 2.73505459018194e-10 3.85812557453045e-10 8.98983149432736e-10 1.1621577283509e-09 2.02982965304335e-09 1.256803850714e-09 1.31535470393172e-10 1.5397321187093e-10
"1552" 27784 2.76195698489187e-10 3.86552395203581e-10 8.98983149432736e-10 1.11952436139607e-09 2.03119600239235e-09 1.256803850714e-09 1.31535470393172e-10 1.5397321187093e-10
"1553" 27785 2.7689597109456e-10 3.88580575373504e-10 8.99751023601105e-10 1.08598822654709e-09 2.04212450286287e-09 1.26145980007518e-09 1.31373801650351e-10 1.5397321187093e-10
"1554" 27786 2.77596243699933e-10 3.90608755543427e-10 9.00518897769472e-10 1.05245209169811e-09 2.0530530033334e-09 1.26611574943636e-09 1.3121213290753e-10 1.5397321187093e-10
"1555" 27787 2.78296516305307e-10 3.92636935713349e-10 9.0128677193784e-10 1.01891595684913e-09 2.06398150380393e-09 1.27077169879755e-09 1.31050464164708e-10 1.5397321187093e-10
"1556" 27788 2.78896029166597e-10 3.94648532032724e-10 9.02054646106208e-10 1.02580728931202e-09 2.0732188799189e-09 1.27926777108105e-09 1.31219006351901e-10 1.5397321187093e-10
"1557" 27789 2.7959630177197e-10 3.95903706751016e-10 9.02862009259691e-10 1.03301495253609e-09 2.0794196692226e-09 1.28783015972673e-09 1.3105733760908e-10 1.53818626012613e-10
"1558" 27790 2.80296574377344e-10 3.97158881469307e-10 9.03669372413174e-10 1.04022261576016e-09 2.0856204585263e-09 1.29639254837241e-09 1.30895668866259e-10 1.53664040154297e-10
"1559" 27791 2.80996846982717e-10 3.98414056187598e-10 9.04476735566657e-10 1.04743027898424e-09 2.09182124783e-09 1.30495493701809e-09 1.30734000123437e-10 1.5350945429598e-10
"1560" 27792 2.8169711958809e-10 3.99669230905889e-10 9.0528409872014e-10 1.05463794220831e-09 2.09802203713371e-09 1.31351732566377e-09 1.30572331380616e-10 1.53354868437664e-10
"1561" 27793 2.82397392193464e-10 4.0092440562418e-10 9.06091461873623e-10 1.06184560543239e-09 2.10422282643741e-09 1.32207971430944e-09 1.30410662637795e-10 1.53200282579347e-10
"1562" 27794 2.83097664798837e-10 4.02179580342471e-10 9.06898825027106e-10 1.06905326865646e-09 2.11042361574111e-09 1.33064210295512e-09 1.30248993894973e-10 1.5304569672103e-10
"1563" 27795 2.8379793740421e-10 4.03434755060762e-10 9.07706188180589e-10 1.07626093188053e-09 2.11662440504481e-09 1.3392044916008e-09 1.30087325152152e-10 1.52891110862714e-10
"1564" 27796 2.84498210009584e-10 4.04689929779053e-10 9.08513551334072e-10 1.08346859510461e-09 2.12282519434851e-09 1.34776688024648e-09 1.29925656409331e-10 1.52736525004397e-10
"1565" 27797 2.85198482614957e-10 4.05945104497345e-10 9.09320914487555e-10 1.09067625832868e-09 2.12902598365222e-09 1.35632926889216e-09 1.29763987666509e-10 1.52581939146081e-10
"1566" 27798 2.85898755220331e-10 4.07200279215636e-10 9.10128277641038e-10 1.09788392155275e-09 2.13522677295592e-09 1.36489165753784e-09 1.29602318923688e-10 1.52427353287764e-10
"1567" 27799 2.86599027825704e-10 4.08455453933927e-10 9.10935640794521e-10 1.10509158477683e-09 2.14142756225962e-09 1.37345404618352e-09 1.29440650180867e-10 1.52272767429447e-10
"1568" 27800 2.87299300431077e-10 4.09710628652218e-10 9.11743003948004e-10 1.1122992480009e-09 2.14762835156332e-09 1.3820164348292e-09 1.29278981438045e-10 1.52118181571131e-10
"1569" 27801 2.87999573036451e-10 4.10965803370509e-10 9.12550367101487e-10 1.11950691122498e-09 2.15382914086702e-09 1.39057882347488e-09 1.29117312695224e-10 1.51963595712814e-10
"1570" 27802 2.883018522687e-10 4.12977399689884e-10 9.0967631535359e-10 1.12671457444905e-09 2.14289834607504e-09 1.39842624062584e-09 1.29117312695224e-10 1.51963595712814e-10
"1571" 27803 2.89002124874074e-10 4.15005579859807e-10 9.08409688068015e-10 1.13490551149849e-09 2.15339304842967e-09 1.40614102505244e-09 1.29117312695224e-10 1.51619428453924e-10
"1572" 27804 2.89102884618157e-10 4.15005579859807e-10 9.06335697628957e-10 1.15352756678211e-09 2.17974112174704e-09 1.40722211694001e-09 1.29784607999624e-10 1.52083186028874e-10
"1573" 27805 2.89102884618157e-10 4.15745417610344e-10 9.08101078031739e-10 1.16880649105951e-09 2.1809984479867e-09 1.40644082908311e-09 1.29616065812431e-10 1.518936046283e-10
"1574" 27806 2.89102884618157e-10 4.16485255360881e-10 9.09866458434521e-10 1.1840854153369e-09 2.18225577422636e-09 1.40565954122621e-09 1.29447523625238e-10 1.51704023227726e-10
"1575" 27807 2.89102884618157e-10 4.17225093111417e-10 9.11631838837303e-10 1.1993643396143e-09 2.18351310046602e-09 1.40487825336932e-09 1.29278981438045e-10 1.51514441827152e-10
"1576" 27808 2.89102884618157e-10 4.17964930861954e-10 9.13397219240085e-10 1.2146432638917e-09 2.18477042670568e-09 1.40409696551242e-09 1.29110439250852e-10 1.51324860426578e-10
"1577" 27809 2.89102884618157e-10 4.18704768612491e-10 9.15162599642867e-10 1.22992218816909e-09 2.18602775294534e-09 1.40331567765552e-09 1.2894189706366e-10 1.51135279026005e-10
"1578" 27810 2.89102884618157e-10 4.19444606363028e-10 9.16927980045649e-10 1.24520111244649e-09 2.187285079185e-09 1.40253438979862e-09 1.28773354876467e-10 1.50945697625431e-10
"1579" 27811 2.89102884618157e-10 4.20184444113565e-10 9.18693360448431e-10 1.26048003672388e-09 2.18854240542466e-09 1.40175310194172e-09 1.28604812689274e-10 1.50756116224857e-10
"1580" 27812 2.89102884618157e-10 4.20924281864101e-10 9.20458740851213e-10 1.27575896100128e-09 2.18979973166432e-09 1.40097181408482e-09 1.28436270502081e-10 1.50566534824283e-10
"1581" 27813 2.89102884618157e-10 4.21664119614638e-10 9.22224121253995e-10 1.29103788527868e-09 2.19105705790398e-09 1.40019052622792e-09 1.28267728314888e-10 1.5037695342371e-10
"1582" 27814 2.89102884618157e-10 4.22403957365175e-10 9.23989501656777e-10 1.30631680955607e-09 2.19231438414364e-09 1.39940923837102e-09 1.28099186127696e-10 1.50187372023136e-10
"1583" 27815 2.89102884618157e-10 4.23143795115712e-10 9.25754882059558e-10 1.32159573383347e-09 2.1935717103833e-09 1.39862795051412e-09 1.27930643940503e-10 1.49997790622562e-10
"1584" 27816 2.89102884618157e-10 4.23883632866249e-10 9.2752026246234e-10 1.33687465811086e-09 2.19482903662296e-09 1.39784666265722e-09 1.2776210175331e-10 1.49808209221988e-10
"1585" 27817 2.88704891245033e-10 4.23850465165154e-10 9.31320144319065e-10 1.35085397780171e-09 2.1964552059772e-09 1.39427180518361e-09 1.2776210175331e-10 1.49808209221988e-10
"1586" 27818 2.88704891245033e-10 4.25055888331803e-10 9.32088018487433e-10 1.35053764704052e-09 2.20111796214271e-09 1.39063063134783e-09 1.28092312683324e-10 1.49997790622562e-10
"1587" 27819 2.88704891245033e-10 4.26261311498452e-10 9.32855892655801e-10 1.35022131627934e-09 2.20578071830823e-09 1.38698945751204e-09 1.28422523613338e-10 1.50187372023136e-10
"1588" 27820 2.88704891245033e-10 4.27466734665101e-10 9.33623766824169e-10 1.34990498551815e-09 2.21044347447374e-09 1.38334828367625e-09 1.28752734543352e-10 1.5037695342371e-10
"1589" 27821 2.88704891245033e-10 4.2867215783175e-10 9.34391640992537e-10 1.34958865475697e-09 2.21510623063925e-09 1.37970710984047e-09 1.29082945473366e-10 1.50566534824283e-10
"1590" 27822 2.88704891245033e-10 4.298775809984e-10 9.35159515160905e-10 1.34927232399578e-09 2.21976898680477e-09 1.37606593600468e-09 1.29413156403381e-10 1.50756116224857e-10
"1591" 27823 2.88704891245033e-10 4.31083004165049e-10 9.35927389329273e-10 1.34895599323459e-09 2.22443174297028e-09 1.37242476216890e-09 1.29743367333395e-10 1.50945697625431e-10
"1592" 27824 2.88704891245033e-10 4.32288427331698e-10 9.36695263497641e-10 1.34863966247341e-09 2.22909449913579e-09 1.36878358833311e-09 1.30073578263409e-10 1.51135279026005e-10
"1593" 27825 2.88704891245033e-10 4.33493850498347e-10 9.37463137666009e-10 1.34832333171222e-09 2.2337572553013e-09 1.36514241449732e-09 1.30403789193423e-10 1.51324860426578e-10
"1594" 27826 2.88306897871909e-10 4.32737428897263e-10 9.37423648680894e-10 1.34681283995155e-09 2.23538342465555e-09 1.36150124066154e-09 1.30734000123437e-10 1.51170274568262e-10
"1595" 27827 2.87908904498786e-10 4.31981007296179e-10 9.37384159695779e-10 1.34530234819087e-09 2.23700959400979e-09 1.35786006682575e-09 1.31064211053451e-10 1.51015688709945e-10
"1596" 27828 2.87510911125662e-10 4.31224585695095e-10 9.37344670710664e-10 1.3437918564302e-09 2.23863576336404e-09 1.35421889298996e-09 1.31394421983466e-10 1.50861102851629e-10
"1597" 27829 2.87112917752538e-10 4.3046816409401e-10 9.37305181725549e-10 1.34228136466953e-09 2.24026193271828e-09 1.35057771915418e-09 1.3172463291348e-10 1.50706516993312e-10
"1598" 27830 2.85818177889083e-10 4.30484747944558e-10 9.37265692740434e-10 1.34297677255181e-09 2.24188810207252e-09 1.35057771915418e-09 1.31886301656301e-10 1.50706516993312e-10
"1599" 27831 2.84523438025629e-10 4.30501331795105e-10 9.37226203755319e-10 1.34367218043409e-09 2.24351427142677e-09 1.35057771915418e-09 1.32047970399122e-10 1.50706516993312e-10
"1600" 27832 2.83228698162174e-10 4.30517915645652e-10 9.37186714770204e-10 1.34436758831637e-09 2.24514044078101e-09 1.35057771915418e-09 1.32209639141944e-10 1.50706516993312e-10
"1601" 27833 2.8193395829872e-10 4.305344994962e-10 9.37147225785089e-10 1.34506299619865e-09 2.24676661013525e-09 1.35057771915418e-09 1.32371307884765e-10 1.50706516993312e-10
"1602" 27834 2.80639218435265e-10 4.30551083346747e-10 9.37107736799974e-10 1.34575840408093e-09 2.2483927794895e-09 1.35057771915418e-09 1.32532976627586e-10 1.50706516993312e-10
"1603" 27835 2.79344478571811e-10 4.30567667197294e-10 9.37068247814859e-10 1.3464538119632e-09 2.25001894884374e-09 1.35057771915418e-09 1.32694645370408e-10 1.50706516993312e-10
"1604" 27836 2.78049738708356e-10 4.30584251047842e-10 9.37028758829744e-10 1.34714921984548e-09 2.25164511819799e-09 1.35057771915418e-09 1.32856314113229e-10 1.50706516993312e-10
"1605" 27837 2.75359499237364e-10 4.30841919531719e-10 9.3112269939349e-10 1.3442621447293e-09 2.25196989320454e-09 1.350511402792e-09 1.3235068755165e-10 1.50551931134995e-10
"1606" 27838 2.7496150586424e-10 4.30858503382266e-10 9.31352331459536e-10 1.34515420737666e-09 2.25196989320454e-09 1.3466049635075e-09 1.32512356294472e-10 1.50207763876105e-10
"1607" 27839 2.74563512491116e-10 4.30875087232814e-10 9.31581963525582e-10 1.34604627002401e-09 2.25196989320454e-09 1.34269852422301e-09 1.32674025037293e-10 1.49863596617215e-10
"1608" 27840 2.74165519117992e-10 4.30891671083361e-10 9.31811595591628e-10 1.34693833267136e-09 2.25196989320454e-09 1.33879208493851e-09 1.32835693780114e-10 1.49519429358324e-10
"1609" 27841 2.73767525744869e-10 4.32870099701642e-10 9.32080716642789e-10 1.34804128249284e-09 2.25027876884899e-09 1.33681434176067e-09 1.32997362522936e-10 1.49175262099434e-10
"1610" 27842 2.74664272235199e-10 4.32629015068312e-10 9.36149719550675e-10 1.34834338084497e-09 2.24921630761326e-09 1.33909188896919e-09 1.33987995312978e-10 1.49175262099434e-10
"1611" 27843 2.7556101872553e-10 4.32387930434982e-10 9.40218722458561e-10 1.34864547919711e-09 2.24815384637754e-09 1.34136943617771e-09 1.34978628103021e-10 1.49175262099434e-10
"1612" 27844 2.76457765215861e-10 4.32146845801652e-10 9.44287725366447e-10 1.34894757754924e-09 2.24709138514181e-09 1.34364698338623e-09 1.35969260893063e-10 1.49175262099434e-10
"1613" 27845 2.77354511706192e-10 4.31905761168322e-10 9.48356728274333e-10 1.34924967590137e-09 2.24602892390609e-09 1.34592453059475e-09 1.36959893683105e-10 1.49175262099434e-10
"1614" 27846 2.78251258196522e-10 4.31664676534992e-10 9.52425731182219e-10 1.34955177425351e-09 2.24496646267036e-09 1.34820207780327e-09 1.37950526473148e-10 1.49175262099434e-10
"1615" 27847 2.79148004686853e-10 4.31423591901663e-10 9.56494734090104e-10 1.34985387260564e-09 2.24390400143464e-09 1.35047962501179e-09 1.3894115926319e-10 1.49175262099434e-10
"1616" 27848 2.80044751177184e-10 4.31182507268333e-10 9.6056373699799e-10 1.35015597095778e-09 2.24284154019891e-09 1.35275717222031e-09 1.39931792053233e-10 1.49175262099434e-10
"1617" 27849 2.80941497667515e-10 4.30941422635003e-10 9.64632739905876e-10 1.35045806930991e-09 2.24177907896318e-09 1.35503471942883e-09 1.40922424843275e-10 1.49175262099434e-10
"1618" 27850 2.81838244157846e-10 4.30700338001673e-10 9.68701742813762e-10 1.35076016766205e-09 2.24071661772746e-09 1.35731226663735e-09 1.41913057633318e-10 1.49175262099434e-10
"1619" 27851 2.82734990648176e-10 4.30459253368343e-10 9.72770745721648e-10 1.35106226601418e-09 2.23965415649173e-09 1.35958981384587e-09 1.4290369042336e-10 1.49175262099434e-10
"1620" 27852 2.83631737138507e-10 4.30218168735013e-10 9.76839748629534e-10 1.35136436436632e-09 2.23859169525601e-09 1.36186736105439e-09 1.43894323213403e-10 1.49175262099434e-10
"1621" 27853 2.84528483628838e-10 4.29977084101684e-10 9.80908751537419e-10 1.35166646271845e-09 2.23752923402028e-09 1.36414490826291e-09 1.44884956003445e-10 1.49175262099434e-10
"1622" 27854 2.85425230119169e-10 4.29735999468354e-10 9.84977754445305e-10 1.35196856107059e-09 2.23646677278456e-09 1.36642245547143e-09 1.45875588793488e-10 1.49175262099434e-10
"1623" 27855 2.86321976609499e-10 4.29494914835024e-10 9.89046757353191e-10 1.35227065942272e-09 2.23540431154883e-09 1.36870000267995e-09 1.4686622158353e-10 1.49175262099434e-10
"1624" 27856 2.8721872309983e-10 4.29253830201694e-10 9.93115760261077e-10 1.35257275777485e-09 2.23434185031311e-09 1.37097754988847e-09 1.47856854373572e-10 1.49175262099434e-10
"1625" 27857 2.88115469590161e-10 4.29012745568364e-10 9.97184763168963e-10 1.35287485612699e-09 2.23327938907738e-09 1.37325509709699e-09 1.48847487163615e-10 1.49175262099434e-10
"1626" 27858 2.89012216080492e-10 4.28771660935034e-10 1.00125376607685e-09 1.35317695447912e-09 2.23221692784166e-09 1.37553264430551e-09 1.49838119953657e-10 1.49175262099434e-10
"1627" 27859 2.89908962570822e-10 4.28530576301705e-10 1.00532276898473e-09 1.35347905283126e-09 2.23115446660593e-09 1.37781019151403e-09 1.508287527437e-10 1.49175262099434e-10
"1628" 27860 2.90805709061153e-10 4.28289491668375e-10 1.00939177189262e-09 1.35378115118339e-09 2.23009200537021e-09 1.38008773872255e-09 1.51819385533742e-10 1.49175262099434e-10
"1629" 27861 2.91999689180525e-10 4.26020226865122e-10 1.01127561925075e-09 1.3481124445381e-09 2.22902954413448e-09 1.38434302910891e-09 1.52978560510978e-10 1.49175262099434e-10
"1630" 27862 2.93193669299896e-10 4.2375096206187e-10 1.01315946660887e-09 1.3424437378928e-09 2.22796708289876e-09 1.38859831949528e-09 1.54137735488213e-10 1.49175262099434e-10
"1631" 27863 2.94387649419267e-10 4.21481697258618e-10 1.015043313967e-09 1.3367750312475e-09 2.22690462166303e-09 1.39285360988164e-09 1.55296910465448e-10 1.49175262099434e-10
"1632" 27864 2.94684883048308e-10 4.19453517088695e-10 1.01381617566654e-09 1.33169628889742e-09 2.23969822459976e-09 1.39099123013717e-09 1.55627121395462e-10 1.49639019674384e-10
"1633" 27865 2.95878863167679e-10 4.18165174669309e-10 1.01163102011678e-09 1.32682843372146e-09 2.24080475394351e-09 1.388846315653e-09 1.55795663582655e-10 1.49294852415493e-10
"1634" 27866 2.97072843287051e-10 4.16876832249923e-10 1.00944586456702e-09 1.32196057854551e-09 2.24191128328727e-09 1.38670140116884e-09 1.55964205769848e-10 1.48950685156603e-10
"1635" 27867 2.98266823406422e-10 4.15588489830538e-10 1.00726070901726e-09 1.31709272336955e-09 2.24301781263102e-09 1.38455648668467e-09 1.56132747957041e-10 1.48606517897713e-10
"1636" 27868 2.99460803525793e-10 4.14300147411152e-10 1.00507555346751e-09 1.3122248681936e-09 2.24412434197477e-09 1.38241157220051e-09 1.56301290144234e-10 1.48262350638822e-10
"1637" 27869 3.00654783645165e-10 4.13011804991766e-10 1.00289039791775e-09 1.30735701301764e-09 2.24523087131852e-09 1.38026665771634e-09 1.56469832331426e-10 1.47918183379932e-10
"1638" 27870 3.01848763764536e-10 4.1172346257238e-10 1.00070524236799e-09 1.30248915784169e-09 2.24633740066228e-09 1.37812174323218e-09 1.56638374518619e-10 1.47574016121041e-10
"1639" 27871 3.03042743883907e-10 4.10435120152995e-10 9.98520086818229e-10 1.29762130266573e-09 2.24744393000603e-09 1.37597682874801e-09 1.56806916705812e-10 1.47229848862151e-10
"1640" 27872 3.04236724003279e-10 4.09146777733609e-10 9.9633493126847e-10 1.29275344748977e-09 2.24855045934978e-09 1.37383191426384e-09 1.56975458893005e-10 1.46885681603261e-10
"1641" 27873 3.0543070412265e-10 4.07858435314223e-10 9.94149775718711e-10 1.28788559231382e-09 2.24965698869354e-09 1.37168699977968e-09 1.57144001080198e-10 1.4654151434437e-10
"1642" 27874 3.06025171380731e-10 4.08581689214212e-10 9.94149775718711e-10 1.28788559231382e-09 2.25076351803729e-09 1.37140446503999e-09 1.56982332337376e-10 1.4654151434437e-10
"1643" 27875 3.06619638638812e-10 4.09304943114202e-10 9.94149775718711e-10 1.28788559231382e-09 2.25187004738104e-09 1.37112193030029e-09 1.56820663594555e-10 1.4654151434437e-10
"1644" 27876 3.06619638638812e-10 4.11316539433577e-10 9.94379407784757e-10 1.29328066542508e-09 2.25343126173397e-09 1.3708393955606e-09 1.56490452664541e-10 1.4654151434437e-10
"1645" 27877 3.06619638638812e-10 4.13328135752952e-10 9.94609039850803e-10 1.29867573853635e-09 2.25499247608691e-09 1.37055686082091e-09 1.56160241734527e-10 1.4654151434437e-10
"1646" 27878 3.06619638638812e-10 4.15339732072328e-10 9.94838671916849e-10 1.30407081164762e-09 2.25655369043984e-09 1.37027432608122e-09 1.55830030804513e-10 1.4654151434437e-10
"1647" 27879 3.06619638638812e-10 4.17351328391703e-10 9.95068303982895e-10 1.30946588475888e-09 2.25811490479277e-09 1.36999179134153e-09 1.55499819874499e-10 1.4654151434437e-10
"1648" 27880 3.06619638638812e-10 4.19362924711078e-10 9.95297936048941e-10 1.31486095787015e-09 2.2596761191457e-09 1.36970925660183e-09 1.55169608944484e-10 1.4654151434437e-10
"1649" 27881 3.06619638638812e-10 4.21374521030453e-10 9.95527568114987e-10 1.32025603098142e-09 2.26123733349863e-09 1.36942672186214e-09 1.5483939801447e-10 1.4654151434437e-10
"1650" 27882 3.06619638638812e-10 4.23386117349829e-10 9.95757200181033e-10 1.32565110409268e-09 2.26279854785157e-09 1.36914418712245e-09 1.54509187084456e-10 1.4654151434437e-10
"1651" 27883 3.09314923713014e-10 4.23386117349829e-10 9.97942355730792e-10 1.33639855308806e-09 2.26826394524756e-09 1.36886165238276e-09 1.54178976154442e-10 1.46696100202687e-10
"1652" 27884 3.12010208787215e-10 4.23386117349829e-10 1.00012751128055e-09 1.34714600208344e-09 2.27372934264355e-09 1.36857911764307e-09 1.53848765224428e-10 1.46850686061004e-10
"1653" 27885 3.14705493861416e-10 4.23386117349829e-10 1.00231266683031e-09 1.35789345107882e-09 2.27919474003954e-09 1.36829658290337e-09 1.53518554294414e-10 1.4700527191932e-10
"1654" 27886 3.17400778935618e-10 4.23386117349829e-10 1.00449782238007e-09 1.36864090007419e-09 2.28466013743554e-09 1.36801404816368e-09 1.53188343364400e-10 1.47159857777637e-10
"1655" 27887 3.20096064009819e-10 4.23386117349829e-10 1.00668297792983e-09 1.37938834906957e-09 2.29012553483153e-09 1.36773151342399e-09 1.52858132434385e-10 1.47314443635953e-10
"1656" 27888 3.2279134908402e-10 4.23386117349829e-10 1.00886813347959e-09 1.39013579806495e-09 2.29559093222752e-09 1.3674489786843e-09 1.52527921504371e-10 1.4746902949427e-10
"1657" 27889 3.25486634158222e-10 4.23386117349829e-10 1.01105328902935e-09 1.40088324706033e-09 2.30105632962352e-09 1.3671664439446e-09 1.52197710574357e-10 1.47623615352587e-10
"1658" 27890 3.28181919232423e-10 4.23386117349829e-10 1.0132384445791e-09 1.4116306960557e-09 2.30652172701951e-09 1.36688390920491e-09 1.51867499644343e-10 1.47778201210903e-10
"1659" 27891 3.30877204306624e-10 4.23386117349829e-10 1.01542360012886e-09 1.42237814505108e-09 2.3119871244155e-09 1.36660137446522e-09 1.51537288714329e-10 1.4793278706922e-10
"1660" 27892 3.33572489380826e-10 4.23386117349829e-10 1.01760875567862e-09 1.43312559404646e-09 2.31745252181149e-09 1.36631883972553e-09 1.51207077784315e-10 1.48087372927536e-10
"1661" 27893 3.36267774455027e-10 4.23386117349829e-10 1.01979391122838e-09 1.44387304304184e-09 2.32291791920749e-09 1.36603630498584e-09 1.508768668543e-10 1.48241958785853e-10
"1662" 27894 3.38963059529228e-10 4.23386117349829e-10 1.02197906677814e-09 1.45462049203721e-09 2.32838331660348e-09 1.36575377024614e-09 1.50546655924286e-10 1.4839654464417e-10
"1663" 27895 3.41658344603429e-10 4.23386117349829e-10 1.0241642223279e-09 1.46536794103259e-09 2.33384871399947e-09 1.36547123550645e-09 1.50216444994272e-10 1.48551130502486e-10
"1664" 27896 3.41058831742139e-10 4.23369533499281e-10 1.026467844833e-09 1.46846590332290e-09 2.35525102993135e-09 1.36547123550645e-09 1.50722071555851e-10 1.48551130502486e-10
"1665" 27897 3.41159591486222e-10 4.23610618132611e-10 1.02486042037068e-09 1.45294181032957e-09 2.37791067210288e-09 1.36360885576198e-09 1.51227698117429e-10 1.48551130502486e-10
"1666" 27898 3.41260351230306e-10 4.23851702765941e-10 1.02716404287578e-09 1.45714272244135e-09 2.36880091166907e-09 1.36282756790508e-09 1.49576643467358e-10 1.47743205668646e-10
"1667" 27899 3.41361110974389e-10 4.24092787399271e-10 1.02946766538089e-09 1.46134363455313e-09 2.35969115123526e-09 1.36204628004818e-09 1.47925588817288e-10 1.46935280834806e-10
"1668" 27900 3.41461870718472e-10 4.24333872032601e-10 1.03177128788599e-09 1.46554454666491e-09 2.35058139080145e-09 1.36126499219128e-09 1.46274534167217e-10 1.46127356000966e-10
"1669" 27901 3.41562630462555e-10 4.24574956665931e-10 1.0340749103911e-09 1.46974545877669e-09 2.34147163036765e-09 1.36048370433438e-09 1.44623479517146e-10 1.45319431167125e-10
"1670" 27902 3.41663390206638e-10 4.2481604129926e-10 1.0363785328962e-09 1.47394637088847e-09 2.33236186993384e-09 1.35970241647748e-09 1.42972424867075e-10 1.44511506333285e-10
"1671" 27903 3.41764149950722e-10 4.2505712593259e-10 1.0386821554013e-09 1.47814728300025e-09 2.32325210950003e-09 1.35892112862058e-09 1.41321370217005e-10 1.43703581499445e-10
"1672" 27904 3.41864909694805e-10 4.2529821056592e-10 1.04098577790641e-09 1.48234819511203e-09 2.31414234906622e-09 1.35813984076369e-09 1.39670315566934e-10 1.42895656665605e-10
"1673" 27905 3.41965669438888e-10 4.2553929519925e-10 1.04328940041151e-09 1.48654910722381e-09 2.30503258863242e-09 1.35735855290679e-09 1.38019260916863e-10 1.42087731831765e-10
"1674" 27906 3.42066429182971e-10 4.2578037983258e-10 1.04559302291662e-09 1.49075001933559e-09 2.29592282819861e-09 1.35657726504989e-09 1.36368206266792e-10 1.41279806997924e-10
"1675" 27907 3.42167188927054e-10 4.26021464465909e-10 1.04789664542172e-09 1.49495093144737e-09 2.2868130677648e-09 1.35579597719299e-09 1.34717151616722e-10 1.40471882164084e-10
"1676" 27908 3.42267948671138e-10 4.26262549099239e-10 1.05020026792682e-09 1.49915184355915e-09 2.27770330733099e-09 1.35501468933609e-09 1.33066096966651e-10 1.39663957330244e-10
"1677" 27909 3.42368708415221e-10 4.26503633732569e-10 1.05250389043193e-09 1.50335275567093e-09 2.26859354689719e-09 1.35423340147919e-09 1.3141504231658e-10 1.38856032496404e-10
"1678" 27910 3.42469468159304e-10 4.26744718365899e-10 1.05480751293703e-09 1.50755366778271e-09 2.25948378646338e-09 1.35345211362229e-09 1.29763987666509e-10 1.38048107662564e-10
"1679" 27911 3.42570227903387e-10 4.26985802999229e-10 1.05711113544214e-09 1.51175457989449e-09 2.25037402602957e-09 1.35267082576539e-09 1.28112933016438e-10 1.37240182828723e-10
"1680" 27912 3.4267098764747e-10 4.27226887632559e-10 1.05941475794724e-09 1.51595549200627e-09 2.24126426559576e-09 1.35188953790849e-09 1.26461878366368e-10 1.36432257994883e-10
"1681" 27913 3.42771747391554e-10 4.27467972265888e-10 1.06171838045234e-09 1.52015640411805e-09 2.23215450516196e-09 1.35110825005159e-09 1.24810823716297e-10 1.35624333161043e-10
"1682" 27914 3.42872507135637e-10 4.27709056899218e-10 1.06402200295745e-09 1.52435731622983e-09 2.22304474472815e-09 1.35032696219469e-09 1.23159769066226e-10 1.34816408327203e-10
"1683" 27915 3.4297326687972e-10 4.27950141532548e-10 1.06632562546255e-09 1.52855822834161e-09 2.21393498429434e-09 1.3495456743378e-09 1.21508714416155e-10 1.34008483493363e-10
"1684" 27916 3.43074026623803e-10 4.28191226165878e-10 1.06862924796766e-09 1.53275914045339e-09 2.20482522386053e-09 1.3487643864809e-09 1.19857659766085e-10 1.33200558659522e-10
"1685" 27917 3.43074026623803e-10 4.28174642315331e-10 1.07070323840671e-09 1.53665795421304e-09 2.22748486603206e-09 1.3487643864809e-09 1.20693497257677e-10 1.33045972801206e-10
"1686" 27918 3.41376247784016e-10 4.19388419287293e-10 1.06092562098815e-09 1.54055676797269e-09 2.2501445082036e-09 1.3487643864809e-09 1.2152933474927e-10 1.32701805542316e-10
"1687" 27919 3.39678468944229e-10 4.10602196259255e-10 1.05114800356958e-09 1.54445558173233e-09 2.27280415037513e-09 1.3487643864809e-09 1.22365172240863e-10 1.32357638283425e-10
"1688" 27920 3.37980690104441e-10 4.01815973231217e-10 1.04137038615102e-09 1.54835439549198e-09 2.29546379254666e-09 1.3487643864809e-09 1.23201009732455e-10 1.32013471024535e-10
"1689" 27921 3.36282911264654e-10 3.93029750203179e-10 1.03159276873245e-09 1.55225320925162e-09 2.31812343471819e-09 1.3487643864809e-09 1.24036847224048e-10 1.31669303765644e-10
"1690" 27922 3.34585132424867e-10 3.84243527175141e-10 1.02181515131389e-09 1.55615202301127e-09 2.34078307688973e-09 1.3487643864809e-09 1.24872684715641e-10 1.31325136506754e-10
"1691" 27923 3.32887353585079e-10 3.75457304147104e-10 1.01203753389532e-09 1.56005083677091e-09 2.36344271906126e-09 1.3487643864809e-09 1.25708522207233e-10 1.30980969247864e-10
"1692" 27924 3.31189574745292e-10 3.66671081119066e-10 1.00225991647676e-09 1.56394965053056e-09 2.38610236123279e-09 1.3487643864809e-09 1.26544359698826e-10 1.30636801988973e-10
"1693" 27925 3.29491795905504e-10 3.57884858091028e-10 9.92482299058196e-10 1.5678484642902e-09 2.40876200340432e-09 1.3487643864809e-09 1.27380197190419e-10 1.30292634730083e-10
"1694" 27926 3.29491795905504e-10 3.49115218913537e-10 9.86536750636827e-10 1.59195680386311e-09 2.41841229074191e-09 1.35260450940321e-09 1.27710408120433e-10 1.29948467471193e-10
"1695" 27927 3.29491795905504e-10 3.40345579736047e-10 9.80591202215458e-10 1.61606514343601e-09 2.42806257807949e-09 1.35644463232553e-09 1.28040619050447e-10 1.29604300212302e-10
"1696" 27928 3.29491795905504e-10 3.31575940558556e-10 9.74645653794089e-10 1.64017348300892e-09 2.43771286541707e-09 1.36028475524785e-09 1.28370829980461e-10 1.29260132953412e-10
"1697" 27929 3.29491795905504e-10 3.22806301381066e-10 9.6870010537272e-10 1.66428182258182e-09 2.44736315275466e-09 1.36412487817017e-09 1.28701040910475e-10 1.28915965694521e-10
"1698" 27930 3.29491795905504e-10 3.14036662203575e-10 9.62754556951352e-10 1.68839016215472e-09 2.45701344009224e-09 1.36796500109249e-09 1.29031251840489e-10 1.28571798435631e-10
"1699" 27931 3.28987997185089e-10 3.05009354542208e-10 9.51710312247212e-10 1.69405886880002e-09 2.51545569102151e-09 1.36874628894939e-09 1.29199794027682e-10 1.29035556010581e-10
"1700" 27932 3.29884743675419e-10 3.01052497305646e-10 9.36629251775658e-10 1.67935567640879e-09 2.56960402889985e-09 1.36063360634972e-09 1.29038125284861e-10 1.29843480844421e-10
"1701" 27933 3.26594991343137e-10 2.98832984054036e-10 9.36708229745888e-10 1.68154734364269e-09 2.61839599249154e-09 1.36076623907407e-09 1.29038125284861e-10 1.30307238419371e-10
"1702" 27934 3.23305239010854e-10 2.96613470802426e-10 9.36787207716118e-10 1.68373901087659e-09 2.66718795608323e-09 1.36089887179843e-09 1.29038125284861e-10 1.30770995994321e-10
"1703" 27935 3.20015486678572e-10 2.94393957550815e-10 9.36866185686347e-10 1.68593067811049e-09 2.71597991967492e-09 1.36103150452278e-09 1.29038125284861e-10 1.3123475356927e-10
"1704" 27936 3.16725734346289e-10 2.92174444299205e-10 9.36945163656577e-10 1.68812234534439e-09 2.76477188326661e-09 1.36116413724714e-09 1.29038125284861e-10 1.3169851114422e-10
"1705" 27937 3.13435982014007e-10 2.89954931047594e-10 9.37024141626808e-10 1.69031401257829e-09 2.8135638468583e-09 1.36129676997149e-09 1.29038125284861e-10 1.3216226871917e-10
"1706" 27938 3.10146229681724e-10 2.87735417795984e-10 9.37103119597038e-10 1.69250567981219e-09 2.86235581044999e-09 1.36142940269585e-09 1.29038125284861e-10 1.3262602629412e-10
"1707" 27939 3.06856477349442e-10 2.85515904544373e-10 9.36145102347739e-10 1.6890286404008e-09 2.86970719720547e-09 1.3615620354202e-09 1.29199794027682e-10 1.3228185903523e-10
"1708" 27940 3.03566725017159e-10 2.83296391292763e-10 9.3518708509844e-10 1.6855516009894e-09 2.87705858396095e-09 1.36169466814456e-09 1.29361462770503e-10 1.31937691776339e-10
"1709" 27941 3.00276972684877e-10 2.81076878041153e-10 9.34229067849141e-10 1.682074561578e-09 2.88440997071643e-09 1.36182730086891e-09 1.29523131513325e-10 1.31593524517449e-10
"1710" 27942 2.96987220352594e-10 2.78857364789542e-10 9.33271050599842e-10 1.6785975221666e-09 2.89176135747191e-09 1.36195993359326e-09 1.29684800256146e-10 1.31249357258558e-10
"1711" 27943 2.93697468020312e-10 2.76637851537932e-10 9.32313033350543e-10 1.67512048275521e-09 2.89911274422740e-09 1.36209256631762e-09 1.29846468998967e-10 1.30905189999668e-10
"1712" 27944 2.90407715688029e-10 2.74418338286321e-10 9.31355016101244e-10 1.67164344334381e-09 2.90646413098288e-09 1.36222519904197e-09 1.30008137741789e-10 1.30561022740778e-10
"1713" 27945 2.87117963355747e-10 2.72198825034711e-10 9.30396998851945e-10 1.66816640393241e-09 2.91381551773836e-09 1.36235783176633e-09 1.3016980648461e-10 1.30216855481887e-10
"1714" 27946 2.83828211023465e-10 2.699793117831e-10 9.29438981602646e-10 1.66468936452102e-09 2.92116690449384e-09 1.36249046449068e-09 1.30331475227431e-10 1.29872688222997e-10
"1715" 27947 2.80538458691182e-10 2.6775979853149e-10 9.28480964353347e-10 1.66121232510962e-09 2.92851829124932e-09 1.36262309721504e-09 1.30493143970253e-10 1.29528520964107e-10
"1716" 27948 2.772487063589e-10 2.6554028527988e-10 9.27522947104048e-10 1.65773528569822e-09 2.9358696780048e-09 1.36275572993939e-09 1.30654812713074e-10 1.29184353705216e-10
"1717" 27949 2.73958954026617e-10 2.63320772028269e-10 9.26564929854749e-10 1.65425824628683e-09 2.94322106476029e-09 1.36288836266375e-09 1.30816481455895e-10 1.28840186446326e-10
"1718" 27950 2.70669201694335e-10 2.61101258776659e-10 9.2560691260545e-10 1.65078120687543e-09 2.95057245151577e-09 1.3630209953881e-09 1.30978150198717e-10 1.28496019187435e-10
"1719" 27951 2.67379449362052e-10 2.58881745525048e-10 9.24648895356151e-10 1.64730416746403e-09 2.95792383827125e-09 1.36315362811245e-09 1.31139818941538e-10 1.28151851928545e-10
"1720" 27952 2.63192950539439e-10 2.56662232273438e-10 9.25994500611956e-10 1.65611353362679e-09 2.94953087717333e-09 1.36328626083681e-09 1.30971276754345e-10 1.27962270527971e-10
"1721" 27953 2.58709218087785e-10 2.54700387505705e-10 9.27221638912416e-10 1.65830520086069e-09 2.94475909789848e-09 1.36341889356116e-09 1.30971276754345e-10 1.27772689127397e-10
"1722" 27954 2.58709218087785e-10 2.54958055989582e-10 9.25495747494749e-10 1.65830520086069e-09 2.94963760596121e-09 1.36355152628552e-09 1.30971276754345e-10 1.27583107726824e-10
"1723" 27955 2.58109705226495e-10 2.54958055989582e-10 9.25495747494749e-10 1.66317305603664e-09 2.95325878778428e-09 1.36227148531141e-09 1.31139818941538e-10 1.269297687513e-10
"1724" 27956 2.57510192365205e-10 2.54958055989582e-10 9.25495747494749e-10 1.6680409112126e-09 2.95687996960735e-09 1.3609914443373e-09 1.31308361128731e-10 1.26276429775777e-10
"1725" 27957 2.56910679503914e-10 2.54958055989582e-10 9.25495747494749e-10 1.67290876638856e-09 2.96050115143042e-09 1.3597114033632e-09 1.31476903315924e-10 1.25623090800253e-10
"1726" 27958 2.56311166642624e-10 2.54958055989582e-10 9.25495747494749e-10 1.67777662156451e-09 2.96412233325349e-09 1.35843136238909e-09 1.31645445503116e-10 1.24969751824729e-10
"1727" 27959 2.55711653781334e-10 2.54958055989582e-10 9.25495747494749e-10 1.68264447674047e-09 2.96774351507657e-09 1.35715132141499e-09 1.31813987690309e-10 1.24316412849206e-10
"1728" 27960 2.55112140920044e-10 2.54958055989582e-10 9.25495747494749e-10 1.68751233191642e-09 2.97136469689964e-09 1.35587128044088e-09 1.31982529877502e-10 1.23663073873682e-10
"1729" 27961 2.54512628058754e-10 2.54958055989582e-10 9.25495747494749e-10 1.69238018709238e-09 2.97498587872271e-09 1.35459123946677e-09 1.32151072064695e-10 1.23009734898159e-10
"1730" 27962 2.53913115197464e-10 2.54958055989582e-10 9.25495747494749e-10 1.69724804226834e-09 2.97860706054578e-09 1.35331119849267e-09 1.32319614251888e-10 1.22356395922635e-10
"1731" 27963 2.53313602336173e-10 2.54958055989582e-10 9.25495747494749e-10 1.70211589744429e-09 2.98222824236885e-09 1.35203115751856e-09 1.32488156439081e-10 1.21703056947111e-10
"1732" 27964 2.52714089474883e-10 2.54958055989582e-10 9.25495747494749e-10 1.70698375262025e-09 2.98584942419192e-09 1.35075111654446e-09 1.32656698626273e-10 1.21049717971588e-10
"1733" 27965 2.52114576613593e-10 2.54958055989582e-10 9.25495747494749e-10 1.7118516077962e-09 2.989470606015e-09 1.34947107557035e-09 1.32825240813466e-10 1.20396378996064e-10
"1734" 27966 2.51515063752303e-10 2.54958055989582e-10 9.25495747494749e-10 1.71671946297216e-09 2.99309178783807e-09 1.34819103459624e-09 1.32993783000659e-10 1.19743040020541e-10
"1735" 27967 2.50915550891013e-10 2.54958055989582e-10 9.25495747494749e-10 1.72158731814811e-09 2.99671296966114e-09 1.34691099362214e-09 1.33162325187852e-10 1.19089701045017e-10
"1736" 27968 2.50316038029722e-10 2.54958055989582e-10 9.25495747494749e-10 1.72645517332407e-09 3.00033415148421e-09 1.34563095264803e-09 1.33330867375045e-10 1.18436362069493e-10
"1737" 27969 2.49716525168432e-10 2.54958055989582e-10 9.25495747494749e-10 1.73132302850003e-09 3.00395533330728e-09 1.34435091167393e-09 1.33499409562238e-10 1.1778302309397e-10
"1738" 27970 2.49117012307142e-10 2.54958055989582e-10 9.25495747494749e-10 1.73619088367598e-09 3.00757651513035e-09 1.34307087069982e-09 1.3366795174943e-10 1.17129684118446e-10
"1739" 27971 2.48517499445852e-10 2.54958055989582e-10 9.25495747494749e-10 1.74105873885194e-09 3.01119769695343e-09 1.34179082972571e-09 1.33836493936623e-10 1.16476345142923e-10
"1740" 27972 2.47917986584562e-10 2.54958055989582e-10 9.25495747494749e-10 1.74592659402789e-09 3.0148188787765e-09 1.34051078875161e-09 1.34005036123816e-10 1.15823006167399e-10
"1741" 27973 2.47318473723272e-10 2.54958055989582e-10 9.25495747494749e-10 1.75079444920385e-09 3.01844006059957e-09 1.3392307477775e-09 1.34173578311009e-10 1.15169667191876e-10
"1742" 27974 2.46718960861981e-10 2.54958055989582e-10 9.25495747494749e-10 1.75566230437981e-09 3.02206124242264e-09 1.3379507068034e-09 1.34342120498202e-10 1.14516328216352e-10
"1743" 27975 2.46119448000691e-10 2.54958055989582e-10 9.25495747494749e-10 1.76053015955576e-09 3.02568242424571e-09 1.33667066582929e-09 1.34510662685395e-10 1.13862989240828e-10
"1744" 27976 2.46220207744774e-10 2.54234802089592e-10 9.23769856077082e-10 1.73690634069101e-09 3.03092977542303e-09 1.33361183076387e-09 1.34679204872587e-10 1.12830487464157e-10
"1745" 27977 2.46320967488858e-10 2.53511548189603e-10 9.24918016407312e-10 1.73028864176216e-09 3.03092977542303e-09 1.31477457574338e-09 1.34679204872587e-10 1.12830487464157e-10
"1746" 27978 2.46421727232941e-10 2.52788294289613e-10 9.26066176737542e-10 1.7236709428333e-09 3.03092977542303e-09 1.29593732072288e-09 1.34679204872587e-10 1.12830487464157e-10
"1747" 27979 2.46522486977024e-10 2.52065040389624e-10 9.27214337067772e-10 1.71705324390444e-09 3.03092977542303e-09 1.27710006570239e-09 1.34679204872587e-10 1.12830487464157e-10
"1748" 27980 2.47817226840479e-10 2.53303631257368e-10 9.28480964353347e-10 1.70866565208994e-09 3.03570155469788e-09 1.26326761114495e-09 1.34840873615409e-10 1.12675901605841e-10
"1749" 27981 2.48215220213602e-10 2.52322708873501e-10 9.27673601199864e-10 1.696969210811e-09 3.03045420352056e-09 1.24943515658751e-09 1.34672331428216e-10 1.12675901605841e-10
"1750" 27982 2.48613213586726e-10 2.51341786489634e-10 9.26866238046381e-10 1.68527276953206e-09 3.02520685234325e-09 1.23560270203006e-09 1.34503789241023e-10 1.12675901605841e-10
"1751" 27983 2.4901120695985e-10 2.50360864105768e-10 9.26058874892898e-10 1.67357632825313e-09 3.01995950116593e-09 1.22177024747262e-09 1.3433524705383e-10 1.12675901605841e-10
"1752" 27984 2.49409200332974e-10 2.49379941721901e-10 9.25251511739415e-10 1.66187988697419e-09 3.01471214998862e-09 1.20793779291518e-09 1.34166704866637e-10 1.12675901605841e-10
"1753" 27985 2.49807193706098e-10 2.48399019338034e-10 9.24444148585932e-10 1.65018344569525e-09 3.0094647988113e-09 1.19410533835774e-09 1.33998162679445e-10 1.12675901605841e-10
"1754" 27986 2.50205187079221e-10 2.47418096954168e-10 9.23636785432449e-10 1.63848700441632e-09 3.00421744763399e-09 1.1802728838003e-09 1.33829620492252e-10 1.12675901605841e-10
"1755" 27987 2.50603180452345e-10 2.46437174570301e-10 9.22829422278966e-10 1.62679056313738e-09 2.99897009645667e-09 1.16644042924286e-09 1.33661078305059e-10 1.12675901605841e-10
"1756" 27988 2.51001173825469e-10 2.45456252186434e-10 9.22022059125483e-10 1.61509412185844e-09 2.99372274527936e-09 1.15260797468542e-09 1.33492536117866e-10 1.12675901605841e-10
"1757" 27989 2.51399167198593e-10 2.44475329802568e-10 9.21214695972e-10 1.60339768057951e-09 2.98847539410204e-09 1.13877552012798e-09 1.33323993930673e-10 1.12675901605841e-10
"1758" 27990 2.51797160571716e-10 2.43494407418701e-10 9.20407332818517e-10 1.59170123930057e-09 2.98322804292473e-09 1.12494306557054e-09 1.3315545174348e-10 1.12675901605841e-10
"1759" 27991 2.5219515394484e-10 2.42513485034835e-10 9.19599969665034e-10 1.58000479802163e-09 2.97798069174741e-09 1.11111061101309e-09 1.32986909556288e-10 1.12675901605841e-10
"1760" 27992 2.52593147317964e-10 2.41532562650968e-10 9.18792606511551e-10 1.5683083567427e-09 2.97273334057009e-09 1.09727815645565e-09 1.32818367369095e-10 1.12675901605841e-10
"1761" 27993 2.54391685901835e-10 2.41565730352063e-10 9.17985243358068e-10 1.55591650758148e-09 2.96742103439147e-09 1.07830826871081e-09 1.32649825181902e-10 1.12521315747524e-10
"1762" 27994 2.54391685901835e-10 2.40842476452073e-10 9.19133403688298e-10 1.54363010200733e-09 2.96210872821284e-09 1.05947101369031e-09 1.33640457971944e-10 1.12366729889207e-10
"1763" 27995 2.54391685901835e-10 2.40119222552084e-10 9.20281564018528e-10 1.53134369643317e-09 2.95679642203421e-09 1.04063375866982e-09 1.34631090761987e-10 1.12212144030891e-10
"1764" 27996 2.54391685901835e-10 2.39395968652094e-10 9.21429724348758e-10 1.51905729085902e-09 2.95148411585559e-09 1.02179650364932e-09 1.35621723552029e-10 1.12057558172574e-10
"1765" 27997 2.54391685901835e-10 2.38672714752105e-10 9.22577884678988e-10 1.50677088528486e-09 2.94617180967696e-09 1.00295924862883e-09 1.36612356342072e-10 1.11902972314258e-10
"1766" 27998 2.54391685901835e-10 2.37949460852115e-10 9.23726045009218e-10 1.49448447971071e-09 2.94085950349833e-09 9.84121993608334e-10 1.37602989132114e-10 1.11748386455941e-10
"1767" 27999 2.54391685901835e-10 2.37193039251031e-10 9.25911200558977e-10 1.4882885551301e-09 2.93760716478985e-09 9.81063158542915e-10 1.38431953179335e-10 1.11748386455941e-10
"1768" 28000 2.49807193706098e-10 2.35231194483298e-10 9.11978300417653e-10 1.48438974137046e-09 2.91451372450242e-09 9.72950475943249e-10 1.39260917226556e-10 1.11593800597624e-10
"1769" 28001 2.4522270151036e-10 2.33269349715564e-10 8.98045400276328e-10 1.48049092761081e-09 2.89142028421499e-09 9.64837793343583e-10 1.40089881273778e-10 1.11439214739308e-10
"1770" 28002 2.40638209314623e-10 2.31307504947831e-10 8.84112500135004e-10 1.47659211385117e-09 2.86832684392756e-09 9.56725110743917e-10 1.40918845320999e-10 1.11284628880991e-10
"1771" 28003 2.36053717118886e-10 2.29345660180098e-10 8.70179599993679e-10 1.47269330009152e-09 2.84523340364013e-09 9.48612428144251e-10 1.4174780936822e-10 1.11130043022675e-10
"1772" 28004 2.31469224923149e-10 2.27383815412365e-10 8.56246699852355e-10 1.46879448633187e-09 2.82213996335271e-09 9.40499745544584e-10 1.42576773415441e-10 1.10975457164358e-10
"1773" 28005 2.26884732727412e-10 2.25421970644631e-10 8.4231379971103e-10 1.46489567257223e-09 2.79904652306528e-09 9.32387062944918e-10 1.43405737462662e-10 1.10820871306041e-10
"1774" 28006 2.22300240531675e-10 2.23460125876898e-10 8.28380899569706e-10 1.46099685881258e-09 2.77595308277785e-09 9.24274380345252e-10 1.44234701509883e-10 1.10666285447725e-10
"1775" 28007 2.17715748335938e-10 2.21498281109165e-10 8.14447999428381e-10 1.45709804505294e-09 2.75285964249042e-09 9.16161697745586e-10 1.45063665557104e-10 1.10511699589408e-10
"1776" 28008 2.13131256140201e-10 2.19536436341432e-10 8.00515099287057e-10 1.45319923129329e-09 2.72976620220299e-09 9.0804901514592e-10 1.45892629604326e-10 1.10357113731092e-10
"1777" 28009 2.08546763944464e-10 2.17574591573698e-10 7.86582199145732e-10 1.44930041753365e-09 2.70667276191557e-09 8.99936332546254e-10 1.46721593651547e-10 1.10202527872775e-10
"1778" 28010 2.03962271748727e-10 2.15612746805965e-10 7.72649299004408e-10 1.445401603774e-09 2.68357932162814e-09 8.91823649946588e-10 1.47550557698768e-10 1.10047942014458e-10
"1779" 28011 2.03261999143354e-10 2.14856325204881e-10 7.65975365399786e-10 1.4436174784793e-09 2.68188819727258e-09 8.91823649946588e-10 1.48709732676003e-10 1.09893356156142e-10
"1780" 28012 2.0256172653798e-10 2.14099903603797e-10 7.59301431795164e-10 1.44183335318459e-09 2.68019707291703e-09 8.91823649946588e-10 1.49868907653238e-10 1.09738770297825e-10
"1781" 28013 2.01861453932607e-10 2.13343482002713e-10 7.52627498190542e-10 1.44004922788989e-09 2.67850594856147e-09 8.91823649946588e-10 1.51028082630474e-10 1.09584184439508e-10
"1782" 28014 2.01161181327234e-10 2.12587060401628e-10 7.4595356458592e-10 1.43826510259519e-09 2.67681482420592e-09 8.91823649946588e-10 1.52187257607709e-10 1.09429598581192e-10
"1783" 28015 2.0046090872186e-10 2.11830638800544e-10 7.39279630981299e-10 1.43648097730048e-09 2.67512369985036e-09 8.91823649946588e-10 1.53346432584944e-10 1.09275012722875e-10
"1784" 28016 1.99760636116487e-10 2.1107421719946e-10 7.32605697376677e-10 1.43469685200578e-09 2.67343257549481e-09 8.91823649946588e-10 1.54505607562179e-10 1.09120426864559e-10
"1785" 28017 1.99060363511113e-10 2.10317795598376e-10 7.25931763772055e-10 1.43291272671107e-09 2.67174145113925e-09 8.91823649946588e-10 1.55664782539415e-10 1.08965841006242e-10
"1786" 28018 1.9895960376703e-10 2.10334379448923e-10 7.27887287255768e-10 1.42455359971467e-09 2.67037510179025e-09 8.92887472543179e-10 1.56655415329457e-10 1.08965841006242e-10
"1787" 28019 1.98858844022947e-10 2.10350963299471e-10 7.29842810739481e-10 1.41619447271827e-09 2.66900875244126e-09 8.9395129513977e-10 1.576460481195e-10 1.08965841006242e-10
"1788" 28020 1.98758084278864e-10 2.10367547150018e-10 7.31798334223194e-10 1.40783534572186e-09 2.66764240309226e-09 8.95015117736361e-10 1.58636680909542e-10 1.08965841006242e-10
"1789" 28021 1.98657324534781e-10 2.10384131000565e-10 7.33753857706907e-10 1.39947621872546e-09 2.66627605374326e-09 8.96078940332952e-10 1.59627313699585e-10 1.08965841006242e-10
"1790" 28022 1.98556564790697e-10 2.10400714851113e-10 7.3570938119062e-10 1.39111709172905e-09 2.66490970439426e-09 8.97142762929544e-10 1.60617946489627e-10 1.08965841006242e-10
"1791" 28023 1.98556564790697e-10 2.10400714851113e-10 7.36437766373873e-10 1.38623500414404e-09 2.66354335504526e-09 9.09130107033494e-10 1.60617946489627e-10 1.1015292864123e-10
"1792" 28024 1.98556564790697e-10 2.1114055260165e-10 7.45304157372897e-10 1.38407180172825e-09 2.67568740796888e-09 9.13252764695505e-10 1.6160857927967e-10 1.11340016276218e-10
"1793" 28025 1.98556564790697e-10 2.11880390352186e-10 7.54170548371922e-10 1.38190859931245e-09 2.6878314608925e-09 9.17375422357515e-10 1.62599212069712e-10 1.12527103911205e-10
"1794" 28026 1.98556564790697e-10 2.12620228102723e-10 7.63036939370947e-10 1.37974539689665e-09 2.69997551381612e-09 9.21498080019525e-10 1.63589844859754e-10 1.13714191546193e-10
"1795" 28027 1.98556564790697e-10 2.1336006585326e-10 7.71903330369972e-10 1.37758219448086e-09 2.71211956673973e-09 9.25620737681536e-10 1.64580477649797e-10 1.14901279181181e-10
"1796" 28028 1.98556564790697e-10 2.14099903603797e-10 7.80769721368996e-10 1.37541899206506e-09 2.72426361966335e-09 9.29743395343546e-10 1.65571110439839e-10 1.16088366816168e-10
"1797" 28029 1.98556564790697e-10 2.14839741354334e-10 7.89636112368021e-10 1.37325578964926e-09 2.73640767258697e-09 9.33866053005556e-10 1.66561743229882e-10 1.17275454451156e-10
"1798" 28030 1.98853798419738e-10 2.14598656721004e-10 7.98502503367046e-10 1.37109258723347e-09 2.81024631514835e-09 9.34082271383071e-10 1.66561743229882e-10 1.17430040309473e-10
"1799" 28031 2.00551577259525e-10 2.15371662172635e-10 8.02183918268425e-10 1.36621049964846e-09 2.80950862891918e-09 9.58688345432534e-10 1.67229038534282e-10 1.17584626167789e-10
"1800" 28032 2.02249356099313e-10 2.16144667624267e-10 8.05865333169805e-10 1.36132841206345e-09 2.80877094269001e-09 9.83294419481997e-10 1.67896333838681e-10 1.17739212026106e-10
"1801" 28033 2.04047894683183e-10 2.16177835325361e-10 8.08739384917702e-10 1.33964267603132e-09 2.80933465080853e-09 1.00790049353146e-09 1.68732171330274e-10 1.17739212026106e-10
"1802" 28034 2.0544843989393e-10 2.17191925410323e-10 8.12650431885128e-10 1.34311971544272e-09 2.80859696457936e-09 1.03229034920341e-09 1.69237797891853e-10 1.17549630625532e-10
"1803" 28035 2.06848985104677e-10 2.18206015495284e-10 8.16561478852554e-10 1.34659675485412e-09 2.80785927835019e-09 1.05668020487536e-09 1.69743424453431e-10 1.17360049224959e-10
"1804" 28036 2.08249530315424e-10 2.19220105580245e-10 8.2047252581998e-10 1.35007379426551e-09 2.80712159212102e-09 1.0810700605473e-09 1.7024905101501e-10 1.17170467824385e-10
"1805" 28037 2.0965007552617e-10 2.20234195665207e-10 8.24383572787406e-10 1.35355083367691e-09 2.80638390589185e-09 1.10545991621925e-09 1.70754677576588e-10 1.16980886423811e-10
"1806" 28038 2.11050620736917e-10 2.21248285750168e-10 8.28294619754832e-10 1.35702787308831e-09 2.80564621966269e-09 1.1298497718912e-09 1.71260304138167e-10 1.16791305023237e-10
"1807" 28039 2.12451165947664e-10 2.22262375835129e-10 8.32205666722257e-10 1.3605049124997e-09 2.80490853343352e-09 1.15423962756315e-09 1.71765930699745e-10 1.16601723622663e-10
"1808" 28040 2.13851711158411e-10 2.2327646592009e-10 8.36116713689683e-10 1.3639819519111e-09 2.80417084720435e-09 1.1786294832351e-09 1.72271557261324e-10 1.1641214222209e-10
"1809" 28041 2.13851711158411e-10 2.24290556005052e-10 8.37074730938982e-10 1.3696506585564e-09 2.82589793814278e-09 1.19040060896153e-09 1.75608033783323e-10 1.16875899797039e-10
"1810" 28042 2.13851711158411e-10 2.25304646090013e-10 8.38032748188281e-10 1.3753193652017e-09 2.84762502908121e-09 1.20217173468797e-09 1.78944510305322e-10 1.17339657371989e-10
"1811" 28043 2.13851711158411e-10 2.26318736174974e-10 8.3899076543758e-10 1.38098807184699e-09 2.86935212001964e-09 1.21394286041441e-09 1.82280986827321e-10 1.17803414946939e-10
"1812" 28044 2.13851711158411e-10 2.27332826259936e-10 8.39948782686879e-10 1.38665677849229e-09 2.89107921095807e-09 1.22571398614084e-09 1.8561746334932e-10 1.18267172521889e-10
"1813" 28045 2.13851711158411e-10 2.28346916344897e-10 8.40906799936178e-10 1.39232548513759e-09 2.9128063018965e-09 1.23748511186728e-09 1.88953939871319e-10 1.18730930096839e-10
"1814" 28046 2.13851711158411e-10 2.29361006429858e-10 8.41864817185477e-10 1.39799419178289e-09 2.93453339283493e-09 1.24925623759371e-09 1.92290416393318e-10 1.19194687671789e-10
"1815" 28047 2.13851711158411e-10 2.30375096514819e-10 8.42822834434776e-10 1.40366289842818e-09 2.95626048377336e-09 1.26102736332015e-09 1.95626892915317e-10 1.19658445246738e-10
"1816" 28048 2.14249704531534e-10 2.31389186599781e-10 8.43511730632914e-10 1.40874164077826e-09 2.97766279970523e-09 1.2691573152108e-09 1.99125038180137e-10 1.20311784222262e-10
"1817" 28049 2.14647697904658e-10 2.32403276684742e-10 8.44200626831052e-10 1.41382038312834e-09 2.9990651156371e-09 1.27728726710145e-09 2.02623183444958e-10 1.20965123197786e-10
"1818" 28050 2.15045691277782e-10 2.33417366769703e-10 8.4488952302919e-10 1.41889912547842e-09 3.02046743156898e-09 1.2854172189921e-09 2.06121328709778e-10 1.21618462173309e-10
"1819" 28051 2.15443684650906e-10 2.34431456854665e-10 8.45578419227328e-10 1.4239778678285e-09 3.04186974750085e-09 1.29354717088275e-09 2.09619473974599e-10 1.22271801148833e-10
"1820" 28052 2.1584167802403e-10 2.35445546939626e-10 8.46267315425466e-10 1.42905661017858e-09 3.06327206343272e-09 1.3016771227734e-09 2.13117619239419e-10 1.22925140124356e-10
"1821" 28053 2.16239671397153e-10 2.36459637024587e-10 8.46956211623604e-10 1.43413535252867e-09 3.0846743793646e-09 1.30980707466405e-09 2.16615764504239e-10 1.2357847909988e-10
"1822" 28054 2.16637664770277e-10 2.37473727109549e-10 8.47645107821742e-10 1.43921409487875e-09 3.10607669529647e-09 1.3179370265547e-09 2.2011390976906e-10 1.24231818075403e-10
"1823" 28055 2.17035658143401e-10 2.3848781719451e-10 8.4833400401988e-10 1.44429283722883e-09 3.12747901122834e-09 1.32606697844534e-09 2.2361205503388e-10 1.24885157050927e-10
"1824" 28056 2.17433651516525e-10 2.39501907279471e-10 8.49022900218018e-10 1.44937157957891e-09 3.14888132716021e-09 1.33419693033599e-09 2.271102002987e-10 1.25538496026451e-10
"1825" 28057 2.18728391379979e-10 2.39759575763348e-10 8.52664826134283e-10 1.45056574057839e-09 3.15727428825814e-09 1.37205312017253e-09 2.30608345563521e-10 1.26570997803122e-10
"1826" 28058 2.20023131243434e-10 2.40017244247225e-10 8.56306752050548e-10 1.45175990157788e-09 3.16566724935606e-09 1.40990931000907e-09 2.34106490828341e-10 1.27603499579793e-10
"1827" 28059 2.21317871106888e-10 2.40274912731103e-10 8.59948677966813e-10 1.45295406257736e-09 3.17406021045398e-09 1.4477654998456e-09 2.37604636093162e-10 1.28636001356464e-10
"1828" 28060 2.22612610970343e-10 2.4053258121498e-10 8.63590603883077e-10 1.45414822357685e-09 3.18245317155191e-09 1.48562168968214e-09 2.41102781357982e-10 1.29668503133135e-10
"1829" 28061 2.23907350833797e-10 2.40790249698857e-10 8.67232529799342e-10 1.45534238457634e-09 3.19084613264983e-09 1.52347787951868e-09 2.44600926622802e-10 1.30701004909806e-10
"1830" 28062 2.25202090697252e-10 2.41047918182734e-10 8.70874455715607e-10 1.45653654557582e-09 3.19923909374775e-09 1.56133406935521e-09 2.48099071887623e-10 1.31733506686477e-10
"1831" 28063 2.26496830560707e-10 2.41305586666611e-10 8.74516381631872e-10 1.45773070657531e-09 3.20763205484568e-09 1.59919025919175e-09 2.51597217152443e-10 1.32766008463149e-10
"1832" 28064 2.2689482393383e-10 2.41546671299941e-10 8.7520527783001e-10 1.45683864392796e-09 3.20656959360995e-09 1.59533286697845e-09 2.51758885895265e-10 1.3379851023982e-10
"1833" 28065 2.2689482393383e-10 2.41787755933271e-10 8.75973151998378e-10 1.45704953110208e-09 3.20531226737029e-09 1.59240666463739e-09 2.51590343708072e-10 1.33988091640393e-10
"1834" 28066 2.27595096539204e-10 2.42045424417148e-10 8.75704030947217e-10 1.45615746845473e-09 3.20424980613457e-09 1.59494947729461e-09 2.51421801520879e-10 1.34641430615917e-10
"1835" 28067 2.28295369144577e-10 2.42303092901025e-10 8.75434909896056e-10 1.45526540580738e-09 3.20318734489884e-09 1.59749228995184e-09 2.51253259333686e-10 1.35294769591441e-10
"1836" 28068 2.28894882005867e-10 2.42303092901025e-10 8.7520527783001e-10 1.45526540580738e-09 3.20056366931018e-09 1.60360996008268e-09 2.51084717146493e-10 1.36102694425281e-10
"1837" 28069 2.29494394867157e-10 2.42560761384902e-10 8.7520527783001e-10 1.45506875104231e-09 3.19403581067847e-09 1.61001016495321e-09 2.50248879654901e-10 1.36102694425281e-10
"1838" 28070 2.30093907728448e-10 2.42818429868779e-10 8.7520527783001e-10 1.45487209627723e-09 3.18750795204675e-09 1.61641036982374e-09 2.49413042163308e-10 1.36102694425281e-10
"1839" 28071 2.30693420589738e-10 2.43076098352657e-10 8.7520527783001e-10 1.45467544151216e-09 3.18098009341503e-09 1.62281057469427e-09 2.48577204671715e-10 1.36102694425281e-10
"1840" 28072 2.31292933451028e-10 2.43333766836534e-10 8.7520527783001e-10 1.45447878674709e-09 3.17445223478331e-09 1.6292107795648e-09 2.47741367180123e-10 1.36102694425281e-10
"1841" 28073 2.31892446312318e-10 2.43591435320411e-10 8.7520527783001e-10 1.45428213198202e-09 3.16792437615159e-09 1.63561098443533e-09 2.4690552968853e-10 1.36102694425281e-10
"1842" 28074 2.32491959173608e-10 2.43849103804288e-10 8.7520527783001e-10 1.45408547721694e-09 3.16139651751988e-09 1.64201118930586e-09 2.46069692196937e-10 1.36102694425281e-10
"1843" 28075 2.33091472034899e-10 2.44106772288165e-10 8.7520527783001e-10 1.45388882245187e-09 3.15486865888816e-09 1.64841139417639e-09 2.45233854705345e-10 1.36102694425281e-10
"1844" 28076 2.33690984896189e-10 2.44364440772042e-10 8.7520527783001e-10 1.4536921676868e-09 3.14834080025644e-09 1.65481159904692e-09 2.44398017213752e-10 1.36102694425281e-10
"1845" 28077 2.34290497757479e-10 2.4462210925592e-10 8.7520527783001e-10 1.45349551292173e-09 3.14181294162472e-09 1.66121180391745e-09 2.43562179722159e-10 1.36102694425281e-10
"1846" 28078 2.34890010618769e-10 2.44879777739797e-10 8.7520527783001e-10 1.45329885815665e-09 3.135285082993e-09 1.66761200878798e-09 2.42726342230567e-10 1.36102694425281e-10
"1847" 28079 2.35489523480059e-10 2.45137446223674e-10 8.7520527783001e-10 1.45310220339158e-09 3.12875722436128e-09 1.67401221365851e-09 2.41890504738974e-10 1.36102694425281e-10
"1848" 28080 2.36089036341349e-10 2.45395114707551e-10 8.7520527783001e-10 1.45290554862651e-09 3.12222936572957e-09 1.68041241852904e-09 2.41054667247381e-10 1.36102694425281e-10
"1849" 28081 2.3668854920264e-10 2.45652783191428e-10 8.7520527783001e-10 1.45270889386144e-09 3.11570150709785e-09 1.68681262339957e-09 2.40218829755789e-10 1.36102694425281e-10
"1850" 28082 2.3728806206393e-10 2.45910451675305e-10 8.7520527783001e-10 1.45251223909636e-09 3.10917364846613e-09 1.69321282827011e-09 2.39382992264196e-10 1.36102694425281e-10
"1851" 28083 2.3788757492522e-10 2.46168120159183e-10 8.7520527783001e-10 1.45231558433129e-09 3.10264578983441e-09 1.69961303314064e-09 2.38547154772604e-10 1.36102694425281e-10
"1852" 28084 2.3848708778651e-10 2.4642578864306e-10 8.7520527783001e-10 1.45211892956622e-09 3.09611793120269e-09 1.70601323801117e-09 2.37711317281011e-10 1.36102694425281e-10
"1853" 28085 2.39681067905881e-10 2.47406711026926e-10 8.7520527783001e-10 1.45432482920917e-09 3.09427371562977e-09 1.70707706060776e-09 2.36875479789418e-10 1.35638936850331e-10
"1854" 28086 2.39978301534922e-10 2.47406711026926e-10 8.76242273049539e-10 1.45443027279623e-09 3.08774585699805e-09 1.70814088320435e-09 2.36039642297826e-10 1.34985597874807e-10
"1855" 28087 2.40275535163963e-10 2.47406711026926e-10 8.77279268269068e-10 1.4545357163833e-09 3.08121799836634e-09 1.70920470580094e-09 2.35203804806233e-10 1.34332258899284e-10
"1856" 28088 2.40572768793003e-10 2.47406711026926e-10 8.78316263488597e-10 1.45464115997036e-09 3.07469013973462e-09 1.71026852839753e-09 2.3436796731464e-10 1.3367891992376e-10
"1857" 28089 2.40870002422044e-10 2.47406711026926e-10 8.79353258708126e-10 1.45474660355742e-09 3.0681622811029e-09 1.71133235099412e-09 2.33532129823048e-10 1.33025580948237e-10
"1858" 28090 2.41167236051084e-10 2.47406711026926e-10 8.80390253927655e-10 1.45485204714448e-09 3.06163442247118e-09 1.71239617359071e-09 2.32696292331455e-10 1.32372241972713e-10
"1859" 28091 2.41565229424208e-10 2.47406711026926e-10 8.80390253927655e-10 1.45275159108859e-09 3.05753537442419e-09 1.71317746144761e-09 2.32696292331455e-10 1.32182660572139e-10
"1860" 28092 2.41963222797332e-10 2.47406711026926e-10 8.80390253927655e-10 1.4506511350327e-09 3.05343632637719e-09 1.71395874930451e-09 2.32696292331455e-10 1.31993079171566e-10
"1861" 28093 2.42361216170456e-10 2.47406711026926e-10 8.80390253927655e-10 1.44855067897681e-09 3.0493372783302e-09 1.71474003716141e-09 2.32696292331455e-10 1.31803497770992e-10
"1862" 28094 2.4275920954358e-10 2.47406711026926e-10 8.80390253927655e-10 1.44645022292092e-09 3.0452382302832e-09 1.71552132501831e-09 2.32696292331455e-10 1.31613916370418e-10
"1863" 28095 2.43157202916703e-10 2.47406711026926e-10 8.80390253927655e-10 1.44434976686503e-09 3.04113918223621e-09 1.71630261287521e-09 2.32696292331455e-10 1.31424334969844e-10
"1864" 28096 2.43555196289827e-10 2.47406711026926e-10 8.80390253927655e-10 1.44224931080914e-09 3.03704013418922e-09 1.71708390073211e-09 2.32696292331455e-10 1.3123475356927e-10
"1865" 28097 2.43953189662951e-10 2.47406711026926e-10 8.80390253927655e-10 1.44014885475325e-09 3.03294108614222e-09 1.71786518858901e-09 2.32696292331455e-10 1.31045172168697e-10
"1866" 28098 2.44250423291992e-10 2.47165626393596e-10 8.81427249147184e-10 1.44045095310539e-09 3.01613427705309e-09 1.71799782131336e-09 2.31860454839862e-10 1.30855590768123e-10
"1867" 28099 2.44547656921032e-10 2.46924541760267e-10 8.82464244366713e-10 1.44075305145752e-09 2.99932746796396e-09 1.71813045403772e-09 2.3102461734827e-10 1.30666009367549e-10
"1868" 28100 2.44844890550073e-10 2.46683457126937e-10 8.83501239586242e-10 1.44105514980966e-09 2.98252065887483e-09 1.71826308676207e-09 2.30188779856677e-10 1.30476427966975e-10
"1869" 28101 2.45142124179113e-10 2.46442372493607e-10 8.84538234805771e-10 1.44135724816179e-09 2.9657138497857e-09 1.71839571948642e-09 2.29352942365084e-10 1.30286846566402e-10
"1870" 28102 2.45439357808154e-10 2.46201287860277e-10 8.855752300253e-10 1.44165934651393e-09 2.94890704069657e-09 1.71852835221078e-09 2.28517104873492e-10 1.30097265165828e-10
"1871" 28103 2.45736591437194e-10 2.45960203226947e-10 8.86612225244829e-10 1.44196144486606e-09 2.93210023160744e-09 1.71866098493513e-09 2.27681267381899e-10 1.29907683765254e-10
"1872" 28104 2.46033825066235e-10 2.45719118593618e-10 8.87649220464358e-10 1.44226354321819e-09 2.91529342251831e-09 1.71879361765949e-09 2.26845429890307e-10 1.2971810236468e-10
"1873" 28105 2.46331058695276e-10 2.45478033960288e-10 8.88686215683887e-10 1.44256564157033e-09 2.89848661342918e-09 1.71892625038384e-09 2.26009592398714e-10 1.29528520964107e-10
"1874" 28106 2.46028779463026e-10 2.45220365476411e-10 8.80864121749035e-10 1.44078151627563e-09 2.89774892720001e-09 1.71081356778418e-09 2.256793814687e-10 1.29338939563533e-10
"1875" 28107 2.45726500230776e-10 2.44962696992533e-10 8.73042027814183e-10 1.43899739098092e-09 2.89701124097084e-09 1.70270088518451e-09 2.25349170538686e-10 1.29149358162959e-10
"1876" 28108 2.45026227625403e-10 2.44946113141986e-10 8.64412570725848e-10 1.43710782209916e-09 2.89627355474167e-09 1.69586824355895e-09 2.25349170538686e-10 1.29613115737909e-10
"1877" 28109 2.45026227625403e-10 2.44688444658109e-10 8.59622484479353e-10 1.44151962138506e-09 2.89659832974823e-09 1.68903560193339e-09 2.25018959608671e-10 1.29613115737909e-10
"1878" 28110 2.45026227625403e-10 2.44430776174232e-10 8.54832398232859e-10 1.44593142067096e-09 2.89692310475478e-09 1.68220296030783e-09 2.24688748678657e-10 1.29613115737909e-10
"1879" 28111 2.45026227625403e-10 2.44173107690355e-10 8.50042311986364e-10 1.45034321995687e-09 2.89724787976134e-09 1.67537031868227e-09 2.24358537748643e-10 1.29613115737909e-10
"1880" 28112 2.45026227625403e-10 2.43915439206477e-10 8.45252225739869e-10 1.45475501924277e-09 2.8975726547679e-09 1.66853767705671e-09 2.24028326818629e-10 1.29613115737909e-10
"1881" 28113 2.45026227625403e-10 2.436577707226e-10 8.40462139493374e-10 1.45916681852868e-09 2.89789742977446e-09 1.66170503543115e-09 2.23698115888615e-10 1.29613115737909e-10
"1882" 28114 2.45026227625403e-10 2.43400102238723e-10 8.35672053246879e-10 1.46357861781458e-09 2.89822220478101e-09 1.65487239380559e-09 2.23367904958601e-10 1.29613115737909e-10
"1883" 28115 2.45026227625403e-10 2.43142433754846e-10 8.30881967000384e-10 1.46799041710049e-09 2.89854697978757e-09 1.64803975218003e-09 2.23037694028586e-10 1.29613115737909e-10
"1884" 28116 2.45026227625403e-10 2.42884765270969e-10 8.26091880753890e-10 1.47240221638639e-09 2.89887175479413e-09 1.64120711055447e-09 2.22707483098572e-10 1.29613115737909e-10
"1885" 28117 2.45026227625403e-10 2.42627096787092e-10 8.21301794507395e-10 1.47681401567229e-09 2.89919652980068e-09 1.63437446892891e-09 2.22377272168558e-10 1.29613115737909e-10
"1886" 28118 2.45026227625403e-10 2.42369428303214e-10 8.165117082609e-10 1.4812258149582e-09 2.89952130480724e-09 1.62754182730335e-09 2.22047061238544e-10 1.29613115737909e-10
"1887" 28119 2.45026227625403e-10 2.42111759819337e-10 8.11721622014405e-10 1.4856376142441e-09 2.8998460798138e-09 1.62070918567779e-09 2.2171685030853e-10 1.29613115737909e-10
"1888" 28120 2.45026227625403e-10 2.4185409133546e-10 8.0693153576791e-10 1.49004941353001e-09 2.90017085482035e-09 1.61387654405223e-09 2.21386639378516e-10 1.29613115737909e-10
"1889" 28121 2.45026227625403e-10 2.41596422851583e-10 8.02141449521415e-10 1.49446121281591e-09 2.90049562982691e-09 1.60704390242667e-09 2.21056428448502e-10 1.29613115737909e-10
"1890" 28122 2.44723948393154e-10 2.41338754367706e-10 7.93551481418196e-10 1.49267708752121e-09 2.90700030724389e-09 1.5981499319701e-09 2.2089475970568e-10 1.29268948479018e-10
"1891" 28123 2.45318415651235e-10 2.43300599135439e-10 7.84692392263815e-10 1.49078751863944e-09 2.92306943010385e-09 1.58925596151354e-09 2.20564548775666e-10 1.28924781220128e-10
"1892" 28124 2.45912882909316e-10 2.45262443903172e-10 7.75833303109434e-10 1.48889794975768e-09 2.93913855296381e-09 1.58036199105697e-09 2.20234337845652e-10 1.28580613961238e-10
"1893" 28125 2.46507350167397e-10 2.47224288670906e-10 7.66974213955053e-10 1.48700838087591e-09 2.95520767582377e-09 1.57146802060041e-09 2.19904126915638e-10 1.28236446702347e-10
"1894" 28126 2.47701330286768e-10 2.49202717289186e-10 7.66744581889007e-10 1.48700838087591e-09 2.97264314803273e-09 1.56568193228046e-09 2.19735584728445e-10 1.27892279443457e-10
"1895" 28127 2.48996070150223e-10 2.51422230540797e-10 7.66475460837846e-10 1.48690293728885e-09 2.99001366524038e-09 1.56574824864263e-09 2.19735584728445e-10 1.27548112184567e-10
"1896" 28128 2.50290810013677e-10 2.53641743792407e-10 7.66206339786685e-10 1.48679749370179e-09 3.00738418244803e-09 1.56581456500481e-09 2.19735584728445e-10 1.27203944925676e-10
"1897" 28129 2.51585549877132e-10 2.55861257044018e-10 7.65937218735524e-10 1.48669205011472e-09 3.02475469965568e-09 1.56588088136699e-09 2.19735584728445e-10 1.26859777666786e-10
"1898" 28130 2.52880289740587e-10 2.58080770295628e-10 7.65668097684364e-10 1.48658660652766e-09 3.04212521686333e-09 1.56594719772916e-09 2.19735584728445e-10 1.26515610407895e-10
"1899" 28131 2.54175029604041e-10 2.60300283547238e-10 7.65398976633203e-10 1.4864811629406e-09 3.05949573407098e-09 1.56601351409134e-09 2.19735584728445e-10 1.26171443149005e-10
"1900" 28132 2.55469769467496e-10 2.62519796798849e-10 7.65129855582042e-10 1.48637571935354e-09 3.07686625127863e-09 1.56607983045352e-09 2.19735584728445e-10 1.25827275890115e-10
"1901" 28133 2.5676450933095e-10 2.64739310050459e-10 7.6486073453088e-10 1.48627027576648e-09 3.09423676848627e-09 1.5661461468157e-09 2.19735584728445e-10 1.25483108631224e-10
"1902" 28134 2.58059249194405e-10 2.6695882330207e-10 7.6459161347972e-10 1.48616483217941e-09 3.11160728569392e-09 1.56621246317787e-09 2.19735584728445e-10 1.25138941372334e-10
"1903" 28135 2.59353989057859e-10 2.6917833655368e-10 7.64322492428559e-10 1.48605938859235e-09 3.12897780290157e-09 1.56627877954005e-09 2.19735584728445e-10 1.24794774113444e-10
"1904" 28136 2.60648728921314e-10 2.71397849805291e-10 7.64053371377398e-10 1.48595394500529e-09 3.14634832010922e-09 1.56634509590223e-09 2.19735584728445e-10 1.24450606854553e-10
"1905" 28137 2.61943468784768e-10 2.73617363056901e-10 7.63784250326237e-10 1.48584850141823e-09 3.16371883731687e-09 1.5664114122644e-09 2.19735584728445e-10 1.24106439595663e-10
"1906" 28138 2.63238208648223e-10 2.75836876308511e-10 7.63515129275076e-10 1.48574305783117e-09 3.18108935452452e-09 1.56647772862658e-09 2.19735584728445e-10 1.23762272336772e-10
"1907" 28139 2.64532948511678e-10 2.78056389560122e-10 7.63246008223915e-10 1.4856376142441e-09 3.19845987173217e-09 1.56654404498876e-09 2.19735584728445e-10 1.23418105077882e-10
"1908" 28140 2.65827688375132e-10 2.80275902811732e-10 7.62976887172754e-10 1.48553217065704e-09 3.21583038893982e-09 1.56661036135094e-09 2.19735584728445e-10 1.23073937818992e-10
"1909" 28141 2.67122428238587e-10 2.82495416063343e-10 7.62707766121593e-10 1.48542672706998e-09 3.23320090614747e-09 1.56667667771311e-09 2.19735584728445e-10 1.22729770560101e-10
"1910" 28142 2.68417168102041e-10 2.84714929314953e-10 7.62438645070432e-10 1.48532128348292e-09 3.25057142335512e-09 1.56674299407529e-09 2.19735584728445e-10 1.22385603301211e-10
"1911" 28143 2.68417168102041e-10 2.8497259779883e-10 7.6830521552157e-10 1.48879832289431e-09 3.25523417952063e-09 1.56745796557001e-09 2.19904126915638e-10 1.22385603301211e-10
"1912" 28144 2.68417168102041e-10 2.85230266282707e-10 7.68994111719708e-10 1.48869287930725e-09 3.25686034887487e-09 1.57364195206303e-09 2.20234337845652e-10 1.2204143604232e-10
"1913" 28145 2.68417168102041e-10 2.85487934766585e-10 7.69683007917846e-10 1.48858743572019e-09 3.25848651822912e-09 1.57982593855604e-09 2.20564548775666e-10 1.2169726878343e-10
"1914" 28146 2.68417168102041e-10 2.85745603250462e-10 7.70371904115984e-10 1.48848199213313e-09 3.26011268758336e-09 1.58600992504906e-09 2.2089475970568e-10 1.2135310152454e-10
"1915" 28147 2.68417168102041e-10 2.86003271734339e-10 7.71060800314122e-10 1.48837654854607e-09 3.2617388569376e-09 1.59219391154207e-09 2.21224970635694e-10 1.21008934265649e-10
"1916" 28148 2.68417168102041e-10 2.86260940218216e-10 7.7174969651226e-10 1.488271104959e-09 3.26336502629185e-09 1.59837789803509e-09 2.21555181565709e-10 1.20664767006759e-10
"1917" 28149 2.67716895496668e-10 2.85504518617132e-10 7.7167071854203e-10 1.488271104959e-09 3.2650561506474e-09 1.60092071069232e-09 2.21555181565709e-10 1.20510181148442e-10
"1918" 28150 2.67616135752585e-10 2.81805329864448e-10 7.68559732883443e-10 1.488271104959e-09 3.26674727500296e-09 1.60732091556285e-09 2.21885392495723e-10 1.20510181148442e-10
"1919" 28151 2.67515376008501e-10 2.78106141111764e-10 7.65448747224857e-10 1.488271104959e-09 3.26843839935851e-09 1.61372112043338e-09 2.22215603425737e-10 1.20510181148442e-10
"1920" 28152 2.67414616264418e-10 2.7440695235908e-10 7.6233776156627e-10 1.488271104959e-09 3.27012952371407e-09 1.62012132530391e-09 2.22545814355751e-10 1.20510181148442e-10
"1921" 28153 2.67313856520335e-10 2.70707763606396e-10 7.59226775907683e-10 1.488271104959e-09 3.27182064806962e-09 1.62652153017444e-09 2.22876025285765e-10 1.20510181148442e-10
"1922" 28154 2.67213096776252e-10 2.67008574853712e-10 7.56115790249096e-10 1.488271104959e-09 3.27351177242518e-09 1.63292173504497e-09 2.23206236215779e-10 1.20510181148442e-10
"1923" 28155 2.67112337032169e-10 2.63309386101028e-10 7.53004804590509e-10 1.488271104959e-09 3.27520289678073e-09 1.6393219399155e-09 2.23536447145793e-10 1.20510181148442e-10
"1924" 28156 2.67011577288085e-10 2.59610197348344e-10 7.49893818931922e-10 1.488271104959e-09 3.27689402113629e-09 1.64572214478603e-09 2.23866658075808e-10 1.20510181148442e-10
"1925" 28157 2.66910817544002e-10 2.5591100859566e-10 7.46782833273335e-10 1.488271104959e-09 3.27858514549184e-09 1.65212234965656e-09 2.24196869005822e-10 1.20510181148442e-10
"1926" 28158 2.66810057799919e-10 2.52211819842976e-10 7.43671847614748e-10 1.488271104959e-09 3.2802762698474e-09 1.65852255452709e-09 2.24527079935836e-10 1.20510181148442e-10
"1927" 28159 2.66709298055836e-10 2.48512631090291e-10 7.40560861956162e-10 1.488271104959e-09 3.28196739420295e-09 1.66492275939762e-09 2.2485729086585e-10 1.20510181148442e-10
"1928" 28160 2.66608538311753e-10 2.44813442337607e-10 7.37449876297575e-10 1.488271104959e-09 3.28365851855851e-09 1.67132296426815e-09 2.25187501795864e-10 1.20510181148442e-10
"1929" 28161 2.66507778567669e-10 2.45071110821485e-10 7.37449876297575e-10 1.48757569707672e-09 3.28255198921475e-09 1.67360051147667e-09 2.25517712725878e-10 1.20355595290126e-10
"1930" 28162 2.66407018823586e-10 2.45328779305362e-10 7.37449876297575e-10 1.48688028919444e-09 3.281445459871e-09 1.67587805868519e-09 2.25847923655893e-10 1.20201009431809e-10
"1931" 28163 2.66306259079503e-10 2.45586447789239e-10 7.37449876297575e-10 1.48618488131217e-09 3.28033893052725e-09 1.67815560589371e-09 2.26178134585907e-10 1.20046423573493e-10
"1932" 28164 2.6620549933542e-10 2.45844116273116e-10 7.37449876297575e-10 1.48548947342989e-09 3.2792324011835e-09 1.68043315310223e-09 2.26508345515921e-10 1.19891837715176e-10
"1933" 28165 2.66104739591337e-10 2.46101784756993e-10 7.37449876297575e-10 1.48479406554761e-09 3.27812587183974e-09 1.68271070031075e-09 2.26838556445935e-10 1.19737251856859e-10
"1934" 28166 2.66401973220377e-10 2.4708270714086e-10 7.37528854267805e-10 1.48420410125239e-09 3.27858055684892e-09 1.75122155716366e-09 2.2799773142317e-10 1.19582665998543e-10
"1935" 28167 2.66699206849418e-10 2.47340375624737e-10 7.38755992568265e-10 1.48420410125239e-09 3.2790352418581e-09 1.74738143424134e-09 2.28166273610363e-10 1.19582665998543e-10
"1936" 28168 2.66996440478458e-10 2.47598044108614e-10 7.39983130868725e-10 1.48420410125239e-09 3.27948992686728e-09 1.74354131131902e-09 2.28334815797556e-10 1.19582665998543e-10
"1937" 28169 2.67293674107499e-10 2.4684162250753e-10 7.39983130868725e-10 1.48420410125239e-09 3.27558574382422e-09 1.73996645384541e-09 2.28173147054735e-10 1.17777234930289e-10
"1938" 28170 2.6759090773654e-10 2.46085200906446e-10 7.39983130868725e-10 1.48420410125239e-09 3.27168156078116e-09 1.7363915963718e-09 2.28011478311913e-10 1.15971803862034e-10
"1939" 28171 2.6788814136558e-10 2.45328779305362e-10 7.39983130868725e-10 1.48420410125239e-09 3.2677773777381e-09 1.73281673889819e-09 2.27849809569092e-10 1.1416637279378e-10
"1940" 28172 2.68185374994621e-10 2.44572357704278e-10 7.39983130868725e-10 1.48420410125239e-09 3.26387319469504e-09 1.72924188142458e-09 2.27688140826271e-10 1.12360941725526e-10
"1941" 28173 2.68482608623661e-10 2.43815936103193e-10 7.39983130868725e-10 1.48420410125239e-09 3.25996901165198e-09 1.72566702395097e-09 2.27526472083449e-10 1.10555510657272e-10
"1942" 28174 2.68779842252702e-10 2.43059514502109e-10 7.39983130868725e-10 1.48420410125239e-09 3.25606482860892e-09 1.72209216647736e-09 2.27364803340628e-10 1.08750079589018e-10
"1943" 28175 2.69077075881743e-10 2.42303092901025e-10 7.39983130868725e-10 1.48420410125239e-09 3.25216064556586e-09 1.71851730900375e-09 2.27203134597807e-10 1.06944648520764e-10
"1944" 28176 2.69374309510783e-10 2.41546671299941e-10 7.39983130868725e-10 1.48420410125239e-09 3.2482564625228e-09 1.71494245153015e-09 2.27041465854985e-10 1.05139217452509e-10
"1945" 28177 2.69671543139824e-10 2.40790249698857e-10 7.39983130868725e-10 1.48420410125239e-09 3.24435227947974e-09 1.71136759405654e-09 2.26879797112164e-10 1.03333786384255e-10
"1946" 28178 2.69968776768864e-10 2.40033828097773e-10 7.39983130868725e-10 1.48420410125239e-09 3.24044809643668e-09 1.70779273658293e-09 2.26718128369343e-10 1.01528355316001e-10
"1947" 28179 2.69968776768864e-10 2.39277406496689e-10 7.41709022286392e-10 1.48361413695717e-09 3.23654391339362e-09 1.70499916696622e-09 2.26718128369343e-10 9.95683383894304e-11
"1948" 28180 2.70266010397905e-10 2.38504401045057e-10 7.39792987787794e-10 1.48302417266195e-09 3.22938739164207e-09 1.70142430949261e-09 2.26387917439329e-10 9.795248872175e-11
"1949" 28181 2.70563244026945e-10 2.37731395593426e-10 7.37876953289196e-10 1.48243420836674e-09 3.22223086989052e-09 1.697849452019e-09 2.26057706509314e-10 9.63366390540696e-11
"1950" 28182 2.70860477655986e-10 2.36958390141794e-10 7.35960918790598e-10 1.48184424407152e-09 3.21507434813898e-09 1.69427459454539e-09 2.257274955793e-10 9.47207893863892e-11
"1951" 28183 2.71157711285027e-10 2.36185384690163e-10 7.34044884292e-10 1.4812542797763e-09 3.20791782638743e-09 1.69069973707178e-09 2.25397284649286e-10 9.31049397187088e-11
"1952" 28184 2.71454944914067e-10 2.3415720452024e-10 7.28178313840861e-10 1.47558557313101e-09 3.20785287138612e-09 1.69005108193923e-09 2.25228742462093e-10 9.32945211192826e-11
"1953" 28185 2.69162698816199e-10 2.33417366769703e-10 7.28178313840861e-10 1.47569101671807e-09 3.20648652203712e-09 1.68621095901692e-09 2.24898531532079e-10 9.3638688378173e-11
"1954" 28186 2.6975716607428e-10 2.31389186599781e-10 7.27141318621332e-10 1.46659378461223e-09 3.19599181968249e-09 1.68383255686425e-09 2.24898531532079e-10 9.3638688378173e-11
"1955" 28187 2.70351633332361e-10 2.29377590280405e-10 7.26104323401803e-10 1.45819196038867e-09 3.18642966856096e-09 1.67527016821857e-09 2.250602002749e-10 9.3638688378173e-11
"1956" 28188 2.70946100590442e-10 2.2736599396103e-10 7.25067328182274e-10 1.44979013616511e-09 3.17686751743943e-09 1.66670777957289e-09 2.25221869017722e-10 9.3638688378173e-11
"1957" 28189 2.71540567848523e-10 2.25354397641655e-10 7.24030332962745e-10 1.44138831194155e-09 3.1673053663179e-09 1.65814539092721e-09 2.25383537760543e-10 9.3638688378173e-11
"1958" 28190 2.72135035106605e-10 2.2334280132228e-10 7.22993337743216e-10 1.43298648771799e-09 3.15774321519637e-09 1.64958300228154e-09 2.25545206503364e-10 9.3638688378173e-11
"1959" 28191 2.72729502364686e-10 2.21331205002904e-10 7.21956342523687e-10 1.42458466349443e-09 3.14818106407485e-09 1.64102061363586e-09 2.25706875246186e-10 9.3638688378173e-11
"1960" 28192 2.73323969622767e-10 2.19319608683529e-10 7.20919347304158e-10 1.41618283927087e-09 3.13861891295332e-09 1.63245822499018e-09 2.25868543989007e-10 9.3638688378173e-11
"1961" 28193 2.73918436880848e-10 2.17308012364154e-10 7.19882352084629e-10 1.40778101504731e-09 3.12905676183179e-09 1.6238958363445e-09 2.26030212731828e-10 9.3638688378173e-11
"1962" 28194 2.74512904138929e-10 2.15296416044779e-10 7.188453568651e-10 1.39937919082375e-09 3.11949461071026e-09 1.61533344769882e-09 2.2619188147465e-10 9.3638688378173e-11
"1963" 28195 2.75107371397011e-10 2.13284819725403e-10 7.17808361645571e-10 1.39097736660019e-09 3.10993245958873e-09 1.60677105905314e-09 2.26353550217471e-10 9.3638688378173e-11
"1964" 28196 2.75701838655092e-10 2.11273223406028e-10 7.16771366426042e-10 1.38257554237663e-09 3.10037030846721e-09 1.59820867040746e-09 2.26515218960292e-10 9.3638688378173e-11
"1965" 28197 2.76296305913173e-10 2.09261627086653e-10 7.15734371206513e-10 1.37417371815307e-09 3.09080815734568e-09 1.58964628176178e-09 2.26676887703114e-10 9.3638688378173e-11
"1966" 28198 2.76890773171254e-10 2.07250030767278e-10 7.14697375986984e-10 1.36577189392951e-09 3.08124600622415e-09 1.5810838931161e-09 2.26838556445935e-10 9.3638688378173e-11
"1967" 28199 2.77485240429335e-10 2.05238434447902e-10 7.13660380767456e-10 1.35737006970595e-09 3.07168385510262e-09 1.57252150447042e-09 2.27000225188756e-10 9.3638688378173e-11
"1968" 28200 2.78079707687416e-10 2.03226838128527e-10 7.12623385547927e-10 1.34896824548238e-09 3.06212170398109e-09 1.56395911582474e-09 2.27161893931578e-10 9.3638688378173e-11
"1969" 28201 2.77480194826126e-10 2.03177086576885e-10 7.13890012833502e-10 1.33997645696361e-09 3.05906423027654e-09 1.55903790101485e-09 2.27829189235977e-10 9.44466132120132e-11
"1970" 28202 2.76880681964836e-10 2.03127335025243e-10 7.15156640119077e-10 1.33098466844483e-09 3.05600675657199e-09 1.55411668620496e-09 2.28496484540377e-10 9.52545380458534e-11
"1971" 28203 2.76281169103546e-10 2.03077583473601e-10 7.16423267404651e-10 1.32199287992605e-09 3.05294928286743e-09 1.54919547139507e-09 2.29163779844777e-10 9.60624628796936e-11
"1972" 28204 2.75681656242256e-10 2.03027831921959e-10 7.17689894690226e-10 1.31300109140727e-09 3.04989180916288e-09 1.54427425658517e-09 2.29831075149177e-10 9.68703877135338e-11
"1973" 28205 2.75681656242256e-10 2.0500626054024e-10 7.19763885129284e-10 1.29357818465431e-09 3.03098096449558e-09 1.54598673431431e-09 2.29831075149177e-10 9.68703877135338e-11
"1974" 28206 2.75782415986339e-10 2.06244851407984e-10 7.17998504726502e-10 1.27749840890757e-09 3.037160866906e-09 1.54956159178792e-09 2.3066691264077e-10 9.75237266890573e-11
"1975" 28207 2.75883175730422e-10 2.07483442275727e-10 7.1623312432372e-10 1.26141863316083e-09 3.04334076931642e-09 1.55313644926153e-09 2.31502750132362e-10 9.81770656645809e-11
"1976" 28208 2.75983935474505e-10 2.08722033143471e-10 7.14467743920939e-10 1.24533885741409e-09 3.04952067172684e-09 1.55671130673514e-09 2.32338587623955e-10 9.88304046401045e-11
"1977" 28209 2.76084695218588e-10 2.09960624011215e-10 7.12702363518157e-10 1.22925908166736e-09 3.05570057413726e-09 1.56028616420875e-09 2.33174425115547e-10 9.94837436156281e-11
"1978" 28210 2.76185454962672e-10 2.11199214878959e-10 7.10936983115375e-10 1.21317930592062e-09 3.06188047654767e-09 1.56386102168236e-09 2.3401026260714e-10 1.00137082591152e-10
"1979" 28211 2.76286214706755e-10 2.12437805746703e-10 7.09171602712593e-10 1.19709953017388e-09 3.06806037895809e-09 1.56743587915597e-09 2.34846100098733e-10 1.00790421566675e-10
"1980" 28212 2.76386974450838e-10 2.13676396614446e-10 7.07406222309811e-10 1.18101975442714e-09 3.07424028136851e-09 1.57101073662957e-09 2.35681937590325e-10 1.01443760542199e-10
"1981" 28213 2.76487734194921e-10 2.1491498748219e-10 7.05640841907029e-10 1.16493997868041e-09 3.08042018377893e-09 1.57458559410318e-09 2.36517775081918e-10 1.02097099517722e-10
"1982" 28214 2.76588493939004e-10 2.16153578349934e-10 7.03875461504247e-10 1.14886020293367e-09 3.08660008618934e-09 1.57816045157679e-09 2.37353612573511e-10 1.02750438493246e-10
"1983" 28215 2.76689253683088e-10 2.17392169217678e-10 7.02110081101465e-10 1.13278042718693e-09 3.09277998859976e-09 1.5817353090504e-09 2.38189450065103e-10 1.0340377746877e-10
"1984" 28216 2.76790013427171e-10 2.18630760085422e-10 7.00344700698683e-10 1.1167006514402e-09 3.09895989101018e-09 1.58531016652401e-09 2.39025287556696e-10 1.04057116444293e-10
"1985" 28217 2.76890773171254e-10 2.19869350953165e-10 6.98579320295901e-10 1.10062087569346e-09 3.1051397934206e-09 1.58888502399762e-09 2.39861125048289e-10 1.04710455419817e-10
"1986" 28218 2.76991532915337e-10 2.21107941820909e-10 6.96813939893119e-10 1.08454109994672e-09 3.11131969583102e-09 1.59245988147123e-09 2.40696962539881e-10 1.0536379439534e-10
"1987" 28219 2.76694299286297e-10 2.21107941820909e-10 6.98080567178694e-10 1.08275697465202e-09 3.11446301143017e-09 1.59610105530702e-09 2.4120258910146e-10 1.0582755197029e-10
"1988" 28220 2.76397065657256e-10 2.21107941820909e-10 6.99347194464269e-10 1.08097284935731e-09 3.11760632702931e-09 1.5997422291428e-09 2.41708215663038e-10 1.0629130954524e-10
"1989" 28221 2.76099832028215e-10 2.21107941820909e-10 7.00613821749844e-10 1.07918872406261e-09 3.12074964262846e-09 1.60338340297859e-09 2.42213842224617e-10 1.0675506712019e-10
"1990" 28222 2.75802598399175e-10 2.21107941820909e-10 7.01880449035419e-10 1.07740459876791e-09 3.12389295822761e-09 1.60702457681438e-09 2.42719468786195e-10 1.0721882469514e-10
"1991" 28223 2.75505364770134e-10 2.21107941820909e-10 7.03147076320994e-10 1.0756204734732e-09 3.12703627382676e-09 1.61066575065016e-09 2.43225095347774e-10 1.0768258227009e-10
"1992" 28224 2.75107371397011e-10 2.19146097053176e-10 7.04413703606569e-10 1.07353424982636e-09 3.12946508441148e-09 1.61259444675681e-09 2.43730721909352e-10 1.0768258227009e-10
"1993" 28225 2.7540965062926e-10 2.19146097053176e-10 7.09709844814915e-10 1.0716446809446e-09 3.12536603636449e-09 1.62482978701849e-09 2.44559685956573e-10 1.0768258227009e-10
"1994" 28226 2.7571192986151e-10 2.19146097053176e-10 7.1500598602326e-10 1.06975511206283e-09 3.12126698831749e-09 1.63706512728017e-09 2.45388650003794e-10 1.0768258227009e-10
"1995" 28227 2.76412202466883e-10 2.21107941820909e-10 7.21109490385089e-10 1.06905970418055e-09 3.12020452708177e-09 1.64930046754184e-09 2.46217614051016e-10 1.0802674952898e-10
"1996" 28228 2.77112475072256e-10 2.23069786588642e-10 7.27212994746918e-10 1.06836429629827e-09 3.11914206584604e-09 1.66153580780352e-09 2.47046578098237e-10 1.0837091678787e-10
"1997" 28229 2.7781274767763e-10 2.25031631356376e-10 7.33316499108747e-10 1.06766888841599e-09 3.11807960461032e-09 1.6737711480652e-09 2.47875542145458e-10 1.08715084046761e-10
"1998" 28230 2.78513020283003e-10 2.26993476124109e-10 7.39420003470576e-10 1.06697348053371e-09 3.11701714337459e-09 1.68600648832687e-09 2.48704506192679e-10 1.09059251305651e-10
"1999" 28231 2.79213292888377e-10 2.28955320891842e-10 7.45523507832404e-10 1.06627807265144e-09 3.11595468213887e-09 1.69824182858855e-09 2.495334702399e-10 1.09403418564541e-10
"2000" 28232 2.7991356549375e-10 2.30917165659575e-10 7.51627012194233e-10 1.06558266476916e-09 3.11489222090314e-09 1.71047716885023e-09 2.50362434287121e-10 1.09747585823432e-10
"2001" 28233 2.80613838099123e-10 2.32879010427309e-10 7.57730516556062e-10 1.06488725688688e-09 3.11382975966742e-09 1.7227125091119e-09 2.51191398334342e-10 1.10091753082322e-10
"2002" 28234 2.81314110704497e-10 2.34840855195042e-10 7.63834020917891e-10 1.0641918490046e-09 3.11276729843169e-09 1.73494784937358e-09 2.52020362381564e-10 1.10435920341213e-10
"2003" 28235 2.8201438330987e-10 2.36802699962775e-10 7.69937525279719e-10 1.06349644112232e-09 3.11170483719597e-09 1.74718318963526e-09 2.52849326428785e-10 1.10780087600103e-10
"2004" 28236 2.82714655915243e-10 2.38764544730509e-10 7.76041029641548e-10 1.06280103324004e-09 3.11064237596024e-09 1.75941852989693e-09 2.53678290476006e-10 1.11124254858993e-10
"2005" 28237 2.83414928520617e-10 2.40726389498242e-10 7.82144534003377e-10 1.06210562535776e-09 3.10957991472452e-09 1.77165387015861e-09 2.54507254523227e-10 1.11468422117884e-10
"2006" 28238 2.8411520112599e-10 2.42688234265975e-10 7.88248038365206e-10 1.06141021747548e-09 3.10851745348879e-09 1.78388921042028e-09 2.55336218570448e-10 1.11812589376774e-10
"2007" 28239 2.84815473731364e-10 2.44650079033708e-10 7.94351542727035e-10 1.0607148095932e-09 3.10745499225306e-09 1.79612455068196e-09 2.56165182617669e-10 1.12156756635664e-10
"2008" 28240 2.85515746336737e-10 2.46611923801442e-10 8.00455047088863e-10 1.06001940171092e-09 3.10639253101734e-09 1.80835989094364e-09 2.5699414666489e-10 1.12500923894555e-10
"2009" 28241 2.8621601894211e-10 2.48573768569175e-10 8.06558551450692e-10 1.05932399382864e-09 3.10533006978161e-09 1.82059523120531e-09 2.57823110712112e-10 1.12845091153445e-10
"2010" 28242 2.86916291547484e-10 2.48573768569175e-10 8.12622566827406e-10 1.05841769877224e-09 3.10595873290144e-09 1.83090187536034e-09 2.58652074759333e-10 1.13189258412336e-10
"2011" 28243 2.86321824289403e-10 2.48831437053052e-10 8.10738719469279e-10 1.05831225518517e-09 3.10669641913061e-09 1.83090187536034e-09 2.57823110712112e-10 1.12845091153445e-10
"2012" 28244 2.85027084425948e-10 2.49845527138013e-10 8.07627733810692e-10 1.05890221948039e-09 3.10650155412668e-09 1.82543286036205e-09 2.56832477922069e-10 1.12500923894555e-10
"2013" 28245 2.83732344562493e-10 2.50859617222975e-10 8.04516748152105e-10 1.05949218377561e-09 3.10630668912274e-09 1.81996384536375e-09 2.55841845132027e-10 1.12156756635664e-10
"2014" 28246 2.82437604699039e-10 2.51873707307936e-10 8.01405762493518e-10 1.06008214807083e-09 3.10611182411881e-09 1.81449483036546e-09 2.54851212341984e-10 1.11812589376774e-10
"2015" 28247 2.81142864835584e-10 2.52887797392897e-10 7.98294776834931e-10 1.06067211236604e-09 3.10591695911488e-09 1.80902581536716e-09 2.53860579551942e-10 1.11468422117884e-10
"2016" 28248 2.7984812497213e-10 2.53901887477859e-10 7.95183791176345e-10 1.06126207666126e-09 3.10572209411094e-09 1.80355680036887e-09 2.52869946761899e-10 1.11124254858993e-10
"2017" 28249 2.78553385108675e-10 2.5491597756282e-10 7.92072805517758e-10 1.06185204095648e-09 3.10552722910701e-09 1.79808778537058e-09 2.51879313971857e-10 1.10780087600103e-10
"2018" 28250 2.77258645245221e-10 2.55930067647781e-10 7.88961819859171e-10 1.0624420052517e-09 3.10533236410307e-09 1.79261877037228e-09 2.50888681181814e-10 1.10435920341213e-10
"2019" 28251 2.75963905381766e-10 2.56944157732742e-10 7.85850834200584e-10 1.06303196954691e-09 3.10513749909914e-09 1.78714975537399e-09 2.49898048391772e-10 1.10091753082322e-10
"2020" 28252 2.74669165518312e-10 2.57958247817704e-10 7.82739848541997e-10 1.06362193384213e-09 3.1049426340952e-09 1.7816807403757e-09 2.48907415601729e-10 1.09747585823432e-10
"2021" 28253 2.73374425654857e-10 2.58972337902665e-10 7.7962886288341e-10 1.06421189813735e-09 3.10474776909127e-09 1.7762117253774e-09 2.47916782811687e-10 1.09403418564541e-10
"2022" 28254 2.72079685791402e-10 2.59986427987626e-10 7.76517877224823e-10 1.06480186243257e-09 3.10455290408734e-09 1.77074271037911e-09 2.46926150021645e-10 1.09059251305651e-10
"2023" 28255 2.70784945927948e-10 2.61000518072588e-10 7.73406891566236e-10 1.06539182672778e-09 3.1043580390834e-09 1.76527369538082e-09 2.45935517231602e-10 1.08715084046761e-10
"2024" 28256 2.69490206064493e-10 2.62014608157549e-10 7.7029590590765e-10 1.065981791023e-09 3.10416317407947e-09 1.75980468038252e-09 2.4494488444156e-10 1.0837091678787e-10
"2025" 28257 2.68195466201039e-10 2.6302869824251e-10 7.67184920249063e-10 1.06657175531822e-09 3.10396830907553e-09 1.75433566538423e-09 2.43954251651517e-10 1.0802674952898e-10
"2026" 28258 2.66900726337584e-10 2.64042788327471e-10 7.64073934590476e-10 1.06716171961343e-09 3.1037734440716e-09 1.74886665038594e-09 2.42963618861475e-10 1.0768258227009e-10
"2027" 28259 2.66306259079503e-10 2.64042788327471e-10 7.64073934590476e-10 1.06775168390865e-09 3.11030130270332e-09 1.74339763538764e-09 2.42134654814254e-10 1.07338415011199e-10
"2028" 28260 2.74880776212896e-10 2.65023710711338e-10 7.6000493168259e-10 1.06985213996454e-09 3.11440035075031e-09 1.73721364889463e-09 2.40975479837018e-10 1.06994247752309e-10
"2029" 28261 2.83455293346289e-10 2.66004633095205e-10 7.55935928774704e-10 1.07195259602043e-09 3.11849939879731e-09 1.73102966240161e-09 2.39816304859783e-10 1.06650080493418e-10
"2030" 28262 2.92029810479682e-10 2.66985555479071e-10 7.51866925866818e-10 1.07405305207632e-09 3.1225984468443e-09 1.7248456759086e-09 2.38657129882548e-10 1.06305913234528e-10
"2031" 28263 3.00604327613075e-10 2.67966477862938e-10 7.47797922958932e-10 1.07615350813221e-09 3.1266974948913e-09 1.71866168941558e-09 2.37497954905312e-10 1.05961745975638e-10
"2032" 28264 3.09178844746468e-10 2.68947400246805e-10 7.43728920051047e-10 1.0782539641881e-09 3.13079654293829e-09 1.71247770292257e-09 2.36338779928077e-10 1.05617578716747e-10
"2033" 28265 3.18650108370191e-10 2.69687237997341e-10 7.42770902801748e-10 1.07976445594877e-09 3.12103952681283e-09 1.71241138656039e-09 2.36008568998063e-10 1.04809653882907e-10
"2034" 28266 3.27224625503584e-10 2.69687237997341e-10 7.42770902801748e-10 1.08106406053532e-09 3.12296958428035e-09 1.7126276049379e-09 2.3584002681087e-10 1.04809653882907e-10
"2035" 28267 3.35799142636977e-10 2.69687237997341e-10 7.42770902801748e-10 1.08236366512187e-09 3.12489964174786e-09 1.71284382331542e-09 2.35671484623677e-10 1.04809653882907e-10
"2036" 28268 3.4437365977037e-10 2.69687237997341e-10 7.42770902801748e-10 1.08366326970842e-09 3.12682969921538e-09 1.71306004169293e-09 2.35502942436485e-10 1.04809653882907e-10
"2037" 28269 3.52948176903763e-10 2.69687237997341e-10 7.42770902801748e-10 1.08496287429497e-09 3.12875975668289e-09 1.71327626007045e-09 2.35334400249292e-10 1.04809653882907e-10
"2038" 28270 3.61522694037156e-10 2.69687237997341e-10 7.42770902801748e-10 1.08626247888152e-09 3.13068981415041e-09 1.71349247844796e-09 2.35165858062099e-10 1.04809653882907e-10
"2039" 28271 3.70097211170549e-10 2.69687237997341e-10 7.42770902801748e-10 1.08756208346807e-09 3.13261987161793e-09 1.71370869682548e-09 2.34997315874906e-10 1.04809653882907e-10
"2040" 28272 3.78671728303941e-10 2.69687237997341e-10 7.42770902801748e-10 1.08886168805461e-09 3.13454992908544e-09 1.71392491520299e-09 2.34828773687713e-10 1.04809653882907e-10
"2041" 28273 3.87246245437334e-10 2.69687237997341e-10 7.42770902801748e-10 1.09016129264116e-09 3.13647998655296e-09 1.71414113358051e-09 2.3466023150052e-10 1.04809653882907e-10
"2042" 28274 3.95820762570727e-10 2.69687237997341e-10 7.42770902801748e-10 1.09146089722771e-09 3.13841004402048e-09 1.71435735195802e-09 2.34491689313328e-10 1.04809653882907e-10
"2043" 28275 4.0439527970412e-10 2.69687237997341e-10 7.42770902801748e-10 1.09276050181426e-09 3.14034010148799e-09 1.71457357033554e-09 2.34323147126135e-10 1.04809653882907e-10
"2044" 28276 4.12969796837513e-10 2.69687237997341e-10 7.42770902801748e-10 1.09406010640081e-09 3.14227015895551e-09 1.71478978871305e-09 2.34154604938942e-10 1.04809653882907e-10
"2045" 28277 4.22138781228987e-10 2.68398895577956e-10 7.42541270735702e-10 1.08996463787609e-09 3.14374553141385e-09 1.71500600709057e-09 2.34154604938942e-10 1.04809653882907e-10
"2046" 28278 4.31307765620461e-10 2.6711055315857e-10 7.42311638669656e-10 1.08586916935137e-09 3.14522090387218e-09 1.71522222546808e-09 2.34154604938942e-10 1.04809653882907e-10
"2047" 28279 4.40476750011935e-10 2.65822210739184e-10 7.4208200660361e-10 1.08177370082665e-09 3.14669627633052e-09 1.7154384438456e-09 2.34154604938942e-10 1.04809653882907e-10
"2048" 28280 4.49645734403409e-10 2.64533868319798e-10 7.41852374537564e-10 1.07767823230194e-09 3.14817164878886e-09 1.71565466222311e-09 2.34154604938942e-10 1.04809653882907e-10
"2049" 28281 4.58814718794883e-10 2.63245525900413e-10 7.41622742471518e-10 1.07358276377722e-09 3.1496470212472e-09 1.71587088060063e-09 2.34154604938942e-10 1.04809653882907e-10
"2050" 28282 4.67983703186357e-10 2.61957183481027e-10 7.41393110405472e-10 1.0694872952525e-09 3.15112239370553e-09 1.71608709897814e-09 2.34154604938942e-10 1.04809653882907e-10
"2051" 28283 4.77152687577832e-10 2.60668841061641e-10 7.41163478339426e-10 1.06539182672778e-09 3.15259776616387e-09 1.71630331735566e-09 2.34154604938942e-10 1.04809653882907e-10
"2052" 28284 4.83626386895104e-10 2.6139209496163e-10 7.38978322789667e-10 1.05594398231895e-09 3.15016895557915e-09 1.71651953573317e-09 2.34154604938942e-10 1.0465506802459e-10
"2053" 28285 4.80628822588653e-10 2.6139209496163e-10 7.37022799305954e-10 1.04439568185423e-09 3.14364109694743e-09 1.73701746060985e-09 2.34323147126135e-10 1.05308407000114e-10
"2054" 28286 4.77933537514452e-10 2.61134426477753e-10 7.35106764807356e-10 1.03284738138952e-09 3.13648457519588e-09 1.74087485282315e-09 2.35158984617727e-10 1.05497988400688e-10
"2055" 28287 4.75238252440251e-10 2.60876757993876e-10 7.33190730308758e-10 1.0212990809248e-09 3.12932805344433e-09 1.74473224503645e-09 2.3599482210932e-10 1.05687569801262e-10
"2056" 28288 4.7254296736605e-10 2.60619089509999e-10 7.3127469581016e-10 1.00975078046008e-09 3.12217153169278e-09 1.74858963724976e-09 2.36830659600913e-10 1.05877151201835e-10
"2057" 28289 4.69847682291848e-10 2.60361421026122e-10 7.29358661311562e-10 9.98202479995358e-10 3.11501500994124e-09 1.75244702946306e-09 2.37666497092505e-10 1.06066732602409e-10
"2058" 28290 4.67152397217647e-10 2.60103752542245e-10 7.27442626812964e-10 9.86654179530639e-10 3.10785848818969e-09 1.75630442167636e-09 2.38502334584098e-10 1.06256314002983e-10
"2059" 28291 4.64457112143446e-10 2.59846084058368e-10 7.25526592314366e-10 9.7510587906592e-10 3.10070196643814e-09 1.76016181388966e-09 2.39338172075691e-10 1.06445895403557e-10
"2060" 28292 4.61459547836995e-10 2.59846084058368e-10 7.29477128266907e-10 9.78793805651441e-10 3.0963430983859e-09 1.76401920610296e-09 2.39338172075691e-10 1.0709923437908e-10
"2061" 28293 4.59358730020875e-10 2.5958841557449e-10 7.29595595222252e-10 9.6714006159966e-10 3.09087770098991e-09 1.76636306967366e-09 2.39668383005705e-10 1.06944648520764e-10
"2062" 28294 4.57257912204754e-10 2.59330747090613e-10 7.29714062177597e-10 9.55486317547879e-10 3.08541230359391e-09 1.76870693324436e-09 2.39998593935719e-10 1.06790062662447e-10
"2063" 28295 4.55157094388634e-10 2.59073078606736e-10 7.29832529132942e-10 9.43832573496098e-10 3.07994690619792e-09 1.77105079681505e-09 2.40328804865733e-10 1.0663547680413e-10
"2064" 28296 4.53056276572514e-10 2.58815410122859e-10 7.29950996088287e-10 9.32178829444316e-10 3.07448150880193e-09 1.77339466038575e-09 2.40659015795747e-10 1.06480890945814e-10
"2065" 28297 4.54250256691886e-10 2.58574325489529e-10 7.29950996088287e-10 9.28174572097609e-10 3.05307919287006e-09 1.77545598921676e-09 2.40153389234169e-10 1.06480890945814e-10
"2066" 28298 4.55444236811257e-10 2.58333240856199e-10 7.29950996088287e-10 9.24170314750901e-10 3.03167687693818e-09 1.77751731804776e-09 2.3964776267259e-10 1.06480890945814e-10
"2067" 28299 4.56638216930628e-10 2.58092156222869e-10 7.29950996088287e-10 9.20166057404193e-10 3.01027456100631e-09 1.77957864687877e-09 2.39142136111012e-10 1.06480890945814e-10
"2068" 28300 4.5783219705e-10 2.5785107158954e-10 7.29950996088287e-10 9.16161800057486e-10 2.98887224507444e-09 1.78163997570977e-09 2.38636509549433e-10 1.06480890945814e-10
"2069" 28301 4.59026177169371e-10 2.5760998695621e-10 7.29950996088287e-10 9.12157542710778e-10 2.96746992914256e-09 1.78370130454078e-09 2.38130882987855e-10 1.06480890945814e-10
"2070" 28302 4.60220157288742e-10 2.5736890232288e-10 7.29950996088287e-10 9.0815328536407e-10 2.94606761321069e-09 1.78576263337178e-09 2.37625256426276e-10 1.06480890945814e-10
"2071" 28303 4.61414137408114e-10 2.5712781768955e-10 7.29950996088287e-10 9.04149028017363e-10 2.92466529727882e-09 1.78782396220279e-09 2.37119629864698e-10 1.06480890945814e-10
"2072" 28304 4.62608117527485e-10 2.5688673305622e-10 7.29950996088287e-10 9.00144770670655e-10 2.90326298134695e-09 1.78988529103379e-09 2.36614003303119e-10 1.06480890945814e-10
"2073" 28305 4.63802097646856e-10 2.56645648422891e-10 7.29950996088287e-10 8.96140513323947e-10 2.88186066541507e-09 1.7919466198648e-09 2.36108376741541e-10 1.06480890945814e-10
"2074" 28306 4.64996077766228e-10 2.56404563789561e-10 7.29950996088287e-10 8.9213625597724e-10 2.8604583494832e-09 1.7940079486958e-09 2.35602750179962e-10 1.06480890945814e-10
"2075" 28307 4.66190057885599e-10 2.56163479156231e-10 7.29950996088287e-10 8.88131998630532e-10 2.83905603355133e-09 1.79606927752681e-09 2.35097123618384e-10 1.06480890945814e-10
"2076" 28308 4.6738403800497e-10 2.55922394522901e-10 7.29950996088287e-10 8.84127741283824e-10 2.81765371761945e-09 1.79813060635781e-09 2.34591497056805e-10 1.06480890945814e-10
"2077" 28309 4.68578018124342e-10 2.55681309889571e-10 7.29950996088287e-10 8.80123483937117e-10 2.79625140168758e-09 1.80019193518882e-09 2.34085870495227e-10 1.06480890945814e-10
"2078" 28310 4.69771998243713e-10 2.55440225256241e-10 7.29950996088287e-10 8.76119226590409e-10 2.77484908575571e-09 1.80225326401982e-09 2.33580243933648e-10 1.06480890945814e-10
"2079" 28311 4.70965978363084e-10 2.55199140622912e-10 7.29950996088287e-10 8.72114969243701e-10 2.75344676982384e-09 1.80431459285083e-09 2.3307461737207e-10 1.06480890945814e-10
"2080" 28312 4.72159958482456e-10 2.54958055989582e-10 7.29950996088287e-10 8.68110711896994e-10 2.73204445389196e-09 1.80637592168183e-09 2.32568990810491e-10 1.06480890945814e-10
"2081" 28313 4.73353938601827e-10 2.54716971356252e-10 7.29950996088287e-10 8.64106454550286e-10 2.71064213796009e-09 1.80843725051284e-09 2.32063364248913e-10 1.06480890945814e-10
"2082" 28314 4.74547918721199e-10 2.54475886722922e-10 7.29950996088287e-10 8.60102197203578e-10 2.68923982202822e-09 1.81049857934384e-09 2.31557737687334e-10 1.06480890945814e-10
"2083" 28315 4.7574189884057e-10 2.54234802089592e-10 7.29950996088287e-10 8.56097939856871e-10 2.66783750609634e-09 1.81255990817485e-09 2.31052111125756e-10 1.06480890945814e-10
"2084" 28316 4.77439677680357e-10 2.56262982259515e-10 7.27647373583183e-10 8.52093682510163e-10 2.64480902081023e-09 1.81613476564846e-09 2.33882961086176e-10 1.07288815779654e-10
"2085" 28317 4.77338917936274e-10 2.56021897626185e-10 7.25573383144125e-10 8.53863575395815e-10 2.62496791923129e-09 1.81613476564846e-09 2.33377334524598e-10 1.07443401637971e-10
"2086" 28318 4.77238158192191e-10 2.55780812992855e-10 7.23499392705067e-10 8.55633468281467e-10 2.60512681765235e-09 1.81613476564846e-09 2.32871707963019e-10 1.07597987496287e-10
"2087" 28319 4.77137398448108e-10 2.55539728359525e-10 7.21425402266009e-10 8.57403361167118e-10 2.58528571607341e-09 1.81613476564846e-09 2.32366081401441e-10 1.07752573354604e-10
"2088" 28320 4.77036638704024e-10 2.55298643726196e-10 7.19351411826951e-10 8.5917325405277e-10 2.56544461449446e-09 1.81613476564846e-09 2.31860454839862e-10 1.0790715921292e-10
"2089" 28321 4.76935878959941e-10 2.55057559092866e-10 7.17277421387893e-10 8.60943146938422e-10 2.54560351291552e-09 1.81613476564846e-09 2.31354828278284e-10 1.08061745071237e-10
"2090" 28322 4.76835119215858e-10 2.54816474459536e-10 7.15203430948835e-10 8.62713039824074e-10 2.52576241133658e-09 1.81613476564846e-09 2.30849201716705e-10 1.08216330929554e-10
"2091" 28323 4.76734359471775e-10 2.54575389826206e-10 7.13129440509778e-10 8.64482932709726e-10 2.50592130975764e-09 1.81613476564846e-09 2.30343575155127e-10 1.0837091678787e-10
"2092" 28324 4.76633599727692e-10 2.54334305192876e-10 7.1105545007072e-10 8.66252825595378e-10 2.4860802081787e-09 1.81613476564846e-09 2.29837948593548e-10 1.08525502646187e-10
"2093" 28325 4.76532839983608e-10 2.54093220559546e-10 7.08981459631662e-10 8.6802271848103e-10 2.46623910659976e-09 1.81613476564846e-09 2.2933232203197e-10 1.08680088504503e-10
"2094" 28326 4.76432080239525e-10 2.53852135926217e-10 7.06907469192604e-10 8.69792611366682e-10 2.44639800502082e-09 1.81613476564846e-09 2.28826695470391e-10 1.0883467436282e-10
"2095" 28327 4.74633541655655e-10 2.53594467442339e-10 7.0100140975635e-10 8.51352978439075e-10 2.43956625827583e-09 1.81229464272614e-09 2.28826695470391e-10 1.08989260221137e-10
"2096" 28328 4.72835003071784e-10 2.53336798958462e-10 6.95095350320096e-10 8.32913345511469e-10 2.43273451153084e-09 1.80845451980382e-09 2.28826695470391e-10 1.09143846079453e-10
"2097" 28329 4.71036464487914e-10 2.53079130474585e-10 6.89189290883842e-10 8.14473712583862e-10 2.42590276478585e-09 1.8046143968815e-09 2.28826695470391e-10 1.0929843193777e-10
"2098" 28330 4.69237925904043e-10 2.52821461990708e-10 6.83283231447589e-10 7.96034079656255e-10 2.41907101804086e-09 1.80077427395918e-09 2.28826695470391e-10 1.09453017796086e-10
"2099" 28331 4.67439387320173e-10 2.52563793506831e-10 6.77377172011335e-10 7.77594446728649e-10 2.41223927129587e-09 1.79693415103687e-09 2.28826695470391e-10 1.09607603654403e-10
"2100" 28332 4.66144647456718e-10 2.52563793506831e-10 6.76569808857852e-10 7.77594446728649e-10 2.35661556095919e-09 1.79615286317997e-09 2.28988364213213e-10 1.0895426467888e-10
"2101" 28333 4.64849907593263e-10 2.52563793506831e-10 6.75762445704369e-10 7.77594446728649e-10 2.30099185062251e-09 1.79537157532307e-09 2.29150032956034e-10 1.08300925703356e-10
"2102" 28334 4.63555167729809e-10 2.52563793506831e-10 6.74955082550886e-10 7.77594446728649e-10 2.24536814028583e-09 1.79459028746617e-09 2.29311701698855e-10 1.07647586727832e-10
"2103" 28335 4.62260427866354e-10 2.52563793506831e-10 6.74147719397403e-10 7.77594446728649e-10 2.18974442994915e-09 1.79380899960927e-09 2.29473370441677e-10 1.06994247752309e-10
"2104" 28336 4.63655927473892e-10 2.54783306758441e-10 6.73110724177874e-10 7.72515704378569e-10 2.13130217901988e-09 1.79508904058338e-09 2.29635039184498e-10 1.07373410553456e-10
"2105" 28337 4.62461947354521e-10 2.54783306758441e-10 6.72303361024391e-10 7.87218896769799e-10 2.09551957026214e-09 1.79636908155748e-09 2.29635039184498e-10 1.06720071577933e-10
"2106" 28338 4.61267967235149e-10 2.54783306758441e-10 6.71495997870908e-10 8.01922089161029e-10 2.0597369615044e-09 1.79764912253159e-09 2.29635039184498e-10 1.06066732602409e-10
"2107" 28339 4.60073987115778e-10 2.54783306758441e-10 6.70688634717425e-10 8.1662528155226e-10 2.02395435274666e-09 1.79892916350569e-09 2.29635039184498e-10 1.05413393626886e-10
"2108" 28340 4.58880006996407e-10 2.54783306758441e-10 6.70918266783471e-10 8.36997180588788e-10 2.02961232082513e-09 1.8002092044798e-09 2.29473370441677e-10 1.05567979485202e-10
"2109" 28341 4.57686026877035e-10 2.54783306758441e-10 6.71147898849517e-10 8.57369079625315e-10 2.03527028890359e-09 1.80148924545391e-09 2.29311701698855e-10 1.05722565343519e-10
"2110" 28342 4.56492046757664e-10 2.54783306758441e-10 6.71377530915563e-10 8.77740978661843e-10 2.04092825698206e-09 1.80276928642801e-09 2.29150032956034e-10 1.05877151201835e-10
"2111" 28343 4.55298066638293e-10 2.54783306758441e-10 6.71607162981609e-10 8.98112877698371e-10 2.04658622506053e-09 1.80404932740212e-09 2.28988364213213e-10 1.06031737060152e-10
"2112" 28344 4.54104086518921e-10 2.54783306758441e-10 6.71836795047655e-10 9.18484776734899e-10 2.052244193139e-09 1.80532936837622e-09 2.28826695470391e-10 1.06186322918469e-10
"2113" 28345 4.5291010639955e-10 2.54783306758441e-10 6.72066427113701e-10 9.38856675771427e-10 2.05790216121746e-09 1.80660940935033e-09 2.2866502672757e-10 1.06340908776785e-10
"2114" 28346 4.51716126280179e-10 2.54783306758441e-10 6.72296059179747e-10 9.59228574807954e-10 2.06356012929593e-09 1.80788945032444e-09 2.28503357984749e-10 1.06495494635102e-10
"2115" 28347 4.50522146160807e-10 2.54783306758441e-10 6.72525691245793e-10 9.79600473844482e-10 2.0692180973744e-09 1.80916949129854e-09 2.28341689241927e-10 1.06650080493418e-10
"2116" 28348 4.49328166041436e-10 2.54783306758441e-10 6.72755323311839e-10 9.9997237288101e-10 2.07487606545287e-09 1.81044953227265e-09 2.28180020499106e-10 1.06804666351735e-10
"2117" 28349 4.48134185922064e-10 2.54783306758441e-10 6.72984955377885e-10 1.02034427191754e-09 2.08053403353134e-09 1.81172957324676e-09 2.28018351756285e-10 1.06959252210052e-10
"2118" 28350 4.4863798464248e-10 2.57052571561694e-10 6.79120646880185e-10 1.03189257238226e-09 2.06353235943827e-09 1.81088196902768e-09 2.27688140826271e-10 1.07767177043892e-10
"2119" 28351 4.49141783362896e-10 2.57310240045571e-10 6.79389767931346e-10 1.03159047403012e-09 2.0493492259378e-09 1.8100343648086e-09 2.27688140826271e-10 1.08111344302782e-10
"2120" 28352 4.49645582083312e-10 2.57567908529448e-10 6.79658888982507e-10 1.03128837567799e-09 2.03516609243732e-09 1.80918676058953e-09 2.27688140826271e-10 1.08455511561673e-10
"2121" 28353 4.51046127294059e-10 2.57825577013325e-10 6.77624387528564e-10 1.0186998717517e-09 2.03672730679026e-09 1.80833915637045e-09 2.28018351756285e-10 1.08645092962246e-10
"2122" 28354 4.52743906133847e-10 2.57825577013325e-10 6.75708353029966e-10 1.01272906675427e-09 2.03466733932012e-09 1.80749155215137e-09 2.28180020499106e-10 1.0883467436282e-10
"2123" 28355 4.54441684973634e-10 2.57825577013325e-10 6.73792318531368e-10 1.00675826175684e-09 2.03260737184998e-09 1.8066439479323e-09 2.28341689241927e-10 1.09024255763394e-10
"2124" 28356 4.56139463813421e-10 2.57825577013325e-10 6.7187628403277e-10 1.0007874567594e-09 2.03054740437984e-09 1.80579634371322e-09 2.28503357984749e-10 1.09213837163968e-10
"2125" 28357 4.57837242653209e-10 2.57825577013325e-10 6.69960249534172e-10 9.94816651761971e-10 2.0284874369097e-09 1.80494873949414e-09 2.2866502672757e-10 1.09403418564541e-10
"2126" 28358 4.59535021492996e-10 2.57825577013325e-10 6.68044215035574e-10 9.88845846764539e-10 2.02642746943956e-09 1.80410113527507e-09 2.28826695470391e-10 1.09592999965115e-10
"2127" 28359 4.61232800332783e-10 2.57825577013325e-10 6.66128180536976e-10 9.82875041767107e-10 2.02436750196942e-09 1.80325353105599e-09 2.28988364213213e-10 1.09782581365689e-10
"2128" 28360 4.62930579172571e-10 2.57825577013325e-10 6.64212146038378e-10 9.76904236769675e-10 2.02230753449928e-09 1.80240592683692e-09 2.29150032956034e-10 1.09972162766263e-10
"2129" 28361 4.64628358012358e-10 2.57825577013325e-10 6.6229611153978e-10 9.70933431772243e-10 2.02024756702914e-09 1.80155832261784e-09 2.29311701698855e-10 1.10161744166836e-10
"2130" 28362 4.66326136852145e-10 2.57825577013325e-10 6.60380077041182e-10 9.64962626774811e-10 2.018187599559e-09 1.80071071839876e-09 2.29473370441677e-10 1.1035132556741e-10
"2131" 28363 4.68023915691933e-10 2.57825577013325e-10 6.58464042542584e-10 9.58991821777379e-10 2.01612763208886e-09 1.79986311417969e-09 2.29635039184498e-10 1.10540906967984e-10
"2132" 28364 4.6972169453172e-10 2.57825577013325e-10 6.56548008043986e-10 9.53021016779947e-10 2.01406766461872e-09 1.79901550996061e-09 2.29796707927319e-10 1.10730488368558e-10
"2133" 28365 4.71419473371507e-10 2.57825577013325e-10 6.54631973545389e-10 9.47050211782515e-10 2.01200769714859e-09 1.79816790574153e-09 2.29958376670141e-10 1.10920069769132e-10
"2134" 28366 4.73117252211295e-10 2.57825577013325e-10 6.52715939046791e-10 9.41079406785083e-10 2.00994772967845e-09 1.79732030152246e-09 2.30120045412962e-10 1.11109651169705e-10
"2135" 28367 4.74815031051082e-10 2.57825577013325e-10 6.50799904548193e-10 9.35108601787652e-10 2.00788776220831e-09 1.79647269730338e-09 2.30281714155783e-10 1.11299232570279e-10
"2136" 28368 4.76512809890869e-10 2.57825577013325e-10 6.48883870049595e-10 9.29137796790219e-10 2.00582779473817e-09 1.79562509308431e-09 2.30443382898605e-10 1.11488813970853e-10
"2137" 28369 4.78210588730657e-10 2.57825577013325e-10 6.46967835550997e-10 9.23166991792787e-10 2.00376782726803e-09 1.79477748886523e-09 2.30605051641426e-10 1.11678395371427e-10
"2138" 28370 4.79908367570444e-10 2.57825577013325e-10 6.45051801052399e-10 9.17196186795356e-10 2.00170785979789e-09 1.79392988464615e-09 2.30766720384247e-10 1.11867976772e-10
"2139" 28371 4.81606146410231e-10 2.57825577013325e-10 6.43135766553801e-10 9.11225381797924e-10 1.99964789232775e-09 1.79308228042708e-09 2.30928389127069e-10 1.12057558172574e-10
"2140" 28372 4.83303925250019e-10 2.57825577013325e-10 6.41219732055203e-10 9.05254576800492e-10 1.99758792485761e-09 1.792234676208e-09 2.3109005786989e-10 1.12247139573148e-10
"2141" 28373 4.85001704089806e-10 2.57825577013325e-10 6.39303697556605e-10 8.9928377180306e-10 1.99552795738747e-09 1.79138707198892e-09 2.31251726612711e-10 1.12436720973722e-10
"2142" 28374 4.86699482929593e-10 2.57825577013325e-10 6.37387663058007e-10 8.93312966805628e-10 1.99346798991733e-09 1.79053946776985e-09 2.31413395355533e-10 1.12626302374295e-10
"2143" 28375 4.88397261769381e-10 2.57825577013325e-10 6.35471628559409e-10 8.87342161808196e-10 1.99140802244719e-09 1.78969186355077e-09 2.31575064098354e-10 1.12815883774869e-10
"2144" 28376 4.90095040609168e-10 2.57825577013325e-10 6.33555594060811e-10 8.81371356810764e-10 1.98934805497705e-09 1.7888442593317e-09 2.31736732841175e-10 1.13005465175443e-10
"2145" 28377 4.91792819448955e-10 2.57825577013325e-10 6.31639559562213e-10 8.75400551813332e-10 1.98728808750691e-09 1.78799665511262e-09 2.31898401583997e-10 1.13195046576017e-10
"2146" 28378 4.93490598288743e-10 2.57825577013325e-10 6.29723525063615e-10 8.694297468159e-10 1.98522812003677e-09 1.78714905089354e-09 2.32060070326818e-10 1.13384627976591e-10
"2147" 28379 4.93787831917783e-10 2.57825577013325e-10 6.28575364733385e-10 8.64561891639944e-10 1.98034961197404e-09 1.78636776303664e-09 2.32221739069639e-10 1.13574209377164e-10
