time,channel1,channel2,channel3,channel4,channel5,channel6,channel7,channel8,class
41030,9.121169055822392e-9,1.2502086454137197e-8,9.937297179539202e-10,8.237127386474878e-10,2.656555661904629e-9,2.829042113719852e-9,3.1369762982559535e-9,1.496185064696539e-8,0
41031,9.10442481403613e-9,1.2518117374180725e-8,9.937297179539202e-10,8.247210847226524e-10,2.6696891097215926e-9,2.83569743181885e-9,3.136287030636029e-9,1.4976794141714564e-8,0
41032,9.083619064584596e-9,1.2787883828091142e-8,1.0038059865572592e-9,8.233688748103407e-10,2.6709085401877567e-9,2.834368742640358e-9,3.139161825227499e-9,1.4976794141714564e-8,0
41033,9.06281331513306e-9,1.3057650282001559e-8,1.0138822551605982e-9,8.22016664898029e-10,2.6721279706539204e-9,2.8330400534618654e-9,3.1420366198189693e-9,1.4976794141714564e-8,0
41034,9.042007565681527e-9,1.3327416735911975e-8,1.0239585237639372e-9,8.206644549857173e-10,2.6733474011200845e-9,2.831711364283373e-9,3.1449114144104393e-9,1.4976794141714564e-8,0
41035,9.021201816229993e-9,1.3597183189822391e-8,1.0340347923672762e-9,8.193122450734056e-10,2.6745668315862482e-9,2.8303826751048806e-9,3.1477862090019092e-09,1.4976794141714564e-8,0
41036,9.000396066778458e-9,1.3866949643732809e-8,1.0441110609706152e-9,8.179600351610938e-10,2.6757862620524123e-9,2.8290539859263882e-9,3.1506610035933796e-9,1.4976794141714564e-8,0
41037,8.979590317326924e-9,1.4136716097643225e-8,1.0541873295739542e-9,8.166078252487822e-10,2.677005692518576e-9,2.827725296747896e-9,3.1535357981848495e-9,1.4976794141714564e-8,0
41038,8.95878456787539e-9,1.4406482551553641e-8,1.0642635981772932e-9,8.152556153364704e-10,2.67822512298474e-9,2.8263966075694035e-9,3.1564105927763194e-9,1.4976794141714564e-8,0
41039,8.937978818423857e-9,1.4676249005464059e-8,1.0743398667806322e-9,8.139034054241587e-10,2.679444553450904e-9,2.8250679183909115e-9,3.1592853873677894e-9,1.4976794141714564e-8,0
41040,8.917173068972322e-9,1.4946015459374474e-8,1.0844161353839712e-9,8.125511955118471e-10,2.680663983917068e-9,2.823739229212419e-9,3.1621601819592597e-9,1.4976794141714564e-8,0
41041,8.896367319520788e-9,1.521578191328489e-8,1.0944924039873101e-9,8.111989855995353e-10,2.6818834143832317e-9,2.8224105400339267e-9,3.1650349765507297e-9,1.4976794141714564e-8,0
41042,8.88161917418743e-9,1.5354975362029263e-8,1.1045686725906491e-9,8.122630966332285e-10,2.6807200413792356e-9,2.8037013620353966e-9,3.1676743229186562e-9,1.496185064696539e-8,0
41043,8.877557666522157e-9,1.5604425751992534e-8,1.1167411599220153e-9,8.126844051104056e-10,2.675178852436252e-9,2.795717354757906e-9,3.1654887959471107e-9,1.4962589227257683e-8,0
41044,8.873496158856884e-9,1.5853876141955808e-8,1.1289136472533816e-9,8.131057135875826e-10,2.669637663493268e-9,2.7877333474804154e-9,3.1633032689755653e-9,1.4963327807549977e-8,0
41045,8.755507202245755e-9,1.592970728029308e-8,1.1349492877894651e-9,8.131057135875826e-10,2.6680859230837095e-9,2.7873183794497728e-9,3.166178063567035e-9,1.4939413122946758e-8,0
41046,8.643931095422737e-9,1.5784995044943274e-8,1.1295352691051929e-9,8.118975531145801e-10,2.664926961206655e-9,2.7923098680240213e-9,3.1739226652188032e-9,1.492674903163125e-8,0
41047,8.532354988599721e-9,1.564028280959347e-8,1.1241212504209208e-9,8.106893926415776e-10,2.661767999329601e-9,2.79730135659827e-9,3.1816672668705713e-9,1.4914084940315743e-8,0
41048,8.41757191489061e-9,1.5576920499186373e-08,1.118808437995848e-9,8.102680841644006e-10,2.6760648201505604e-9,2.807946699634924e-9,3.1810957233624185e-9,1.4961303054343468e-8,0
41049,8.3027888411815e-9,1.5513558188779272e-8,1.113495625570775e-9,8.098467756872236e-10,2.69036164097152e-9,2.818592042671578e-9,3.1805241798542658e-9,1.5008521168371196e-8,0
41050,8.188005767472388e-9,1.5450195878372172e-8,1.1081828131457022e-9,8.094254672100466e-10,2.7046584617924795e-9,2.8292373857082323e-9,3.179952636346113e-9,1.505573928239892e-8,0
41051,8.073222693763279e-9,1.5386833567965076e-8,1.1028700007206296e-9,8.090041587328695e-10,2.7189552826134395e-9,2.8398827287448865e-9,3.1793810928379602e-9,1.510295739642665e-8,0
41052,7.958439620054169e-9,1.5323471257557976e-8,1.0975571882955567e-9,8.085828502556926e-10,2.733252103434399e-9,2.8505280717815402e-9,3.1788095493298075e-9,1.5150175510454373e-8,0
41053,7.843656546345057e-9,1.526010894715088e-8,1.0922443758704838e-9,8.081615417785155e-10,2.7475489242553585e-9,2.8611734148181944e-9,3.1782380058216547e-9,1.5197393624482098e-8,0
41054,7.733647097617204e-9,1.5072341638613652e-8,1.0882037478032283e-9,8.113647147203459e-10,2.767333182174056e-9,2.8780432783144887e-9,3.1937892198967234e-9,1.5221321041596677e-8,0
41055,7.669807240606746e-9,1.510117783459694e-8,1.1070334975224894e-9,8.127169246326577e-10,2.76550403647481e-9,2.8782946335741814e-9,3.2015338215484915e-9,1.520039250944102e-8,0
41056,7.55716160282966e-9,1.4923273439067325e-8,1.1045613944118594e-9,8.115087641596552e-10,2.7675545300015755e-9,2.8995694900387742e-9,3.2017692697720353e-9,1.517649055734916e-8,0
41057,7.444515965052575e-9,1.474536904353771e-8,1.1020892913012294e-9,8.103006036866527e-10,2.769605023528341e-9,2.920844346503367e-9,3.202004717995579e-9,1.5152588605257297e-8,0
41058,7.331870327275489e-9,1.4567464648008094e-8,1.0996171881905993e-9,8.090924432136502e-10,2.771655517055106e-9,2.94211920296796e-9,3.2022401662191225e-9,1.5128686653165438e-8,0
41059,7.219224689498403e-9,1.4389560252478478e-8,1.0971450850799696e-9,8.078842827406477e-10,2.7737060105818717e-9,2.9633940594325528e-9,3.2024756144426663e-9,1.5104784701073576e-8,0
41060,7.1065790517213176e-9,1.4211655856948864e-8,1.0946729819693396e-9,8.066761222676453e-10,2.775756504108637e-9,2.9846689158971456e-9,3.20271106266621e-9,1.5080882748981714e-8,0
41061,6.993933413944232e-9,1.4033751461419248e-8,1.0922008788587095e-9,8.054679617946428e-10,2.7778069976354023e-9,3.0059437723617385e-9,3.2029465108897535e-9,1.505698079688985e-8,0
41062,6.881287776167145e-9,1.3855847065889632e-8,1.0897287757480795e-9,8.042598013216403e-10,2.779857491162168e-9,3.0272186288263313e-9,3.2031819591132973e-9,1.5033078844797993e-8,0
41063,6.7686421383900595e-9,1.3677942670360018e-8,1.0872566726374497e-9,8.030516408486379e-10,2.7819079846889333e-9,3.048493485290924e-9,3.203417407336841e-9,1.500917689270613e-8,0
41064,6.655996500612974e-9,1.3500038274830402e-8,1.0847845695268197e-9,8.018434803756354e-10,2.783958478215699e-9,3.069768341755517e-9,3.2036528555603845e-9,1.498527494061427e-8,0
41065,6.6303451014605285e-9,1.3509901187838013e-8,1.0865049038722442e-9,8.018434803756354e-10,2.7844578077371363e-9,3.0913743811641884e-9,3.2047680859065704e-9,1.4985287673125625e-8,0
41066,6.7314511867664626e-9,1.361483113880838e-8,1.0950559724697677e-9,8.034171843672863e-10,2.7875607121520228e-9,3.0904606600163386e-9,3.2047680859065704e-9,1.497658177546938e-8,0
41067,6.832557272072396e-9,1.3719761089778749e-8,1.103607041067291e-9,8.049908883589372e-10,2.7906636165669092e-9,3.089546938868489e-9,3.2047680859065704e-9,1.4967875877813134e-8,0
41068,6.933663357378329e-9,1.3824691040749116e-8,1.1121581096648143e-9,8.065645923505881e-10,2.7937665209817957e-9,3.088633217720639e-9,3.2047680859065704e-9,1.495916998015689e-8,0
41069,7.034769442684262e-9,1.3929620991719485e-8,1.1207091782623376e-9,8.08138296342239e-10,2.796869425396682e-9,3.0877194965727897e-9,3.2047680859065704e-9,1.4950464082500642e-8,0
41070,7.135875527990196e-9,1.4034550942689852e-8,1.129260246859861e-9,8.0971200033389e-10,2.7999723298115683e-9,3.08680577542494e-9,3.2047680859065704e-9,1.4941758184844398e-8,0
41071,7.236981613296129e-9,1.4139480893660221e-8,1.1378113154573843e-9,8.112857043255409e-10,2.8030752342264548e-9,3.08589205427709e-9,3.2047680859065704e-9,1.493305228718815e-8,0
41072,7.338087698602063e-9,1.4244410844630588e-8,1.1463623840549076e-9,8.128594083171918e-10,2.8061781386413413e-9,3.0849783331292404e-9,3.2047680859065704e-9,1.4924346389531907e-8,0
41073,7.36331128537288e-9,1.4383143858234503e-8,1.1499765246099609e-9,8.126487540786033e-10,2.8077298790509e-9,3.088302034776561e-9,3.206998546598942e-9,1.495757395125512e-8,0
41074,7.388534872143698e-9,1.4521876871838416e-8,1.153590665165014e-9,8.124380998400147e-10,2.8092816194604584e-9,3.091625736423881e-9,3.2092290072913136e-9,1.4990801512978334e-8,0
41075,7.413758458914515e-9,1.466060988544233e-8,1.1572048057200672e-9,8.122274456014263e-10,2.810833359870017e-9,3.0949494380712013e-9,3.211459467983685e-9,1.502402907470155e-8,0
41076,7.438982045685333e-9,1.4799342899046245e-8,1.1608189462751205e-9,8.120167913628378e-10,2.812385100279575e-9,3.098273139718522e-9,3.2136899286760567e-9,1.5057256636424765e-8,0
41077,7.46420563245615e-9,1.493807591265016e-8,1.1644330868301736e-9,8.118061371242493e-10,2.8139368406891336e-9,3.101596841365842e-9,3.2159203893684282e-9,1.509048419814798e-8,0
41078,7.489429219226968e-9,1.5076808926254074e-8,1.1680472273852268e-9,8.115954828856607e-10,2.815488581098692e-9,3.104920543013162e-9,3.2181508500608002e-9,1.5123711759871193e-8,0
41079,7.514652805997786e-9,1.5215541939857986e-8,1.17166136794028e-9,8.113848286470722e-10,2.8170403215082503e-9,3.1082442446604827e-9,3.2203813107531718e-9,1.515693932159441e-8,0
41080,7.539876392768602e-9,1.53542749534619e-8,1.1752755084953332e-9,8.111741744084838e-10,2.818592061917809e-9,3.111567946307803e-9,3.2226117714455433e-9,1.5190166883317624e-8,0
41081,7.56509997953942e-9,1.5493007967065815e-8,1.1788896490503863e-9,8.109635201698952e-10,2.8201438023273675e-9,3.114891647955123e-9,3.224842232137915e-9,1.5223394445040838e-8,0
41082,7.590323566310237e-9,1.563174098066973e-8,1.1825037896054395e-9,8.107528659313067e-10,2.821695542736926e-9,3.1182153496024435e-9,3.2270726928302864e-9,1.5256622006764052e-8,0
41083,7.615547153081055e-9,1.5770473994273644e-8,1.1861179301604928e-9,8.105422116927182e-10,2.8232472831464842e-9,3.1215390512497637e-9,3.229303153522658e-9,1.5289849568487266e-8,0
41084,7.640770739851873e-9,1.590920700787756e-8,1.1897320707155459e-9,8.103315574541297e-10,2.8247990235560426e-9,3.124862752897084e-9,3.2315336142150296e-9,1.5323077130210483e-8,0
41085,7.66599432662269e-9,1.604794002148147e-8,1.1933462112705991e-9,8.101209032155411e-10,2.826350763965601e-9,3.1281864545444044e-9,3.233764074907401e-9,1.5356304691933697e-8,0
41086,7.691217913393507e-9,1.6186673035085385e-8,1.1969603518256522e-9,8.099102489769527e-10,2.8279025043751594e-9,3.1315101561917245e-9,3.2359945355997727e-9,1.538953225365691e-8,0
41087,7.70190509305363e-9,1.6180870967308336e-8,1.1976325768070632e-9,8.095555452990549e-10,2.8371019847166353e-9,3.1435600586890777e-9,3.2613302975162637e-9,1.5416445823219053e-8,0
41088,7.704683705566059e-9,1.6195476448293147e-8,1.2225485701920074e-9,8.1361217503599e-10,2.8368245794269477e-9,3.1435600586890777e-9,3.3181324395376202e-9,1.5767466157641902e-8,0
41089,7.707462318078486e-9,1.6210081929277957e-8,1.2474645635769515e-9,8.176688047729252e-10,2.83654717413726e-9,3.1435600586890777e-9,3.374934581558977e-9,1.6118486492064754e-8,0
41090,7.710240930590914e-9,1.622468741026277e-8,1.2723805569618958e-9,8.217254345098603e-10,2.836269768847573e-9,3.1435600586890777e-9,3.4317367235803337e-9,1.6469506826487607e-8,0
41091,7.713019543103343e-9,1.6239292891247582e-8,1.29729655034684e-9,8.257820642467954e-10,2.8359923635578854e-9,3.1435600586890777e-9,3.4885388656016906e-9,1.682052716091046e-8,0
41092,7.715798155615771e-9,1.6253898372232392e-8,1.322212543731784e-9,8.298386939837306e-10,2.835714958268198e-9,3.1435600586890777e-9,3.545341007623047e-9,1.717154749533331e-8,0
41093,7.718576768128199e-9,1.6268503853217203e-8,1.3471285371167282e-9,8.338953237206658e-10,2.8354375529785106e-9,3.1435600586890777e-9,3.6021431496444036e-9,1.7522567829756164e-8,0
41094,7.721355380640628e-9,1.6283109334202017e-8,1.3720445305016725e-9,8.379519534576009e-10,2.835160147688823e-9,3.1435600586890777e-9,3.6589452916657606e-9,1.7873588164179016e-8,0
41095,7.724133993153055e-9,1.6297714815186827e-8,1.3969605238866166e-9,8.42008583194536e-10,2.834882742399136e-9,3.1435600586890777e-9,3.715747433687117e-9,1.8224608498601868e-8,0
41096,7.726912605665483e-9,1.6312320296171638e-8,1.4218765172715607e-9,8.460652129314711e-10,2.8346053371094483e-9,3.1435600586890777e-9,3.772549575708474e-9,1.857562883302472e-8,0
41097,7.729691218177912e-9,1.6326925777156452e-8,1.4467925106565049e-9,8.501218426684063e-10,2.8343279318197607e-9,3.1435600586890777e-9,3.829351717729831e-9,1.8926649167447573e-8,0
41098,7.73246983069034e-9,1.6341531258141262e-8,1.4717085040414492e-9,8.541784724053414e-10,2.8340505265300735e-9,3.1435600586890777e-9,3.8861538597511875e-9,1.9277669501870425e-8,0
41099,7.735248443202767e-9,1.6356136739126073e-8,1.4966244974263933e-9,8.582351021422765e-10,2.833773121240386e-9,3.1435600586890777e-9,3.942956001772544e-9,1.9628689836293278e-8,0
41100,7.738027055715197e-9,1.6370742220110887e-8,1.5215404908113374e-9,8.622917318792116e-10,2.8334957159506984e-09,3.1435600586890777e-9,3.9997581437939005e-9,1.9979710170716127e-8,0
41101,7.740805668227624e-9,1.6385347701095697e-8,1.5464564841962815e-9,8.663483616161468e-10,2.833218310661011e-9,3.1435600586890777e-9,4.056560285815258e-9,2.033073050513898e-8,0
41102,7.743584280740054e-9,1.6399953182080508e-8,1.5713724775812259e-9,8.704049913530819e-10,2.8329409053713236e-9,3.1435600586890777e-9,4.113362427836614e-9,2.068175083956183e-8,0
41103,7.746362893252481e-9,1.6430406613479414e-8,1.5720447025626367e-9,8.726106580604983e-10,2.8390923859516197e-9,3.153291680577882e-9,4.113171913333897e-9,2.0697698206801096e-8,0
41104,7.749141505764909e-9,1.6460860044878323e-8,1.5727169275440477e-9,8.748163247679148e-10,2.8452438665319163e-9,3.1630233024666864e-9,4.112981398831179e-9,2.0713645574040365e-8,0
41105,7.751920118277338e-9,1.649131347627723e-8,1.5733891525254587e-9,8.770219914753312e-10,2.8513953471122125e-9,3.172754924355491e-9,4.112790884328462e-9,2.072959294127963e-8,0
41106,7.754698730789766e-9,1.6521766907676134e-8,1.5740613775068696e-9,8.792276581827477e-10,2.8575468276925086e-9,3.182486546244295e-9,4.112600369825744e-9,2.0745540308518895e-8,0
41107,7.757477343302193e-9,1.655222033907504e-8,1.5747336024882806e-9,8.814333248901641e-10,2.8636983082728048e-9,3.1922181681330996e-9,4.112409855323026e-9,2.076148767575816e-8,0
41108,7.760255955814622e-9,1.6582673770473946e-8,1.5754058274696916e-9,8.836389915975806e-10,2.8698497888531013e-9,3.201949790021904e-9,4.112219340820309e-9,2.0777435042997425e-8,0
41109,7.76303456832705e-9,1.6613127201872855e-8,1.5760780524511026e-9,8.85844658304997e-10,2.8760012694333975e-9,3.2116814119107083e-9,4.1120288263175915e-9,2.079338241023669e-8,0
41110,7.781487891671671e-9,1.664867148705289e-8,1.584629121048626e-9,8.856340040664084e-10,2.8747818389672334e-9,3.2116814119107083e-9,4.141365392791151e-9,2.0874509369978812e-8,0
41111,7.799941215016291e-9,1.6684215772232925e-8,1.5931801896461492e-9,8.854233498278199e-10,2.8735624085010697e-9,3.2116814119107083e-9,4.170701959264711e-9,2.0955636329720934e-8,0
41112,7.818394538360912e-9,1.671976005741296e-8,1.6017312582436725e-9,8.852126955892315e-10,2.8723429780349056e-9,3.2116814119107083e-9,4.200038525738271e-9,2.1036763289463056e-8,0
41113,7.836847861705533e-9,1.6755304342593e-8,1.610282326841196e-9,8.85002041350643e-10,2.871123547568742e-9,3.2116814119107083e-9,4.2293750922118305e-9,2.111789024920518e-8,0
41114,7.855301185050155e-9,1.6790848627773035e-8,1.6188333954387192e-9,8.847913871120544e-10,2.8699041171025777e-9,3.2116814119107083e-9,4.25871165868539e-9,2.11990172089473e-8,0
41115,7.873754508394774e-9,1.6826392912953072e-8,1.6273844640362425e-9,8.845807328734659e-10,2.868684686636414e-9,3.2116814119107083e-9,4.2880482251589495e-9,2.1280144168689423e-8,0
41116,7.889429219226968e-9,1.6863769905494315e-8,1.6362102107571693e-9,8.847247823127752e-10,2.8643623517553634e-9,3.1983747331148906e-9,4.315507503275454e-9,2.1357987852507785e-8,0
41117,7.879668063073642e-9,1.689931419067435e-8,1.6447612793546925e-9,8.848688317520844e-10,2.8615911808796414e-9,3.196962258849834e-9,4.3390944805660735e-9,2.1432087704819256e-8,0
41118,7.869906906920316e-9,1.6934858475854388e-8,1.6533123479522158e-9,8.850128811913936e-10,2.858820010003919e-9,3.1955497845847772e-9,4.362681457856693e-9,2.1506187557130727e-8,0
41119,7.86014575076699e-9,1.6970402761034425e-8,1.6618634165497393e-9,8.851569306307028e-10,2.8560488391281964e-9,3.1941373103197207e-9,4.386268435147313e-9,2.1580287409442198e-8,0
41120,7.850384594613664e-9,1.700594704621446e-8,1.6704144851472626e-9,8.853009800700121e-10,2.8532776682524743e-9,3.1927248360546642e-9,4.409855412437932e-9,2.165438726175367e-8,0
41121,7.840623438460338e-9,1.7041491331394498e-8,1.6789655537447859e-9,8.854450295093213e-10,2.850506497376752e-9,3.1913123617896073e-9,4.433442389728552e-9,2.1728487114065143e-8,0
41122,7.818394538360912e-9,1.7047384883986265e-8,1.685051797410469e-9,8.922060790708799e-10,2.8934553229187203e-9,3.2634560788071337e-9,4.434031010287411e-9,2.17164788417181e-8,0
41123,7.796165638261486e-9,1.7053278436578033e-8,1.6911380410761522e-9,8.989671286324384e-10,2.936404148460689e-9,3.3355997958246597e-9,4.43461963084627e-9,2.170447056937106e-8,0
41124,7.773936738162062e-9,1.70591719891698e-8,1.6972242847418353e-9,9.05728178193997e-10,2.979352974002657e-9,3.407743512842186e-9,4.435208251405129e-9,2.169246229702402e-8,0
41125,7.751707838062637e-9,1.7065065541761567e-8,1.7033105284075184e-9,9.124892277555555e-10,3.0223017995446254e-9,3.479887229859712e-9,4.435796871963988e-9,2.1680454024676977e-8,0
41126,7.72947893796321e-9,1.7070959094353334e-8,1.7093967720732016e-9,9.192502773171141e-10,3.065250625086594e-9,3.5520309468772386e-9,4.436385492522848e-9,2.1668445752329934e-8,0
41127,7.707250037863785e-9,1.70768526469451e-8,1.7154830157388847e-9,9.260113268786727e-10,3.108199450628562e-9,3.6241746638947646e-9,4.436974113081707e-9,2.1656437479982892e-8,0
41128,7.68502113776436e-9,1.7082746199536868e-8,1.7215692594045678e-9,9.327723764402313e-10,3.1511482761705306e-9,3.696318380912291e-9,4.437562733640566e-9,2.1644429207635853e-8,0
41129,7.662792237664935e-9,1.7088639752128635e-8,1.727655503070251e-9,9.395334260017898e-10,3.194097101712499e-9,3.768462097929817e-9,4.438151354199426e-9,2.163242093528881e-8,0
41130,7.64056333756551e-9,1.7094533304720402e-8,1.7337417467359341e-9,9.462944755633483e-10,3.237045927254467e-9,3.8406058149473434e-9,4.438739974758284e-9,2.1620412662941768e-8,0
41131,7.618334437466084e-9,1.710042685731217e-8,1.7398279904016172e-9,9.530555251249068e-10,3.2799947527964357e-9,3.91274953196487e-9,4.439328595317143e-9,2.160840439059473e-8,0
41132,7.596105537366658e-9,1.7106320409903937e-8,1.7459142340673005e-9,9.598165746864655e-10,3.322943578338404e-9,3.9848932489823955e-9,4.439917215876003e-9,2.1596396118247686e-8,0
41133,7.573876637267232e-9,1.7112213962495704e-8,1.7520004777329835e-9,9.66577624248024e-10,3.3658924038803727e-9,4.057036965999922e-9,4.440505836434862e-9,2.1584387845900644e-8,0
41134,7.551647737167808e-9,1.711810751508747e-8,1.7580867213986666e-9,9.733386738095825e-10,3.4088412294223408e-9,4.129180683017448e-9,4.441094456993721e-9,2.1572379573553605e-8,0
41135,7.55763331656633e-9,1.711810751508747e-8,1.7635007400829389e-9,9.781713157015924e-10,3.4478006064308836e-9,4.1986591068736324e-9,4.443868604524126e-9,2.1520294887211708e-8,0
41136,7.540534371102169e-9,1.7105526537820766e-8,1.76577043067517e-9,9.823719948778369e-10,3.4603803964769333e-9,4.222347901239875e-9,4.450089090154153e-9,2.148832375766503e-8,0
41137,7.54651995050069e-9,1.7111420090412537e-8,1.7699628681312246e-9,9.834252660707794e-10,3.4796670540868845e-9,4.2633096549265175e-9,4.44799343062426e-9,2.1310419594417717e-8,0
41138,7.552505529899212e-9,1.7117313643004304e-8,1.7741553055872793e-9,9.84478537263722e-10,3.4989537116968353e-9,4.30427140861316e-9,4.4458977710943665e-9,2.11325154311704e-8,0
41139,7.568537654369491e-9,1.711368955732551e-8,1.7729337243590615e-9,9.789148083344152e-10,3.4940216615827032e-9,4.30427140861316e-9,4.449080804300326e-9,2.095288791390774e-8,0
41140,7.588916133431435e-9,1.713307893533115e-8,1.771039918149433e-9,9.739938819616245e-10,3.474348942184111e-9,4.2783322891162184e-9,4.441336202648558e-9,2.078699202300747e-8,0
41141,7.609294612493379e-9,1.7152468313336784e-8,1.7691461119398044e-9,9.69072955588834e-10,3.454676222785519e-9,4.252393169619276e-9,4.43359160099679e-9,2.0621096132107196e-8,0
41142,7.629673091555323e-9,1.7171857691342422e-8,1.7672523057301758e-9,9.641520292160435e-10,3.4350035033869275e-9,4.226454050122334e-9,4.425846999345022e-9,2.0455200241206926e-8,0
41143,7.650051570617268e-9,1.7191247069348057e-8,1.7653584995205472e-9,9.59231102843253e-10,3.4153307839883355e-9,4.200514930625393e-9,4.418102397693254e-9,2.0289304350306653e-8,0
41144,7.670430049679212e-9,1.7210636447353692e-8,1.7634646933109187e-9,9.543101764704623e-10,3.395658064589744e-9,4.17457581112845e-9,4.410357796041486e-9,2.012340845940638e-8,0
41145,7.690808528741156e-9,1.723002582535933e-8,1.76157088710129e-9,9.493892500976718e-10,3.375985345191152e-9,4.1486366916315085e-9,4.4026131943897175e-9,1.995751256850611e-8,0
41146,7.7111870078031e-9,1.7249415203364965e-8,1.7596770808916615e-9,9.444683237248813e-10,3.35631262579256e-9,4.122697572134567e-9,4.39486859273795e-9,1.9791616677605837e-8,0
41147,7.731565486865045e-9,1.7268804581370603e-8,1.757783274682033e-9,9.395473973520906e-10,3.336639906393968e-9,4.096758452637624e-9,4.3871239910861814e-9,1.9625720786705567e-8,0
41148,7.751943965926989e-9,1.7288193959376238e-8,1.7558894684724043e-9,9.346264709793e-10,3.316967186995376e-9,4.070819333140683e-9,4.379379389434414e-9,1.9459824895805293e-8,0
41149,7.772322444988933e-9,1.7307583337381873e-8,1.7539956622627758e-9,9.297055446065096e-10,3.2972944675967845e-9,4.044880213643741e-9,4.371634787782645e-9,1.929392900490502e-8,0
41150,7.792700924050878e-9,1.732697271538751e-8,1.7521018560531472e-9,9.24784618233719e-10,3.2776217481981924e-9,4.0189410941467986e-9,4.363890186130878e-9,1.912803311400475e-8,0
41151,7.813079403112822e-9,1.7346362093393146e-8,1.7502080498435186e-9,9.198636918609285e-10,3.257949028799601e-9,3.993001974649857e-9,4.356145584479109e-9,1.8962137223104477e-8,0
41152,7.833457882174766e-9,1.7365751471398784e-8,1.74831424363389e-9,9.149427654881378e-10,3.2382763094010088e-9,3.967062855152915e-9,4.348400982827342e-9,1.8796241332204207e-8,0
41153,7.85383636123671e-9,1.738514084940442e-8,1.7464204374242615e-9,9.100218391153473e-10,3.2186035900024167e-9,3.941123735655973e-9,4.340656381175573e-9,1.8630345441303933e-8,0
41154,7.874214840298655e-9,1.7404530227410057e-8,1.7445266312146329e-9,9.051009127425567e-10,3.198930870603825e-9,3.915184616159031e-9,4.3329117795238055e-9,1.846444955040366e-8,0
41155,7.894593319360599e-9,1.7423919605415692e-8,1.7426328250050043e-9,9.001799863697662e-10,3.179258151205233e-9,3.8892454966620894e-9,4.325167177872037e-9,1.829855365950339e-8,0
41156,7.914971798422543e-9,1.7443308983421327e-8,1.7407390187953757e-9,8.952590599969756e-10,3.1595854318066414e-9,3.863306377165148e-9,4.3174225762202694e-09,1.8132657768603117e-8,0
41157,7.935350277484487e-9,1.7462698361426965e-8,1.7388452125857472e-9,8.903381336241851e-10,3.1399127124080494e-9,3.837367257668205e-9,4.309677974568501e-9,1.7966761877702847e-8,0
41158,7.955728756546432e-9,1.74820877394326e-8,1.7369514063761186e-9,8.854172072513945e-10,3.1202399930094573e-9,3.811428138171264e-9,4.301933372916733e-9,1.7800865986802574e-8,0
41159,8.15345106511936e-9,1.750147711743824e-8,1.7357298251479008e-9,8.797094288827785e-10,3.093418863200386e-9,3.7821574022226435e-9,4.382215547736351e-9,1.933720384295909e-8,0
41160,8.351173373692289e-9,1.7520866495443873e-8,1.7345082439196833e-9,8.740016505141625e-10,3.066597733391314e-9,3.752886666274024e-9,4.462497722555968e-9,2.0873541699115608e-8,0
41161,8.353951986204718e-9,1.7515766814935273e-8,1.7326144377100547e-9,8.684379215848557e-10,3.046925013992722e-9,3.719378507530234e-9,4.470304334979269e-9,2.0703857412918694e-8,0
41162,8.356730598717146e-9,1.7510667134426677e-8,1.7307206315004261e-9,8.62874192655549e-10,3.0272522945941304e-9,3.6858703487864445e-9,4.47811094740257e-9,2.0534173126721776e-8,0
41163,8.359509211229575e-9,1.7505567453918077e-8,1.7288268252907976e-9,8.573104637262422e-10,3.0075795751955384e-9,3.6523621900426544e-9,4.485917559825871e-9,2.036448884052486e-8,0
41164,8.362287823742002e-9,1.750046777340948e-8,1.726933019081169e-9,8.517467347969354e-10,2.9879068557969464e-9,3.6188540312988648e-9,4.493724172249171e-9,2.0194804554327944e-8,0
41165,8.352881913258611e-9,1.7501170160677932e-8,1.7183819504836457e-9,8.461830058676286e-10,2.9879068557969464e-9,3.6159413402800085e-9,4.503626444202365e-9,2.0198005068927873e-8,0
41166,8.354520596073429e-9,1.750207618209763e-8,1.7183819504836457e-9,8.41915721892105e-10,2.9807018115200683e-9,3.616356308310651e-9,4.4905303594237986e-9,2.018006268921978e-8,0
41167,8.349746971092172e-9,1.747850197173056e-8,1.7122957068179624e-9,8.394994009461001e-10,2.9826407665267284e-9,3.6161049530509584e-9,4.50454038042642e-9,2.0183301401353787e-8,0
41168,8.344973346110916e-9,1.7454927761363492e-8,1.7062094631522794e-9,8.370830800000952e-10,2.9845797215333886e-9,3.6158535977912652e-9,4.518550401429042e-9,2.0186540113487793e-8,0
41169,8.34019972112966e-9,1.7431353550996424e-8,1.7001232194865963e-9,8.346667590540901e-10,2.9865186765400487e-9,3.6156022425315725e-9,4.532560422431663e-9,2.01897788256218e-8,0
41170,8.335426096148406e-9,1.7407779340629355e-8,1.694036975820913e-9,8.322504381080852e-10,2.9884576315467085e-9,3.6153508872718793e-9,4.546570443434285e-9,2.0193017537755804e-8,0
41171,8.33065247116715e-9,1.7384205130262283e-8,1.68795073215523e-9,8.298341171620803e-10,2.9903965865533686e-9,3.6150995320121866e-9,4.560580464436906e-9,2.019625624988981e-8,0
41172,8.325878846185893e-9,1.7360630919895215e-8,1.6818644884895469e-9,8.274177962160754e-10,2.9923355415600287e-9,3.614848176752494e-9,4.574590485439528e-9,2.0199494962023817e-8,0
41173,8.31946653838982e-9,1.7372609821435652e-8,1.6755035667004603e-9,8.460048711512923e-10,3.30328238702442e-9,3.665377939556991e-9,4.576394983405639e-9,2.0220676053865914e-8,0
41174,8.313054230593745e-9,1.738458872297609e-8,1.6691426449113738e-9,8.645919460865092e-10,3.6142292324888114e-9,3.7159077023614885e-9,4.578199481371749e-9,2.0241857145708015e-8,0
41175,8.307283641370112e-9,1.7372007745709384e-8,1.6627817231222874e-9,8.62031575701195e-10,3.6106269985524875e-9,3.7156563471017953e-9,4.576658288299302e-9,2.0263108266362582e-8,0
41176,8.30151305214648e-9,1.7359426768442683e-8,1.656420801333201e-9,8.594712053158808e-10,3.6070247646161636e-9,3.7154049918421026e-9,4.575117095226855e-9,2.0284359387017152e-8,0
41177,8.295742462922848e-9,1.7346845791175978e-8,1.6500598795441144e-9,8.569108349305666e-10,3.6034225306798397e-9,3.71515363658241e-9,4.573575902154407e-9,2.030561050767172e-8,0
41178,8.289971873699214e-9,1.7334264813909274e-8,1.643698957755028e-9,8.543504645452524e-10,3.599820296743516e-9,3.7149022813227167e-9,4.572034709081961e-9,2.0326861628326287e-8,0
41179,8.284201284475583e-9,1.7321683836642572e-8,1.6373380359659415e-9,8.517900941599382e-10,3.596218062807192e-9,3.714650926063024e-9,4.570493516009513e-9,2.0348112748980857e-8,0
41180,8.27843069525195e-9,1.7309102859375867e-8,1.6309771141768552e-9,8.49229723774624e-10,3.592615828870868e-9,3.7143995708033308e-9,4.5689523229370665e-9,2.0369363869635424e-8,0
41181,8.272660106028317e-9,1.7296521882109166e-8,1.6246161923877686e-9,8.466693533893098e-10,3.589013594934544e-9,3.714148215543638e-9,4.56741112986462e-9,2.039061499028999e-8,0
41182,8.266889516804685e-9,1.728394090484246e-8,1.618255270598682e-9,8.441089830039956e-10,3.5854113609982207e-9,3.7138968602839453e-9,4.565869936792172e-9,2.041186611094456e-8,0
41183,8.261118927581052e-9,1.727135992757576e-8,1.6118943488095957e-9,8.415486126186815e-10,3.5818091270618968e-9,3.713645505024252e-9,4.564328743719726e-9,2.043311723159913e-8,0
41184,8.255348338357419e-9,1.7258778950309055e-8,1.6055334270205092e-9,8.389882422333673e-10,3.578206893125573e-9,3.7133941497645594e-9,4.562787550647278e-9,2.0454368352253696e-8,0
41185,8.252213938183018e-9,1.7266871149520896e-8,1.605258748897106e-9,8.389882422333673e-10,3.5798141145930686e-9,3.711067954351653e-9,4.561246357574831e-9,2.0475619472908264e-8,0
41186,8.07009594169874e-9,1.719714903572098e-8,1.5932164084791337e-9,8.306426488394071e-10,3.536811537205854e-9,3.6927737443837656e-9,4.561817901082984e-9,2.0501826293456508e-8,0
41187,8.066961541524339e-9,1.7193454129749284e-8,1.584087042980609e-9,8.21033130013916e-10,3.5154755388775986e-9,3.686126341089125e-9,4.562507168702909e-9,2.0501896322268975e-8,0
41188,8.05028986644977e-9,1.7205149750118103e-8,1.5838123648572057e-9,8.202462780180905e-10,3.5170827603450943e-9,3.6865413091197676e-9,4.560965975630461e-9,2.052987106062232e-8,0
41189,8.033618191375201e-9,1.7216845370486922e-8,1.5835376867338022e-9,8.194594260222651e-10,3.51868998181259e-9,3.6869562771504106e-9,4.5594247825580144e-9,2.0557845798975664e-8,0
41190,8.016946516300632e-9,1.7228540990855738e-8,1.583263008610399e-9,8.186725740264396e-10,3.520297203280086e-9,3.6873712451810532e-9,4.557883589485568e-9,2.0585820537329007e-8,0
41191,8.000274841226063e-9,1.7240236611224557e-8,1.5829883304869957e-9,8.178857220306141e-10,3.521904424747582e-9,3.687786213211696e-9,4.55634239641312e-9,2.061379527568235e-8,0
41192,7.983603166151495e-9,1.7251932231593375e-8,1.5827136523635922e-9,8.170988700347887e-10,3.523511646215078e-9,3.6882011812423385e-9,4.5548012033406735e-9,2.0641770014035697e-8,0
41193,7.966931491076926e-9,1.726362785196219e-8,1.582438974240189e-9,8.163120180389632e-10,3.5251188676825737e-9,3.688616149272981e-9,4.553260010268226e-9,2.066974475238904e-8,0
41194,7.950259816002357e-9,1.727532347233101e-8,1.5821642961167857e-9,8.155251660431378e-10,3.52672608915007e-9,3.6890311173036237e-9,4.551718817195779e-9,2.0697719490742383e-8,0
41195,7.932946422355345e-9,1.7275119838179765e-8,1.5818896179933822e-9,8.1509301772521e-10,3.52672608915007e-9,3.6990022222455845e-9,4.55352331516189e-9,2.070170314942436e-8,0
41196,7.915633028708335e-9,1.727491620402852e-8,1.581614939869979e-9,8.146608694072823e-10,3.52672608915007e-9,3.7089733271875454e-9,4.555327813128e-9,2.0705686808106337e-8,0
41197,7.897179705363714e-9,1.7281175695879154e-8,1.581614939869979e-9,8.234835362369481e-10,3.579871901267928e-9,3.735566897768286e-9,4.578433114352119e-9,2.0733591517647213e-8,0
41198,7.878726382019093e-9,1.7287435187729786e-8,1.581614939869979e-9,8.323062030666138e-10,3.6330177133857858e-9,3.762160468349027e-9,4.601538415576238e-9,2.0761496227188086e-8,0
41199,7.860273058674473e-9,1.729369467958042e-8,1.581614939869979e-9,8.411288698962796e-10,3.6861635255036437e-9,3.7887540389297685e-9,4.624643716800357e-9,2.0789400936728962e-8,0
41200,7.841819735329852e-9,1.7299954171431052e-8,1.581614939869979e-9,8.499515367259453e-10,3.739309337621502e-9,3.81534760951051e-9,4.647749018024476e-9,2.0817305646269838e-8,0
41201,7.823366411985231e-9,1.7306213663281687e-8,1.581614939869979e-9,8.587742035556111e-10,3.79245514973936e-9,3.841941180091251e-9,4.670854319248595e-9,2.084521035581071e-8,0
41202,7.80491308864061e-9,1.731247315513232e-8,1.581614939869979e-9,8.675968703852768e-10,3.8456009618572175e-9,3.868534750671992e-9,4.6939596204727144e-9,2.0873115065351588e-8,0
41203,7.78645976529599e-9,1.7318732646982954e-8,1.581614939869979e-9,8.764195372149426e-10,3.898746773975076e-9,3.895128321252733e-9,4.7170649216968335e-9,2.0901019774892464e-8,0
41204,7.768006441951369e-9,1.732499213883359e-8,1.581614939869979e-9,8.852422040446084e-10,3.951892586092933e-9,3.9217218918334735e-9,4.740170222920953e-9,2.0928924484433337e-8,0
41205,7.749553118606748e-9,1.733125163068422e-8,1.581614939869979e-9,8.940648708742742e-10,4.005038398210792e-9,3.948315462414215e-9,4.763275524145072e-9,2.0956829193974213e-8,0
41206,7.731099795262126e-9,1.7337511122534856e-8,1.581614939869979e-9,9.028875377039398e-10,4.058184210328649e-9,3.974909032994956e-9,4.786380825369191e-9,2.098473390351509e-8,0
41207,7.712646471917507e-9,1.7343770614385487e-8,1.581614939869979e-9,9.117102045336056e-10,4.111330022446508e-9,4.001502603575697e-9,4.8094861265933104e-9,2.1012638613055962e-8,0
41208,7.73060321011307e-9,1.736417816314735e-8,1.5815643367403794e-9,9.153346859526131e-10,4.1190887244943e-9,4.004243767019246e-9,4.807065151398221e-9,2.1066561246015427e-8,0
41209,7.740364366266396e-9,1.7412211940779373e-8,1.5812896586169759e-9,9.202556123254036e-10,4.1365445071923136e-9,4.009650223624137e-9,4.804952414817622e-9,2.112811587532858e-8,0
41210,7.734095565917594e-9,1.7412211940779373e-8,1.5871228866346608e-9,9.23037476790057e-10,4.1584335868872525e-9,4.012977882673636e-9,4.811155823396943e-9,2.118977236473259e-8,0
41211,7.727826765568793e-9,1.7412211940779373e-8,1.5929561146523455e-9,9.258193412547104e-10,4.180322666582192e-9,4.016305541723136e-9,4.817359231976264e-9,2.1251428854136603e-8,0
41212,7.721557965219991e-9,1.7412211940779373e-8,1.5987893426700302e-9,9.286012057193638e-10,4.202211746277131e-9,4.019633200772634e-9,4.8235626405555846e-9,2.1313085343540616e-8,0
41213,7.715289164871189e-9,1.7412211940779373e-8,1.6046225706877151e-9,9.313830701840173e-10,4.224100825972071e-9,4.0229608598221335e-9,4.8297660491349055e-9,2.1374741832944627e-8,0
41214,7.709020364522387e-9,1.7412211940779373e-8,1.6104557987053998e-9,9.341649346486705e-10,4.24598990566701e-9,4.026288518871633e-9,4.8359694577142265e-9,2.143639832234864e-8,0
41215,7.702751564173585e-9,1.7412211940779373e-8,1.6162890267230845e-9,9.36946799113324e-10,4.26787898536195e-9,4.029616177921132e-9,4.842172866293547e-9,2.1498054811752654e-8,0
41216,7.696482763824783e-9,1.7412211940779373e-8,1.6221222547407694e-9,9.397286635779772e-10,4.289768065056889e-9,4.0329438369706306e-9,4.848376274872868e-9,2.1559711301156665e-8,0
41217,7.69021396347598e-9,1.7412211940779373e-8,1.6279554827584542e-9,9.425105280426307e-10,4.3116571447518284e-9,4.03627149602013e-9,4.854579683452189e-9,2.162136779056068e-8,0
41218,7.683945163127179e-9,1.7412211940779373e-8,1.6337887107761389e-9,9.452923925072842e-10,4.333546224446767e-9,4.039599155069629e-9,4.86078309203151e-9,2.1683024279964692e-8,0
41219,7.677676362778377e-9,1.7412211940779373e-8,1.6396219387938238e-9,9.480742569719374e-10,4.355435304141707e-9,4.0429268141191285e-9,4.866986500610831e-9,2.1744680769368703e-8,0
41220,7.671407562429575e-9,1.7412211940779373e-8,1.6454551668115085e-9,9.508561214365909e-10,4.377324383836646e-9,4.046254473168627e-9,4.873189909190152e-9,2.1806337258772716e-8,0
41221,7.665138762080773e-9,1.7412211940779373e-8,1.6512883948291932e-9,9.536379859012443e-10,4.399213463531586e-9,4.049582132218126e-9,4.879393317769474e-9,2.186799374817673e-8,0
41222,7.65886996173197e-9,1.7412211940779373e-8,1.657121622846878e-9,9.564198503658976e-10,4.421102543226525e-9,4.052909791267626e-9,4.885596726348795e-9,2.192965023758074e-8,0
41223,7.67425982563777e-9,1.745355829373646e-8,1.6590154290565067e-9,9.557770478093814e-10,4.425812669108908e-9,4.0546574058789394e-9,4.895807236916478e-9,2.2215586473335923e-8,0
41224,7.689649689543569e-9,1.7494904646693546e-8,1.6609092352661352e-9,9.551342452528652e-10,4.43052279499129e-9,4.056405020490253e-9,4.906017747484161e-9,2.2501522709091102e-8,0
41225,7.683380889194767e-9,1.7495790003591432e-8,1.6606345571427318e-9,9.562758009265883e-10,4.435232920873672e-9,4.061811477095144e-9,4.927945807590562e-9,2.2609329777475958e-8,0
41226,7.677112088845965e-9,1.7496675360489318e-8,1.6603598790193285e-9,9.574173566003117e-10,4.4399430467560545e-9,4.0672179337000356e-9,4.9498738676969626e-9,2.2717136845860814e-8,0
41227,7.670843288497163e-9,1.7497560717387204e-8,1.6600852008959252e-9,9.585589122740348e-10,4.4446531726384375e-9,4.0726243903049276e-9,4.971801927803364e-9,2.282494391424567e-8,0
41228,7.664574488148361e-9,1.749844607428509e-8,1.6598105227725218e-9,9.59700467947758e-10,4.44936329852082e-9,4.078030846909819e-9,4.993729987909764e-9,2.2932750982630525e-8,0
41229,7.658305687799559e-9,1.7499331431182975e-8,1.6595358446491185e-9,9.608420236214812e-10,4.454073424403202e-9,4.08343730351471e-9,5.015658048016165e-9,2.304055805101538e-8,0
41230,7.652036887450757e-9,1.750021678808086e-8,1.6592611665257152e-9,9.619835792952045e-10,4.458783550285584e-9,4.088843760119601e-9,5.037586108122566e-9,2.314836511940024e-8,0
41231,7.645768087101955e-9,1.7501102144978743e-8,1.6589864884023118e-9,9.631251349689277e-10,4.463493676167966e-9,4.094250216724492e-9,5.059514168228966e-9,2.3256172187785095e-8,0
41232,7.639499286753153e-9,1.750198750187663e-8,1.6587118102789085e-9,9.642666906426508e-10,4.4682038020503494e-9,4.0996566733293835e-9,5.081442228335368e-9,2.336397925616995e-8,0
41233,7.63323048640435e-9,1.7502872858774515e-8,1.6584371321555052e-9,9.65408246316374e-10,4.472913927932732e-9,4.1050631299342755e-9,5.103370288441768e-9,2.3471786324554807e-8,0
41234,7.62696168605555e-9,1.75037582156724e-8,1.658162454032102e-9,9.665498019900972e-10,4.477624053815114e-9,4.110469586539167e-9,5.125298348548169e-9,2.3579593392939662e-8,0
41235,7.620692885706748e-9,1.7504643572570286e-8,1.6578877759086985e-9,9.676913576638205e-10,4.482334179697496e-9,4.115876043144058e-9,5.14722640865457e-9,2.3687400461324518e-8,0
41236,7.632449596320938e-9,1.750482654219972e-8,1.6576637009148948e-9,9.67059394948055e-10,4.481834850176059e-9,4.1185413363054e-9,5.162244715511018e-9,2.3796451229374552e-8,0
41237,7.630313244372989e-9,1.7502108477940628e-8,1.6567167978100805e-9,9.688437531782944e-10,4.48615718505711e-9,4.120620133860792e-9,5.1841727756174196e-9,2.3876353588218534e-8,0
41238,7.61727418059799e-9,1.7358458753457548e-8,1.652827979131624e-9,9.688437531782944e-10,4.489537494761683e-9,4.12427897585437e-9,5.2076420287962675e-9,2.3985391623757208e-8,0
41239,7.604235116822993e-9,1.7214809028974467e-8,1.6489391604531677e-9,9.688437531782944e-10,4.492917804466257e-9,4.127937817847948e-9,5.231111281975115e-9,2.4094429659295885e-8,0
41240,7.591196053047994e-9,1.707115930449139e-8,1.6450503417747111e-9,9.688437531782944e-10,4.496298114170831e-9,4.131596659841525e-9,5.2545805351539626e-9,2.4203467694834562e-8,0
41241,7.578156989272995e-9,1.692750958000831e-8,1.6411615230962546e-9,9.688437531782944e-10,4.499678423875405e-9,4.1352555018351025e-9,5.2780497883328105e-9,2.431250573037324e-8,0
41242,7.565117925497996e-9,1.678385985552523e-8,1.637272704417798e-9,9.688437531782944e-10,4.503058733579979e-9,4.13891434382868e-9,5.3015190415116585e-9,2.4421543765911912e-8,0
41243,7.552078861722997e-9,1.664021013104215e-8,1.6333838857393415e-9,9.688437531782944e-10,4.5064390432845525e-9,4.142573185822257e-9,5.3249882946905064e-9,2.453058180145059e-8,0
41244,7.539039797947998e-9,1.649656040655907e-8,1.629495067060885e-9,9.688437531782944e-10,4.509819352989127e-9,4.146232027815835e-9,5.348457547869354e-9,2.4639619836989266e-8,0
41245,7.526000734173001e-9,1.6352910682075993e-8,1.6256062483824284e-9,9.688437531782944e-10,4.513199662693701e-9,4.149890869809412e-9,5.3719268010482015e-9,2.4748657872527943e-8,0
41246,7.512961670398002e-9,1.6209260957592912e-8,1.621717429703972e-9,9.688437531782944e-10,4.516579972398274e-9,4.15354971180299e-9,5.3953960542270495e-9,2.4857695908066616e-8,0
41247,7.490516696139613e-9,1.606472587621195e-8,1.6181032891489188e-9,9.704840619692245e-10,4.547502089260877e-9,4.1664374651659855e-9,5.395631502450594e-9,2.491275401434472e-8,0
41248,7.465293109368795e-9,1.5922094322485096e-8,1.614438545464266e-9,9.693425062955013e-10,4.547502089260877e-9,4.166018539733164e-9,5.396819523187725e-9,2.491199633528539e-8,0
41249,7.440069522597978e-9,1.5779462768758242e-8,1.610773801779613e-9,9.682009506217781e-10,4.547502089260877e-9,4.165599614300343e-9,5.398007543924856e-9,2.491123865622606e-8,0
41250,7.41484593582716e-9,1.563683121503139e-8,1.6071090580949602e-9,9.67059394948055e-10,4.547502089260877e-9,4.165180688867521e-9,5.399195564661988e-9,2.4910480977166732e-8,0
41251,7.389622349056342e-9,1.5494199661304536e-8,1.6034443144103074e-9,9.659178392743316e-10,4.547502089260877e-9,4.1647617634347e-9,5.400383585399119e-9,2.4909723298107403e-8,0
41252,7.364398762285525e-9,1.535156810757768e-8,1.5997795707256545e-9,9.647762836006085e-10,4.547502089260877e-9,4.164342838001879e-9,5.401571606136251e-9,2.4908965619048074e-8,0
41253,7.339175175514708e-9,1.5208936553850826e-8,1.5961148270410016e-9,9.636347279268853e-10,4.547502089260877e-9,4.163923912569056e-9,5.4027596268733825e-9,2.4908207939988745e-8,0
41254,7.31395158874389e-9,1.5066305000123973e-8,1.5924500833563488e-9,9.624931722531621e-10,4.547502089260877e-9,4.163504987136235e-9,5.403947647610514e-9,2.4907450260929416e-8,0
41255,7.288728001973072e-9,1.492367344639712e-8,1.588785339671696e-9,9.61351616579439e-10,4.547502089260877e-9,4.163086061703414e-9,5.405135668347646e-9,2.4906692581870088e-8,0
41256,7.263504415202255e-9,1.4781041892670267e-8,1.585120595987043e-9,9.602100609057156e-10,4.547502089260877e-9,4.162667136270592e-9,5.406323689084777e-9,2.490593490281076e-8,0
41257,7.238280828431438e-9,1.4638410338943414e-8,1.5814558523023902e-9,9.590685052319925e-10,4.547502089260877e-9,4.162248210837771e-9,5.407511709821909e-9,2.490517722375143e-8,0
41258,7.2130572416606205e-9,1.449577878521656e-8,1.5777911086177373e-9,9.579269495582693e-10,4.547502089260877e-9,4.1618292854049495e-9,5.4086997305590405e-9,2.4904419544692098e-8,0
41259,7.21191731196301e-9,1.449577878521656e-8,1.578015183611541e-9,9.575056410810923e-10,4.547224683971189e-9,4.162743006552799e-9,5.410767533418814e-9,2.490441317843642e-8,0
41260,7.2070012635185565e-9,1.4426593742510599e-8,1.56910989310682e-9,9.53881159662085e-10,4.515026502776025e-9,4.126174373627918e-9,5.410414361083499e-9,2.490366823188845e-8,0
41261,7.207642440098961e-9,1.4412374865306466e-8,1.5632260619595355e-9,9.527396039883616e-10,4.509207908543353e-9,4.11951905552892e-9,5.410061188748183e-9,2.4899937132892916e-8,0
41262,7.208283616679364e-9,1.4398155988102333e-8,1.5573422308122512e-9,9.515980483146384e-10,4.503389314310682e-9,4.112863737429922e-9,5.409708016412868e-9,2.489620603389738e-8,0
41263,7.208924793259768e-9,1.43839371108982e-8,1.5514583996649667e-9,9.504564926409153e-10,4.497570720078011e-9,4.106208419330924e-9,5.409354844077552e-9,2.4892474934901847e-8,0
41264,7.209565969840171e-9,1.4369718233694066e-8,1.5455745685176822e-9,9.493149369671921e-10,4.4917521258453395e-9,4.099553101231925e-9,5.409001671742237e-9,2.4888743835906312e-8,0
41265,7.210207146420575e-9,1.4355499356489933e-8,1.5396907373703977e-9,9.481733812934687e-10,4.485933531612668e-9,4.092897783132927e-9,5.408648499406921e-9,2.488501273691078e-8,0
41266,7.210848323000978e-9,1.43412804792858e-8,1.5338069062231134e-9,9.470318256197456e-10,4.480114937379997e-9,4.086242465033929e-9,5.408295327071606e-9,2.4881281637915246e-8,0
41267,7.211489499581382e-9,1.432495444027631e-8,1.5287471094460389e-9,9.470318256197456e-10,4.480114937379997e-9,4.078342242843003e-9,5.406064866379234e-9,2.487755690517539e-8,0
41268,7.212130676161786e-9,1.430862840126682e-8,1.5236873126689644e-9,9.470318256197456e-10,4.480114937379997e-9,4.0704420206520766e-9,5.403834405686863e-9,2.4873832172435537e-8,0
41269,7.215550465254617e-9,1.429230236225733e-8,1.542264046740227e-9,9.470318256197456e-10,4.480114937379997e-9,4.0642056279859e-9,5.401603944994491e-9,2.487010743969568e-8,0
41270,7.206144554771227e-9,1.4289920746007824e-8,1.5669486869525777e-9,9.489602332892942e-10,4.482553221908095e-9,4.0642056279859e-9,5.395854355811551e-9,2.482817398031622e-8,0
41271,7.1967386442878365e-9,1.4287539129758318e-8,1.5916333271649286e-9,9.50888640958843e-10,4.484991506436191e-9,4.0642056279859e-9,5.39010476662861e-9,2.4786240520936762e-8,0
41272,7.187332733804446e-9,1.4285157513508811e-8,1.6163179673772792e-9,9.528170486283916e-10,4.487429790964289e-9,4.0642056279859e-9,5.38435517744567e-9,2.47443070615573e-8,0
41273,7.177926823321055e-9,1.4282775897259305e-8,1.64100260758963e-9,9.547454562979402e-10,4.4898680754923864e-9,4.0642056279859e-9,5.37860558826273e-9,2.470237360217784e-8,0
41274,7.168520912837664e-9,1.4280394281009799e-8,1.6656872478019807e-9,9.566738639674889e-10,4.492306360020484e-9,4.0642056279859e-9,5.37285599907979e-9,2.4660440142798378e-8,0
41275,7.1591150023542735e-9,1.4278012664760292e-8,1.6903718880143316e-9,9.586022716370375e-10,4.4947446445485815e-9,4.0642056279859e-9,5.36710640989685e-9,2.461850668341892e-8,0
41276,7.149709091870883e-9,1.4275631048510786e-8,1.7150565282266823e-9,9.605306793065862e-10,4.497182929076679e-9,4.0642056279859e-9,5.36135682071391e-9,2.457657322403946e-8,0
41277,7.140303181387492e-9,1.427324943226128e-8,1.7397411684390331e-9,9.624590869761349e-10,4.499621213604777e-9,4.0642056279859e-9,5.35560723153097e-9,2.4534639764659997e-8,0
41278,7.130897270904101e-9,1.4270867816011775e-8,1.7644258086513838e-9,9.643874946456835e-10,4.502059498132873e-9,4.0642056279859e-9,5.349857642348029e-9,2.4492706305280536e-8,0
41279,7.121491360420711e-9,1.4268486199762269e-8,1.7891104488637346e-9,9.663159023152322e-10,4.504497782660971e-9,4.0642056279859e-9,5.3441080531650894e-9,2.4450772845901078e-8,0
41280,7.112085449937321e-9,1.4266104583512762e-8,1.8137950890760853e-9,9.682443099847808e-10,4.5069360671890685e-9,4.0642056279859e-9,5.3383584639821495e-9,2.4408839386521617e-8,0
41281,7.10267953945393e-9,1.4263722967263256e-8,1.8384797292884362e-9,9.701727176543295e-10,4.509374351717166e-9,4.0642056279859e-9,5.332608874799209e-9,2.4366905927142156e-8,0
41282,7.090495016458111e-9,1.4285821582800515e-8,1.8387544074118394e-9,9.701727176543295e-10,4.507823187711838e-9,4.067110404200399e-9,5.326668771113552e-9,2.4324719908076254e-08,0
41283,7.078310493462292e-9,1.4307920198337775e-8,1.8390290855352429e-9,9.701727176543295e-10,4.50627202370651e-9,4.070015180414898e-9,5.320728667427894e-9,2.4282533889010348e-8,0
41284,7.066125970466473e-9,1.4305833701054231e-8,1.8400771948992564e-9,9.71380878127332e-10,4.504720859701182e-9,4.0729199566293964e-9,5.315903794088422e-9,2.4270487419129235e-8,0
41285,7.053941447470654e-9,1.4303747203770685e-8,1.84112530426327e-9,9.725890386003344e-10,4.5031696956958535e-9,4.075824732843895e-9,5.31107892074895e-9,2.4258440949248118e-8,0
41286,7.0417569244748356e-9,1.4301660706487141e-8,1.8421734136272837e-9,9.737971990733369e-10,4.5016185316905254e-9,4.078729509058394e-9,5.306254047409478e-9,2.4246394479367005e-8,0
41287,7.029572401479016e-9,1.4299574209203598e-8,1.8432215229912974e-9,9.750053595463393e-10,4.500067367685197e-9,4.081634285272893e-9,5.301429174070006e-9,2.4234348009485888e-8,0
41288,7.017387878483198e-9,1.4297487711920052e-8,1.844269632355311e-9,9.76213520019342e-10,4.49851620367987e-9,4.0845390614873915e-9,5.296604300730534e-9,2.4222301539604774e-8,0
41289,7.005203355487379e-9,1.4295401214636508e-8,1.8453177417193247e-9,9.774216804923445e-10,4.496965039674542e-9,4.08744383770189e-9,5.291779427391062e-9,2.4210255069723658e-8,0
41290,6.9930188324915605e-9,1.4293314717352964e-8,1.8463658510833382e-9,9.78629840965347e-10,4.495413875669214e-9,4.090348613916389e-9,5.28695455405159e-9,2.419820859984254e-8,0
41291,6.980834309495741e-9,1.4291228220069419e-8,1.8474139604473519e-9,9.798380014383494e-10,4.493862711663886e-9,4.093253390130888e-9,5.282129680712119e-9,2.4186162129961427e-8,0
41292,6.968649786499922e-9,1.4289141722785875e-8,1.8484620698113656e-9,9.810461619113519e-10,4.4923115476585576e-9,4.0961581663453866e-9,5.277304807372647e-9,2.417411566008031e-8,0
41293,6.956465263504104e-9,1.428705522550233e-8,1.8495101791753792e-9,9.822543223843543e-10,4.4907603836532295e-9,4.099062942559885e-9,5.272479934033175e-9,2.4162069190199197e-8,0
41294,6.944280740508285e-9,1.4284968728218785e-8,1.850558288539393e-9,9.834624828573568e-10,4.489209219647901e-9,4.101967718774384e-9,5.267655060693703e-9,2.415002272031808e-8,0
41295,6.932096217512466e-9,1.4282882230935241e-8,1.8516063979034066e-9,9.846706433303593e-10,4.487658055642573e-9,4.104872494988883e-9,5.262830187354231e-9,2.4137976250436964e-8,0
41296,6.919911694516647e-9,1.4280795733651696e-8,1.85265450726742e-9,9.858788038033617e-10,4.486106891637245e-9,4.107777271203382e-9,5.258005314014759e-9,2.412592978055585e-8,0
41297,6.907727171520828e-9,1.4278709236368152e-8,1.8537026166314337e-9,9.870869642763642e-10,4.484555727631917e-9,4.11068204741788e-9,5.253180440675288e-9,2.4113883310674734e-8,0
41298,6.8955426485250096e-09,1.4276622739084608e-8,1.8547507259954474e-9,9.882951247493666e-10,4.483004563626589e-9,4.113586823632379e-9,5.248355567335816e-9,2.410183684079362e-8,0
41299,6.88335812552919e-9,1.4274536241801063e-8,1.855798835359461e-9,9.89503285222369e-10,4.481453399621262e-9,4.116491599846878e-9,5.243530693996344e-9,2.4089790370912503e-8,0
41300,6.871173602533372e-9,1.4272449744517519e-8,1.8568469447234748e-9,9.907114456953716e-10,4.4799022356159335e-9,4.119396376061377e-9,5.2387058206568716e-9,2.407774390103139e-8,0
41301,6.858989079537553e-9,1.4270363247233973e-8,1.8578950540874882e-9,9.91919606168374e-10,4.478351071610605e-9,4.1223011522758755e-9,5.2338809473173995e-9,2.4065697431150273e-8,0
41302,6.8468045565417345e-9,1.426827674995043e-8,1.858943163451502e-9,9.931277666413765e-10,4.476799907605277e-9,4.125205928490374e-9,5.2290560739779275e-9,2.4053650961269157e-8,0
41303,6.834620033545915e-9,1.4285682953281581e-8,1.863034394648357e-9,9.94335927114379e-10,4.477299237126714e-9,4.123873281909703e-9,5.223424208906759e-9,2.4013718880614206e-8,0
41304,6.822435510550096e-9,1.4292553347585951e-8,1.863258469642161e-9,9.94335927114379e-10,4.475359705715824e-9,4.133185978365686e-9,5.218599335567287e-9,2.398751842632164e-8,0
41305,6.809823717164688e-9,1.429942374189032e-8,1.867349700839016e-9,9.968962974996932e-10,4.475859035237262e-9,4.136090754580185e-9,5.262361106150317e-9,2.3945332407255738e-8,0
41306,6.797211923779279e-9,1.430629413619469e-8,1.871440932035871e-9,9.994566678850074e-10,4.476358364758699e-9,4.138995530794684e-9,5.306122876733347e-9,2.3903146388189832e-8,0
41307,6.784600130393871e-9,1.4313164530499057e-8,1.8755321632327266e-9,1.0020170382703216e-9,4.4768576942801365e-9,4.141900307009182e-9,5.349884647316376e-9,2.386096036912393e-8,0
41308,6.7719883370084616e-9,1.4320034924803427e-8,1.8796233944295817e-9,1.0045774086556358e-9,4.4773570238015735e-9,4.144805083223681e-9,5.393646417899405e-9,2.3818774350058028e-8,0
41309,6.7593765436230525e-9,1.4326905319107795e-8,1.883714625626437e-9,1.00713777904095e-9,4.477856353323011e-9,4.14770985943818e-9,5.437408188482434e-9,2.3776588330992123e-8,0
41310,6.757167624963411e-9,1.431076224972774e-8,1.8875817818294885e-9,1.0096981494262642e-9,4.482511574551686e-9,4.1510335610855e-9,5.486801824136633e-9,2.3776335771305682e-8,0
41311,6.746053174913698e-9,1.4033290200386162e-8,1.8755105007573215e-9,1.0114716678157529e-9,4.465831950260566e-9,4.144625640844015e-9,5.521014495101784e-9,2.37201782987023e-8,0
41312,6.746409504567709e-9,1.4040435049134679e-8,1.879377656960373e-9,1.0136773345231692e-9,4.46943418419689e-9,4.147949342491336e-9,5.570525854867753e-9,2.3588331311141366e-8,0
41313,6.746765834221719e-9,1.4047579897883198e-8,1.8832448131634248e-9,1.0158830012305858e-9,4.473036418133214e-9,4.1512730441386565e-9,5.620037214633723e-9,2.3456484323580427e-8,0
41314,6.74712216387573e-9,1.4054724746631717e-8,1.887111969366476e-9,1.0180886679380021e-9,4.476638652069538e-9,4.154596745785977e-9,5.669548574399692e-9,2.3324637336019488e-8,0
41315,6.74747849352974e-9,1.4061869595380236e-8,1.8909791255695277e-9,1.0202943346454187e-9,4.480240886005862e-9,4.157920447433297e-9,5.719059934165662e-9,2.319279034845855e-8,0
41316,6.7478348231837506e-9,1.4069014444128755e-8,1.8948462817725793e-9,1.022500001352835e-9,4.483843119942186e-9,4.161244149080617e-9,5.768571293931631e-9,2.306094336089761e-8,0
41317,6.7481911528377605e-9,1.4076159292877274e-8,1.898713437975631e-9,1.0247056680602516e-9,4.48744535387851e-9,4.164567850727937e-9,5.818082653697601e-9,2.292909637333667e-8,0
41318,6.7485474824917705e-9,1.4083304141625793e-08,1.902580594178682e-9,1.0269113347676679e-9,4.491047587814834e-9,4.167891552375258e-9,5.86759401346357e-9,2.2797249385775732e-8,0
41319,6.748903812145781e-9,1.4090448990374313e-8,1.906447750381734e-9,1.0291170014750844e-9,4.4946498217511575e-9,4.171215254022578e-9,5.91710537322954e-9,2.2665402398214793e-8,0
41320,6.749260141799791e-9,1.409759383912283e-8,1.9103149065847854e-9,1.0313226681825008e-9,4.498252055687481e-9,4.174538955669898e-9,5.966616732995509e-9,2.2533555410653854e-8,0
41321,6.749616471453802e-9,1.4104738687871349e-8,1.914182062787837e-9,1.0335283348899171e-9,4.501854289623805e-9,4.1778626573172185e-9,6.016128092761479e-9,2.2401708423092918e-8,0
41322,6.749972801107812e-9,1.4111883536619868e-8,1.9180492189908887e-9,1.0357340015973337e-9,4.505456523560129e-9,4.181186358964539e-9,6.065639452527448e-9,2.226986143553198e-8,0
41323,6.750329130761823e-9,1.4119028385368387e-8,1.92191637519394e-9,1.03793966830475e-9,4.509058757496453e-9,4.184510060611859e-9,6.115150812293418e-9,2.213801444797104e-8,0
41324,6.750685460415833e-9,1.4126173234116906e-8,1.9257835313969916e-9,1.0401453350121666e-9,4.512660991432777e-9,4.187833762259179e-9,6.164662172059387e-9,2.20061674604101e-8,0
41325,6.751041790069844e-9,1.4133318082865425e-8,1.9296506876000432e-9,1.042351001719583e-9,4.516263225369101e-9,4.1911574639065e-9,6.214173531825357e-9,2.1874320472849162e-8,0
41326,6.7513981197238536e-9,1.4140462931613945e-8,1.933517843803095e-9,1.0445566684269994e-9,4.519865459305425e-9,4.19448116555382e-9,6.2636848915913264e-9,2.1742473485288223e-8,0
41327,6.751754449377864e-9,1.4147607780362464e-8,1.9373850000061465e-9,1.0467623351344158e-9,4.523467693241748e-9,4.19780486720114e-9,6.313196251357296e-9,2.1610626497727284e-8,0
41328,6.752110779031874e-9,1.4154752629110981e-8,1.9412521562091977e-9,1.0489680018418323e-9,4.527069927178072e-9,4.20112856884846e-9,6.3627076111232655e-9,2.1478779510166345e-8,0
41329,6.752467108685884e-9,1.41618974778595e-8,1.9451193124122494e-9,1.0511736685492487e-9,4.530672161114396e-9,4.2044522704957805e-9,6.4122189708892355e-9,2.134693252260541e-8,0
41330,6.744487600802611e-9,1.4170945854262131e-8,1.9428496218200183e-9,1.0224008770313037e-9,4.35937676487219e-9,4.15051106355522e-9,6.404928188633848e-9,2.134295523017911e-8,0
41331,6.736508092919336e-9,1.4179994230664762e-8,1.940579931227787e-9,9.936280855133587e-10,4.1880813686299846e-9,4.096569856614659e-9,6.397637406378461e-9,2.1338977937752812e-8,0
41332,6.6933293939290674e-9,1.4116398794857137e-8,1.938563256283554e-9,9.954016039028474e-10,4.190520229562312e-9,4.097894588390973e-9,6.444918305452059e-9,2.132998128287605e-8,0
41333,6.674448800194857e-9,1.411131977887035e-8,1.93833918128975e-9,9.928412335175332e-10,4.177496591052763e-9,4.087843655764626e-9,6.4454898489602114e-9,2.133672399934186e-8,0
41334,6.655568206460646e-9,1.4106240762883564e-8,1.9381151062959467e-9,9.90280863132219e-10,4.1644729525432134e-9,4.07779272313828e-9,6.446061392468364e-9,2.1343466715807676e-8,0
41335,6.637114883116026e-9,1.4097192386480933e-8,1.9378910313021432e-9,9.87864542186214e-10,4.150119497855855e-9,4.064497916548999e-9,6.446632935976517e-9,2.134220391737546e-8,0
41336,6.618661559771404e-9,1.4088144010078304e-8,1.9376669563083393e-9,9.854482212402091e-10,4.135766043168498e-9,4.051203109959718e-9,6.44720447948467e-9,2.1340941118943245e-8,0
41337,6.600208236426784e-9,1.4079095633675673e-8,1.937442881314536e-9,9.830319002942042e-10,4.1214125884811395e-9,4.037908303370437e-9,6.4477760229928225e-9,2.133967832051103e-8,0
41338,6.581754913082163e-9,1.4070047257273042e-8,1.937218806320732e-9,9.806155793481993e-10,4.107059133793782e-9,4.024613496781155e-9,6.448347566500975e-9,2.1338415522078814e-8,0
41339,6.563301589737542e-9,1.4060998880870413e-8,1.9369947313269285e-9,9.781992584021942e-10,4.092705679106424e-9,4.011318690191875e-9,6.448919110009128e-9,2.13371527236466e-8,0
41340,6.544848266392921e-9,1.4051950504467783e-8,1.9367706563331246e-9,9.757829374561892e-10,4.078352224419066e-9,3.998023883602593e-9,6.449490653517281e-9,2.1335889925214387e-8,0
41341,6.526394943048301e-9,1.4042902128065152e-8,1.936546581339321e-9,9.733666165101843e-10,4.063998769731708e-9,3.984729077013313e-9,6.4500621970254335e-9,2.133462712678217e-8,0
41342,6.5079416197036794e-9,1.4033853751662521e-8,1.9363225063455173e-9,9.709502955641794e-10,4.04964531504435e-9,3.971434270424031e-9,6.450633740533586e-9,2.1333364328349956e-8,0
41343,6.489488296359059e-9,1.4024805375259892e-8,1.936098431351714e-9,9.685339746181745e-10,4.035291860356992e-9,3.95813946383475e-9,6.451205284041739e-9,2.133210152991774e-8,0
41344,6.471034973014438e-9,1.4015756998857261e-8,1.9358743563579104e-9,9.661176536721695e-10,4.020938405669634e-9,3.944844657245469e-9,6.451776827549892e-9,2.1330838731485526e-8,0
41345,6.452581649669817e-9,1.400670862245463e-8,1.9356502813641065e-9,9.637013327261646e-10,4.006584950982276e-9,3.931549850656188e-9,6.4523483710580446e-9,2.1329575933053312e-8,0
41346,6.3744924004432095e-9,1.3997660246052002e-8,1.9268245346431797e-9,9.554997887715137e-10,3.993063712163981e-9,3.903280578344161e-9,6.411848721503213e-9,2.13183253397656e-8,0
41347,6.2964031512166024e-9,1.3988611869649371e-8,1.917998787922253e-9,9.472982448168628e-10,3.979542473345685e-9,3.875011306032134e-9,6.371349071948382e-9,2.1307074746477885e-8,0
41348,6.217530301946395e-9,1.3979359859095495e-8,1.9101199443061407e-9,9.393073551008003e-10,3.969180196404444e-9,3.8479869378120346e-9,6.330277878885399e-9,2.1294833013211437e-8,0
41349,6.1405809824173974e-9,1.3976113550469916e-8,1.901294197585214e-9,9.313164653847378e-10,3.955658957586148e-9,3.819717665500008e-9,6.289088961710643e-9,2.128259127994499e-8,0
41350,6.0636316628884e-9,1.3972867241844337e-8,1.8924684508642876e-9,9.233255756686755e-10,3.942137718767853e-9,3.79144839318798e-9,6.2479000445358876e-9,2.1270349546678545e-8,0
41351,5.986682343359404e-9,1.3969620933218756e-8,1.883642704143361e-9,9.153346859526131e-10,3.928616479949557e-9,3.763179120875954e-9,6.206711127361132e-9,2.1258107813412097e-8,0
41352,5.9097330238304065e-9,1.3966374624593178e-8,1.874816957422434e-9,9.073437962365507e-10,3.915095241131261e-9,3.734909848563927e-9,6.165522210186376e-9,2.124586608014565e-8,0
41353,5.83278370430141e-9,1.3963128315967597e-8,1.8659912107015074e-9,8.993529065204883e-10,3.9015740023129656e-9,3.7066405762518995e-9,6.124333293011621e-9,2.1233624346879202e-8,0
41354,5.755834384772413e-9,1.3959882007342018e-8,1.8571654639805808e-9,8.913620168044258e-10,3.88805276349467e-9,3.6783713039398724e-9,6.083144375836865e-9,2.1221382613612754e-8,0
41355,5.678885065243416e-9,1.3956635698716438e-8,1.848339717259654e-9,8.833711270883634e-10,3.874531524676375e-9,3.6501020316278457e-9,6.04195545866211e-9,2.1209140880346306e-8,0
41356,5.601935745714419e-9,1.3953389390090859e-8,1.8395139705387275e-9,8.75380237372301e-10,3.861010285858079e-9,3.6218327593158186e-9,6.000766541487355e-9,2.119689914707986e-8,0
41357,5.524986426185423e-9,1.395014308146528e-8,1.8306882238178008e-9,8.673893476562386e-10,3.847489047039783e-9,3.5935634870037915e-9,5.959577624312599e-9,2.118465741381341e-8,0
41358,5.4480371066564254e-9,1.39468967728397e-8,1.8218624770968742e-9,8.593984579401762e-10,3.833967808221487e-9,3.5652942146917644e-9,5.9183887071378435e-9,2.1172415680546963e-8,0
41359,5.371087787127428e-9,1.394365046421412e-8,1.8130367303759475e-9,8.514075682241137e-10,3.820446569403192e-9,3.5370249423797373e-9,5.8771997899630875e-9,2.1160173947280515e-8,0
41360,5.294138467598432e-9,1.394040415558854e-8,1.804210983655021e-9,8.434166785080513e-10,3.806925330584896e-9,3.5087556700677102e-9,5.836010872788332e-9,2.1147932214014068e-8,0
41361,5.2171891480694345e-9,1.3937157846962961e-8,1.7953852369340942e-9,8.354257887919889e-10,3.793404091766601e-9,3.480486397755683e-9,5.794821955613577e-9,2.113569048074762e-8,0
41362,5.140239828540438e-9,1.393391153833738e-8,1.7865594902131676e-9,8.274348990759265e-10,3.7798828529483054e-9,3.452217125443656e-9,5.753633038438821e-9,2.1123448747481172e-8,0
41363,5.063290509011441e-9,1.3930665229711801e-8,1.7777337434922409e-9,8.194440093598641e-10,3.766361614130009e-9,3.423947853131629e-9,5.712444121264066e-9,2.1111207014214724e-8,0
41364,4.986341189482444e-9,1.3927418921086223e-8,1.7689079967713141e-9,8.114531196438017e-10,3.752840375311714e-9,3.3956785808196023e-9,5.671255204089311e-9,2.109896528094828e-8,0
41365,4.909391869953447e-9,1.3924172612460642e-8,1.7600822500503876e-9,8.034622299277393e-10,3.739319136493418e-9,3.367409308507575e-9,5.630066286914555e-9,2.1086723547681832e-8,0
41366,4.832442550424451e-9,1.3920926303835063e-8,1.7512565033294608e-9,7.954713402116769e-10,3.725797897675123e-9,3.339140036195548e-9,5.5888773697397995e-9,2.1074481814415384e-8,0
41367,4.7554932308954534e-09,1.3917679995209483e-8,1.7424307566085343e-9,7.874804504956145e-10,3.712276658856827e-9,3.310870763883521e-9,5.5476884525650435e-9,2.1062240081148937e-8,0
41368,4.6769767112792565e-9,1.3908723103621569e-8,1.7338796880110108e-9,7.803430175746567e-10,3.6987554200385313e-9,3.2825177064849294e-9,5.506499535390288e-9,2.1052252286293437e-8,0
41369,4.598246285472245e-9,1.3900560084116824e-8,1.725278016283888e-9,7.719974241806966e-10,3.685234181220236e-9,3.254830972376674e-9,5.465428342327305e-9,2.1041014425517083e-08,0
41370,4.519373436202037e-9,1.3892397064612079e-8,1.7167269476863644e-9,7.636518307867365e-10,3.67171294240194e-9,3.227144238268418e-9,5.4299890143354895e-9,2.10290188856814e-8,0
41371,4.44050058693183e-9,1.3884234045107334e-8,1.7081758790888412e-9,7.553062373927763e-10,3.6581917035836445e-9,3.1994575041601623e-9,5.394549686343674e-9,2.1017023345845716e-8,0
41372,4.361627737661622e-9,1.387607102560259e-8,1.6996248104913179e-9,7.469606439988161e-10,3.644670464765349e-9,3.1717707700519064e-9,5.359110358351858e-9,2.1005027806010034e-8,0
41373,4.282754888391414e-9,1.3867908006097846e-8,1.6910737418937946e-9,7.386150506048559e-10,3.631149225947053e-9,3.1440840359436506e-9,5.323671030360043e-9,2.0993032266174348e-8,0
41374,4.203882039121206e-9,1.38597449865931e-8,1.6825226732962711e-9,7.302694572108958e-10,3.6176279871287576e-9,3.116397301835395e-9,5.288231702368227e-9,2.0981036726338666e-8,0
41375,4.125365519505009e-9,1.3851581967088356e-8,1.6747450359393582e-9,7.222785674948334e-10,3.6040512672525244e-9,3.088459212467446e-9,5.247160509305244e-9,2.097104893148317e-8,0
41376,4.046848999888812e-9,1.3843418947583611e-8,1.6669673985824452e-9,7.14287677778771e-10,3.590474547376291e-9,3.0605211230994976e-9,5.20608931624226e-9,2.096106113662767e-8,0
41377,3.968332480272614e-9,1.3835255928078866e-8,1.659189761225532e-9,7.062967880627086e-10,3.5768978275000583e-9,3.032583033731549e-9,5.165018123179277e-9,2.0951073341772173e-8,0
41378,3.889815960656417e-9,1.3827092908574121e-8,1.651412123868619e-9,6.983058983466462e-10,3.563321107623825e-9,3.0046449443636004e-9,5.1239469301162925e-9,2.0941085546916676e-8,0
41379,3.811299441040219e-9,1.3818929889069376e-8,1.6436344865117061e-9,6.903150086305837e-10,3.549744387747592e-9,2.976706854995652e-9,5.082875737053309e-9,2.093109775206118e-8,0
41380,3.732782921424022e-9,1.3810766869564631e-8,1.635856849154793e-9,6.823241189145213e-10,3.536167667871359e-9,2.948768765627703e-9,5.0418045439903255e-9,2.092110995720568e-8,0
41381,3.6542664018078245e-9,1.3802603850059886e-8,1.62807921179788e-9,6.743332291984589e-10,3.5225909479951258e-9,2.9208306762597542e-9,5.000733350927342e-9,2.0911122162350183e-8,0
41382,3.6353858080736138e-9,1.3803489206957772e-8,1.6087001058318124e-9,6.743332291984589e-10,3.5153870565267087e-9,2.9205793210000615e-9,4.998620614346742e-9,2.0912384960782397e-8,0
41383,3.616505214339403e-9,1.3804374563855656e-8,1.5893209998657446e-9,6.743332291984589e-10,3.508183165058291e-9,2.9203279657403683e-9,4.996507877766142e-9,2.0913647759214614e-8,0
41384,3.6111618955053607e-9,1.3742355034420026e-8,1.589422206124944e-9,6.746879328763566e-10,3.508183165058291e-9,2.920659148684447e-9,4.984184630617859e-9,2.0843885985362425e-8,0
41385,3.605818576671318e-9,1.3680335504984395e-8,1.5895234123841434e-9,6.750426365542544e-10,3.508183165058291e-9,2.9209903316285254e-9,4.971861383469576e-9,2.0774124211510236e-8,0
41386,3.6004752578372754e-9,1.3618315975548764e-8,1.5896246186433428e-9,6.753973402321522e-10,3.508183165058291e-9,2.9213215145726035e-9,4.959538136321293e-9,2.070436243765805e-8,0
41387,3.5951319390032326e-9,1.3556296446113135e-8,1.589725824902542e-9,6.757520439100499e-10,3.508183165058291e-9,2.921652697516682e-9,4.94721488917301e-9,2.063460066380586e-8,0
41388,3.5897886201691898e-9,1.3494276916677504e-8,1.5898270311617413e-9,6.761067475879476e-10,3.508183165058291e-9,2.9219838804607605e-9,4.934891642024727e-9,2.0564838889953676e-8,0
41389,3.5844453013351474e-9,1.3432257387241874e-8,1.5899282374209407e-9,6.764614512658454e-10,3.508183165058291e-9,2.9223150634048386e-9,4.9225683948764435e-9,2.0495077116101487e-8,0
41390,3.5791019825011046e-9,1.3370237857806243e-8,1.5900294436801401e-9,6.768161549437431e-10,3.508183165058291e-9,2.922646246348917e-9,4.91024514772816e-9,2.0425315342249298e-8,0
41391,3.573544757476248e-9,1.3326917156902139e-8,1.5982119060738505e-9,6.768161549437431e-10,3.508183165058291e-9,2.9229774292929956e-9,4.897921900579878e-9,2.0359518128312052e-8,0
41392,3.567987532451392e-9,1.3283596455998037e-8,1.606394368467561e-9,6.768161549437431e-10,3.508183165058291e-9,2.9233086122370737e-9,4.8855986534315945e-9,2.0293720914374803e-8,0
41393,3.5624303074265357e-9,1.3240275755093935e-8,1.6145768308612714e-9,6.768161549437431e-10,3.508183165058291e-9,2.9236397951811522e-9,4.873275406283311e-9,2.0227923700437553e-8,0
41394,3.5568730824016792e-9,1.319695505418983e-8,1.6227592932549818e-9,6.768161549437431e-10,3.508183165058291e-9,2.9239709781252307e-9,4.860952159135028e-9,2.0162126486500308e-8,0
41395,3.5513158573768228e-9,1.3153634353285728e-8,1.6309417556486922e-9,6.768161549437431e-10,3.508183165058291e-9,2.9243021610693092e-9,4.8486289119867455e-9,2.009632927256306e-8,0
41396,3.5457586323519663e-9,1.3110313652381625e-8,1.6391242180424026e-9,6.768161549437431e-10,3.508183165058291e-9,2.9246333440133873e-9,4.836305664838462e-9,2.0030532058625813e-8,0
41397,3.5402014073271103e-9,1.3066992951477522e-8,1.647306680436113e-9,6.768161549437431e-10,3.508183165058291e-9,2.924964526957466e-9,4.823982417690179e-9,1.9964734844688564e-8,0
41398,3.534644182302254e-9,1.3023672250573418e-8,1.6554891428298235e-9,6.768161549437431e-10,3.508183165058291e-9,2.9252957099015443e-9,4.811659170541896e-9,1.9898937630751314e-8,0
41399,3.5290869572773974e-9,1.2980351549669316e-8,1.663671605223534e-9,6.768161549437431e-10,3.508183165058291e-9,2.9256268928456224e-9,4.799335923393613e-9,1.983314041681407e-8,0
41400,3.523529732252541e-9,1.2937030848765214e-8,1.6718540676172443e-9,6.768161549437431e-10,3.508183165058291e-9,2.925958075789701e-9,4.78701267624533e-9,1.976734320287682e-8,0
41401,3.5179725072276845e-9,1.289371014786111e-8,1.6800365300109547e-9,6.768161549437431e-10,3.508183165058291e-9,2.9262892587337795e-9,4.774689429097047e-9,1.9701545988939574e-8,0
41402,3.5124152822028285e-9,1.2850389446957008e-8,1.6882189924046652e-9,6.768161549437431e-10,3.508183165058291e-9,2.9266204416778576e-9,4.762366181948763e-9,1.9635748775002325e-8,0
41403,3.506858057177972e-9,1.2807068746052904e-8,1.6964014547983756e-9,6.768161549437431e-10,3.508183165058291e-9,2.926951624621936e-9,4.75004293480048e-9,1.9569951561065075e-8,0
41404,3.5013008321531156e-9,1.2763748045148802e-8,1.704583917192086e-9,6.768161549437431e-10,3.508183165058291e-9,2.9272828075660146e-9,4.737719687652198e-9,1.950415434712783e-8,0
41405,3.502370363107184e-9,1.2704812519231129e-8,1.7038610890810752e-9,6.769602043830524e-10,3.5086264371175605e-9,2.9276139905100927e-9,4.725278716392143e-9,1.943439257327564e-8,0
41406,3.5034398940612527e-9,1.2645876993313457e-8,1.7031382609700646e-9,6.771042538223616e-10,3.5090697091768303e-9,2.927945173454171e-9,4.712837745132088e-9,1.9364630799423455e-8,0
41407,3.4978826690363967e-9,1.2586941467395784e-8,1.7043598421982823e-9,6.790326614919102e-10,3.5091251902347676e-9,2.927945173454171e-9,4.702274062229089e-9,1.929286128059108e-8,0
41408,3.4923254440115402e-9,1.2528005941478113e-8,1.7055814234264999e-9,6.809610691614589e-10,3.509180671292705e-9,2.927945173454171e-9,4.69171037932609e-9,1.9221091761758706e-8,0
41409,3.4867682189866838e-9,1.246907041556044e-8,1.7068030046547174e-9,6.828894768310076e-10,3.5092361523506428e-9,2.927945173454171e-9,4.681146696423091e-9,1.914932224292633e-8,0
41410,3.4812109939618273e-9,1.2410134889642769e-8,1.7080245858829352e-9,6.848178845005562e-10,3.50929163340858e-9,2.927945173454171e-9,4.670583013520092e-9,1.907755272409396e-8,0
41411,3.475653768936971e-9,1.2351199363725098e-8,1.7092461671111527e-9,6.867462921701049e-10,3.5093471144665175e-9,2.927945173454171e-9,4.660019330617093e-9,1.9005783205261585e-8,0
41412,3.470096543912115e-9,1.2292263837807425e-8,1.7104677483393703e-9,6.886746998396535e-10,3.5094025955244552e-9,2.927945173454171e-9,4.649455647714094e-9,1.893401368642921e-8,0
41413,3.4645393188872584e-9,1.2233328311889753e-8,1.711689329567588e-9,6.906031075092022e-10,3.5094580765823926e-9,2.927945173454171e-9,4.638891964811096e-9,1.886224416759684e-8,0
41414,3.458982093862402e-9,1.217439278597208e-8,1.7129109107958056e-9,6.925315151787508e-10,3.50951355764033e-9,2.927945173454171e-9,4.628328281908097e-9,1.8790474648764465e-8,0
41415,3.4534248688375455e-9,1.2115457260054409e-8,1.7141324920240232e-9,6.944599228482995e-10,3.5095690386982677e-9,2.927945173454171e-9,4.617764599005098e-9,1.871870512993209e-8,0
41416,3.447867643812689e-9,1.2056521734136736e-8,1.715354073252241e-9,6.963883305178482e-10,3.509624519756205e-9,2.927945173454171e-9,4.6072009161020995e-9,1.8646935611099716e-8,0
41417,3.442310418787833e-9,1.1997586208219065e-8,1.7165756544804585e-9,6.983167381873968e-10,3.5096800008141424e-9,2.927945173454171e-9,4.5966372331991006e-9,1.8575166092267344e-8,0
41418,3.4367531937629766e-9,1.1938650682301392e-8,1.717797235708676e-9,7.002451458569455e-10,3.50973548187208e-9,2.927945173454171e-9,4.586073550296102e-9,1.850339657343497e-8,0
41419,3.43119596873812e-9,1.187971515638372e-8,1.7190188169368938e-9,7.021735535264941e-10,3.5097909629300175e-9,2.927945173454171e-9,4.575509867393103e-9,1.8431627054602595e-8,0
41420,3.4256387437132638e-9,1.1820779630466048e-8,1.7202403981651113e-9,7.041019611960428e-10,3.509846443987955e-9,2.927945173454171e-9,4.564946184490104e-9,1.835985753577022e-8,0
41421,3.4200815186884073e-9,1.1761844104548376e-8,1.7214619793933289e-9,7.060303688655915e-10,3.5099019250458926e-9,2.927945173454171e-9,4.554382501587105e-9,1.828808801693785e-8,0
41422,3.4151654702439548e-9,1.169893921821486e-8,1.7228353700103456e-9,7.085907392509057e-10,3.50995740610383e-9,2.927861388367607e-9,4.54194153032705e-9,1.8216324864361153e-8,0
41423,3.410249421799502e-9,1.1636034331881344e-8,1.7242087606273622e-9,7.111511096362199e-10,3.5100128871617673e-9,2.9277776032810426e-9,4.529500559066995e-9,1.814456171178446e-8,0
41424,3.4053333733550493e-9,1.1572925811396583e-8,1.7323912230210726e-9,7.155624430510528e-10,3.511675589687201e-9,2.928108786225121e-9,4.517059587806941e-9,1.807254599952132e-8,0
41425,3.4004173249105964e-9,1.1509817290911821e-8,1.740573685414783e-9,7.199737764658857e-10,3.5133382922126343e-9,2.928439969169199e-9,4.504618616546886e-9,1.8000530287258184e-8,0
41426,3.395501276466144e-9,1.144670877042706e-8,1.7487561478084934e-9,7.243851098807184e-10,3.515000994738068e-9,2.9287711521132777e-9,4.492177645286831e-9,1.7928514574995047e-8,0
41427,3.390585228021691e-9,1.13836002499423e-8,1.7569386102022038e-9,7.287964432955513e-10,3.516663697263501e-9,2.929102335057356e-9,4.479736674026776e-9,1.785649886273191e-8,0
41428,3.3856691795772384e-09,1.1320491729457539e-8,1.7651210725959143e-9,7.332077767103842e-10,3.5183263997889344e-9,2.9294335180014347e-9,4.467295702766721e-9,1.778448315046877e-8,0
41429,3.3807531311327854e-9,1.1257383208972778e-8,1.7733035349896247e-9,7.376191101252171e-10,3.519989102314368e-9,2.929764700945513e-9,4.454854731506666e-9,1.7712467438205633e-8,0
41430,3.375837082688333e-9,1.1194274688488016e-8,1.781485997383335e-9,7.4203044354005e-10,3.5216518048398014e-9,2.9300958838895913e-9,4.442413760246611e-9,1.7640451725942496e-8,0
41431,3.37092103424388e-9,1.1131166168003255e-8,1.7896684597770455e-9,7.464417769548829e-10,3.523314507365235e-9,2.93042706683367e-9,4.429972788986556e-9,1.756843601367936e-8,0
41432,3.367286796968197e-9,1.1114840128993765e-8,1.7964775315537394e-9,7.472843939092369e-10,3.511400490014435e-9,2.922858027586822e-9,4.429972788986556e-9,1.755250137895145e-8,0
41433,3.367714067357787e-9,1.0844778556117386e-8,1.793210334727094e-9,7.504875668510673e-10,3.511400490014435e-9,2.9232729956174645e-9,4.426408726775161e-9,1.7551510238972717e-8,0
41434,3.3681413377473768e-9,1.0574716983241008e-8,1.7899431379004488e-9,7.536907397928978e-10,3.511400490014435e-9,2.923687963648107e-9,4.4228446645637665e-9,1.755051909899398e-8,0
41435,3.3685686081369666e-9,1.030465541036463e-8,1.7866759410738037e-9,7.568939127347281e-10,3.511400490014435e-9,2.9241029316787497e-9,4.4192806023523725e-9,1.7549527959015246e-8,0
41436,3.3689958785265565e-9,1.0034593837488252e-8,1.7834087442471584e-9,7.600970856765585e-10,3.511400490014435e-9,2.9245178997093923e-9,4.415716540140978e-9,1.754853681903651e-8,0
41437,3.3694231489161464e-9,9.764532264611873e-9,1.7801415474205133e-9,7.633002586183889e-10,3.511400490014435e-9,2.9249328677400354e-9,4.412152477929583e-9,1.7547545679057777e-8,0
41438,3.3698504193057363e-9,9.494470691735495e-9,1.776874350593868e-9,7.665034315602194e-10,3.511400490014435e-9,2.925347835770678e-9,4.408588415718188e-9,1.754655453907904e-8,0
41439,3.370277689695326e-9,9.224409118859116e-9,1.7736071537672228e-9,7.697066045020497e-10,3.511400490014435e-9,2.9257628038013206e-9,4.405024353506794e-9,1.7545563399100306e-8,0
41440,3.370704960084916e-9,8.954347545982737e-9,1.7703399569405775e-9,7.729097774438801e-10,3.511400490014435e-9,2.9261777718319632e-9,4.401460291295399e-9,1.754457225912157e-8,0
41441,3.371132230474506e-9,8.684285973106359e-9,1.7670727601139324e-9,7.761129503857105e-10,3.511400490014435e-9,2.926592739862606e-9,4.3978962290840044e-9,1.7543581119142834e-8,0
41442,3.3715595008640958e-9,8.41422440022998e-9,1.763805563287287e-9,7.79316123327541e-10,3.511400490014435e-9,2.9270077078932485e-9,4.39433216687261e-9,1.75425899791641e-8,0
41443,3.3724145836353133e-9,8.156702475576681e-9,1.7870156066234218e-9,8.071239281333241e-10,3.5103475027220835e-9,2.9270077078932485e-9,4.3905775901584975e-9,1.754260271167546e-8,0
41444,3.372058253981303e-9,7.886936021666265e-9,1.7748431192920555e-9,8.062704713382194e-10,3.5087402812545878e-9,2.928336397071741e-9,4.387013527947103e-9,1.7541857765127488e-8,0
41445,3.3736254540685034e-9,7.617780470209584e-9,1.7665377881637408e-9,8.076226812505311e-10,3.507687293962236e-9,2.9287513651023835e-9,4.38356718984748e-9,1.7541857765127488e-8,0
41446,3.375192654155704e-9,7.348624918752902e-9,1.758232457035426e-9,8.089748911628428e-10,3.506634306669885e-9,2.929166333133026e-9,4.380120851747857e-9,1.7541857765127488e-8,0
41447,3.370347004454793e-9,7.3000127409832995e-9,1.7613767851274671e-9,8.11535261548157e-10,3.507188540845029e-9,2.9241748445587775e-9,4.371804706587937e-9,1.7530607171839775e-8,0
41448,3.3655013547538823e-9,7.251400563213697e-9,1.764521113219508e-9,8.140956319334712e-10,3.5077427750201735e-9,2.919183355984529e-9,4.363488561428016e-9,1.751935657855206e-8,0
41449,3.363862671939065e-9,7.121438460501388e-9,1.7675642350523496e-9,8.158691503229599e-10,3.490841226497304e-9,2.908538012947875e-9,4.363488561428016e-9,1.7448223779921117e-8,0
41450,3.362223989124247e-9,6.9914763577890784e-9,1.7706073568851912e-9,8.176426687124486e-10,3.4739396779744348e-9,2.8978926699112207e-9,4.363488561428016e-9,1.737709098129017e-8,0
41451,3.3605853063094297e-9,6.86151425507677e-9,1.7736504787180326e-9,8.194161871019373e-10,3.4570381294515652e-9,2.887247326874567e-9,4.363488561428016e-9,1.7305958182659227e-8,0
41452,3.358946623494612e-9,6.731552152364461e-9,1.7766936005508743e-9,8.211897054914261e-10,3.4401365809286957e-9,2.876601983837913e-9,4.363488561428016e-9,1.723482538402828e-8,0
41453,3.3573079406797946e-9,6.6015900496521525e-9,1.779736722383716e-9,8.229632238809148e-10,3.423235032405826e-9,2.8659566408012587e-9,4.363488561428016e-9,1.7163692585397336e-8,0
41454,3.355669257864977e-9,6.471627946939843e-9,1.7827798442165573e-9,8.247367422704035e-10,3.4063334838829566e-9,2.8553112977646045e-9,4.363488561428016e-9,1.7092559786766392e-8,0
41455,3.3492569500689032e-9,6.466070842357662e-9,1.7845507816915816e-9,8.228857792408848e-10,3.3839444982623495e-9,2.8384414342683102e-9,4.347365803844794e-9,1.7044717685048594e-8,0
41456,3.2966750505554314e-9,6.243910233254966e-9,1.7634513413800893e-9,8.228857792408848e-10,3.3831689162596855e-9,2.8381900790086175e-9,4.339049658684874e-9,1.704173153260103e-8,0
41457,3.2928989318085895e-9,6.228490215665173e-9,1.7636537538984881e-9,8.25446149626199e-10,3.37851369503101e-9,2.8169152225440246e-9,4.338242666953178e-9,1.7041718800089674e-8,0
41458,3.2891228130617472e-9,6.2130701980753815e-9,1.7638561664168867e-9,8.280065200115132e-10,3.373858473802335e-9,2.7956403660794318e-9,4.337435675221481e-9,1.7041706067578314e-8,0
41459,3.285346694314905e-9,6.197650180485589e-9,1.7640585789352855e-9,8.305668903968273e-10,3.3692032525736593e-9,2.774365509614839e-9,4.3366286834897845e-9,1.7041693335066957e-8,0
41460,3.281570575568063e-9,6.182230162895796e-9,1.7642609914536842e-9,8.331272607821416e-10,3.364548031344984e-9,2.753090653150246e-9,4.335821691758088e-9,1.70416806025556e-8,0
41461,3.2777944568212207e-9,6.166810145306004e-9,1.7644634039720828e-9,8.356876311674558e-10,3.359892810116309e-9,2.7318157966856532e-9,4.335014700026392e-9,1.7041667870044243e-8,0
41462,3.274018338074379e-9,6.151390127716212e-9,1.7646658164904816e-9,8.3824800155277e-10,3.3552375888876335e-9,2.7105409402210604e-9,4.334207708294695e-9,1.7041655137532882e-8,0
41463,3.2702422193275365e-9,6.135970110126419e-9,1.7648682290088802e-9,8.408083719380841e-10,3.3505823676589583e-9,2.6892660837564675e-9,4.333400716562999e-9,1.7041642405021525e-8,0
41464,3.2664661005806942e-9,6.120550092536627e-9,1.765070641527279e-9,8.433687423233983e-10,3.345927146430283e-9,2.6679912272918747e-9,4.332593724831303e-9,1.704162967251017e-8,0
41465,3.2626899818338523e-9,6.105130074946834e-9,1.7652730540456777e-9,8.459291127087125e-10,3.3412719252016077e-9,2.646716370827282e-9,4.331786733099606e-9,1.7041616939998808e-8,0
41466,3.25891386308701e-9,6.0897100573570425e-9,1.7654754665640763e-9,8.484894830940267e-10,3.336616703972932e-9,2.625441514362689e-9,4.33097974136791e-9,1.704160420748745e-8,0
41467,3.1589477074786874e-9,5.979680425878076e-9,1.7607409510400048e-9,8.491214458097922e-10,3.3324608122656944e-9,2.625441514362689e-9,4.3310974654796815e-9,1.7042342787779745e-8,0
41468,3.0589815518703643e-9,5.86965079439911e-9,1.7560064355159334e-9,8.497534085255577e-10,3.3283049205584563e-9,2.625441514362689e-9,4.331215189591453e-9,1.7043081368072035e-8,0
41469,2.9590153962620417e-9,5.759621162920143e-9,1.751271919991862e-9,8.503853712413232e-10,3.3241490288512186e-9,2.625441514362689e-9,4.331332913703226e-9,1.7043819948364328e-8,0
41470,2.8590492406537187e-9,5.649591531441177e-9,1.7465374044677905e-9,8.510173339570888e-10,3.3199931371439804e-9,2.625441514362689e-9,4.331450637814997e-9,1.7044558528656618e-8,0
41471,2.759083085045396e-9,5.539561899962211e-9,1.741802888943719e-9,8.516492966728543e-10,3.3158372454367427e-9,2.625441514362689e-9,4.331568361926769e-9,1.704529710894891e-8,0
41472,2.659116929437073e-9,5.429532268483244e-9,1.7370683734196476e-9,8.522812593886199e-10,3.3116813537295046e-9,2.625441514362689e-9,4.331686086038541e-9,1.7046035689241205e-8,0
41473,2.5591507738287503e-9,5.319502637004278e-9,1.7323338578955762e-9,8.529132221043853e-10,3.307525462022267e-9,2.625441514362689e-9,4.3318038101503125e-9,1.7046774269533495e-8,0
41474,2.5350671167555433e-9,5.175669942891765e-9,1.7325362704139748e-9,8.553295430503903e-10,3.304920734320357e-9,2.621204091567519e-9,4.329691073569713e-9,1.7005579390446327e-8,0
41475,2.5109834596823366e-9,5.031837248779253e-9,1.7327386829323735e-9,8.577458639963953e-10,3.3023160066184472e-9,2.616966668772349e-9,4.3275783369891136e-9,1.696438451135916e-8,0
41476,2.4868998026091296e-9,4.88800455466674e-9,1.7329410954507721e-9,8.601621849424002e-10,3.2997112789165372e-9,2.6127292459771792e-9,4.325465600408513e-9,1.692318963227199e-8,0
41477,2.462816145535923e-9,4.744171860554228e-9,1.7331435079691709e-9,8.625785058884051e-10,3.297106551214627e-9,2.6084918231820093e-9,4.323352863827914e-9,1.6881994753184823e-8,0
41478,2.438732488462716e-9,4.600339166441715e-9,1.7333459204875697e-9,8.6499482683441e-10,3.2945018235127176e-9,2.6042544003868394e-9,4.3212401272473135e-9,1.6840799874097652e-8,0
41479,2.414648831389509e-9,4.456506472329203e-9,1.7335483330059682e-9,8.674111477804151e-10,3.2918970958108076e-9,2.6000169775916695e-9,4.319127390666714e-9,1.6799604995010484e-8,0
41480,2.3886416445750913e-9,4.312062875762954e-9,1.7307076236915254e-9,8.672670983411058e-10,3.2886826528758157e-9,2.595448371852421e-9,4.317586197594267e-9,1.6759672914355533e-8,0
41481,2.3626344577606738e-9,4.167619279196706e-9,1.7278669143770825e-9,8.671230489017965e-10,3.285468209940824e-9,2.590879766113173e-9,4.31604500452182e-9,1.671974083370058e-8,0
41482,2.336627270946256e-9,4.023969554713627e-9,1.723978095698626e-9,8.705477159229662e-10,3.2826970390651013e-9,2.586893698577696e-9,4.313624029326731e-9,1.667780100806544e-8,0
41483,2.3114036841754385e-9,3.887933940846993e-9,1.745279948528517e-9,8.963945935369485e-10,3.284747532591867e-9,2.5822413077518834e-9,4.311511292746131e-9,1.6635614988999534e-8,0
41484,2.286180097404621e-9,3.751898326980359e-9,1.766581801358408e-9,9.22241471150931e-10,3.2867980261186324e-9,2.5775889169260704e-9,4.309398556165532e-9,1.6593428969933632e-8,0
41485,2.2609565106338036e-09,3.6158627131137248e-9,1.787883654188299e-9,9.480883487649135e-10,3.288848519645398e-9,2.572936526100258e-9,4.3072858195849314e-9,1.655124295086773e-8,0
41486,2.235732923862986e-9,3.4798270992470906e-9,1.80918550701819e-9,9.739352263788958e-10,3.290899013172163e-9,2.5682841352744454e-9,4.305173083004332e-9,1.6509056931801825e-8,0
41487,2.2105093370921686e-9,3.3437914853804567e-9,1.830487359848081e-9,9.997821039928782e-10,3.2929495066989285e-9,2.563631744448633e-9,4.303060346423732e-9,1.6466870912735923e-8,0
41488,2.1998221574320456e-9,3.3522909528947873e-9,1.8547311282516141e-9,1.02577303104617e-9,3.287352260293777e-9,2.5502531527727873e-9,4.277842308619013e-9,1.6430998885831092e-8,0
41489,2.1970435449196176e-9,3.340382871647256e-9,1.8547311282516141e-9,1.0473526246846288e-9,3.291231899519788e-9,2.548924463594295e-9,4.221157890709428e-9,1.6071020094065552e-8,0
41490,2.1942649324071895e-9,3.3284747903997245e-9,1.8547311282516141e-9,1.0689322183230877e-9,3.2951115387457994e-9,2.5475957744158025e-9,4.1644734727998436e-9,1.571104130230001e-8,0
41491,2.191486319894761e-9,3.316566709152193e-9,1.8547311282516141e-9,1.0905118119615463e-9,3.2989911779718105e-9,2.54626708523731e-9,4.107789054890259e-9,1.535106251053447e-8,0
41492,2.188707707382333e-9,3.3046586279046617e-9,1.8547311282516141e-9,1.1120914056000052e-9,3.302870817197822e-9,2.544938396058818e-9,4.051104636980674e-9,1.499108371876893e-8,0
41493,2.1859290948699047e-9,3.2927505466571303e-9,1.8547311282516141e-9,1.133670999238464e-9,3.306750456423833e-9,2.5436097068803258e-9,3.994420219071089e-9,1.463110492700339e-8,0
41494,2.1831504823574767e-9,3.280842465409599e-9,1.8547311282516141e-9,1.1552505928769229e-9,3.3106300956498445e-9,2.5422810177018334e-9,3.937735801161504e-9,1.4271126135237847e-8,0
41495,2.1803718698450486e-9,3.268934384162067e-9,1.8547311282516141e-9,1.1768301865153815e-9,3.3145097348758556e-9,2.540952328523341e-9,3.881051383251919e-9,1.3911147343472307e-8,0
41496,2.1775932573326202e-9,3.2570263029145357e-9,1.8547311282516141e-9,1.1984097801538403e-9,3.318389374101867e-9,2.5396236393448486e-9,3.824366965342334e-9,1.3551168551706766e-8,0
41497,2.174814644820192e-9,3.2451182216670043e-9,1.8547311282516141e-9,1.2199893737922992e-9,3.322269013327878e-9,2.5382949501663562e-9,3.767682547432749e-9,1.3191189759941226e-8,0
41498,2.1720360323077638e-9,3.233210140419473e-9,1.8547311282516141e-9,1.241568967430758e-9,3.3261486525538897e-9,2.536966260987864e-9,3.7109981295231645e-9,1.2831210968175685e-8,0
41499,2.1692574197953358e-9,3.2213020591719414e-9,1.8547311282516141e-9,1.2631485610692167e-9,3.3300282917799007e-9,2.5356375718093714e-9,3.6543137116135793e-9,1.2471232176410145e-8,0
41500,2.1664788072829078e-9,3.20939397792441e-9,1.8547311282516141e-9,1.2847281547076755e-9,3.3339079310059122e-9,2.534308882630879e-9,3.5976292937039945e-9,1.2111253384644603e-8,0
41501,2.1637001947704793e-9,3.1974858966768786e-9,1.8547311282516141e-9,1.3063077483461344e-9,3.3377875702319233e-9,2.532980193452387e-9,3.5409448757944097e-9,1.1751274592879062e-8,0
41502,2.1609215822580513e-9,3.185577815429347e-9,1.8547311282516141e-9,1.3278873419845932e-9,3.3416672094579348e-9,2.5316515042738947e-9,3.484260457884825e-9,1.1391295801113522e-8,0
41503,2.1573593697020226e-9,3.1649666325162398e-09,1.8356483628843547e-9,1.3234760085697603e-9,3.3408916274552707e-9,2.530737783126045e-9,3.42757603997524e-9,1.1031317009347981e-8,0
41504,2.1537971571459944e-9,3.1285074991890375e-9,1.8408093659206286e-9,1.3209156381844461e-9,3.333687159582623e-9,2.5200924400893908e-9,3.4278842785897294e-9,1.1006411184766026e-8,0
41505,2.150234944589966e-9,3.0920483658618353e-9,1.8459703689569023e-9,1.318355267799132e-9,3.326482691709975e-9,2.5094470970527366e-9,3.428192517204219e-9,1.0981505360184073e-8,0
41506,2.1466727320339374e-9,3.055589232534633e-9,1.8511313719931762e-9,1.3157948974138177e-9,3.3192782238373277e-9,2.4988017540160825e-9,3.4285007558187083e-9,1.0956599535602118e-8,0
41507,2.143110519477909e-9,3.019130099207431e-9,1.85629237502945e-9,1.3132345270285035e-9,3.31207375596468e-9,2.4881564109794287e-9,3.4288089944331977e-9,1.0931693711020163e-8,0
41508,2.139548306921881e-9,2.9826709658802286e-9,1.8614533780657237e-9,1.3106741566431893e-9,3.304869288092032e-9,2.4775110679427746e-9,3.429117233047687e-9,1.090678788643821e-8,0
41509,2.135986094365852e-9,2.9462118325530264e-9,1.8666143811019974e-9,1.308113786257875e-9,3.2976648202193844e-9,2.4668657249061204e-9,3.4294254716621765e-9,1.0881882061856255e-8,0
41510,2.132423881809824e-9,2.909752699225824e-9,1.8717753841382713e-9,1.3055534158725609e-9,3.290460352346737e-9,2.4562203818694663e-9,3.429733710276666e-9,1.0856976237274302e-8,0
41511,2.113186958421603e-9,2.8682027121174917e-9,1.869057543558433e-9,1.3054093664332518e-9,3.2906267955205494e-9,2.455306660721617e-9,3.4005148679148777e-9,1.076689082018949e-8,0
41512,2.0939500350333817e-9,2.8266527250091594e-9,1.866339702978594e-9,1.3052653169939425e-9,3.2907932386943615e-9,2.454392939573767e-9,3.37129602555309e-9,1.067680540310468e-8,0
41513,2.0747131116451607e-9,2.7851027379008274e-9,1.8636218623987558e-9,1.3051212675546333e-9,3.290959681868174e-9,2.4534792184259174e-9,3.342077183191302e-9,1.058671998601987e-8,0
41514,2.0554761882569396e-9,2.743552750792495e-9,1.8609040218189172e-9,1.304977218115324e-9,3.2911261250419864e-9,2.4525654972780676e-9,3.3128583408295142e-9,1.0496634568935059e-8,0
41515,2.0362392648687185e-9,2.7020027636841626e-9,1.8581861812390786e-9,1.3048331686760147e-9,3.291292568215799e-9,2.4516517761302183e-9,3.283639498467726e-9,1.0406549151850249e-8,0
41516,2.017144764943694e-9,2.6606564107270758e-9,1.8504085438821655e-9,1.305897279709708e-9,3.2922345933922754e-9,2.45040687203829e-9,3.254420656105938e-9,1.0317454874744173e-8,0
41517,1.9986914415990734e-9,2.6251121255470395e-9,1.8667734686695864e-9,1.3069613907434013e-9,3.2918468023909434e-9,2.449161967946362e-9,3.224893575129661e-9,1.0228360597638096e-8,0
41518,1.9802381182544525e-9,2.5895678403670027e-9,1.8831383934570072e-9,1.3080255017770945e-9,3.2914590113896114e-9,2.447917063854434e-9,3.1953664941533836e-9,1.013926632053202e-8,0
41519,1.961357524520242e-9,2.5503994695081767e-9,1.8743126467360805e-9,1.3078814523377852e-9,3.291015739330342e-9,2.4465883746759415e-9,3.1661476517915954e-9,1.0049433463133652e-8,0
41520,1.9424769307860307e-9,2.511231098649351e-9,1.8654869000151537e-9,1.307737402898476e-9,3.2905724672710726e-9,2.445259685497449e-9,3.1369288094298076e-9,9.959600605735286e-9,0
41521,1.92359633705182e-9,2.472062727790525e-9,1.8566611532942272e-9,1.3075933534591668e-9,3.2901291952118032e-9,2.443930996318957e-9,3.1077099670680197e-9,9.869767748336918e-9,0
41522,1.9047157433176093e-9,2.432894356931699e-9,1.8478354065733006e-9,1.3074493040198575e-9,3.2896859231525334e-9,2.4426023071404647e-9,3.078491124706232e-9,9.77993489093855e-9,0
41523,1.8983028935294984e-9,2.4233767186611422e-9,1.841474484784214e-9,1.300688254458299e-9,3.2435226546755735e-9,2.3677174266793894e-9,3.0722706390762044e-9,9.776210158198696e-9,0
41524,1.891890043741387e-9,2.4138590803905854e-9,1.8351135629951275e-9,1.2939272048967405e-9,3.197359386198613e-9,2.292832546218314e-9,3.066050153446177e-9,9.77248542545884e-9,0
41525,1.8854771939532757e-9,2.404341442120029e-9,1.8287526412060412e-9,1.2871661553351818e-9,3.1511961177216527e-9,2.2179476657572388e-9,3.0598296678161495e-9,9.768760692718985e-9,0
41526,1.8790643441651644e-9,2.394823803849472e-9,1.8223917194169547e-9,1.2804051057736233e-9,3.1050328492446928e-9,2.143062785296164e-9,3.053609182186122e-9,9.765035959979131e-9,0
41527,1.8726514943770535e-9,2.3853061655789153e-9,1.8160307976278683e-9,1.2736440562120648e-9,3.0588695807677324e-9,2.0681779048350886e-9,3.0473886965560945e-9,9.761311227239275e-9,0
41528,1.866238644588942e-9,2.3757885273083584e-9,1.8096698758387818e-9,1.2668830066505063e-9,3.012706312290772e-9,1.9932930243740133e-9,3.041168210926067e-9,9.75758649449942e-9,0
41529,1.859825794800831e-9,2.366270889037802e-9,1.8033089540496953e-9,1.2601219570889478e-9,2.966543043813812e-9,1.918408143912938e-9,3.0349477252960395e-9,9.753861761759566e-9,0
41530,1.8534129450127197e-9,2.356753250767245e-9,1.796948032260609e-9,1.253360907527389e-9,2.9203797753368517e-9,1.8435232634518629e-9,3.028727239666012e-9,9.750137029019711e-9,0
41531,1.8470000952246085e-9,2.3472356124966883e-9,1.7905871104715224e-9,1.2465998579658305e-9,2.8742165068598917e-9,1.7686383829907878e-9,3.0225067540359845e-9,9.746412296279855e-9,0
41532,1.8405872454364972e-9,2.3377179742261314e-9,1.7842261886824358e-9,1.239838808404272e-9,2.8280532383829313e-9,1.6937535025297124e-9,3.016286268405957e-9,9.74268756354e-9,0
41533,1.834174395648386e-9,2.328200335955575e-9,1.7778652668933495e-9,1.2330777588427135e-9,2.781889969905971e-9,1.6188686220686373e-9,3.0100657827759296e-9,9.738962830800146e-9,0
41534,1.8277615458602747e-9,2.318682697685018e-9,1.771504345104263e-9,1.2263167092811548e-9,2.735726701429011e-9,1.543983741607562e-9,3.003845297145902e-9,9.735238098060292e-9,0
41535,1.8213486960721636e-9,2.3091650594144613e-9,1.7651434233151764e-9,1.2195556597195963e-9,2.6895634329520506e-9,1.469098861146487e-9,2.9976248115158746e-9,9.731513365320436e-9,0
41536,1.8149358462840523e-9,2.2996474211439044e-9,1.75878250152609e-9,1.2127946101580378e-9,2.6434001644750902e-9,1.3942139806854116e-9,2.991404325885847e-9,9.727788632580581e-9,0
41537,1.8085229964959411e-9,2.2901297828733476e-9,1.7524215797370035e-9,1.2060335605964793e-9,2.5972368959981302e-9,1.3193291002243365e-9,2.9851838402558196e-9,9.724063899840727e-9,0
41538,1.80211014670783e-9,2.280612144602791e-9,1.746060657947917e-9,1.1992725110349208e-9,2.55107362752117e-9,1.2444442197632612e-9,2.978963354625792e-9,9.72033916710087e-9,0
41539,1.7953409672657083e-9,2.2690080090486896e-9,1.7435885548372872e-9,1.19286616515126e-9,2.5049658401021473e-9,1.1696431243887504e-9,2.9733144125039174e-9,9.718596714318486e-9,0
41540,1.77852524275183e-9,2.2666263927991836e-9,1.7449619454543037e-9,1.1930768193898483e-9,2.48302127934927e-9,1.1363863209046535e-9,2.9616975100262656e-9,9.71734664839763e-9,0
41541,1.7573631636462856e-9,2.2412313128652515e-9,1.7470075610527313e-9,1.1926446710719207e-9,2.475817387880853e-9,1.1290686369174985e-9,2.961008242406341e-9,9.702364956114383e-9,0
41542,1.7362010845407409e-9,2.2158362329313193e-9,1.749053176651159e-9,1.192212522753993e-9,2.468613496412436e-9,1.1217509529303436e-9,2.9603189747864162e-9,9.687383263831136e-9,0
41543,1.7150390054351964e-9,2.1904411529973875e-9,1.7510987922495866e-9,1.1917803744360652e-9,2.4614096049440184e-9,1.1144332689431886e-9,2.9596297071664918e-9,9.67240157154789e-9,0
41544,1.6938769263296519e-9,2.1650460730634553e-9,1.7531444078480142e-9,1.1913482261181375e-9,2.4542057134756012e-9,1.1071155849560336e-9,2.9589404395465673e-9,9.657419879264643e-9,0
41545,1.6727148472241074e-9,2.1396509931295235e-9,1.7551900234464417e-9,1.19091607780021e-9,2.4470018220071837e-9,1.0997979009688787e-9,2.958251171926643e-9,9.642438186981397e-9,0
41546,1.6515527681185629e-9,2.1142559131955913e-9,1.7572356390448695e-9,1.190483929482282e-9,2.4397979305387666e-9,1.0924802169817237e-9,2.9575619043067184e-9,9.62745649469815e-9,0
41547,1.6303906890130184e-9,2.088860833261659e-9,1.759281254643297e-9,1.1900517811643544e-9,2.432594039070349e-9,1.0851625329945689e-9,2.9568726366867935e-9,9.612474802414905e-9,0
41548,1.609228609907474e-9,2.0634657533277273e-9,1.7613268702417246e-9,1.1896196328464268e-9,2.425390147601932e-9,1.0778448490074138e-9,2.956183369066869e-9,9.597493110131659e-9,0
41549,1.5880665308019294e-9,2.038070673393795e-9,1.7633724858401521e-9,1.189187484528499e-9,2.4181862561335144e-9,1.0705271650202588e-9,2.9554941014469446e-9,9.582511417848412e-9,0
41550,1.5669044516963847e-9,2.0126755934598634e-9,1.7654181014385799e-9,1.1887553362105713e-9,2.4109823646650973e-9,1.063209481033104e-9,2.95480483382702e-9,9.567529725565166e-9,0
41551,1.5457423725908402e-9,1.987280513525931e-9,1.7674637170370074e-9,1.1883231878926435e-9,2.4037784731966798e-9,1.055891797045949e-9,2.9541155662070953e-9,9.552548033281919e-9,0
41552,1.5245802934852957e-9,1.961885433591999e-9,1.769509332635435e-9,1.1878910395747158e-9,2.3965745817282626e-9,1.048574113058794e-9,2.953426298587171e-9,9.537566340998673e-9,0
41553,1.5034182143797512e-9,1.936490353658067e-9,1.7715549482338626e-9,1.1874588912567882e-9,2.3893706902598455e-9,1.041256429071639e-9,2.9527370309672464e-9,9.522584648715426e-9,0
41554,1.4822561352742067e-9,1.911095273724135e-9,1.7736005638322903e-9,1.1870267429388604e-9,2.382166798791428e-9,1.033938745084484e-9,2.952047763347322e-9,9.50760295643218e-9,0
41555,1.4610940561686622e-9,1.885700193790203e-9,1.7756461794307179e-9,1.1865945946209327e-9,2.374962907323011e-9,1.0266210610973292e-9,2.951358495727397e-9,9.492621264148933e-9,0
41556,1.4399319770631177e-9,1.860305113856271e-9,1.7776917950291454e-9,1.186162446303005e-9,2.3677590158545933e-9,1.0193033771101742e-9,2.9506692281074726e-9,9.477639571865686e-9,0
41557,1.4187698979575732e-9,1.8349100339223388e-9,1.779737410627573e-9,1.1857302979850773e-9,2.3605551243861762e-9,1.0119856931230191e-9,2.949979960487548e-9,9.46265787958244e-9,0
41558,1.3976078188520287e-9,1.8095149539884068e-9,1.7817830262260007e-9,1.1852981496671496e-9,2.3533512329177587e-9,1.0046680091358643e-9,2.9492906928676237e-9,9.447676187299193e-9,0
41559,1.376445739746484e-9,1.7841198740544749e-9,1.7838286418244283e-9,1.1848660013492218e-9,2.3461473414493416e-9,9.973503251487093e-10,2.9486014252476988e-9,9.432694495015948e-9,0
41560,1.1779398311299548e-9,1.7587247941205429e-9,1.7852020324414448e-9,1.1852207050271196e-9,2.3460918603914042e-9,9.933642576132323e-10,2.859885381156389e-9,7.715479055675911e-9,0
41561,9.794339225134256e-10,1.7333297141866109e-9,1.7865754230584616e-9,1.1855754087050173e-9,2.3460363793334664e-9,9.893781900777551e-10,2.7711693370650784e-9,5.998263616335876e-9,0
41562,9.758717099573971e-10,1.7324236927669134e-9,1.7886210386568891e-9,1.1857860629436059e-9,2.3388324878650493e-9,9.89629545337448e-10,2.754928855370085e-9,5.9870703193492734e-9,0
41563,9.723094974013689e-10,1.731517671347216e-9,1.7906666542553167e-9,1.1859967171821945e-9,2.331628596396632e-9,9.89880900597141e-10,2.7386883736750917e-9,5.975877022362672e-9,0
41564,9.687472848453404e-10,1.7306116499275187e-9,1.7927122698537444e-9,1.1862073714207828e-9,2.3244247049282147e-9,9.90132255856834e-10,2.7224478919800985e-9,5.96468372537607e-9,0
41565,9.65185072289312e-10,1.7307946195569518e-9,1.792437591730341e-9,1.1904746553963065e-9,2.3250349965655268e-9,9.90132255856834e-10,2.7062074102851053e-9,5.952739115585818e-9,0
41566,9.617652831964802e-10,1.7301837171032161e-9,1.793109816711752e-9,1.192259013626546e-9,2.3206571806265392e-9,9.897172878261912e-10,2.689776414087395e-9,5.940541946109124e-9,0
41567,9.594144830656794e-10,1.7357408216853976e-9,1.8175197788006994e-9,1.2267612631946084e-9,2.3134532891581217e-9,9.897172878261912e-10,2.673345417889684e-9,5.928590970063193e-9,0
41568,9.570636829348786e-10,1.741297926267579e-9,1.8419297408896468e-9,1.261263512762671e-9,2.3062493976897046e-9,9.897172878261912e-10,2.656914421691973e-9,5.916639994017263e-9,0
41569,9.547128828040779e-10,1.7468550308497603e-9,1.866339702978594e-9,1.2957657623307333e-9,2.299045506221287e-9,9.897172878261912e-10,2.640483425494262e-9,5.904689017971332e-9,0
41570,9.52362082673277e-10,1.7524121354319416e-9,1.8907496650675417e-9,1.3302680118987958e-9,2.29184161475287e-9,9.897172878261912e-10,2.6240524292965517e-9,5.8927380419254014e-9,0
41571,9.500112825424763e-10,1.7579692400141229e-9,1.9151596271564893e-9,1.3647702614668582e-9,2.2846377232844524e-9,9.897172878261912e-10,2.6076214330988408e-9,5.88078706587947e-9,0
41572,9.476604824116758e-10,1.7635263445963044e-9,1.9395695892454365e-9,1.3992725110349207e-9,2.2774338318160353e-9,9.897172878261912e-10,2.59119043690113e-9,5.86883608983354e-9,0
41573,9.444545995096577e-10,1.7667933177436959e-9,1.941615204843864e-9,1.4016888319809256e-9,2.2706732124068876e-9,9.897172878261912e-10,2.574759440703419e-9,5.857642792846938e-9,0
41574,9.43314669812047e-10,1.7312402058361912e-9,1.954011767169034e-9,1.4240552776152098e-9,1.959726366942496e-9,9.38936169762001e-10,2.5707244820449374e-9,5.829738083306063e-9,0
41575,9.421747401144364e-10,1.6956870939286863e-9,1.966408329494204e-9,1.4464217232494941e-9,1.6487795214781049e-9,8.881550516978107e-10,2.5666895233864554e-9,5.801833373765188e-9,0
41576,9.403930918443847e-10,1.6846938608283206e-9,1.978804891819374e-9,1.4899356142043095e-9,1.6523817554144288e-9,8.881550516978107e-10,2.5660002557665305e-9,5.773858635411844e-9,0
41577,9.38611443574333e-10,1.673700627727955e-9,1.9912014541445437e-9,1.5334495051591248e-9,1.6559839893507527e-9,8.881550516978107e-10,2.565310988146606e-9,5.7458838970585e-9,0
41578,9.368297953042813e-10,1.6627073946275892e-9,2.0035980164697138e-9,1.5769633961139402e-9,1.6595862232870765e-9,8.881550516978107e-10,2.5646217205266816e-9,5.7179091587051564e-9,0
41579,9.350481470342293e-10,1.6517141615272236e-9,2.0159945787948838e-9,1.6204772870687553e-9,1.6631884572234002e-9,8.881550516978107e-10,2.563932452906757e-9,5.689934420351813e-9,0
41580,9.332664987641776e-10,1.6407209284268579e-9,2.028391141120054e-9,1.6639911780235707e-9,1.6667906911597241e-9,8.881550516978107e-10,2.5632431852868327e-9,5.661959681998469e-9,0
41581,9.31484850494126e-10,1.6297276953264924e-9,2.040787703445224e-9,1.707505068978386e-9,1.670392925096048e-9,8.881550516978107e-10,2.562553917666908e-9,5.633984943645125e-9,0
41582,9.297032022240742e-10,1.6187344622261267e-9,2.0531842657703934e-9,1.7510189599332014e-9,1.673995159032372e-9,8.881550516978107e-10,2.5618646500469834e-9,5.606010205291781e-9,0
41583,9.279215539540224e-10,1.607741229125761e-9,2.0655808280955635e-9,1.7945328508880167e-9,1.6775973929686956e-9,8.881550516978107e-10,2.561175382427059e-9,5.578035466938437e-9,0
41584,9.261399056839707e-10,1.5967479960253954e-9,2.0779773904207335e-9,1.838046741842832e-9,1.6811996269050195e-9,8.881550516978107e-10,2.5604861148071344e-9,5.550060728585093e-9,0
41585,9.243582574139189e-10,1.5857547629250297e-9,2.0903739527459035e-9,1.8815606327976472e-9,1.6848018608413434e-9,8.881550516978107e-10,2.5597968471872096e-9,5.5220859902317496e-9,0
41586,9.225766091438672e-10,1.574761529824664e-9,2.102770515071073e-9,1.9250745237524628e-9,1.6884040947776673e-9,8.881550516978107e-10,2.559107579567285e-9,5.494111251878406e-9,0
41587,9.207949608738155e-10,1.5637682967242983e-9,2.115167077396243e-9,1.968588414707278e-9,1.6920063287139912e-9,8.881550516978107e-10,2.5584183119473607e-9,5.466136513525062e-9,0
41588,9.190133126037636e-10,1.5527750636239327e-9,2.127563639721413e-9,2.0121023056620935e-9,1.695608562650315e-9,8.881550516978107e-10,2.557729044327436e-9,5.438161775171717e-9,0
41589,9.172316643337119e-10,1.541781830523567e-9,2.139960202046583e-9,2.0556161966169086e-9,1.6992107965866388e-9,8.881550516978107e-10,2.5570397767075113e-9,5.410187036818373e-9,0
41590,9.154500160636602e-10,1.5307885974232015e-9,2.152356764371753e-9,2.099130087571724e-9,1.7028130305229627e-9,8.881550516978107e-10,2.556350509087587e-9,5.3822122984650296e-9,0
41591,9.136683677936084e-10,1.5197953643228358e-9,2.1647533266969228e-9,2.1426439785265394e-9,1.7064152644592866e-9,8.881550516978107e-10,2.5556612414676624e-9,5.354237560111686e-9,0
41592,9.118867195235567e-10,1.5088021312224701e-9,2.177149889022093e-9,2.1861578694813545e-9,1.7100174983956103e-9,8.881550516978107e-10,2.554971973847738e-9,5.326262821758342e-9,0
41593,9.10105071253505e-10,1.4978088981221045e-9,2.189546451347263e-9,2.22967176043617e-9,1.7136197323319342e-9,8.881550516978107e-10,2.554282706227813e-9,5.298288083404998e-9,0
41594,9.083234229834532e-10,1.4868156650217388e-9,2.201943013672433e-9,2.273185651390985e-9,1.717221966268258e-9,8.881550516978107e-10,2.5535934386078886e-9,5.270313345051654e-9,0
41595,9.065417747134015e-10,1.4758224319213731e-9,2.2143395759976025e-9,2.3166995423458008e-9,1.720824200204582e-9,8.881550516978107e-10,2.552904170987964e-9,5.24233860669831e-9,0
41596,9.054018450157908e-10,1.4767284533410704e-9,2.2267361383227725e-9,2.359858729622718e-9,1.7260336556084016e-9,8.785989147864926e-10,2.548869212329482e-9,5.238354948016333e-9,0
41597,9.042619153181803e-10,1.477634474760768e-9,2.2391327006479425e-9,2.4030179168996357e-9,1.7312431110122214e-9,8.690427778751744e-10,2.544834253671e-9,5.234371289334356e-9,0
41598,9.042619153181803e-10,1.4720773701785865e-9,2.2512545848497093e-9,2.43692228902896e-9,1.6833067542981833e-9,8.428641753250761e-10,2.5194984917545096e-9,5.206466579793482e-9,0
41599,9.042619153181803e-10,1.4665202655964051e-9,2.2633764690514756e-9,2.470826661158284e-9,1.635370397584145e-9,8.166855727749778e-10,2.494162729838019e-9,5.178561870252606e-9,0
41600,9.042619153181803e-10,1.4609631610142238e-9,2.2754983532532424e-9,2.504731033287608e-9,1.587434040870107e-9,7.905069702248794e-10,2.468826967921528e-9,5.150657160711732e-9,0
41601,9.042619153181803e-10,1.4554060564320425e-9,2.287620237455009e-9,2.5386354054169325e-9,1.5394976841560688e-9,7.64328367674781e-10,2.4434912060050374e-9,5.122752451170856e-9,0
41602,9.046897276998076e-10,1.4500319214792943e-9,2.293453465472694e-9,2.5482774437646756e-9,1.4863518720382107e-9,7.390634862725323e-10,2.4190801599320146e-9,5.0926129019860685e-9,0
41603,9.046897276998076e-10,1.4437724296286608e-9,2.3023081528478153e-9,2.5412282953244987e-9,1.4337602940954972e-9,7.125537007783556e-10,2.393744398015524e-9,5.06247335280128e-9,0
41604,9.046897276998076e-10,1.4375129377780272e-9,2.3111628402229363e-9,2.5341791468843214e-9,1.3811687161527838e-9,6.860439152841788e-10,2.3684086360990334e-9,5.032333803616492e-9,0
41605,9.046897276998076e-10,1.4312534459273937e-9,2.3200175275980577e-9,2.5271299984441445e-9,1.3285771382100703e-9,6.595341297900022e-10,2.3430728741825424e-9,5.002194254431704e-9,0
41606,9.046897276998076e-10,1.4249939540767601e-9,2.328872214973179e-9,2.5200808500039673e-9,1.2759855602673567e-9,6.330243442958255e-10,2.317737112266052e-9,4.972054705246916e-9,0
41607,9.046897276998076e-10,1.4187344622261266e-9,2.3377269023483006e-9,2.5130317015637904e-9,1.2233939823246433e-9,6.065145588016487e-10,2.2924013503495612e-9,4.941915156062128e-9,0
41608,9.046897276998076e-10,1.412474970375493e-9,2.346581589723422e-9,2.5059825531236135e-9,1.1708024043819298e-9,5.80004773307472e-10,2.2670655884330702e-9,4.91177560687734e-9,0
41609,8.682796661596229e-10,1.3920674216136309e-9,2.355486880228143e-9,2.5041315900940947e-9,1.163597936509282e-9,5.773473949504873e-10,2.267256102935788e-9,4.855618134273962e-9,0
41610,8.400651866616761e-10,1.3440336439816079e-9,2.3646162457266676e-9,2.500984182110793e-9,1.1466963879864125e-9,5.720247234321602e-10,2.2671383788240163e-9,4.7918286653169e-9,0
41611,8.278806636658574e-10,1.3440336439816079e-9,2.3676377050841043e-9,2.499975836035628e-9,1.1253615424666176e-9,5.687808494692254e-10,2.2587045095523233e-9,4.727937336268975e-9,0
41612,8.156961406700385e-10,1.3440336439816079e-9,2.370659164441541e-9,2.4989674899604635e-9,1.1040266969468227e-9,5.655369755062906e-10,2.250270640280631e-9,4.664046007221049e-9,0
41613,8.035116176742196e-10,1.3440336439816079e-9,2.3736806237989774e-9,2.497959143885299e-9,1.0826918514270279e-9,5.622931015433558e-10,2.2418367710089383e-9,4.6001546781731235e-9,0
41614,7.913270946784008e-10,1.3440336439816079e-9,2.376702083156414e-9,2.496950797810134e-9,1.061357005907233e-9,5.590492275804211e-10,2.233402901737246e-9,4.536263349125197e-9,0
41615,7.79142571682582e-10,1.3440336439816079e-9,2.379723542513851e-9,2.4959424517349695e-9,1.0400221603874382e-9,5.558053536174863e-10,2.2249690324655533e-9,4.472372020077272e-9,0
41616,7.669580486867631e-10,1.3440336439816079e-9,2.382745001871287e-9,2.494934105659805e-9,1.0186873148676433e-9,5.525614796545515e-10,2.2165351631938604e-9,4.408480691029346e-9,0
41617,7.547735256909443e-10,1.3440336439816079e-9,2.385766461228724e-9,2.4939257595846404e-9,9.973524693478484e-10,5.493176056916167e-10,2.208101293922168e-9,4.344589361981421e-9,0
41618,7.419478261147219e-10,1.3459371716357193e-9,2.3860194768767225e-9,2.507159759829139e-9,9.75851180654241e-10,5.464049146727602e-10,2.199785148762247e-9,4.2809442263642595e-9,0
41619,7.315449513889547e-10,1.345733537484474e-9,2.379911570735634e-9,2.5061514137539743e-9,9.54516335134446e-10,5.431610407098254e-10,2.1913512794905546e-9,4.217299090747097e-9,0
41620,7.211420766631876e-10,1.3455299033332289e-9,2.373803664594546e-9,2.5051430676788097e-9,9.331814896146512e-10,5.399171667468906e-10,2.182917410218862e-9,4.153653955129936e-9,0
41621,7.107392019374206e-10,1.3453262691819836e-9,2.367695758453458e-9,2.5041347216036448e-9,9.118466440948563e-10,5.366732927839558e-10,2.174483540947169e-9,4.090008819512775e-9,0
41622,7.003363272116535e-10,1.3451226350307385e-9,2.36158785231237e-9,2.5031263755284802e-9,8.905117985750615e-10,5.33429418821021e-10,2.1660496716754766e-9,4.0263636838956125e-9,0
41623,6.899334524858864e-10,1.3449190008794932e-9,2.355479946171282e-9,2.5021180294533157e-9,8.691769530552666e-10,5.301855448580862e-10,2.157615802403784e-9,3.962718548278451e-9,0
41624,6.57871913505518e-10,1.303369013771161e-9,2.35331146183825e-9,2.5045343503993206e-9,8.650210613480287e-10,5.285217153333367e-10,2.145174831143729e-9,3.6747936663101217e-9,0
41625,6.258103745251495e-10,1.2618190266628287e-9,2.351142977505218e-9,2.5069506713453255e-9,8.608651696407908e-10,5.268578858085871e-10,2.132733859883674e-9,3.3868687843417923e-9,0
41626,6.154074997993824e-10,1.2607300356136982e-9,2.351142977505218e-9,2.507582634061091e-9,8.567092779335528e-10,5.2153521429026e-10,2.1085753390849018e-9,3.2770730697437874e-9,0
41627,6.050046250736154e-10,1.2596410445645676e-9,2.351142977505218e-9,2.5082145967768566e-9,8.525533862263149e-10,5.162125427719331e-10,2.0844168182861294e-9,3.1672773551457825e-9,0
41628,5.946017503478483e-10,1.2585520535154372e-9,2.351142977505218e-9,2.508846559492622e-9,8.48397494519077e-10,5.10889871253606e-10,2.060258297487357e-9,3.0574816405477775e-9,0
41629,5.841988756220811e-10,1.2574630624663065e-9,2.351142977505218e-9,2.5094785222083877e-9,8.442416028118391e-10,5.05567199735279e-10,2.0360997766885845e-9,2.9476859259497726e-9,0
41630,5.737960008963141e-10,1.256374071417176e-9,2.351142977505218e-9,2.510110484924153e-9,8.400857111046011e-10,5.002445282169519e-10,2.0119412558898125e-9,2.8378902113517677e-9,0
41631,5.60827877856895e-10,1.2552850803680454e-09,2.3520898806100322e-9,2.5081820772546046e-9,8.359298193973632e-10,4.948380716120607e-10,1.987900459202812e-9,2.727848303322999e-9,0
41632,5.478597548174759e-10,1.2541960893189148e-9,2.3530367837148467e-9,2.5062536695850557e-9,8.317739276901253e-10,4.894316150071693e-10,1.963859662515811e-9,2.6178063952942296e-9,0
41633,5.348916317780568e-10,1.2531070982697844e-9,2.353983686819661e-9,2.5043252619155073e-9,8.2761803598288735e-10,4.84025158402278e-10,1.939818865828811e-9,2.507764487265461e-9,0
41634,5.219235087386378e-10,1.2520181072206537e-9,2.3549305899244753e-9,2.5023968542459584e-9,8.234621442756494e-10,4.786187017973866e-10,1.91577806914181e-9,2.397722579236692e-9,0
41635,5.089553856992187e-10,1.2509291161715233e-9,2.3558774930292894e-9,2.50046844657641e-9,8.193062525684115e-10,4.732122451924953e-10,1.89173727245481e-9,2.2876806712079227e-9,0
41636,4.959872626597995e-10,1.2498401251223927e-9,2.356824396134104e-9,2.498540038906861e-9,8.151503608611736e-10,4.678057885876039e-10,1.867696475767809e-9,2.177638763179154e-9,0
41637,4.830191396203805e-10,1.2487511340732622e-9,2.357771299238918e-9,2.4966116312373126e-9,8.109944691539356e-10,4.6239933198271263e-10,1.8436556790808086e-9,2.067596855150385e-9,0
41638,4.700510165809614e-10,1.2476621430241316e-9,2.3587182023437325e-9,2.4946832235677638e-9,8.068385774466977e-10,4.569928753778213e-10,1.819614882393808e-9,1.957554947121616e-9,0
41639,4.596481418551943e-10,1.2489547682245073e-9,2.358942277337536e-9,2.4939629763712178e-9,8.07337906968135e-10,4.615575237148908e-10,1.7955740857068074e-9,1.849766977503797e-9,0
41640,4.492452671294272e-10,1.250247393424883e-9,2.35916635233134e-9,2.4932427291746714e-9,8.078372364895724e-10,4.661221720519603e-10,1.7715332890198069e-9,1.7419790078859778e-9,0
41641,4.3884239240366015e-10,1.2515400186252588e-9,2.3593904273251433e-9,2.4925224819781254e-9,8.083365660110098e-10,4.706868203890298e-10,1.7474924923328063e-9,1.6341910382681588e-9,0
41642,4.2843951767789304e-10,1.2528326438256345e-9,2.359614502318947e-9,2.491802234781579e-9,8.088358955324473e-10,4.752514687260993e-10,1.7234516956458058e-9,1.5264030686503397e-9,0
41643,4.18036642952126e-10,1.2541252690260105e-9,2.3598385773127506e-9,2.491081987585033e-9,8.093352250538846e-10,4.798161170631687e-10,1.6994108989588053e-9,1.4186150990325206e-9,0
41644,4.076337682263589e-10,1.2554178942263862e-9,2.3600626523065545e-9,2.4903617403884866e-9,8.09834554575322e-10,4.843807654002383e-10,1.6753701022718048e-9,1.3108271294147016e-9,0
41645,3.9723089350059177e-10,1.256710519426762e-9,2.360286727300358e-9,2.4896414931919406e-9,8.103338840967594e-10,4.889454137373078e-10,1.6513293055848041e-9,1.2030391597968825e-9,0
41646,3.868280187748247e-10,1.2580031446271376e-9,2.3605108022941614e-9,2.488921245995394e-9,8.108332136181967e-10,4.935100620743772e-10,1.6272885088978036e-9,1.0952511901790633e-9,0
41647,3.764251440490576e-10,1.2592957698275134e-9,2.3607348772879653e-9,2.488200998798848e-9,8.113325431396341e-10,4.980747104114468e-10,1.603247712210803e-9,9.874632205612444e-10,0
41648,3.754281798066812e-10,1.2614737519257744e-9,2.3606842741583655e-9,2.485840442811372e-9,7.842900655030428e-10,4.934104473790977e-10,1.6024407204791067e-9,9.33655180204001e-10,0
41649,3.7720982807673296e-10,1.261748206369924e-9,2.3606842741583655e-9,2.4862617512885487e-9,7.881697047290541e-10,5.020528631425661e-10,1.6006811562338224e-9,9.35662925184187e-10,0
41650,3.7899147634678467e-10,1.262022660814074e-9,2.3606842741583655e-9,2.486683059765726e-9,7.920493439550654e-10,5.106952789060346e-10,1.5989215919885382e-9,9.376706701643728e-10,0
41651,3.8077312461683643e-10,1.2622971152582236e-9,2.3606842741583655e-9,2.487104368242903e-9,7.959289831810767e-10,5.19337694669503e-10,1.5971620277432538e-9,9.396784151445588e-10,0
41652,3.825547728868882e-10,1.2625715697023735e-9,2.3606842741583655e-9,2.4875256767200798e-9,7.998086224070879e-10,5.279801104329716e-10,1.5954024634979697e-9,9.416861601247446e-10,0
41653,3.843364211569399e-10,1.2628460241465231e-9,2.3606842741583655e-9,2.487946985197257e-9,8.036882616330992e-10,5.366225261964401e-10,1.5936428992526853e-9,9.436939051049305e-10,0
41654,3.8611806942699166e-10,1.263120478590673e-9,2.3606842741583655e-9,2.4883682936744337e-9,8.075679008591105e-10,5.452649419599085e-10,1.5918833350074012e-9,9.457016500851163e-10,0
41655,3.878997176970434e-10,1.2633949330348226e-9,2.3606842741583655e-9,2.488789602151611e-9,8.114475400851218e-10,5.53907357723377e-10,1.5901237707621168e-9,9.477093950653023e-10,0
41656,3.896813659670952e-10,1.2636693874789723e-9,2.3606842741583655e-9,2.489210910628788e-9,8.153271793111332e-10,5.625497734868455e-10,1.5883642065168326e-9,9.49717140045488e-10,0
41657,3.914630142371469e-10,1.2639438419231222e-9,2.3606842741583655e-9,2.4896322191059648e-9,8.192068185371444e-10,5.71192189250314e-10,1.5866046422715483e-9,9.51724885025674e-10,0
41658,3.9324466250719866e-10,1.2642182963672718e-9,2.3606842741583655e-9,2.490053527583142e-9,8.230864577631557e-10,5.798346050137825e-10,1.584845078026264e-9,9.5373263000586e-10,0
41659,3.950263107772504e-10,1.2644927508114217e-9,2.3606842741583655e-9,2.490474836060319e-9,8.26966096989167e-10,5.884770207772509e-10,1.5830855137809797e-9,9.557403749860458e-10,0
41660,3.968079590473022e-10,1.2647672052555713e-9,2.3606842741583655e-9,2.490896144537496e-9,8.308457362151783e-10,5.971194365407194e-10,1.5813259495356956e-9,9.577481199662318e-10,0
41661,3.968079590473022e-10,1.2635660648699122e-9,2.362780492886393e-9,2.496870342103229e-9,8.295159200373697e-10,5.971194365407194e-10,1.5803733770221078e-9,9.584930665142027e-10,0
41662,3.968079590473022e-10,1.262364924484253e-9,2.3648767116144202e-9,2.5028445396689623e-9,8.281861038595613e-10,5.971194365407194e-10,1.5794208045085198e-9,9.592380130621737e-10,0
41663,3.968079590473022e-10,1.2611637840985938e-9,2.3669729303424476e-9,2.5088187372346953e-9,8.268562876817528e-10,5.971194365407194e-10,1.578468231994932e-9,9.599829596101448e-10,0
41664,3.968079590473022e-10,1.2599626437129346e-9,2.3690691490704745e-9,2.5147929348004283e-9,8.255264715039443e-10,5.971194365407194e-10,1.5775156594813442e-9,9.607279061581156e-10,0
41665,3.968079590473022e-10,1.2587615033272755e-9,2.371165367798502e-9,2.5207671323661613e-9,8.241966553261358e-10,5.971194365407194e-10,1.5765630869677562e-9,9.614728527060867e-10,0
41666,3.968079590473022e-10,1.2575603629416163e-9,2.3732615865265292e-9,2.5267413299318947e-9,8.228668391483273e-10,5.971194365407194e-10,1.5756105144541683e-9,9.622177992540578e-10,0
41667,3.968079590473022e-10,1.2563592225559571e-9,2.3753578052545566e-9,2.5327155274976277e-9,8.215370229705188e-10,5.971194365407194e-10,1.5746579419405805e-9,9.629627458020286e-10,0
41668,3.968079590473022e-10,1.2572652439756546e-9,2.3766299896123737e-9,2.5375481693896376e-9,8.14388612560039e-10,5.983643406326475e-10,1.5755826577840486e-9,9.637013260943206e-10,0
41669,3.968079590473022e-10,1.258171265395352e-9,2.3779021739701913e-9,2.5423808112816474e-9,8.072402021495592e-10,5.996092447245755e-10,1.5765073736275169e-9,9.644399063866127e-10,0
41670,3.9402934653487396e-10,1.2590772868150493e-9,2.3555378274796712e-9,2.5472134531736573e-9,8.000917917390794e-10,5.99190319291754e-10,1.5774320894709851e-9,9.651784866789046e-10,0
41671,3.912507340224458e-10,1.2599833082347466e-9,2.3331734809891516e-9,2.552046095065667e-9,7.929433813285995e-10,5.987713938589325e-10,1.5783568053144534e-9,9.659170669711966e-10,0
41672,3.8847212151001763e-10,1.2608893296544442e-9,2.3108091344986315e-9,2.556878736957677e-9,7.857949709181198e-10,5.98352468426111e-10,1.5792815211579216e-9,9.666556472634887e-10,0
41673,3.8569350899758946e-10,1.2617953510741415e-9,2.288444788008112e-9,2.561711378849687e-9,7.786465605076399e-10,5.979335429932895e-10,1.58020623700139e-9,9.673942275557807e-10,0
41674,3.829148964851613e-10,1.2627013724938388e-9,2.266080441517592e-9,2.5665440207416967e-9,7.714981500971601e-10,5.975146175604679e-10,1.581130952844858e-9,9.681328078480726e-10,0
41675,3.8013628397273307e-10,1.2636073939135363e-9,2.2454870325020965e-9,2.5646156130721482e-9,7.649039738618247e-10,5.975146175604679e-10,1.581130952844858e-9,9.681264415923937e-10,0
41676,3.7693040107071503e-10,1.2761470421366154e-9,2.2454870325020965e-9,2.5646156130721482e-9,7.629650188551647e-10,5.961819709797968e-10,1.5812486769566299e-9,9.681264415923937e-10,0
41677,3.7372451816869693e-10,1.2886866903596945e-9,2.2454870325020965e-9,2.5646156130721482e-9,7.610260638485047e-10,5.948493243991256e-10,1.5813664010684018e-9,9.681264415923937e-10,0
41678,3.7051863526667884e-10,1.2888903245109396e-9,2.2299317577882704e-9,2.5652475757879136e-9,7.542654444393568e-10,5.931017097878117e-10,1.5811758865656842e-9,9.681200753367148e-10,0
41679,3.673127523646608e-10,1.2890939586621849e-9,2.2143764830744442e-9,2.5658795385036793e-9,7.47504825030209e-10,5.913540951764979e-10,1.5809853720629665e-9,9.681137090810357e-10,0
41680,3.641068694626427e-10,1.28929759281343e-9,2.198821208360618e-9,2.5665115012194447e-9,7.407442056210611e-10,5.896064805651841e-10,1.580794857560249e-9,9.681073428253568e-10,0
41681,3.609009865606246e-10,1.2895012269646753e-9,2.1832659336467923e-9,2.5671434639352104e-9,7.339835862119134e-10,5.878588659538702e-10,1.5806043430575315e-9,9.681009765696777e-10,0
41682,3.5769510365860657e-10,1.2897048611159206e-9,2.167710658932966e-9,2.5677754266509758e-9,7.272229668027656e-10,5.861112513425564e-10,1.5804138285548138e-9,9.680946103139988e-10,0
41683,3.5726783326901664e-10,1.2654282634803994e-9,2.1765653463080876e-9,2.57033579703629e-9,7.244517959270432e-10,5.814588605167437e-10,1.5804138285548138e-9,9.683408037447629e-10,0
41684,3.5684056287942677e-10,1.2411516658448784e-9,2.185420033683209e-9,2.572896167421604e-9,7.216806250513209e-10,5.768064696909311e-10,1.5804138285548138e-9,9.685869971755268e-10,0
41685,3.5641329248983684e-10,1.2410601810301619e-9,2.19350128981772e-9,2.574248377333916e-9,7.189094541755985e-10,5.721540788651186e-10,1.579298598208628e-9,9.386936414215027e-10,0
41686,3.5598602210024697e-10,1.2409686962154453e-9,2.201582545952231e-9,2.5756005872462277e-9,7.161382832998762e-10,5.675016880393059e-10,1.5781833678624422e-9,9.088002856674786e-10,0
41687,3.5555875171065704e-10,1.2408772114007288e-9,2.209663802086742e-9,2.5769527971585394e-9,7.133671124241538e-10,5.628492972134933e-10,1.5770681375162564e-9,8.789069299134547e-10,0
41688,3.5491757513025345e-10,1.240785726586012e-9,2.209663802086742e-9,2.575744636685537e-9,7.10152669489162e-10,5.58280691474245e-10,1.5780207100298444e-9,8.497712532187595e-10,0
41689,3.5427639854984985e-10,1.2406942417712955e-9,2.209663802086742e-9,2.5745364762125345e-9,7.069382265541702e-10,5.537120857349966e-10,1.5789732825434322e-9,8.206355765240644e-10,0
41690,3.536352219694462e-10,1.240602756956579e-9,2.209663802086742e-9,2.573328315739532e-9,7.037237836191783e-10,5.491434799957483e-10,1.57992585505702e-9,7.914998998293693e-10,0
41691,3.529940453890426e-10,1.2405112721418624e-9,2.209663802086742e-9,2.5721201552665296e-9,7.005093406841865e-10,5.445748742565e-10,1.580878427570608e-9,7.623642231346742e-10,0
41692,3.52352868808639e-10,1.2404197873271458e-9,2.209663802086742e-9,2.570911994793527e-9,6.972948977491946e-10,5.400062685172517e-10,1.5818310000841958e-9,7.332285464399791e-10,0
41693,3.5171169222823535e-10,1.2403283025124293e-9,2.209663802086742e-9,2.5697038343205246e-9,6.940804548142028e-10,5.354376627780034e-10,1.5827835725977836e-9,7.04092869745284e-10,0
41694,3.5171169222823535e-10,1.2409392049661647e-9,2.2088903708461317e-9,2.5688503775254196e-9,6.90866011879211e-10,5.325328865635046e-10,1.5816683422515979e-9,6.739533205604959e-10,0
