time,channel1,channel2,channel3,channel4,channel5,channel6,channel7,channel8,class
50033,9.862545405868085e-10,4.883499368124613e-9,1.438980779157022e-8,1.8730564179511773e-8,6.328395866980191e-8,1.9820668635410477e-8,4.041950263924863e-9,1.1319731741244373e-9,0
50034,9.694463805956224e-10,4.8130693920489146e-9,1.4185222855404401e-8,1.871699742546834e-8,6.319582134806416e-8,1.974622847781346e-8,4.04427990409433e-9,1.1297487049157894e-9,0
50035,9.526382206044364e-10,4.7426394159732165e-9,1.3980637919238582e-8,1.870343067142491e-8,6.310768402632642e-8,1.967178832021644e-8,4.046609544263797e-9,1.1275242357071412e-9,0
50036,9.514286993098819e-10,4.7568463191217e-9,1.3980637919238582e-8,1.858262787747302e-8,6.291048401571935e-8,1.9578406277506895e-8,4.036628105052154e-9,1.1234394022183586e-9,0
50037,9.50219178015327e-10,4.771053222270184e-9,1.3980637919238582e-8,1.8461825083521132e-8,6.271328400511229e-8,1.948502423479735e-8,4.026646665840512e-9,1.1193545687295759e-9,0
50038,9.490096567207725e-10,4.785260125418668e-9,1.3980637919238582e-8,1.8341022289569243e-8,6.251608399450522e-8,1.9391642192087807e-8,4.016665226628869e-9,1.1152697352407933e-9,0
50039,9.47800135426218e-10,4.799467028567151e-9,1.3980637919238582e-8,1.8220219495617355e-8,6.231888398389815e-8,1.9298260149378262e-8,4.006683787417227e-9,1.1111849017520107e-9,0
50040,9.465906141316633e-10,4.8136739317156345e-9,1.3980637919238582e-8,1.8099416701665466e-8,6.212168397329109e-8,1.920487810666872e-8,3.996702348205585e-9,1.107100068263228e-9,0
50041,9.453810928371087e-10,4.827880834864118e-9,1.3980637919238582e-8,1.7978613907713578e-8,6.192448396268402e-8,1.9111496063959177e-8,3.986720908993942e-9,1.1030152347744454e-9,0
50042,9.441715715425541e-10,4.842087738012602e-9,1.3980637919238582e-8,1.785781111376169e-8,6.172728395207696e-8,1.9018114021249633e-8,3.9767394697823e-9,1.0989304012856628e-9,0
50043,9.429620502479996e-10,4.856294641161086e-9,1.3980637919238582e-8,1.7737008319809804e-8,6.153008394146989e-8,1.892473197854009e-8,3.966758030570658e-9,1.09484556779688e-9,0
50044,9.41752528953445e-10,4.870501544309569e-9,1.3980637919238582e-8,1.7616205525857915e-8,6.133288393086282e-8,1.8831349935830545e-8,3.956776591359015e-9,1.0907607343080975e-9,0
50045,9.424693740961108e-10,4.9053235973483754e-9,1.4168410938743745e-8,1.7668826426293704e-8,6.119156051145387e-8,1.8795632911535787e-8,3.951757175849431e-9,1.0882119998085024e-9,0
50046,9.456739078594933e-10,4.924329109076998e-9,1.4252839433302653e-8,1.7512616280729075e-8,6.101072609991958e-8,1.8702197202119535e-8,3.9783679702129755e-9,1.0967856113521479e-9,0
50047,9.488784416228759e-10,4.94333462080562e-9,1.4337267927861558e-8,1.7356406135164446e-8,6.082989168838528e-8,1.8608761492703287e-8,4.004978764576519e-9,1.1053592228957933e-9,0
50048,9.520829753862584e-10,4.962340132534241e-9,1.4421696422420465e-8,1.720019598959982e-8,6.064905727685097e-8,1.8515325783287036e-8,4.031589558940062e-9,1.113932834439439e-9,0
50049,9.55287509149641e-10,4.981345644262863e-9,1.450612491697937e-8,1.704398584403519e-8,6.046822286531668e-8,1.8421890073870785e-8,4.058200353303606e-9,1.1225064459830844e-9,0
50050,9.584920429130235e-10,5.0003511559914854e-9,1.4590553411538278e-8,1.688777569847056e-8,6.028738845378237e-8,1.8328454364454537e-8,4.08481114766715e-9,1.1310800575267298e-9,0
50051,9.61696576676406e-10,5.019356667720108e-9,1.4674981906097183e-8,1.6731565552905935e-8,6.010655404224806e-8,1.8235018655038285e-8,4.111421942030693e-9,1.1396536690703752e-9,0
50052,9.653251405600698e-10,5.03310258964231e-9,1.4750277116390963e-8,1.6731519462675468e-8,6.006704305012271e-8,1.810918260272335e-8,4.07541136085025e-9,1.1470154469157802e-9,0
50053,9.689537044437336e-10,5.046848511564513e-9,1.4825572326684742e-8,1.6731473372445004e-8,6.002753205799735e-8,1.7983346550408412e-8,4.0394007796698065e-9,1.154377224761185e-9,0
50054,9.725822683273975e-10,5.060594433486715e-9,1.4900867536978522e-8,1.673142728221454e-8,5.9988021065872e-8,1.7857510498093476e-8,4.003390198489363e-9,1.1617390026065899e-9,0
50055,9.762108322110613e-10,5.074340355408917e-9,1.4976162747272302e-8,1.6731381191984072e-8,5.994851007374664e-8,1.773167444577854e-8,3.96737961730892e-9,1.1691007804519946e-9,0
50056,9.798393960947252e-10,5.08808627733112e-9,1.5051457957566082e-8,1.673133510175361e-8,5.990899908162128e-8,1.76058383934636e-8,3.931369036128476e-9,1.1764625582973996e-9,0
50057,9.83467959978389e-10,5.1018321992533225e-9,1.512675316785986e-8,1.673128901152314e-8,5.986948808949593e-8,1.7480002341148663e-8,3.895358454948033e-9,1.1838243361428043e-9,0
50058,9.870965238620528e-10,5.1155781211755255e-9,1.520204837815364e-8,1.6731242921292677e-8,5.982997709737056e-8,1.7354166288833726e-8,3.859347873767589e-9,1.1911861139882093e-9,0
50059,9.907250877457167e-10,5.129324043097728e-9,1.527734358844742e-8,1.6731196831062213e-8,5.979046610524521e-8,1.722833023651879e-8,3.823337292587146e-9,1.198547891833614e-9,0
50060,9.943536516293805e-10,5.14306996501993e-9,1.53526387987412e-8,1.6731150740831745e-8,5.975095511311985e-8,1.7102494184203853e-8,3.7873267114067025e-9,1.205909669679019e-9,0
50061,9.90426195758014e-10,5.164863951476032e-9,1.5441148456933207e-8,1.640901467647337e-8,5.854786514199096e-8,1.6210624153602782e-8,3.6233262119906437e-9,1.184398735639979e-9,0
50062,9.929138843787306e-10,5.181791314693408e-9,1.5468927922756906e-8,1.6384072900904063e-8,5.776937047259445e-8,1.6136130329299055e-8,3.653762905875275e-9,1.193890174142905e-9,0
50063,9.954015729994473e-10,5.198718677910784e-9,1.549670738858061e-8,1.6359131125334757e-8,5.6990875803197934e-8,1.606163650499533e-8,3.6841995997599063e-9,1.2033816126458313e-9,0
50064,9.97889261620164e-10,5.215646041128159e-9,1.5524486854404308e-8,1.6334189349765454e-8,5.621238113380142e-8,1.5987142680691603e-8,3.7146362936445376e-9,1.2128730511487573e-9,0
50065,1.0003769502408809e-9,5.2325734043455356e-9,1.5552266320228007e-8,1.6309247574196147e-8,5.5433886464404907e-8,1.591264885638788e-8,3.745072987529169e-9,1.2223644896516836e-9,0
50066,1.0028646388615974e-9,5.249500767562912e-9,1.5580045786051706e-8,1.6284305798626844e-8,5.465539179500839e-8,1.583815503208415e-8,3.7755096814138e-9,1.2318559281546097e-9,0
50067,1.0066426487391126e-9,5.265219051446846e-9,1.5532530041581625e-8,1.6259410113288005e-8,5.3874869629001166e-8,1.5761422185423665e-8,3.763028099748621e-9,1.2286889216251077e-9,0
50068,1.0066426487391126e-9,5.2567931417290845e-9,1.5473591054471265e-8,1.6259410113288005e-8,5.3099482995894084e-8,1.568468933876318e-8,3.751379898901286e-9,1.2252924583557858e-9,0
50069,1.0066426487391126e-9,5.248367232011323e-9,1.54146520673609e-8,1.6259410113288005e-8,5.2324096362787e-8,1.5607956492102693e-8,3.739731698053952e-9,1.2218959950864637e-9,0
50070,1.0066426487391126e-9,5.23994132229356e-9,1.535571308025054e-8,1.6259410113288005e-8,5.154870972967991e-8,1.5531223645442206e-8,3.728083497206618e-9,1.2184995318171415e-9,0
50071,1.0066426487391126e-9,5.2315154125757984e-9,1.5296774093140178e-8,1.6259410113288005e-8,5.077332309657283e-8,1.545449079878172e-8,3.716435296359284e-9,1.2151030685478194e-9,0
50072,1.0066426487391126e-9,5.223089502858037e-9,1.5237835106029815e-8,1.6259410113288005e-8,4.999793646346574e-8,1.5377757952121234e-8,3.7047870955119495e-9,1.2117066052784973e-9,0
50073,1.0002275042470294e-9,5.198945309256339e-9,1.513298930231643e-8,1.6060830671014517e-8,4.968184852646288e-8,1.53395121052535e-8,3.6974890547729214e-9,1.2035520675769255e-9,0
50074,9.985878758668753e-10,5.1748011156546416e-9,1.513686665873865e-8,1.6066006682817404e-8,4.920135856837184e-8,1.5243622706653663e-8,3.669420262262773e-9,1.1922703629834186e-9,0
50075,9.969482474867211e-10,5.1506569220529444e-09,1.5140744015160875e-8,1.607118269462029e-8,4.87208686102808e-8,1.5147733308053825e-8,3.6413514697526248e-9,1.1809886583899114e-9,0
50076,9.95308619106567e-10,5.1265127284512464e-9,1.51446213715831e-8,1.6076358706423178e-8,4.824037865218976e-8,1.505184390945399e-8,3.613282677242477e-9,1.1697069537964043e-9,0
50077,9.93668990726413e-10,5.102368534849549e-9,1.514849872800532e-8,1.6081534718226068e-8,4.775988869409873e-8,1.4955954510854154e-8,3.5852138847323286e-9,1.1584252492028974e-9,0
50078,9.92029362346259e-10,5.078224341247852e-9,1.5152376084427546e-08,1.6086710730028955e-8,4.727939873600769e-8,1.486006511225432e-8,3.5571450922221807e-9,1.1471435446093902e-9,0
50079,9.903897339661048e-10,5.054080147646155e-9,1.515625344084977e-8,1.6091886741831842e-8,4.679890877791665e-8,1.4764175713654484e-8,3.5290762997120324e-9,1.1358618400158833e-9,0
50080,9.887501055859506e-10,5.029935954044457e-9,1.5160130797271995e-8,1.609706275363473e-8,4.631841881982561e-8,1.4668286315054649e-8,3.501007507201884e-9,1.1245801354223761e-9,0
50081,9.871104772057965e-10,5.00579176044276e-9,1.5164008153694216e-8,1.6102238765437616e-8,4.5837928861734574e-8,1.4572396916454812e-8,3.4729387146917362e-9,1.113298430828869e-9,0
50082,9.854708488256423e-10,5.00579176044276e-9,1.5235008354312995e-8,1.611267473008641e-8,4.532852746491647e-8,1.4508384783990859e-8,3.444036541363742e-9,1.102016726235362e-9,0
50083,9.838312204454882e-10,5.00579176044276e-9,1.5306008554931773e-8,1.6123110694735203e-8,4.481912606809838e-8,1.4444372651526905e-8,3.415134368035748e-9,1.090735021641855e-9,0
50084,9.82191592065334e-10,5.00579176044276e-9,1.537700875555055e-8,1.6133546659383996e-8,4.430972467128028e-8,1.438036051906295e-8,3.386232194707754e-9,1.079453317048348e-9,0
50085,9.8055196368518e-10,5.00579176044276e-9,1.5448008956169327e-8,1.614398262403279e-8,4.3800323274462176e-8,1.4316348386598997e-8,3.35733002137976e-9,1.0681716124548408e-9,0
50086,9.78912335305026e-10,5.00579176044276e-9,1.5519009156788102e-8,1.6154418588681583e-8,4.3290921877644074e-8,1.4252336254135044e-8,3.328427848051766e-9,1.056889907861334e-9,0
50087,9.772727069248719e-10,5.00579176044276e-9,1.559000935740688e-8,1.6164854553330373e-8,4.278152048082597e-8,1.418832412167109e-8,3.299525674723772e-9,1.0456082032678268e-9,0
50088,9.756330785447177e-10,5.00579176044276e-9,1.5661009558025656e-8,1.6175290517979167e-8,4.227211908400787e-8,1.4124311989207136e-8,3.270623501395778e-9,1.0343264986743196e-9,0
50089,9.78831535342782e-10,5.031182805268824e-9,1.5793682906618225e-8,1.616164806231063e-8,4.1762569685461703e-8,1.402469804224026e-8,3.2422137043174883e-9,1.0232742508206329e-9,0
50090,9.820299921408463e-10,5.0565738500948876e-9,1.5926356255210793e-8,1.6148005606642093e-8,4.125302028691553e-8,1.3925084095273383e-8,3.2138039072391983e-9,1.012222002966946e-9,0
50091,9.852284489389107e-10,5.081964894920951e-9,1.6059029603803358e-8,1.6134363150973555e-8,4.074347088836936e-8,1.3825470148306508e-8,3.1853941101609088e-9,1.001169755113259e-9,0
50092,9.88426905736975e-10,5.107355939747015e-9,1.6191702952395926e-8,1.6120720695305017e-8,4.023392148982319e-8,1.3725856201339631e-8,3.1569843130826188e-9,9.90117507259572e-10,0
50093,9.916253625350394e-10,5.132746984573079e-9,1.632437630098849e-8,1.6107078239636478e-8,3.972437209127702e-8,1.3626242254372756e-8,3.1285745160043292e-9,9.790652594058854e-10,0
50094,9.948238193331038e-10,5.158138029399143e-9,1.645704964958106e-8,1.609343578396794e-8,3.9214822692730855e-8,1.3526628307405879e-8,3.1001647189260393e-9,9.680130115521984e-10,0
50095,9.98022276131168e-10,5.183529074225207e-9,1.6589722998173628e-8,1.60797933282994e-8,3.8705273294184686e-8,1.3427014360439003e-8,3.0717549218477497e-9,9.569607636985115e-10,0
50096,1.0012207329292324e-9,5.2089201190512705e-9,1.6722396346766193e-8,1.6066150872630863e-8,3.819572389563852e-8,1.3327400413472128e-8,3.0433451247694597e-9,9.459085158448246e-10,0
50097,1.0044191897272968e-9,5.234311163877334e-9,1.685506969535876e-8,1.6052508416962325e-8,3.768617449709235e-8,1.3227786466505251e-8,3.01493532769117e-9,9.348562679911379e-10,0
50098,1.007617646525361e-9,5.259702208703398e-9,1.6987743043951326e-8,1.6038865961293786e-8,3.717662509854618e-8,1.3128172519538376e-8,2.9865255306128802e-9,9.238040201374509e-10,0
50099,1.0108161033234254e-9,5.285093253529462e-9,1.7120416392543894e-8,1.602522350562525e-8,3.666707570000001e-8,1.3028558572571499e-8,2.9581157335345902e-9,9.12751772283764e-10,0
50100,1.0140145601214898e-9,5.310484298355526e-9,1.7253089741136462e-8,1.6011581049956713e-8,3.6157526301453844e-8,1.2928944625604623e-8,2.9297059364563007e-9,9.016995244300772e-10,0
50101,1.017213016919554e-9,5.33587534318159e-9,1.7385763089729027e-8,1.5997938594288175e-8,3.5647976902907676e-8,1.2829330678637746e-8,2.9012961393780107e-9,8.906472765763902e-10,0
50102,1.0204114737176184e-9,5.3612663880076535e-9,1.7518436438321596e-8,1.5984296138619636e-8,3.51384275043615e-8,1.272971673167087e-8,2.872886342299721e-9,8.795950287227034e-10,0
50103,1.0236099305156826e-9,5.386657432833717e-9,1.765110978691416e-8,1.5970653682951098e-8,3.462887810581533e-8,1.2630102784703994e-8,2.844476545221431e-9,8.685427808690165e-10,0
50104,1.0231798234300833e-9,5.383475991538544e-9,1.766518754271139e-8,1.599513455621575e-8,3.4746079066638796e-8,1.263207633049014e-8,2.8441419175207924e-9,8.691761821749169e-10,0
50105,1.0212534569928627e-9,5.389068062377334e-9,1.7685797168087787e-8,1.6017171873833786e-8,3.464305014138879e-8,1.2538694287780596e-8,2.8429484015322966e-9,8.687172686952766e-10,0
50106,1.0193270905556423e-9,5.394660133216124e-9,1.7722254224699375e-8,1.625286400624723e-8,3.4682396889715136e-8,1.2469166527966258e-8,2.834463221672275e-9,8.700788798582041e-10,0
50107,1.017400724118422e-9,5.400252204054914e-9,1.7758711281310962e-8,1.6488556138660674e-8,3.472174363804148e-8,1.239963876815192e-8,2.8259780418122536e-9,8.714404910211317e-10,0
50108,1.0154743576812014e-9,5.405844274893704e-9,1.7795168337922552e-8,1.672424827107412e-8,3.476109038636783e-8,1.2330111008337581e-8,2.817492861952232e-9,8.728021021840592e-10,0
50109,1.013547991243981e-9,5.411436345732495e-9,1.783162539453414e-8,1.6959940403487564e-8,3.480043713469418e-8,1.2260583248523243e-8,2.8090076820922107e-9,8.741637133469867e-10,0
50110,1.0116216248067604e-9,5.4170284165712845e-9,1.7868082451145727e-8,1.7195632535901006e-8,3.4839783883020525e-8,1.2191055488708905e-08,2.8005225022321892e-9,8.755253245099142e-10,0
50111,1.00969525836954e-9,5.422620487410074e-9,1.7904539507757317e-8,1.743132466831445e-8,3.487913063134688e-8,1.2121527728894565e-8,2.792037322372168e-9,8.768869356728418e-10,0
50112,1.0077688919323197e-9,5.428212558248865e-9,1.7940996564368904e-8,1.7667016800727893e-8,3.4918477379673226e-8,1.2051999969080226e-8,2.7835521425121467e-9,8.782485468357694e-10,0
50113,1.0058425254950991e-9,5.433804629087655e-9,1.7977453620980492e-8,1.790270893314134e-8,3.4957824127999574e-8,1.1982472209265888e-8,2.7750669626521252e-9,8.796101579986969e-10,0
50114,1.0039161590578788e-9,5.439396699926445e-9,1.8013910677592082e-8,1.8138401065554784e-8,3.499717087632592e-8,1.191294444945155e-8,2.7665817827921037e-9,8.809717691616245e-10,0
50115,1.0019897926206584e-9,5.444988770765235e-9,1.805036773420367e-8,1.8374093197968226e-8,3.503651762465227e-8,1.1843416689637211e-8,2.7580966029320823e-9,8.82333380324552e-10,0
50116,1.0000634261834378e-9,5.450580841604025e-9,1.8086824790815257e-8,1.860978533038167e-8,3.5075864372978616e-8,1.1773888929822873e-8,2.749611423072061e-9,8.836949914874796e-10,0
50117,9.981370597462174e-10,5.4561729124428154e-9,1.8123281847426847e-8,1.8845477462795113e-8,3.511521112130497e-8,1.1704361170008535e-8,2.7411262432120393e-9,8.85056602650407e-10,0
50118,9.962106933089969e-10,5.461764983281605e-9,1.8159738904038434e-8,1.9081169595208558e-8,3.515455786963132e-8,1.1634833410194196e-8,2.732641063352018e-9,8.864182138133346e-10,0
50119,9.942843268717765e-10,5.467357054120396e-9,1.819619596065002e-8,1.9316861727622e-8,3.5193904617957664e-8,1.1565305650379858e-8,2.7241558834919964e-9,8.877798249762621e-10,0
50120,9.923579604345561e-10,5.472949124959186e-9,1.8232653017261612e-8,1.9552553860035445e-8,3.523325136628401e-8,1.149577789056552e-8,2.715670703631975e-9,8.891414361391897e-10,0
50121,9.904315939973355e-10,5.478541195797975e-9,1.82691100738732e-8,1.978824599244889e-8,3.527259811461036e-8,1.142625013075118e-8,2.7071855237719535e-9,8.905030473021173e-10,0
50122,9.885052275601152e-10,5.484133266636766e-9,1.8305567130484786e-8,2.0023938124862332e-8,3.531194486293671e-8,1.1356722370936842e-8,2.698700343911932e-9,8.918646584650448e-10,0
50123,9.865788611228946e-10,5.489725337475556e-9,1.8342024187096377e-8,2.0259630257275778e-8,3.535129161126306e-8,1.1287194611122503e-8,2.6902151640519105e-9,8.932262696279724e-10,0
50124,9.846524946856742e-10,5.4953174083143455e-9,1.8378481243707964e-8,2.049532238968922e-8,3.539063835958941e-8,1.1217666851308165e-8,2.681729984191889e-9,8.945878807908999e-10,0
50125,9.827261282484538e-10,5.500909479153136e-9,1.841493830031955e-8,2.0731014522102665e-8,3.5429985107915755e-8,1.1148139091493827e-8,2.6732448043318676e-9,8.959494919538275e-10,0
50126,9.839356495430084e-10,5.513552108291411e-9,1.841393577466963e-8,2.0642584590538766e-8,3.515088009022074e-8,1.1303889597499841e-8,2.7023174799439326e-9,9.003833010951301e-10,0
50127,9.773145669561026e-10,5.515426212826895e-9,1.842289180095937e-8,2.0658909292424156e-8,3.518477906011987e-8,1.1358932050232496e-8,2.7023174799439326e-9,9.003833010951301e-10,0
50128,9.706934843691968e-10,5.517300317362379e-9,1.843184782724911e-8,2.0675233994309547e-8,3.5218678030019e-8,1.1413974502965149e-8,2.7023174799439326e-9,9.003833010951301e-10,0
50129,9.640724017822912e-10,5.519174421897863e-9,1.844080385353885e-8,2.0691558696194937e-8,3.5252576999918135e-8,1.1469016955697802e-8,2.7023174799439326e-9,9.003833010951301e-10,0
50130,9.574513191953854e-10,5.5210485264333464e-9,1.8449759879828593e-8,2.0707883398080327e-8,3.528647596981727e-8,1.1524059408430456e-8,2.7023174799439326e-9,9.003833010951301e-10,0
50131,9.574513191953854e-10,5.519363344489795e-9,1.8235939029713233e-8,2.0708298210154514e-8,3.5258951294575824e-8,1.1564171467670923e-8,2.699836468092903e-9,9.003833010951301e-10,0
50132,9.556683217866982e-10,5.514889687818763e-9,1.8195674225554886e-8,2.0708298210154514e-8,3.523601467290448e-8,1.1619213920403576e-8,2.70084035119482e-9,9.011513505897239e-10,0
50133,9.53885324378011e-10,5.5104160311477304e-9,1.8155409421396536e-8,2.0708298210154514e-8,3.5213078051233136e-8,1.167425637313623e-8,2.7018442342967366e-9,9.019194000843178e-10,0
50134,9.521023269693237e-10,5.505942374476698e-9,1.8115144617238186e-8,2.0708298210154514e-8,3.5190141429561795e-8,1.1729298825868884e-8,2.7028481173986534e-9,9.026874495789115e-10,0
50135,9.503193295606364e-10,5.501468717805666e-9,1.807487981307984e-8,2.0708298210154514e-8,3.5167204807890455e-8,1.1784341278601537e-8,2.7038520005005697e-9,9.034554990735053e-10,0
50136,9.485363321519491e-10,5.496995061134634e-9,1.803461500892149e-8,2.0708298210154514e-8,3.514426818621911e-8,1.1839383731334191e-8,2.7048558836024865e-9,9.042235485680991e-10,0
50137,9.467533347432617e-10,5.492521404463602e-9,1.799435020476314e-8,2.0708298210154514e-8,3.512133156454777e-8,1.1894426184066844e-8,2.7058597667044033e-9,9.049915980626928e-10,0
50138,9.449703373345744e-10,5.48804774779257e-9,1.7954085400604792e-8,2.0708298210154514e-8,3.509839494287643e-8,1.1949468636799497e-8,2.70686364980632e-9,9.057596475572867e-10,0
50139,9.431873399258872e-10,5.4835740911215375e-9,1.7913820596446442e-8,2.0708298210154514e-8,3.5075458321205086e-8,1.200451108953215e-8,2.7078675329082368e-9,9.065276970518805e-10,0
50140,9.414043425172e-10,5.479100434450505e-9,1.7873555792288092e-8,2.0708298210154514e-8,3.505252169953374e-8,1.2059553542264805e-8,2.7088714160101536e-9,9.072957465464743e-10,0
50141,9.398333601686534e-10,5.4981059461791275e-9,1.7843829393051044e-8,2.078718102400728e-8,3.509666947144203e-8,1.2067576525505482e-8,2.7281395315621494e-9,9.074303947351676e-10,0
50142,9.379069937314328e-10,5.491758184972612e-9,1.7798485919025177e-8,2.0775613402141633e-8,3.5197433843188784e-8,1.2210359450464114e-8,2.77565969564337e-9,9.093305986528688e-10,0
50143,9.359806272942124e-10,5.485410423766096e-9,1.7753142444999313e-8,2.0764045780275985e-8,3.5298198214935537e-8,1.2353142375422747e-8,2.82317985972459e-9,9.1123080257057e-10,0
50144,9.340542608569918e-10,5.4790626625595795e-9,1.7707798970973446e-8,2.0752478158410338e-8,3.539896258668229e-8,1.249592530038138e-8,2.870700023805811e-9,9.131310064882712e-10,0
50145,9.321278944197715e-10,5.472714901353064e-9,1.766245549694758e-8,2.074091053654469e-8,3.5499726958429035e-8,1.2638708225340014e-8,2.9182201878870313e-9,9.150312104059723e-10,0
50146,9.30201527982551e-10,5.466367140146548e-9,1.761711202292171e-8,2.0729342914679043e-8,3.560049133017579e-8,1.2781491150298648e-8,2.9657403519682517e-9,9.169314143236734e-10,0
50147,9.282751615453305e-10,5.460019378940032e-9,1.7571768548895845e-8,2.0717775292813395e-8,3.570125570192254e-8,1.2924274075257281e-8,3.013260516049472e-9,9.188316182413746e-10,0
50148,9.263487951081101e-10,5.453671617733516e-9,1.752642507486998e-8,2.0706207670947748e-8,3.580202007366929e-8,1.3067057000215914e-8,3.0607806801306924e-9,9.207318221590757e-10,0
50149,9.244224286708897e-10,5.447323856527e-9,1.7481081600844114e-8,2.06946400490821e-8,3.5902784445416045e-8,1.3209839925174548e-8,3.1083008442119132e-9,9.22632026076777e-10,0
50150,9.224960622336692e-10,5.440976095320484e-9,1.7435738126818247e-8,2.0683072427216453e-8,3.60035488171628e-8,1.335262285013318e-8,3.1558210082931336e-9,9.245322299944781e-10,0
50151,9.205696957964487e-10,5.434628334113968e-9,1.739039465279238e-8,2.0671504805350805e-8,3.610431318890955e-8,1.3495405775091813e-8,3.203341172374354e-9,9.264324339121793e-10,0
50152,9.186433293592284e-10,5.428280572907452e-9,1.7345051178766512e-8,2.065993718348516e-8,3.62050775606563e-8,1.3638188700050446e-8,3.2508613364555744e-9,9.283326378298804e-10,0
50153,9.167169629220079e-10,5.421932811700936e-9,1.729970770474065e-8,2.0648369561619514e-8,3.6305841932403055e-8,1.378097162500908e-8,3.2983815005367947e-9,9.302328417475815e-10,0
50154,9.167169629220079e-10,5.422121734292868e-9,1.729787343984273e-8,2.0608653673164815e-8,3.643294696556671e-8,1.386871209723506e-8,3.325099028509382e-9,9.317689407367692e-10,0
50155,9.159314717477345e-10,5.410514383279932e-9,1.7246619556701353e-8,2.056893778471012e-8,3.650871893352011e-8,1.3970267389964057e-8,3.3724486903065317e-9,9.324421816802362e-10,0
50156,9.151459805734612e-10,5.3989070322669965e-9,1.7195365673559974e-8,2.052922189625542e-8,3.658449090147351e-8,1.4071822682693055e-8,3.419798352103681e-9,9.331154226237032e-10,0
50157,9.14360489399188e-10,5.387299681254062e-9,1.71441117904186e-8,2.0489506007800725e-8,3.6660262869426906e-8,1.4173377975422054e-8,3.4671480139008307e-9,9.337886635671702e-10,0
50158,9.135749982249146e-10,5.375692330241126e-9,1.709285790727722e-8,2.0449790119346026e-8,3.673603483738031e-8,1.427493326815105e-8,3.5144976756979803e-9,9.344619045106373e-10,0
50159,9.127895070506413e-10,5.36408497922819e-9,1.7041604024135844e-8,2.041007423089133e-8,3.681180680533371e-8,1.4376488560880049e-8,3.5618473374951302e-9,9.351351454541043e-10,0
50160,9.120040158763679e-10,5.352477628215255e-9,1.6990350140994465e-8,2.0370358342436632e-8,3.6887578773287106e-8,1.4478043853609046e-8,3.6091969992922798e-9,9.358083863975713e-10,0
50161,9.112185247020947e-10,5.34087027720232e-9,1.693909625785309e-8,2.0330642453981936e-8,3.696335074124051e-8,1.4579599146338044e-8,3.6565466610894293e-9,9.364816273410383e-10,0
50162,9.104330335278214e-10,5.329262926189384e-9,1.688784237471171e-8,2.0290926565527237e-8,3.703912270919391e-8,1.4681154439067043e-8,3.703896322886579e-9,9.371548682845054e-10,0
50163,9.100029264422218e-10,5.319892403511965e-9,1.6833504834171643e-8,2.034258291740026e-8,3.713555834805422e-8,1.4651121918621211e-8,3.7245284567111414e-9,9.385164794474328e-10,0
50164,9.243294747780093e-10,5.337605699864728e-9,1.6793674193670546e-8,2.0306085879092175e-8,3.705413585201254e-8,1.4681068572336312e-8,3.732659878268016e-9,9.391897203908998e-10,0
50165,9.38656023113797e-10,5.355318996217491e-9,1.6753843553169453e-8,2.0269588840784094e-8,3.697271335597085e-8,1.4711015226051413e-8,3.74079129982489e-9,9.398629613343669e-10,0
50166,9.529825714495844e-10,5.3730322925702545e-9,1.6714012912668356e-8,2.023309180247601e-8,3.6891290859929165e-8,1.4740961879766516e-8,3.748922721381765e-9,9.40536202277834e-10,0
50167,9.67309119785372e-10,5.390745588923018e-9,1.6674182272167263e-8,2.0196594764167924e-8,3.680986836388748e-8,1.4770908533481617e-8,3.757054142938639e-9,9.41209443221301e-10,0
50168,9.816356681211594e-10,5.408458885275781e-9,1.6634351631666166e-8,2.016009772585984e-8,3.6728445867845793e-8,1.4800855187196718e-8,3.765185564495513e-9,9.41882684164768e-10,0
50169,9.959622164569471e-10,5.426172181628545e-9,1.659452099116507e-8,2.0123600687551755e-8,3.664702337180411e-8,1.4830801840911819e-8,3.773316986052388e-9,9.42555925108235e-10,0
50170,1.0102887647927346e-9,5.443885477981308e-9,1.6554690350663976e-8,2.008710364924367e-8,3.656560087576242e-8,1.486074849462692e-8,3.781448407609262e-9,9.43229166051702e-10,0
50171,1.0246153131285221e-09,5.461598774334071e-9,1.651485971016288e-8,2.0050606610935585e-8,3.6484178379720736e-8,1.4890695148342023e-8,3.7895798291661365e-9,9.43902406995169e-10,0
50172,1.0389418614643096e-9,5.479312070686834e-9,1.6475029069661783e-8,2.00141095726275e-8,3.640275588367905e-8,1.4920641802057122e-8,3.7977112507230105e-9,9.44575647938636e-10,0
50173,1.053268409800097e-9,5.497025367039597e-9,1.643519842916069e-8,1.997761253431942e-8,3.6321333387637364e-8,1.4950588455772226e-8,3.8058426722798846e-9,9.45248888882103e-10,0
50174,1.0675949581358846e-9,5.5147386633923605e-9,1.6395367788659592e-8,1.9941115496011334e-8,3.623991089159568e-8,1.4980535109487328e-08,3.8139740938367594e-9,9.4592212982557e-10,0
50175,1.0819215064716723e-9,5.5324519597451245e-9,1.63555371481585e-8,1.990461845770325e-8,3.615848839555399e-8,1.501048176320243e-8,3.8221055153936335e-9,9.465953707690371e-10,0
50176,1.0962480548074598e-9,5.550165256097888e-9,1.6315706507657402e-8,1.9868121419395164e-8,3.6077065899512306e-8,1.504042841691753e-8,3.8302369369505075e-9,9.472686117125042e-10,0
50177,1.1087976826998782e-9,5.57724907512807e-9,1.6328920955555633e-8,1.987609734956152e-8,3.6054342247852795e-8,1.5111581236179585e-8,3.837534977689536e-9,9.456377041721898e-10,0
50178,1.1213473105922965e-9,5.604332894158252e-9,1.634213540345386e-8,1.9884073279727874e-8,3.603161859619329e-8,1.5182734055441637e-8,3.8448330184285645e-9,9.440067966318754e-10,0
50179,1.1338969384847151e-9,5.631416713188435e-9,1.6355349851352093e-8,1.989204920989423e-8,3.600889494453378e-8,1.5253886874703693e-8,3.852131059167593e-9,9.42375889091561e-10,0
50180,1.1464465663771335e-9,5.658500532218618e-9,1.6368564299250324e-8,1.9900025140060588e-8,3.5986171292874275e-8,1.5325039693965748e-8,3.8594290999066215e-9,9.407449815512466e-10,0
50181,1.158996194269552e-9,5.685584351248801e-9,1.6381778747148552e-8,1.990800107022694e-8,3.596344764121476e-8,1.53961925132278e-8,3.86672714064565e-9,9.391140740109324e-10,0
50182,1.1715458221619705e-9,5.712668170278983e-9,1.6394993195046783e-8,1.9915977000393298e-8,3.594072398955525e-8,1.5467345332489856e-8,3.8740251813846786e-9,9.37483166470618e-10,0
50183,1.1840954500543889e-9,5.739751989309166e-9,1.6408207642945014e-8,1.9923952930559655e-8,3.591800033789575e-8,1.553849815175191e-8,3.881323222123707e-9,9.358522589303036e-10,0
50184,1.1966450779468074e-9,5.766835808339348e-9,1.6421422090843245e-8,1.993192886072601e-8,3.5895276686236236e-8,1.5609650971013964e-8,3.888621262862736e-9,9.342213513899893e-10,0
50185,1.2091947058392258e-9,5.793919627369531e-9,1.6434636538741473e-8,1.9939904790892366e-8,3.587255303457673e-8,1.568080379027602e-8,3.895919303601763e-9,9.325904438496749e-10,0
50186,1.2217443337316442e-9,5.821003446399714e-9,1.6447850986639705e-8,1.9947880721058722e-8,3.584982938291722e-8,1.5751956609538074e-8,3.903217344340792e-9,9.309595363093606e-10,0
50187,1.2342939616240628e-9,5.8480872654298964e-9,1.6461065434537936e-8,1.9955856651225076e-8,3.582710573125771e-8,1.5823109428800127e-8,3.91051538507982e-9,9.293286287690462e-10,0
50188,1.2468435895164812e-9,5.875171084460079e-9,1.6474279882436164e-8,1.9963832581391433e-8,3.5804382079598204e-8,1.5894262248062182e-8,3.917813425818849e-9,9.276977212287319e-10,0
50189,1.2593932174088997e-9,5.902254903490262e-9,1.6487494330334395e-8,1.997180851155779e-8,3.578165842793869e-8,1.5965415067324238e-8,3.925111466557877e-9,9.260668136884175e-10,0
50190,1.2719428453013181e-9,5.929338722520444e-9,1.6500708778232626e-8,1.9979784441724143e-8,3.575893477627918e-8,1.603656788658629e-8,3.932409507296906e-9,9.244359061481031e-10,0
50191,1.2844924731937365e-9,5.956422541550627e-9,1.6513923226130854e-8,1.99877603718905e-8,3.573621112461968e-8,1.6107720705848345e-8,3.939707548035934e-9,9.228049986077889e-10,0
50192,1.297042101086155e-9,5.9835063605808095e-9,1.6527137674029085e-8,1.9995736302056857e-8,3.5713487472960166e-8,1.61788735251104e-8,3.947005588774963e-9,9.211740910674745e-10,0
50193,1.2980456842858871e-9,5.989695441963055e-9,1.653076314418495e-8,2.0048109499072544e-8,3.57186230058603e-8,1.6202856608101698e-8,3.949486600625992e-9,9.233037517249958e-10,0
50194,1.3084447767503081e-9,6.030200231006334e-9,1.6685381629934627e-8,2.0284392565064127e-8,3.594681669973815e-8,1.6850203097249425e-8,3.998389913582287e-9,9.294385665961664e-10,0
50195,1.3188438692147292e-9,6.070705020049614e-9,1.68400001156843e-8,2.0520675631055707e-8,3.6175010393615993e-8,1.7497549586397148e-8,4.047293226538583e-9,9.355733814673372e-10,0
50196,1.32924296167915e-9,6.111209809092892e-9,1.6994618601433972e-8,2.075695869704729e-8,3.6403204087493835e-8,1.814489607554487e-8,4.096196539494878e-9,9.417081963385079e-10,0
50197,1.339642054143571e-9,6.151714598136171e-9,1.714923708718365e-8,2.099324176303887e-8,3.6631397781371684e-8,1.8792242564692595e-8,4.145099852451173e-9,9.478430112096785e-10,0
50198,1.3513940369310797e-9,6.194645138106898e-9,1.7302064367675372e-8,2.122122626725084e-8,3.687392957771158e-8,1.9350674322502955e-8,4.1693810066452496e-9,9.530599991215685e-10,0
50199,1.36421217198461e-9,6.235149927150176e-9,1.74548916481671e-8,2.1405136136226733e-8,3.698483927732166e-8,1.99987850413385e-8,4.215121298614232e-9,9.614989624765206e-10,0
50200,1.3770303070381401e-9,6.275654716193455e-9,1.7607718928658826e-8,2.1589046005202626e-8,3.709574897693174e-8,2.064689576017405e-8,4.260861590583215e-9,9.699379258314727e-10,0
50201,1.3813009930675441e-9,6.2741055635670775e-9,1.7615447092267778e-8,2.1588354651745645e-8,3.695708958862802e-8,2.064689576017405e-8,4.260861590583215e-9,9.712995369944003e-10,0
50202,1.385571679096948e-9,6.2725564109407e-9,1.7623175255876733e-8,2.1587663298288664e-8,3.68184302003243e-8,2.064689576017405e-8,4.260861590583215e-9,9.726611481573278e-10,0
50203,1.389842365126352e-9,6.2710072583143226e-9,1.7630903419485685e-8,2.1586971944831683e-8,3.667977081202058e-8,2.064689576017405e-8,4.260861590583215e-9,9.740227593202554e-10,0
50204,1.394113051155756e-9,6.269458105687945e-9,1.763863158309464e-8,2.1586280591374702e-8,3.654111142371686e-8,2.064689576017405e-8,4.260861590583215e-9,9.75384370483183e-10,0
50205,1.39838373718516e-9,6.267908953061567e-9,1.7646359746703592e-8,2.158558923791772e-8,3.640245203541314e-8,2.064689576017405e-8,4.260861590583215e-9,9.767459816461104e-10,0
50206,1.402654423214564e-9,6.26635980043519e-9,1.7654087910312547e-8,2.158489788446074e-8,3.626379264710942e-8,2.064689576017405e-8,4.260861590583215e-9,9.78107592809038e-10,0
50207,1.406925109243968e-9,6.264810647808812e-9,1.76618160739215e-8,2.1584206531003763e-8,3.6125133258805696e-8,2.064689576017405e-8,4.260861590583215e-9,9.794692039719655e-10,0
50208,1.411195795273372e-9,6.263261495182434e-9,1.7669544237530454e-8,2.1583515177546782e-8,3.598647387050198e-8,2.064689576017405e-8,4.260861590583215e-9,9.808308151348931e-10,0
50209,1.4154664813027759e-9,6.261712342556057e-9,1.7677272401139406e-8,2.15828238240898e-8,3.584781448219826e-8,2.064689576017405e-8,4.260861590583215e-9,9.821924262978206e-10,0
50210,1.4197371673321799e-9,6.260163189929679e-9,1.768500056474836e-8,2.158213247063282e-8,3.570915509389454e-8,2.064689576017405e-8,4.260861590583215e-9,9.835540374607482e-10,0
50211,1.424007853361584e-9,6.2586140373033014e-9,1.7692728728357313e-8,2.158144111717584e-8,3.5570495705590816e-8,2.064689576017405e-8,4.260861590583215e-9,9.849156486236757e-10,0
50212,1.428278539390988e-9,6.257064884676924e-9,1.7700456891966268e-8,2.158074976371886e-8,3.54318363172871e-8,2.064689576017405e-8,4.260861590583215e-9,9.862772597866034e-10,0
50213,1.432549225420392e-9,6.2555157320505465e-9,1.770818505557522e-8,2.1580058410261878e-8,3.529317692898338e-8,2.064689576017405e-8,4.260861590583215e-9,9.876388709495308e-10,0
50214,1.436819911449796e-9,6.253966579424169e-9,1.7715913219184175e-8,2.15793670568049e-8,3.515451754067966e-8,2.064689576017405e-8,4.260861590583215e-9,9.890004821124583e-10,0
50215,1.4410905974792e-9,6.252417426797791e-9,1.7723641382793126e-8,2.157867570334792e-8,3.5015858152375935e-8,2.064689576017405e-8,4.260861590583215e-9,9.90362093275386e-10,0
50216,1.4453612835086038e-9,6.250868274171414e-9,1.773136954640208e-8,2.157798434989094e-8,3.4877198764072217e-08,2.064689576017405e-8,4.260861590583215e-9,9.917237044383134e-10,0
50217,1.4496319695380078e-9,6.249319121545036e-9,1.7739097710011033e-8,2.1577292996433958e-8,3.47385393757685e-8,2.064689576017405e-8,4.260861590583215e-9,9.93085315601241e-10,0
50218,1.4539026555674118e-9,6.247769968918658e-9,1.774682587361999e-8,2.1576601642976977e-8,3.459987998746478e-8,2.064689576017405e-8,4.260861590583215e-9,9.944469267641685e-10,0
50219,1.4581733415968159e-9,6.246220816292281e-9,1.775455403722894e-8,2.1575910289519996e-8,3.4461220599161054e-8,2.064689576017405e-8,4.260861590583215e-9,9.958085379270961e-10,0
50220,1.4624440276262199e-9,6.244671663665903e-9,1.7757203530970375e-8,2.161961620291235e-8,3.4442657237958395e-8,2.061690617309358e-8,4.2615435997194986e-9,9.948660006062422e-10,0
50221,1.5544831083534163e-9,6.567614275488773e-9,1.8136174800183254e-8,2.1685728155766463e-8,3.4533616812880195e-8,2.0997071258197138e-8,4.325580008476074e-9,1.0381380028905499e-9,0
50222,1.5695951478634772e-9,6.568936733632294e-9,1.8136174800183254e-8,2.1679378516225212e-8,3.4537469056440546e-8,2.0972560079027523e-8,4.343844240926153e-9,1.0460630838523014e-9,0
50223,1.584707187373538e-9,6.570259191775814e-9,1.8136174800183254e-8,2.167302887668396e-8,3.4541321300000896e-8,2.094804889985791e-8,4.362108473376233e-9,1.0539881648140529e-9,0
50224,1.599819226883599e-9,6.571581649919334e-9,1.8136174800183254e-8,2.166667923714271e-8,3.454517354356125e-8,2.0923537720688296e-8,4.380372705826312e-9,1.0619132457758046e-9,0
50225,1.6149312663936598e-9,6.572904108062854e-9,1.8136174800183254e-8,2.166032959760146e-8,3.45490257871216e-8,2.089902654151868e-8,4.398636938276391e-9,1.0698383267375561e-9,0
50226,1.628833784609166e-9,6.555908730186891e-9,1.807371297260144e-8,2.1635161490588784e-8,3.463658132229783e-8,2.0951205275644184e-8,4.4155690367914174e-9,1.0755389384906597e-9,0
50227,1.6427363028246722e-9,6.538913352310928e-9,1.8011251145019626e-8,2.1609993383576108e-8,3.472413685747407e-8,2.100338400976969e-8,4.432501135306444e-9,1.081239550243763e-9,0
50228,1.6566388210401785e-9,6.521917974434965e-9,1.7948789317437812e-8,2.1584825276563432e-8,3.481169239265031e-8,2.1055562743895197e-8,4.44943323382147e-9,1.0869401619968666e-9,0
50229,1.6705413392556848e-9,6.504922596559001e-9,1.7886327489855995e-8,2.1559657169550756e-8,3.4899247927826546e-8,2.1107741478020704e-8,4.466365332336497e-9,1.0926407737499701e-9,0
50230,1.6844438574711908e-9,6.487927218683038e-9,1.782386566227418e-8,2.153448906253808e-8,3.498680346300278e-8,2.115992021214621e-8,4.483297430851523e-9,1.0983413855030735e-9,0
50231,1.6983463756866971e-9,6.470931840807075e-9,1.7761403834692368e-8,2.1509320955525404e-8,3.507435899817902e-8,2.1212098946271718e-8,4.50022952936655e-9,1.104041997256177e-9,0
50232,1.7122488939022034e-9,6.453936462931112e-9,1.7698942007110554e-8,2.1484152848512728e-8,3.516191453335526e-8,2.1264277680397224e-8,4.517161627881576e-9,1.1097426090092804e-9,0
50233,1.7261514121177097e-9,6.436941085055148e-9,1.763648017952874e-8,2.1458984741500052e-8,3.5249470068531495e-8,2.131645641452273e-8,4.534093726396603e-9,1.115443220762384e-9,0
50234,1.7400539303332158e-9,6.419945707179185e-9,1.7574018351946926e-8,2.1433816634487376e-8,3.533702560370773e-8,2.1368635148648238e-8,4.551025824911629e-9,1.1211438325154875e-9,0
50235,1.753956448548722e-9,6.402950329303222e-9,1.751155652436511e-8,2.14086485274747e-8,3.542458113888397e-8,2.1420813882773744e-8,4.5679579234266555e-9,1.1268444442685908e-9,0
50236,1.7678589667642284e-9,6.385954951427258e-9,1.7449094696783295e-8,2.1383480420462024e-8,3.551213667406021e-8,2.147299261689925e-8,4.584890021941682e-9,1.1325450560216944e-9,0
50237,1.7817614849797346e-9,6.368959573551295e-9,1.738663286920148e-8,2.1358312313449348e-8,3.559969220923644e-8,2.1525171351024758e-8,4.601822120456708e-9,1.138245667774798e-9,0
50238,1.7956640031952407e-9,6.3519641956753316e-9,1.7324171041619667e-8,2.1333144206436672e-8,3.5687247744412685e-8,2.1577350085150264e-8,4.618754218971735e-9,1.1439462795279013e-9,0
50239,1.809566521410747e-9,6.3349688177993685e-9,1.7261709214037853e-8,2.1307976099423996e-8,3.577480327958892e-8,2.162952881927577e-8,4.635686317486761e-9,1.1496468912810048e-9,0
50240,1.8234690396262533e-9,6.317973439923405e-9,1.7199247386456036e-8,2.128280799241132e-8,3.5862358814765156e-8,2.1681707553401278e-8,4.652618416001788e-9,1.1553475030341082e-9,0
50241,1.8373715578417596e-9,6.3009780620474415e-9,1.7136785558874222e-8,2.1257639885398644e-8,3.594991434994139e-8,2.1733886287526784e-8,4.669550514516814e-9,1.1610481147872117e-9,0
50242,1.8512740760572657e-9,6.2839826841714784e-9,1.7074323731292408e-8,2.123247177838597e-8,3.6037469885117634e-8,2.178606502165229e-8,4.686482613031841e-9,1.1667487265403153e-9,0
50243,1.865176594272772e-9,6.266987306295515e-9,1.7011861903710594e-8,2.1207303671373292e-8,3.612502542029387e-8,2.1838243755777798e-8,4.703414711546867e-9,1.1724493382934186e-9,0
50244,1.8641104420067505e-9,6.261720187365831e-9,1.6982655787410735e-8,2.1182135564360616e-8,3.612899920316058e-8,2.1864347794371104e-8,4.7020825776118145e-9,1.1710877271304912e-9,0
50245,1.8758624247942592e-9,6.2574203319029e-9,1.699970453209122e-8,2.1367361451475226e-8,3.6560246185394856e-8,2.190913897484766e-8,4.742835338408727e-9,1.1781650793225156e-9,0
50246,1.887614407581768e-9,6.253120476439968e-9,1.7016753276771705e-8,2.1552587338589835e-8,3.699149316762912e-8,2.1953930155324217e-8,4.78358809920564e-9,1.1852424315145402e-9,0
50247,1.8993663903692767e-9,6.2488206209770374e-9,1.703380202145219e-8,2.173781322570444e-8,3.742274014986339e-8,2.1998721335800777e-8,4.824340860002552e-9,1.1923197837065646e-9,0
50248,1.9111183731567854e-9,6.244520765514106e-9,1.7050850766132675e-8,2.192303911281905e-8,3.7853987132097655e-8,2.2043512516277333e-8,4.865093620799465e-9,1.1993971358985892e-9,0
50249,1.922870355944294e-9,6.240220910051174e-9,1.706789951081316e-8,2.2108264999933657e-8,3.828523411433192e-8,2.208830369675389e-8,4.905846381596378e-9,1.2064744880906138e-9,0
50250,1.934622338731803e-9,6.235921054588243e-9,1.7084948255493645e-8,2.2293490887048267e-8,3.8716481096566195e-8,2.2133094877230447e-8,4.94659914239329e-9,1.2135518402826382e-9,0
50251,1.9463743215193116e-9,6.231621199125312e-9,1.710199700017413e-8,2.2478716774162873e-8,3.914772807880046e-8,2.2177886057707003e-8,4.987351903190203e-9,1.2206291924746629e-9,0
50252,1.9581263043068203e-9,6.22732134366238e-9,1.7119045744854615e-8,2.2663942661277482e-8,3.957897506103473e-8,2.222267723818356e-8,5.028104663987115e-9,1.2277065446666873e-9,0
50253,1.969878287094329e-9,6.223021488199449e-9,1.71360944895351e-8,2.2849168548392088e-8,4.0010222043268994e-8,2.226746841866012e-8,5.068857424784028e-9,1.2347838968587119e-9,0
50254,1.9816302698818377e-9,6.218721632736517e-9,1.7153143234215586e-8,2.3034394435506698e-8,4.044146902550327e-8,2.2312259599136676e-8,5.109610185580941e-9,1.2418612490507363e-9,0
50255,1.9933822526693465e-9,6.2144217772735864e-9,1.717019197889607e-8,2.3219620322621304e-8,4.0872716007737534e-8,2.2357050779613233e-8,5.1503629463778535e-9,1.248938601242761e-9,0
50256,2.005134235456855e-9,6.210121921810655e-9,1.7187240723576556e-8,2.3404846209735913e-8,4.13039629899718e-8,2.240184196008979e-8,5.1911157071747666e-9,1.2560159534347853e-9,0
50257,2.012391363224183e-9,6.2206335091629275e-9,1.7266751295838855e-8,2.3612926679490066e-8,4.172809566890805e-8,2.2394615406560958e-8,5.234033982724578e-9,1.2653177748354581e-9,0
50258,2.007042370998121e-9,6.235444951978131e-9,1.732921312342067e-8,2.3674822275963154e-8,4.1795559099388114e-8,2.235450334732049e-8,5.242165404281452e-9,1.2668538738246456e-9,0
50259,2.001693378772059e-9,6.250256394793335e-9,1.7391674951002486e-8,2.373671787243624e-8,4.1863022529868186e-8,2.2314391288080024e-8,5.250296825838327e-9,1.2683899728138332e-9,0
50260,1.9963443865459974e-9,6.265067837608539e-9,1.74541367785843e-8,2.379861346890933e-8,4.193048596034825e-8,2.2274279228839557e-8,5.258428247395201e-9,1.2699260718030207e-9,0
50261,1.9909953943199356e-9,6.279879280423743e-9,1.7516598606166114e-8,2.3860509065382417e-8,4.1997949390828324e-8,2.2234167169599087e-8,5.2665596689520755e-9,1.2714621707922083e-9,0
50262,1.985646402093874e-9,6.294690723238947e-9,1.7579060433747928e-8,2.39224046618555e-8,4.206541282130839e-8,2.219405511035862e-8,5.2746910905089496e-9,1.272998269781396e-9,0
50263,1.9802974098678117e-9,6.3095021660541505e-9,1.764152226132974e-8,2.398430025832859e-8,4.213287625178846e-8,2.2153943051118153e-8,5.2828225120658236e-9,1.2745343687705836e-9,0
50264,1.97494841764175e-9,6.324313608869355e-9,1.770398408891156e-8,2.4046195854801677e-8,4.220033968226853e-8,2.2113830991877686e-8,5.2909539336226984e-9,1.276070467759771e-9,0
50265,1.977585552256318e-9,6.416923008845583e-9,1.789611168813617e-8,2.4085727382334513e-8,4.218962461128405e-8,2.2058056509481235e-8,5.3001083688839975e-9,1.2801553012485537e-9,0
50266,1.9802226868708864e-9,6.5095324088218125e-9,1.8088239287360778e-8,2.412525890986735e-8,4.217890954029957e-8,2.200228202708478e-8,5.3092628041452965e-9,1.2842401347373364e-9,0
50267,1.982859821485454e-9,6.602141808798041e-9,1.828036688658539e-8,2.4164790437400185e-8,4.216819446931509e-8,2.1946507544688328e-8,5.3184172394065956e-9,1.288324968226119e-9,0
50268,1.9854969561000224e-9,6.694751208774269e-9,1.847249448581e-8,2.420432196493302e-8,4.215747939833061e-8,2.1890733062291876e-8,5.3275716746678954e-9,1.2924098017149016e-9,0
50269,1.9881340907145906e-9,6.787360608750499e-9,1.866462208503461e-8,2.4243853492465857e-8,4.214676432734613e-8,2.1834958579895425e-8,5.3367261099291945e-9,1.2964946352036843e-9,0
50270,1.9907712253291585e-9,6.879970008726727e-9,1.8856749684259222e-8,2.4283385019998693e-8,4.2136049256361655e-8,2.1779184097498973e-8,5.3458805451904935e-9,1.300579468692467e-9,0
50271,1.9934083599437267e-9,6.972579408702956e-9,1.9048877283483833e-8,2.432291654753153e-8,4.212533418537717e-8,2.172340961510252e-8,5.3550349804517925e-9,1.3046643021812495e-9,0
50272,1.9960454945582945e-9,7.065188808679185e-9,1.9241004882708444e-8,2.4362448075064365e-8,4.21146191143927e-8,2.166763513270607e-8,5.364189415713092e-9,1.3087491356700322e-9,0
50273,1.9986826291728627e-9,7.157798208655414e-9,1.9433132481933055e-8,2.44019796025972e-8,4.2103904043408215e-8,2.1611860650309615e-8,5.3733438509743914e-9,1.3128339691588148e-9,0
50274,2.001319763787431e-9,7.2504076086316426e-9,1.9625260081157667e-8,2.4441511130130033e-8,4.209318897242373e-8,2.1556086167913163e-8,5.3824982862356905e-9,1.3169188026475974e-9,0
50275,2.0039568984019987e-9,7.343017008607872e-9,1.9817387680382278e-8,2.448104265766287e-8,4.208247390143926e-8,2.1500311685516712e-8,5.3916527214969895e-9,1.3210036361363802e-9,0
50276,2.006594033016567e-9,7.4356264085841e-9,2.000951527960689e-8,2.4520574185195705e-8,4.2071758830454775e-8,2.144453720312026e-8,5.400807156758289e-9,1.3250884696251627e-9,0
50277,2.009231167631135e-9,7.528235808560329e-9,2.0201642878831497e-8,2.456010571272854e-8,4.20610437594703e-8,2.138876272072381e-8,5.409961592019588e-9,1.3291733031139453e-9,0
50278,2.011868302245703e-9,7.620845208536558e-9,2.0393770478056108e-8,2.4599637240261377e-8,4.205032868848582e-8,2.1332988238327357e-8,5.4191160272808874e-9,1.3332581366027279e-9,0
50279,2.0145054368602712e-9,7.713454608512787e-9,2.058589807728072e-8,2.4639168767794213e-8,4.2039613617501336e-8,2.1277213755930905e-8,5.4282704625421865e-9,1.3373429700915106e-9,0
50280,2.0216374264950203e-9,7.810877738452985e-9,2.0779044712559728e-8,2.4680741398026342e-8,4.204026037234661e-8,2.126155133277492e-8,5.436932521553782e-9,1.3417919085088068e-9,0
50281,2.0132333464994274e-9,7.803774286878742e-9,2.0900450546667414e-8,2.477183709697127e-8,4.2038670859199925e-8,2.122596025161334e-8,5.413642496726616e-9,1.3347145563167824e-9,0
50282,2.004829266503834e-9,7.796670835304502e-9,2.10218563807751e-8,2.48629327959162e-8,4.203708134605324e-8,2.1190369170451757e-8,5.390352471899451e-9,1.3276372041247577e-09,0
50283,1.9964251865082413e-9,7.789567383730259e-9,2.1143262214882786e-8,2.4954028494861128e-8,4.2035491832906555e-8,2.1154778089290175e-8,5.3670624470722854e-9,1.3205598519327331e-9,0
50284,1.9880211065126484e-9,7.782463932156018e-9,2.1264668048990472e-8,2.5045124193806055e-8,4.203390231975987e-8,2.1119187008128597e-8,5.343772422245119e-9,1.3134824997407087e-9,0
50285,1.979617026517055e-9,7.775360480581776e-9,2.1386073883098158e-8,2.5136219892750986e-8,4.2032312806613186e-8,2.1083595926967015e-8,5.320482397417954e-9,1.3064051475486841e-9,0
50286,1.9712129465214623e-9,7.768257029007533e-9,2.1507479717205844e-8,2.5227315591695914e-8,4.20307232934665e-8,2.1048004845805433e-8,5.297192372590788e-9,1.2993277953566597e-9,0
50287,1.961742714259848e-9,7.781322867481163e-9,2.1596343891348626e-8,2.5242906969602813e-8,4.228090063036351e-8,2.1016170513034915e-8,5.379586993671481e-9,1.3047041418188162e-9,0
50288,1.9522724819982332e-9,7.794388705954795e-9,2.1685208065491408e-8,2.5258498347509713e-8,4.2531077967260526e-8,2.09843361802644e-8,5.461981614752174e-9,1.3100804882809727e-9,0
50289,1.942802249736619e-9,7.807454544428426e-9,2.1774072239634187e-8,2.5274089725416616e-8,4.278125530415754e-8,2.095250184749388e-8,5.544376235832867e-9,1.3154568347431292e-9,0
50290,1.9333320174750046e-9,7.820520382902056e-9,2.186293641377697e-8,2.5289681103323515e-8,4.303143264105455e-8,2.0920667514723366e-8,5.626770856913559e-9,1.3208331812052859e-9,0
50291,1.92386178521339e-9,7.833586221375687e-9,2.195180058791975e-8,2.5305272481230415e-8,4.3281609977951565e-8,2.0888833181952847e-8,5.709165477994253e-9,1.3262095276674424e-9,0
50292,1.9143915529517755e-9,7.846652059849317e-9,2.204066476206253e-8,2.5320863859137318e-8,4.3531787314848576e-8,2.0856998849182332e-8,5.791560099074945e-9,1.3315858741295989e-9,0
50293,1.904921320690161e-9,7.859717898322948e-9,2.2129528936205312e-8,2.5336455237044217e-8,4.378196465174559e-8,2.0825164516411813e-8,5.873954720155638e-9,1.3369622205917554e-9,0
50294,1.8954510884285465e-9,7.879887188370819e-9,2.2202363401722007e-8,2.5340755534468264e-8,4.37658565502669e-8,2.0557782035845082e-8,5.890494799162501e-9,1.3307724368070246e-9,0
50295,1.895239073368406e-9,7.90939675832845e-9,2.2255065465159526e-8,2.530900733676201e-8,4.4009604844573224e-8,2.053155993049702e-8,5.998679587523897e-9,1.3432261354612057e-9,0
50296,1.8950270583082655e-9,7.93890632828608e-9,2.2307767528597047e-8,2.5277259139055756e-8,4.425335313887955e-8,2.050533782514896e-8,6.106864375885293e-9,1.3556798341153866e-9,0
50297,1.8907563722788614e-9,7.965990147316261e-9,2.238060199411374e-8,2.5271538283905196e-8,4.448435886559068e-8,2.0497167432092423e-8,6.212549021793151e-9,1.366273168489433e-9,0
50298,1.8864856862494574e-9,7.993073966346444e-9,2.2453436459630434e-8,2.5265817428754635e-8,4.471536459230182e-8,2.0488997039035882e-8,6.31823366770101e-9,1.3768665028634796e-9,0
50299,1.8822150002200534e-9,8.020157785376627e-9,2.252627092514713e-8,2.5260096573604078e-8,4.494637031901295e-8,2.0480826645979345e-8,6.423918313608868e-9,1.3874598372375263e-9,0
50300,1.8815728780743134e-9,8.041052523024565e-9,2.2560003859726308e-8,2.5213125719834647e-8,4.519011861331928e-8,2.0436035465502788e-8,6.530935093451779e-9,1.402502110028869e-9,0
50301,1.880930755928573e-9,8.061947260672501e-9,2.259373679430549e-8,2.5166154866065213e-8,4.5433866907625607e-8,2.039124428502623e-8,6.637951873294691e-9,1.4175443828202116e-9,0
50302,1.880288633782833e-9,8.082841998320437e-9,2.2627469728884668e-8,2.5119184012295782e-8,4.5677615201931933e-8,2.034645310454967e-8,6.744968653137602e-9,1.4325866556115545e-9,0
50303,1.8798585266972333e-9,8.110862838049711e-9,2.266293429867735e-8,2.5157964963582356e-8,4.574821915284331e-8,2.042969406537945e-8,6.7522666938766306e-9,1.4333547051061481e-9,0
50304,1.87907303552296e-9,8.105996214810985e-9,2.264287150547364e-8,2.5157964963582356e-8,4.5739849845716796e-8,2.038189963285831e-8,6.75308732095947e-9,1.4333547051061481e-9,0
50305,1.878287544348687e-9,8.10112959157226e-9,2.2622808712269928e-8,2.5157964963582356e-8,4.573148053859029e-8,2.0334105200337168e-8,6.753907948042311e-9,1.4333547051061481e-9,0
50306,1.8775020531744136e-9,8.096262968333534e-9,2.2602745919066216e-8,2.5157964963582356e-8,4.5723111231463774e-8,2.0286310767816027e-8,6.7547285751251515e-9,1.4333547051061481e-9,0
50307,1.87671656200014e-9,8.091396345094808e-9,2.2582683125862508e-8,2.5157964963582356e-8,4.571474192433726e-8,2.0238516335294887e-8,6.755549202207992e-9,1.4333547051061481e-9,0
50308,1.875931070825867e-9,8.086529721856083e-9,2.2562620332658796e-8,2.5157964963582356e-8,4.5706372617210745e-8,2.0190721902773746e-8,6.756369829290833e-9,1.4333547051061481e-9,0
50309,1.8751455796515934e-9,8.081663098617357e-9,2.2542557539455084e-8,2.5157964963582356e-8,4.569800331008424e-8,2.0142927470252605e-8,6.757190456373672e-9,1.4333547051061481e-9,0
50310,1.87436008847732e-9,8.076796475378631e-9,2.2522494746251372e-8,2.5157964963582356e-8,4.568963400295772e-8,2.0095133037731468e-8,6.758011083456513e-9,1.4333547051061481e-9,0
50311,1.8735745973030467e-9,8.071929852139904e-9,2.250243195304766e-8,2.5157964963582356e-8,4.568126469583121e-8,2.0047338605210327e-8,6.7588317105393535e-9,1.4333547051061481e-9,0
50312,1.8727891061287737e-9,8.067063228901178e-9,2.248236915984395e-8,2.5157964963582356e-8,4.56728953887047e-8,1.9999544172689187e-8,6.759652337622194e-9,1.4333547051061481e-9,0
50313,1.8720036149545003e-9,8.062196605662453e-9,2.2462306366640237e-8,2.5157964963582356e-8,4.5664526081578187e-8,1.9951749740168046e-8,6.760472964705035e-9,1.4333547051061481e-9,0
50314,1.871218123780227e-9,8.057329982423727e-9,2.2442243573436526e-8,2.5157964963582356e-8,4.565615677445167e-8,1.9903955307646906e-8,6.761293591787874e-9,1.4333547051061481e-9,0
50315,1.872358999043174e-9,8.060511423718901e-9,2.2392823955193066e-8,2.519674591486893e-8,4.660010571910378e-8,1.988003662470365e-8,6.760289708685958e-9,1.4352549090238495e-9,0
50316,1.8734998743061214e-9,8.05208551400114e-9,2.23412055172699e-8,2.51289657008682e-8,4.661768781614297e-8,1.9867208577093707e-8,6.759948704117816e-9,1.435619013952363e-9,0
50317,1.874640749569068e-9,8.043659604283376e-9,2.228958707934673e-8,2.5061185486867472e-8,4.663526991318216e-8,1.9854380529483762e-8,6.759607699549674e-9,1.4359831188808766e-9,0
50318,1.8757816248320153e-9,8.035233694565614e-9,2.2237968641423564e-8,2.4993405272866745e-8,4.665285201022135e-8,1.9841552481873817e-8,6.7592666949815334e-9,1.4363472238093902e-9,0
50319,1.8769225000949625e-9,8.026807784847852e-9,2.2186350203500394e-8,2.4925625058866014e-8,4.667043410726055e-8,1.9828724434263872e-8,6.758925690413392e-9,1.4367113287379038e-9,0
50320,1.8780633753579097e-9,8.01838187513009e-9,2.2134731765577226e-8,2.4857844844865287e-8,4.668801620429974e-8,1.9815896386653927e-8,6.75858468584525e-9,1.4370754336664173e-9,0
50321,1.879204250620857e-9,8.009955965412329e-9,2.208311332765406e-8,2.479006463086456e-8,4.670559830133893e-8,1.980306833904398e-8,6.7582436812771084e-9,1.437439538594931e-9,0
50322,1.8775646222407026e-9,8.006396678933293e-9,2.2075020609263315e-8,2.476404140801782e-8,4.6673919357360814e-8,1.9826785945464665e-8,6.743792594613111e-9,1.4295144576331792e-9,0
50323,1.8727265370624843e-9,7.981043405998154e-9,2.2042371300198488e-8,2.470373013164833e-8,4.658140275343421e-8,1.9862516560063682e-8,6.743792594613111e-9,1.4295144576331792e-9,0
50324,1.875575686737193e-9,7.959249419542053e-9,2.20486512835113e-8,2.5000496475804395e-8,4.662887755336394e-8,1.9994069316251572e-8,6.755781800028587e-9,1.4359584085193035e-9,0
50325,1.8784248364119017e-9,7.99851488648423e-9,2.2061710003254128e-8,2.4960994559666203e-8,4.656803989341545e-8,2.000277066244934e-8,6.755289423778883e-9,1.4357289517794833e-9,0
50326,1.8812739860866104e-9,8.037780353426406e-9,2.2074768722996956e-8,2.4921492643528008e-8,4.650720223346696e-8,2.001147200864711e-8,6.754797047529178e-9,1.435499495039663e-9,0
50327,1.884123135761319e-9,8.077045820368583e-9,2.2087827442739787e-8,2.4881990727389812e-8,4.644636457351847e-8,2.002017335484488e-8,6.754304671279474e-9,1.4352700382998429e-9,0
50328,1.886972285436028e-9,8.11631128731076e-9,2.2100886162482615e-8,2.4842488811251617e-8,4.638552691356998e-8,2.002887470104265e-8,6.75381229502977e-9,1.4350405815600227e-9,0
50329,1.895800395551902e-9,8.181118949780006e-9,2.2150401938837034e-8,2.471075953895164e-8,4.612361473566296e-8,2.002887470104265e-8,6.747486253055145e-9,1.433948266774482e-9,0
50330,1.9034876304048292e-9,8.243500861321804e-9,2.219882907026159e-8,2.4729347555270742e-8,4.6130948030692994e-8,1.9869101970074955e-8,6.71858407972715e-9,1.4321827110454742e-9,0
50331,1.9111748652577567e-9,8.305882772863603e-9,2.2247256201686144e-8,2.474793557158984e-8,4.613828132572303e-8,1.970932923910726e-8,6.689681906399156e-9,1.4304171553164664e-9,0
50332,1.9188621001106838e-9,8.368264684405403e-9,2.22956833331107e-8,2.476652358790894e-8,4.614561462075307e-8,1.9549556508139565e-8,6.6607797330711624e-9,1.4286515995874587e-9,0
50333,1.926549334963611e-9,8.430646595947201e-9,2.2344110464535255e-8,2.4785111604228037e-8,4.61529479157831e-8,1.938978377717187e-8,6.631877559743169e-9,1.426886043858451e-9,0
50334,1.934236569816538e-9,8.493028507489e-9,2.239253759595981e-8,2.4803699620547135e-8,4.616028121081314e-8,1.9230011046204176e-8,6.602975386415174e-9,1.4251204881294432e-9,0
50335,1.9419238046694654e-9,8.555410419030798e-9,2.244096472738437e-8,2.4822287636866233e-8,4.6167614505843175e-8,1.907023831523648e-8,6.57407321308718e-9,1.4233549324004354e-9,0
50336,1.9496110395223925e-9,8.617792330572597e-9,2.2489391858808925e-8,2.4840875653185332e-8,4.617494780087321e-8,1.8910465584268786e-8,6.545171039759186e-9,1.4215893766714277e-9,0
50337,1.9572982743753195e-9,8.680174242114395e-9,2.253781899023348e-8,2.485946366950443e-8,4.618228109590325e-8,1.8750692853301095e-8,6.5162688664311925e-9,1.41982382094242e-9,0
50338,1.9649855092282466e-9,8.742556153656195e-9,2.2586246121658035e-8,2.4878051685823528e-8,4.618961439093329e-8,1.85909201223334e-8,6.487366693103199e-9,1.4180582652134122e-9,0
50339,1.9632025118195593e-9,8.769639972686377e-9,2.2683996713215094e-8,2.487410775111634e-8,4.6139668089208645e-8,1.8422456778509276e-8,6.46479056174983e-9,1.4187466354328728e-9,0
50340,1.961419514410872e-9,8.79672379171656e-9,2.2781747304772153e-8,2.4870163816409145e-8,4.6089721787484e-8,1.8253993434685156e-8,6.442214430396461e-9,1.4194350056523332e-9,0
50341,1.960278639147925e-9,8.796361067916529e-9,2.2780862467053173e-8,2.486812683341881e-8,4.6043009259985735e-08,1.808750363664718e-8,6.414966264969153e-9,1.4187617647088662e-9,0
50342,1.959137763884978e-9,8.795998344116496e-9,2.277997762933419e-8,2.4866089850428472e-8,4.599629673248746e-8,1.79210138386092e-8,6.3877180995418455e-9,1.4180885237653992e-9,0
50343,1.957996888622031e-9,8.795635620316464e-9,2.277909279161521e-8,2.4864052867438137e-8,4.59495842049892e-8,1.7754524040571223e-8,6.360469934114538e-9,1.4174152828219322e-9,0
50344,1.9575728585017495e-9,8.788358367534121e-9,2.2748620772410104e-8,2.4627769801446554e-8,4.557782060335969e-8,1.7756752329586643e-8,6.358127540210066e-9,1.4186422457961662e-9,0
50345,1.957148828381468e-9,8.781081114751779e-9,2.2718148753205e-8,2.439148673545497e-8,4.5206057001730174e-8,1.7758980618602062e-8,6.355785146305593e-9,1.4198692087704005e-9,0
50346,1.956724798261187e-9,8.773803861969437e-9,2.2687676733999895e-8,2.415520366946339e-8,4.4834293400100665e-8,1.776120890761748e-8,6.353442752401121e-9,1.4210961717446346e-9,0
50347,1.9563007681409057e-9,8.766526609187093e-9,2.265720471479479e-8,2.3918920603471808e-8,4.4462529798471157e-8,1.7763437196632904e-8,6.3511003584966485e-9,1.4223231347188687e-9,0
50348,1.9558767380206242e-9,8.75924935640475e-9,2.2626732695589685e-8,2.3682637537480228e-8,4.409076619684164e-8,1.7765665485648323e-8,6.348757964592177e-9,1.4235500976931028e-9,0
50349,1.9554527079003432e-9,8.751972103622408e-9,2.259626067638458e-8,2.3446354471488645e-8,4.371900259521213e-8,1.7767893774663742e-8,6.346415570687704e-9,1.4247770606673371e-9,0
50350,1.955028677780062e-9,8.744694850840066e-9,2.2565788657179476e-8,2.3210071405497065e-8,4.3347238993582625e-8,1.777012206367916e-8,6.344073176783232e-9,1.4260040236415712e-9,0
50351,1.955814168954335e-9,8.746757877967481e-9,2.2561820162061804e-8,2.321184008652252e-8,4.3350472767808995e-8,1.7772106342806647e-8,6.344893803866072e-9,1.4268668816872917e-9,0
50352,1.9565996601286086e-9,8.748820905094897e-9,2.2557851666944132e-8,2.3213608767547977e-8,4.335370654203537e-8,1.7774090621934133e-8,6.345714430948912e-9,1.4277297397330122e-9,0
50353,1.9573851513028815e-9,8.750883932222312e-9,2.2553883171826464e-8,2.3215377448573436e-8,4.335694031626175e-8,1.7776074901061622e-8,6.346535058031753e-9,1.428592597778733e-9,0
50354,1.958170642477155e-9,8.752946959349728e-9,2.2549914676708792e-8,2.3217146129598892e-8,4.336017409048812e-8,1.7778059180189108e-8,6.3473556851145935e-9,1.4294554558244535e-9,0
50355,1.9589561336514283e-9,8.755009986477143e-9,2.254594618159112e-8,2.3218914810624348e-8,4.33634078647145e-8,1.7780043459316594e-8,6.348176312197434e-9,1.430318313870174e-9,0
50356,1.9597416248257017e-9,8.757073013604557e-9,2.254197768647345e-8,2.3220683491649807e-8,4.336664163894087e-8,1.778202773844408e-8,6.348996939280274e-9,1.4311811719158945e-9,0
50357,1.960527115999975e-9,8.759136040731973e-9,2.2538009191355777e-8,2.3222452172675263e-8,4.336987541316725e-8,1.778401201757157e-8,6.349817566363114e-9,1.432044029961615e-9,0
50358,1.9613126071742484e-9,8.761199067859388e-9,2.2534040696238105e-8,2.3224220853700722e-8,4.337310918739362e-8,1.7785996296699055e-8,6.350638193445955e-9,1.4329068880073357e-9,0
50359,1.962098098348522e-9,8.763262094986804e-9,2.2530072201120433e-8,2.3225989534726178e-8,4.3376342961619995e-8,1.778798057582654e-8,6.3514588205287955e-9,1.4337697460530562e-9,0
50360,1.9628835895227948e-9,8.76532512211422e-9,2.252610370600276e-8,2.3227758215751633e-8,4.337957673584637e-8,1.7789964854954026e-8,6.352279447611636e-9,1.4346326040987768e-9,0
50361,1.9685879658375308e-9,8.777121395719086e-9,2.2546413366057323e-8,2.3227619945060238e-8,4.340314989201222e-8,1.781983637527974e-8,6.351275564509719e-9,1.4377996106282787e-9,0
50362,1.9742923421522664e-9,8.788917669323953e-9,2.2566723026111882e-8,2.3227481674368842e-8,4.342672304817808e-8,1.7849707895605453e-8,6.3502716814078025e-9,1.4409666171577806e-9,0
50363,1.97464772624094e-9,8.789794267625023e-9,2.25634570913223e-8,2.3314755230462152e-8,4.379032429097273e-8,1.8209767569826444e-8,6.368535913857882e-9,1.4409666171577806e-9,0
50364,1.975003110329614e-9,8.790670865926093e-9,2.2560191156532714e-8,2.3402028786555462e-8,4.4153925533767386e-8,1.856982724404744e-8,6.386800146307961e-9,1.4409666171577806e-9,0
50365,1.9727960828006453e-9,8.782207184317405e-9,2.2540487898695282e-8,2.3455429101200206e-8,4.431109171225117e-8,1.8909979726945515e-8,6.4019013577707274e-09,1.44010375911206e-9,0
50366,1.9674470905745836e-9,8.76342836707164e-9,2.2386673150800163e-8,2.338973196042028e-8,4.4021245161149967e-8,1.923430878656749e-8,6.415525440484382e-9,1.4369367525825582e-9,0
50367,1.962098098348522e-9,8.744649549825875e-9,2.223285840290504e-8,2.3324034819640357e-8,4.373139861004877e-8,1.9558637846189465e-8,6.429149523198035e-9,1.4337697460530562e-9,0
50368,1.9567491061224596e-9,8.725870732580111e-9,2.2079043655009922e-8,2.325833767886043e-8,4.3441552058947566e-8,1.988296690581144e-8,6.4427736059116894e-9,1.4306027395235543e-9,0
50369,1.951400113896398e-9,8.707091915334346e-9,2.19252289071148e-8,2.3192640538080504e-8,4.315170550784636e-8,2.0207295965433415e-8,6.456397688625343e-9,1.4274357329940524e-9,0
50370,1.946051121670336e-9,8.688313098088581e-9,2.1771414159219678e-8,2.312694339730058e-8,4.2861858956745166e-8,2.053162502505539e-8,6.470021771338997e-9,1.4242687264645505e-9,0
50371,1.9407021294442743e-9,8.669534280842818e-9,2.161759941132456e-8,2.3061246256520655e-8,4.257201240564396e-8,2.0855954084677364e-8,6.483645854052651e-9,1.4211017199350485e-9,0
50372,1.9353531372182126e-9,8.650755463597052e-9,2.1463784663429437e-8,2.2995549115740727e-8,4.228216585454276e-8,2.118028314429934e-8,6.497269936766305e-9,1.4179347134055466e-9,0
50373,1.9300041449921504e-9,8.631976646351287e-9,2.130996991553432e-8,2.2929851974960803e-8,4.199231930344156e-8,2.1504612203921314e-8,6.510894019479958e-9,1.4147677068760447e-9,0
50374,1.9533082494376636e-9,8.683363338807437e-9,2.1156155167639196e-8,2.284624581219189e-8,4.170247275234036e-8,2.1951666730400232e-8,6.584349345655942e-9,1.4226529482002297e-9,0
50375,1.976612353883177e-9,8.734750031263587e-9,2.1002340419744074e-8,2.276263964942298e-8,4.1412626201239155e-8,2.2398721256879147e-8,6.657804671831926e-9,1.4305381895244145e-9,0
50376,1.99991645832869e-9,8.786136723719737e-9,2.0848525671848956e-8,2.2679033486654066e-8,4.112277965013796e-8,2.2845775783358065e-8,6.731259998007909e-9,1.4384234308485995e-9,0
50377,2.0232205627742033e-9,8.837523416175887e-9,2.0694710923953834e-8,2.2595427323885155e-8,4.0832933099036754e-8,2.329283030983698e-8,6.804715324183893e-9,1.4463086721727845e-9,0
50378,2.0465246672197165e-9,8.888910108632037e-9,2.0540896176058715e-8,2.2511821161116244e-8,4.054308654793555e-8,2.3739884836315898e-8,6.878170650359876e-9,1.4541939134969693e-9,0
50379,2.0698287716652297e-9,8.940296801088187e-9,2.0387081428163593e-8,2.2428214998347333e-8,4.0253239996834354e-8,2.4186939362794813e-8,6.95162597653586e-9,1.4620791548211543e-9,0
50380,2.093132876110743e-9,8.991683493544337e-9,2.0233266680268474e-8,2.234460883557842e-8,3.996339344573315e-8,2.4633993889273728e-8,7.025081302711843e-9,1.4699643961453393e-9,0
50381,2.116436980556256e-9,9.043070186000487e-9,2.0079451932373352e-8,2.226100267280951e-8,3.9673546894631946e-8,2.5081048415752646e-8,7.098536628887827e-9,1.4778496374695243e-9,0
50382,2.1397410850017694e-9,9.094456878456637e-9,1.992563718447823e-8,2.21773965100406e-8,3.938370034353075e-8,2.552810294223156e-8,7.171991955063811e-9,1.485734878793709e-9,0
50383,2.1630451894472826e-9,9.145843570912787e-9,1.977182243658311e-8,2.2093790347271685e-8,3.9093853792429546e-8,2.597515746871048e-8,7.245447281239794e-9,1.493620120117894e-9,0
50384,2.186349293892796e-9,9.197230263368937e-9,1.961800768868799e-8,2.2010184184502774e-8,3.880400724132834e-8,2.6422211995189394e-8,7.318902607415778e-9,1.501505361442079e-9,0
50385,2.209653398338309e-9,9.248616955825087e-9,1.946419294079287e-8,2.1926578021733862e-8,3.8514160690227146e-8,2.686926652166831e-8,7.392357933591761e-9,1.5093906027662641e-9,0
50386,2.2329575027838223e-9,9.300003648281237e-9,1.9310378192897748e-8,2.184297185896495e-8,3.822431413912594e-8,2.7316321048147226e-8,7.465813259767745e-9,1.517275844090449e-9,0
50387,2.2562616072293355e-9,9.351390340737387e-9,1.9156563445002626e-8,2.175936569619604e-8,3.793446758802474e-8,2.7763375574626145e-8,7.539268585943728e-9,1.525161085414634e-9,0
50388,2.2795657116748488e-9,9.402777033193537e-9,1.9002748697107507e-8,2.167575953342713e-8,3.764462103692354e-8,2.821043010110506e-8,7.612723912119711e-9,1.533046326738819e-9,0
50389,2.305008197617723e-9,9.472942542895452e-9,1.899175459870897e-8,2.1657850511438142e-8,3.774996744052022e-8,2.8572642930952084e-8,7.650951022993076e-9,1.533046326738819e-9,0
50390,2.333873309349439e-9,9.528508182881189e-9,1.8937234780778005e-8,2.16737645209583e-8,3.807045692350306e-8,2.9019697457430998e-8,7.728225871822644e-9,1.5444626795210194e-9,0
50391,2.3349394616154604e-9,9.538573910391012e-9,1.888418969237868e-8,2.17621944525222e-8,3.836464005230047e-8,2.9039752058569775e-8,7.727405244739804e-9,1.547993790979035e-9,0
50392,2.336005613881482e-9,9.548639637900834e-9,1.8831144603979356e-8,2.18506243840861e-8,3.865882318109788e-8,2.905980665970855e-8,7.726584617656965e-9,1.5515249024370504e-9,0
50393,2.3370717661475034e-9,9.558705365410655e-9,1.8778099515580028e-8,2.193905431565e-8,3.8953006309895295e-8,2.9079861260847328e-8,7.725763990574123e-9,1.555056013895066e-9,0
50394,2.338137918413525e-9,9.568771092920478e-9,1.8725054427180703e-8,2.20274842472139e-8,3.924718943869271e-8,2.90999158619861e-8,7.724943363491283e-9,1.5585871253530814e-9,0
50395,2.3392040706795463e-9,9.578836820430301e-9,1.867200933878138e-8,2.21159141787778e-8,3.954137256749012e-8,2.9119970463124878e-8,7.724122736408442e-9,1.562118236811097e-9,0
50396,2.340270222945568e-9,9.588902547940122e-9,1.861896425038205e-8,2.22043441103417e-8,3.983555569628753e-8,2.9140025064263655e-8,7.723302109325602e-9,1.5656493482691124e-9,0
50397,2.341336375211589e-9,9.598968275449945e-9,1.8565919161982726e-8,2.22927740419056e-8,4.0129738825084946e-8,2.916007966540243e-8,7.722481482242762e-9,1.569180459727128e-9,0
50398,2.3424025274776103e-9,9.609034002959766e-9,1.85128740735834e-8,2.23812039734695e-8,4.042392195388236e-8,2.9180134266541208e-8,7.721660855159921e-9,1.5727115711851434e-9,0
50399,2.3426145425377512e-9,9.605353808547386e-9,1.8461255635660234e-8,2.232933776898893e-8,4.0387200730799176e-8,2.9164310843265105e-8,7.736314328445504e-9,1.573075676113657e-9,0
50400,2.3428265575978917e-9,9.601673614135005e-9,1.8409637197737066e-8,2.227747156450836e-8,4.035047950771599e-8,2.9148487419989002e-8,7.750967801731085e-9,1.5734397810421706e-9,0
50401,2.3430385726580322e-9,9.597993419722625e-9,1.8358018759813896e-8,2.222560536002779e-8,4.03137582846328e-8,2.91326639967129e-8,7.765621275016666e-9,1.5738038859706842e-9,0
50402,2.343250587718173e-9,9.594313225310245e-9,1.8306400321890728e-8,2.2173739155547218e-8,4.0277037061549615e-8,2.9116840573436796e-8,7.780274748302248e-9,1.5741679908991977e-9,0
50403,2.3434626027783137e-9,9.590633030897864e-9,1.825478188396756e-8,2.212187295106665e-8,4.0240315838466426e-8,2.9101017150160693e-8,7.794928221587829e-9,1.5745320958277113e-9,0
50404,2.3436746178384546e-9,9.586952836485484e-9,1.8203163446044393e-8,2.207000674658608e-8,4.020359461538324e-8,2.908519372688459e-8,7.80958169487341e-9,1.5748962007562249e-9,0
50405,2.343886632898595e-9,9.583272642073104e-9,1.8151545008121226e-8,2.2018140542105507e-8,4.0166873392300055e-8,2.9069370303608487e-8,7.824235168158993e-9,1.5752603056847385e-9,0
50406,2.3440986479587356e-9,9.579592447660724e-9,1.809992657019806e-8,2.1966274337624938e-8,4.0130152169216865e-8,2.9053546880332384e-8,7.838888641444573e-9,1.575624410613252e-9,0
50407,2.3443106630188765e-9,9.575912253248343e-9,1.8048308132274888e-8,2.191440813314437e-8,4.0093430946133676e-8,2.903772345705628e-8,7.853542114730156e-9,1.5759885155417656e-9,0
50408,2.344522678079017e-9,9.572232058835963e-9,1.799668969435172e-8,2.1862541928663797e-8,4.005670972305049e-8,2.9021900033780178e-8,7.868195588015737e-9,1.5763526204702792e-9,0
50409,2.3447346931391575e-9,9.568551864423583e-9,1.7945071256428553e-8,2.1810675724183227e-8,4.0019988499967305e-8,2.9006076610504072e-8,7.882849061301318e-9,1.5767167253987928e-9,0
50410,2.3449467081992984e-9,9.564871670011203e-9,1.7893452818505386e-8,2.1758809519702658e-8,3.9983267276884116e-8,2.899025318722797e-8,7.8975025345869e-9,1.5770808303273063e-9,0
50411,2.345158723259439e-9,9.561191475598822e-9,1.784183438058222e-8,2.1706943315222086e-8,3.994654605380093e-8,2.8974429763951866e-8,7.912156007872481e-9,1.57744493525582e-9,0
50412,2.3453707383195794e-9,9.557511281186442e-9,1.779021594265905e-8,2.1655077110741517e-8,3.9909824830717744e-8,2.8958606340675763e-8,7.926809481158062e-9,1.5778090401843335e-9,0
50413,2.3455827533797203e-9,9.553831086774062e-9,1.7738597504735884e-8,2.1603210906260948e-8,3.9873103607634555e-8,2.894278291739966e-8,7.941462954443645e-9,1.578173145112847e-9,0
50414,2.345794768439861e-9,9.550150892361681e-9,1.7686979066812713e-8,2.155134470178038e-8,3.9836382384551366e-8,2.8926959494123557e-8,7.956116427729226e-9,1.5785372500413606e-9,0
50415,2.3460067835000013e-9,9.546470697949301e-9,1.7635360628889545e-8,2.1499478497299806e-8,3.9799661161468184e-8,2.8911136070847454e-8,7.970769901014807e-9,1.5789013549698742e-9,0
50416,2.3462187985601422e-9,9.542790503536921e-9,1.7583742190966378e-8,2.1447612292819237e-8,3.9762939938384995e-8,2.889531264757135e-8,7.98542337430039e-9,1.5792654598983878e-9,0
50417,2.3464308136202827e-9,9.53911030912454e-9,1.753212375304321e-8,2.1395746088338668e-8,3.9726218715301805e-8,2.8879489224295248e-8,8.00007684758597e-9,1.5796295648269014e-9,0
50418,2.3466428286804237e-9,9.53543011471216e-9,1.7480505315120043e-8,2.1343879883858095e-8,3.968949749221862e-8,2.8863665801019145e-8,8.014730320871553e-9,1.579993669755415e-9,0
50419,2.346854843740564e-9,9.53174992029978e-9,1.7428886877196876e-8,2.1292013679377526e-8,3.9652776269135434e-8,2.8847842377743042e-8,8.029383794157134e-9,1.5803577746839285e-9,0
50420,2.3479209960065856e-9,9.51869920320998e-9,1.7373755637633272e-8,2.1278693855322246e-8,3.9679660211251783e-8,2.886789697888182e-8,8.040211367921627e-9,1.5804924228726219e-9,0
50421,2.3485631181523257e-9,9.51869920320998e-9,1.7398307208891847e-8,2.123870554519371e-8,3.963739795594632e-8,2.8862037884608516e-8,8.038222732320303e-9,1.5812604723672158e-9,0
50422,2.349629270418347e-9,9.503532565718008e-9,1.7348887590648388e-8,2.118316782767979e-8,3.9594083446473436e-8,2.8835073016255313e-8,8.037402105237461e-9,1.5816245772957293e-9,0
50423,2.3506954226843686e-9,9.488365928226036e-9,1.729946797240493e-8,2.1127630110165863e-8,3.955076893700055e-8,2.8808108147902114e-8,8.036581478154622e-9,1.581988682224243e-9,0
50424,2.35176157495039e-9,9.473199290734064e-9,1.7250048354161467e-8,2.1072092392651938e-8,3.950745442752767e-8,2.878114327954891e-8,8.035760851071782e-9,1.5823527871527565e-9,0
50425,2.35176157495039e-9,9.460866492121065e-9,1.7183210417040222e-8,2.1023118286995767e-8,3.950725167786659e-8,2.8760037505469015e-8,8.036101855639923e-9,1.581489929107036e-9,0
50426,2.3528277272164116e-9,9.398303187110599e-9,1.705834487976309e-8,2.0981499566533174e-8,3.945710262648088e-8,2.876803902202701e-8,8.035281228557083e-9,1.5799538301178484e-9,0
50427,2.3521108820737458e-9,9.39654999050846e-9,1.702898805472334e-8,2.0979412373603414e-8,3.944432155302363e-8,2.8645005145234087e-8,8.007212436046935e-9,1.5767868235883465e-9,0
50428,2.3437068020781525e-9,9.26354918029903e-9,1.6890260059848828e-8,2.0916167027888014e-8,3.933236562096631e-8,2.8573120296308234e-8,8.001719774890154e-9,1.5745623543796983e-9,0
50429,2.3353027220825597e-9,9.130548370089603e-9,1.6751532064974316e-8,2.0852921682172615e-8,3.9220409688908993e-8,2.8501235447382382e-8,7.996227113733376e-9,1.5723378851710502e-9,0
50430,2.326898642086967e-9,8.997547559880176e-9,1.66128040700998e-8,2.0789676336457215e-8,3.9108453756851676e-8,2.842935059845653e-8,7.990734452576596e-9,1.5701134159624022e-9,0
50431,2.328108163381521e-9,8.97711380345852e-9,1.661234837662256e-8,2.0754268984844474e-8,3.9099015953486804e-8,2.8432099107271837e-8,7.985241791419815e-9,1.5701134159624022e-9,0
50432,2.329317684676076e-9,8.956680047036864e-9,1.6611892683145325e-8,2.0718861633231734e-8,3.908957815012193e-8,2.8434847616087148e-8,7.979749130263037e-9,1.5701134159624022e-9,0
50433,2.32967306876475e-9,8.93836221101738e-9,1.668704867568818e-8,2.0683227950175623e-8,3.913028939814278e-8,2.8434847616087148e-8,7.989730569474679e-9,1.5723378851710502e-9,0
50434,2.3364375203801887e-9,8.930261253208726e-9,1.668983738718054e-8,2.0738057061964796e-8,3.992514966661206e-8,2.8668070874795873e-8,8.008860067080118e-9,1.581639706571723e-9,0
50435,2.3432019719956276e-9,8.922160295400069e-9,1.6692626098672902e-8,2.0792886173753966e-8,4.072000993508134e-8,2.8901294133504598e-8,8.027989564685556e-9,1.5909415279723955e-9,0
50436,2.349966423611066e-9,8.914059337591414e-9,1.6695414810165264e-8,2.0847715285543136e-8,4.1514870203550616e-8,2.9134517392213323e-8,8.047119062290996e-9,1.6002433493730681e-9,0
50437,2.356730875226505e-9,8.905958379782758e-9,1.6698203521657625e-8,2.0902544397332305e-8,4.230973047201989e-8,2.9367740650922048e-8,8.066248559896435e-9,1.6095451707737407e-9,0
50438,2.363495326841944e-9,8.897857421974101e-9,1.6700992233149987e-8,2.0957373509121478e-8,4.310459074048917e-8,2.9600963909630773e-8,8.085378057501873e-9,1.6188469921744133e-9,0
50439,2.370259778457383e-9,8.889756464165446e-9,1.6703780944642352e-8,2.1012202620910648e-8,4.389945100895845e-8,2.98341871683395e-8,8.104507555107312e-9,1.628148813575086e-9,0
50440,2.377024230072822e-9,8.88165550635679e-9,1.6706569656134713e-8,2.1067031732699817e-8,4.469431127742773e-8,3.006741042704822e-8,8.123637052712752e-9,1.6374506349757586e-9,0
50441,2.3837886816882608e-09,8.873554548548134e-9,1.6709358367627075e-8,2.112186084448899e-8,4.548917154589701e-8,3.030063368575695e-8,8.14276655031819e-9,1.6467524563764312e-9,0
50442,2.384574172862534e-9,8.889446633640171e-9,1.6723505732299766e-8,2.1090125005909602e-8,4.549109556836189e-8,3.033658684356122e-8,8.144571929900439e-9,1.6499194629059332e-9,0
50443,2.3853596640368075e-9,8.905338718732206e-9,1.6737653096972457e-8,2.1058389167330218e-8,4.5493019590826774e-8,3.0372540001365486e-8,8.146377309482688e-9,1.653086469435435e-9,0
50444,2.386145155211081e-9,8.921230803824243e-9,1.6751800461645148e-8,2.1026653328750833e-8,4.5494943613291654e-8,3.040849315916975e-8,8.148182689064937e-9,1.656253475964937e-9,0
50445,2.3869306463853543e-9,8.937122888916278e-9,1.676594782631784e-8,2.099491749017145e-8,4.549686763575654e-8,3.0444446316974024e-8,8.149988068647186e-9,1.659420482494439e-9,0
50446,2.385789771122407e-9,8.932399824117991e-9,1.6592322171485364e-8,2.0789757957204383e-8,4.54429150670233e-8,3.0422734456363506e-8,8.146831424527375e-9,1.6610513900347533e-9,0
50447,2.382161207238743e-9,8.94349330062989e-9,1.652204104159915e-8,2.079342947023774e-8,4.542847349041542e-8,3.045874128087448e-8,8.112044570534438e-9,1.651559951531827e-9,0
50448,2.378532643355079e-9,8.954586777141787e-9,1.6451759911712932e-8,2.0797100983271093e-8,4.541403191380754e-8,3.049474810538545e-8,8.077257716541501e-9,1.642068513028901e-9,0
50449,2.3749040794714156e-9,8.965680253653685e-9,1.6381478781826716e-8,2.080077249630445e-8,4.539959033719965e-8,3.0530754929896425e-8,8.042470862548564e-9,1.6325770745259747e-9,0
50450,2.3712755155877516e-9,8.976773730165583e-9,1.6311197651940503e-8,2.0804444009337802e-8,4.538514876059177e-8,3.0566761754407405e-8,8.007684008555627e-9,1.6230856360230486e-9,0
50451,2.3676469517040877e-9,8.98786720667748e-9,1.6240916522054287e-8,2.0808115522371155e-8,4.5370707183983887e-8,3.060276857891838e-8,7.97289715456269e-9,1.6135941975201223e-9,0
50452,2.364018387820424e-9,8.998960683189378e-9,1.617063539216807e-8,2.081178703540451e-8,4.535626560737601e-8,3.063877540342935e-8,7.938110300569752e-9,1.6041027590171963e-9,0
50453,2.36038982393676e-9,9.010054159701276e-9,1.6100354262281855e-8,2.0815458548437864e-8,4.534182403076813e-8,3.067478222794032e-8,7.903323446576815e-9,1.59461132051427e-9,0
50454,2.356761260053096e-9,9.021147636213174e-9,1.603007313239564e-8,2.081913006147122e-8,4.532738245416024e-8,3.0710789052451296e-8,7.86853659258388e-9,1.585119882011344e-9,0
50455,2.360688715924463e-9,9.050808356871808e-9,1.598073461401661e-8,2.107352788235038e-8,4.566538304417833e-8,3.0900242960563476e-8,7.860170900067905e-9,1.587139604841745e-9,0
50456,2.3646161717958295e-9,9.080469077530444e-9,1.5931396095637576e-8,2.1327925703229537e-8,4.6003383634196416e-8,3.1089696868675656e-8,7.851805207551933e-9,1.589159327672146e-9,0
50457,2.368543627667196e-9,9.11012979818908e-9,1.5882057577258543e-8,2.1582323524108695e-8,4.6341384224214506e-8,3.1279150776787836e-8,7.84343951503596e-9,1.5911790505025472e-9,0
50458,2.3724710835385625e-9,9.139790518847716e-9,1.5832719058879513e-8,2.1836721344987853e-8,4.667938481423259e-8,3.1468604684900017e-8,7.835073822519988e-9,1.593198773332948e-9,0
50459,2.3763985394099294e-9,9.169451239506352e-9,1.578338054050048e-8,2.209111916586701e-8,4.701738540425068e-8,3.16580585930122e-8,7.826708130004015e-9,1.5952184961633491e-09,0
50460,2.380325995281296e-9,9.199111960164988e-9,1.5734042022121447e-8,2.234551698674617e-8,4.735538599426877e-8,3.1847512501124383e-8,7.818342437488043e-9,1.5972382189937502e-9,0
50461,2.388873444305422e-9,9.199111960164988e-9,1.5652402239054905e-8,2.285131521666034e-8,4.9617956970461424e-8,3.202295553162648e-8,7.825160855712373e-9,1.5972382189937502e-9,0
50462,2.3844593892474847e-9,9.175632791765334e-9,1.5573411949729798e-8,2.3269346030504898e-8,5.085631041118395e-8,3.2137564272133593e-8,7.801340193430488e-9,1.5877467804908241e-9,0
50463,2.3800453341895477e-9,9.15215362336568e-9,1.5494421660404687e-8,2.3687376844349457e-8,5.209466385190646e-8,3.2252173012640705e-8,7.7775195311486e-9,1.5782553419878978e-9,0
50464,2.3756312791316104e-9,9.128674454966025e-9,1.541543137107958e-8,2.4105407658194016e-8,5.333301729262898e-8,3.236678175314781e-8,7.753698868866715e-9,1.5687639034849718e-9,0
50465,2.3712172240736735e-9,9.10519528656637e-9,1.5336441081754473e-8,2.4523438472038572e-8,5.45713707333515e-8,3.248139049365492e-8,7.729878206584829e-9,1.5592724649820455e-9,0
50466,2.366803169015736e-9,9.081716118166716e-9,1.5257450792429365e-8,2.494146928588313e-8,5.580972417407402e-8,3.259599923416203e-8,7.706057544302941e-9,1.5497810264791194e-9,0
50467,2.362389113957799e-9,9.058236949767064e-9,1.5178460503104255e-8,2.535950009972769e-8,5.7048077614796535e-8,3.2710607974669144e-8,7.682236882021056e-9,1.5402895879761931e-9,0
50468,2.356684737643063e-9,9.03596686070085e-9,1.5174765424072928e-8,2.5777484823341782e-8,5.8288458552129764e-8,3.282745573753301e-8,7.701334495288981e-9,1.543456594505695e-9,0
50469,2.354758371205843e-9,9.037840965236334e-9,1.518249358768188e-8,2.6170573861617034e-8,5.9523703956562856e-8,3.2944303500396884e-8,7.71959872773906e-9,1.5468530577750172e-9,0
50470,2.3528320047686225e-9,9.039715069771816e-9,1.5190221751290835e-8,2.656366289989229e-8,6.075894936099595e-8,3.306115126326075e-8,7.73786296018914e-9,1.5502495210443393e-9,0
50471,2.350905638331402e-9,9.041589174307301e-9,1.5197949914899786e-8,2.6956751938167543e-8,6.199419476542903e-8,3.3177999026124624e-8,7.756127192639218e-9,1.5536459843136615e-9,0
50472,2.3489792718941817e-9,9.043463278842785e-9,1.520567807850874e-8,2.7349840976442795e-8,6.322944016986213e-8,3.329484678898849e-8,7.774391425089298e-9,1.5570424475829836e-9,0
50473,2.347052905456961e-9,9.045337383378268e-9,1.5213406242117693e-8,2.7742930014718048e-8,6.446468557429522e-8,3.3411694551852365e-8,7.792655657539377e-9,1.5604389108523055e-9,0
50474,2.3451265390197406e-9,9.047211487913753e-9,1.522113440572665e-8,2.81360190529933e-8,6.569993097872832e-8,3.352854231471623e-8,7.810919889989457e-9,1.5638353741216277e-9,0
50475,2.3432001725825204e-9,9.049085592449237e-9,1.52288625693356e-8,2.8529108091268556e-8,6.69351763831614e-8,3.3645390077580105e-8,7.829184122439537e-9,1.5672318373909498e-9,0
50476,2.3412738061453e-9,9.05095969698472e-9,1.5236590732944555e-8,2.892219712954381e-8,6.817042178759449e-8,3.376223784044397e-8,7.847448354889616e-9,1.570628300660272e-9,0
50477,2.3393474397080792e-9,9.052833801520204e-9,1.5244318896553507e-8,2.931528616781906e-8,6.940566719202759e-8,3.3879085603307845e-8,7.865712587339695e-9,1.574024763929594e-9,0
50478,2.3377764573595325e-9,9.061985158838031e-9,1.5256471248757373e-8,2.9291069476810334e-8,6.939175685267878e-8,3.3974760335080855e-8,7.87982266943555e-9,1.5746581652354944e-9,0
50479,2.336205475010986e-9,9.071136516155858e-9,1.5268623600961235e-8,2.9266852785801606e-8,6.937784651333e-8,3.4070435066853865e-8,7.893932751531406e-9,1.575291566541395e-9,0
50480,2.3346344926624394e-9,9.080287873473684e-9,1.5280775953165098e-8,2.924263609479288e-8,6.936393617398121e-8,3.4166109798626875e-8,7.90804283362726e-9,1.5759249678472952e-9,0
50481,2.3330635103138926e-9,9.08943923079151e-9,1.529292830536896e-8,2.921841940378415e-8,6.935002583463242e-8,3.4261784530399885e-8,7.922152915723116e-9,1.5765583691531955e-9,0
50482,2.3314925279653463e-9,9.098590588109336e-9,1.5305080657572822e-8,2.9194202712775424e-8,6.933611549528362e-8,3.4357459262172895e-8,7.936262997818971e-9,1.577191770459096e-9,0
50483,2.3299215456167995e-9,9.083597751825466e-9,1.525011016558013e-8,2.916472606892079e-8,6.93511165946619e-8,3.4421256727810026e-8,7.951206460732673e-9,1.5778251717649963e-9,0
50484,2.3281385482081123e-9,9.063012844702805e-9,1.5179721386593994e-8,2.9138195853538933e-8,6.9433591344871e-8,3.445757196225698e-8,7.952039841550518e-9,1.578917486550537e-9,0
50485,2.326355550799425e-9,9.042427937580144e-9,1.5109332607607855e-8,2.9111665638157076e-8,6.95160660950801e-8,3.449388719670393e-8,7.952873222368364e-9,1.5800098013360778e-9,0
50486,2.3245725533907378e-9,9.021843030457483e-9,1.5038943828621718e-8,2.908513542277522e-8,6.95985408452892e-8,3.4530202431150885e-8,7.95370660318621e-9,1.5811021161216185e-9,0
50487,2.3227895559820505e-9,9.001258123334822e-9,1.496855504963558e-8,2.9058605207393366e-8,6.968101559549831e-8,3.4566517665597844e-8,7.954539984004055e-9,1.5821944309071592e-9,0
50488,2.3210065585733633e-9,8.98067321621216e-9,1.4898166270649442e-8,2.903207499201151e-8,6.976349034570741e-8,3.46028329000448e-8,7.955373364821902e-9,1.5832867456927e-9,0
50489,2.319223561164676e-9,8.9600883090895e-9,1.4827777491663304e-8,2.9005544776629652e-8,6.984596509591651e-8,3.463914813449175e-8,7.956206745639748e-9,1.5843790604782407e-9,0
50490,2.3136686308437915e-9,8.911240746370875e-9,1.471929115954752e-8,2.8999467558762235e-8,6.988679186152354e-8,3.464784948068952e-8,7.976346503214607e-9,1.5852419185239614e-9,0
50491,2.319865683310416e-9,8.90444712532191e-9,1.4629059904973025e-8,2.9074330736282703e-8,6.989037638713906e-8,3.469640814289848e-8,7.996486260789464e-9,1.589326752012744e-9,0
50492,2.3260627357770402e-9,8.897653504272944e-9,1.453882865039853e-8,2.9149193913803172e-8,6.989396091275457e-8,3.4744966805107444e-8,8.016626018364323e-9,1.5934115855015265e-9,0
50493,2.332259788243665e-9,8.890859883223976e-9,1.4448597395824037e-8,2.9224057091323644e-8,6.989754543837008e-8,3.4793525467316406e-8,8.036765775939181e-9,1.5974964189903093e-9,0
50494,2.3384568407102894e-9,8.8840662621750108e-09,1.4358366141249541e-8,2.9298920268844112e-8,6.99011299639856e-8,3.484208412952537e-8,8.05690553351404e-9,1.6015812524790919e-9,0
50495,2.3446538931769136e-9,8.877272641126045e-9,1.4268134886675046e-8,2.937378344636458e-8,6.990471448960111e-8,3.489064279173433e-8,8.077045291088899e-9,1.6056660859678745e-9,0
50496,2.3508509456435382e-9,8.870479020077078e-9,1.417790363210055e-8,2.944864662388505e-8,6.990829901521662e-8,3.4939201453943294e-8,8.097185048663756e-9,1.6097509194566572e-9,0
50497,2.3570479981101624e-9,8.863685399028112e-9,1.4087672377526057e-8,2.9523509801405518e-8,6.991188354083213e-8,3.4987760116152257e-8,8.117324806238615e-9,1.6138357529454398e-9,0
50498,2.363245050576787e-9,8.856891777979145e-9,1.3997441122951562e-8,2.9598372978925987e-8,6.991546806644765e-8,3.503631877836122e-8,8.137464563813473e-9,1.6179205864342224e-9,0
50499,2.3694421030434116e-9,8.85009815693018e-9,1.3907209868377066e-8,2.9673236156446456e-8,6.991905259206316e-8,3.508487744057018e-8,8.157604321388332e-9,1.6220054199230051e-9,0
50500,2.3756391555100358e-9,8.843304535881214e-9,1.3816978613802571e-8,2.9748099333966924e-8,6.992263711767867e-8,3.5133436102779144e-8,8.17774407896319e-9,1.6260902534117877e-9,0
50501,2.3818362079766604e-9,8.836510914832246e-9,1.3726747359228077e-8,2.982296251148739e-8,6.992622164329419e-8,3.518199476498811e-8,8.197883836538048e-9,1.6301750869005703e-9,0
50502,2.388033260443285e-9,8.82971729378328e-9,1.3636516104653582e-8,2.989782568900786e-8,6.99298061689097e-8,3.523055342719707e-8,8.218023594112906e-9,1.6342599203893528e-9,0
50503,2.4005142423040958e-9,8.791789406368455e-9,1.3528029772537799e-8,3.0034563864456634e-8,7.000359936646522e-8,3.5242566435375405e-8,8.252083800897041e-9,1.6489380882521821e-9,0
50504,2.39389315971719e-9,8.742065245348762e-9,1.3395356423945232e-8,3.0034563864456634e-8,7.000718389208073e-8,3.529127536436315e-8,8.266534887561038e-9,1.652105094781684e-9,0
50505,2.3936811446570492e-9,8.733450413039069e-9,1.33659780690855e-8,3.001620629928986e-8,6.988783991706037e-8,3.53380000142234e-8,8.281812978175378e-9,1.6548681567451057e-9,0
50506,2.3938245136855826e-9,8.724110133129311e-9,1.3345663389615428e-8,2.99801117139291e-8,6.98411273895621e-8,3.538069170578063e-8,8.285468375412395e-9,1.6576312187085275e-9,0
50507,2.393967882714116e-9,8.714769853219553e-9,1.3309501278910168e-8,2.973036231377293e-8,6.965203918848748e-8,3.539952911444266e-8,8.296415436520938e-9,1.6585737560293813e-9,0
50508,2.394111251742649e-9,8.705429573309795e-9,1.3273339168204907e-8,2.948061291361676e-8,6.946295098741285e-8,3.541836652310468e-8,8.30736249762948e-9,1.659516293350235e-9,0
50509,2.394254620771182e-9,8.696089293400038e-9,1.3237177057499645e-8,2.923086351346059e-8,6.927386278633822e-8,3.543720393176671e-8,8.318309558738024e-9,1.660458830671089e-9,0
50510,2.394397989799715e-9,8.68674901349028e-9,1.3201014946794385e-8,2.898111411330442e-8,6.90847745852636e-8,3.545604134042874e-8,8.329256619846566e-9,1.6614013679919427e-9,0
50511,2.3945413588282484e-9,8.677408733580522e-9,1.3164852836089124e-8,2.873136471314825e-8,6.889568638418896e-8,3.5474878749090765e-8,8.340203680955109e-9,1.6623439053127967e-9,0
50512,2.3946847278567817e-9,8.668068453670764e-9,1.3128690725383862e-8,2.848161531299208e-8,6.870659818311433e-8,3.5493716157752795e-8,8.351150742063651e-9,1.6632864426336504e-9,0
50513,2.3950401119454555e-9,8.68956773098542e-9,1.3225201963271168e-8,2.822655986975954e-8,6.857155580456801e-8,3.5493834224507545e-8,8.350468732927368e-9,1.660832516685182e-9,0
50514,2.3951834809739884e-9,8.68615959520739e-9,1.3189039852565908e-8,2.7974358674538844e-8,6.839403217898421e-8,3.552747322656567e-8,8.377250029574982e-9,1.660832516685182e-9,0
50515,2.3953268500025217e-9,8.68275145942936e-9,1.3152877741860647e-8,2.772215747931815e-8,6.82165085534004e-8,3.556111222862379e-8,8.404031326222597e-9,1.660832516685182e-9,0
50516,2.395470219031055e-9,8.679343323651328e-9,1.3116715631155385e-8,2.746995628409745e-8,6.80389849278166e-8,3.5594751230681905e-8,8.430812622870212e-9,1.660832516685182e-9,0
50517,2.395613588059588e-9,8.675935187873298e-9,1.3080553520450125e-8,2.7217755088876756e-8,6.78614613022328e-8,3.562839023274002e-8,8.457593919517826e-9,1.660832516685182e-9,0
50518,2.3957569570881213e-9,8.672527052095267e-9,1.3044391409744864e-8,2.696555389365606e-8,6.7683937676649e-8,3.566202923479814e-8,8.48437521616544e-9,1.660832516685182e-9,0
50519,2.395900326116654e-9,8.669118916317236e-9,1.3008229299039602e-8,2.6713352698435365e-8,6.75064140510652e-8,3.569566823685626e-8,8.511156512813055e-9,1.660832516685182e-9,0
50520,2.3960436951451875e-9,8.665710780539205e-9,1.2972067188334342e-8,2.646115150321467e-8,6.732889042548138e-8,3.5729307238914375e-8,8.53793780946067e-9,1.660832516685182e-9,0
50521,2.396187064173721e-9,8.662302644761175e-9,1.2935905077629081e-8,2.6208950307993975e-8,6.715136679989758e-8,3.576294624097249e-8,8.564719106108283e-9,1.660832516685182e-9,0
50522,2.3963304332022537e-9,8.658894508983144e-9,1.2899742966923819e-8,2.595674911277328e-8,6.697384317431378e-8,3.579658524303061e-8,8.591500402755897e-9,1.660832516685182e-9,0
50523,2.396473802230787e-9,8.655486373205114e-9,1.2863580856218558e-8,2.5704547917552585e-8,6.679631954872998e-8,3.583022424508873e-8,8.618281699403512e-9,1.660832516685182e-9,0
50524,2.3966171712593204e-9,8.652078237427083e-9,1.2827418745513298e-8,2.5452346722331886e-8,6.661879592314617e-8,3.586386324714685e-8,8.645062996051127e-9,1.660832516685182e-9,0
50525,2.3967605402878533e-9,8.648670101649052e-9,1.2791256634808037e-8,2.520014552711119e-8,6.644127229756237e-8,3.589750224920497e-8,8.671844292698741e-9,1.660832516685182e-9,0
50526,2.3969039093163866e-9,8.64526196587102e-9,1.2755094524102775e-8,2.4947944331890496e-8,6.626374867197857e-8,3.593114125126309e-8,8.698625589346356e-9,1.660832516685182e-9,0
50527,2.395837757050365e-9,8.638551480864473e-9,1.2725716169243042e-8,2.4896078127409927e-8,6.62731702332725e-8,3.5838901267640904e-8,8.700501114471135e-9,1.657760318706807e-9,0
50528,2.395837757050365e-9,8.642420597868785e-9,1.27167601429533e-8,2.4879569064602674e-8,6.625362560790636e-8,3.584662657428694e-8,8.730445432106062e-9,1.6595808433493749e-9,0
50529,2.395837757050365e-9,8.646289714873096e-9,1.270780411666356e-8,2.4863060001795424e-8,6.623408098254023e-8,3.5854351880932973e-8,8.76038974974099e-9,1.6614013679919427e-9,0
50530,2.395837757050365e-9,8.650158831877409e-9,1.269884809037382e-8,2.484655093898817e-8,6.621453635717409e-8,3.5862077187579015e-8,8.790334067375916e-9,1.6632218926345106e-9,0
50531,2.395837757050365e-9,8.65402794888172e-9,1.2689892064084078e-8,2.483004187618092e-8,6.619499173180796e-8,3.586980249422505e-8,8.820278385010844e-9,1.6650424172770785e-9,0
50532,2.395837757050365e-9,8.657897065886032e-9,1.2680936037794336e-8,2.4813532813373667e-8,6.617544710644182e-8,3.587752780087109e-8,8.850222702645772e-9,1.6668629419196464e-9,0
50533,2.395837757050365e-9,8.661766182890343e-9,1.2671980011504595e-8,2.4797023750566414e-8,6.615590248107567e-8,3.5885253107517126e-8,8.880167020280698e-9,1.6686834665622144e-9,0
50534,2.395837757050365e-9,8.665635299894656e-9,1.2663023985214855e-8,2.4780514687759164e-8,6.613635785570954e-8,3.589297841416317e-8,8.910111337915626e-9,1.6705039912047823e-9,0
50535,2.430332522099891e-9,8.743282106354674e-9,1.272506815954389e-8,2.4815871829432483e-8,6.620344224928917e-8,3.63199783395033e-8,9.006988929997828e-9,1.7170075500177315e-9,0
50536,2.4648272871494167e-9,8.820928912814694e-9,1.2787112333872925e-8,2.48512289711058e-8,6.62705266428688e-8,3.6746978264843444e-8,9.103866522080032e-9,1.7635111088306808e-9,0
50537,2.468249912938258e-9,8.824798029819006e-9,1.2778767729215824e-8,2.48512289711058e-8,6.624876199158164e-8,3.680081140147778e-8,9.103525517511891e-9,1.7646432632537882e-9,0
50538,2.4716725387270995e-9,8.828667146823319e-9,1.2770423124558721e-8,2.48512289711058e-8,6.622699734029448e-8,3.6854644538112104e-8,9.103184512943748e-9,1.7657754176768955e-9,0
50539,2.4750951645159407e-9,8.83253626382763e-9,1.2762078519901619e-8,2.48512289711058e-8,6.620523268900733e-8,3.690847767474644e-8,9.102843508375608e-9,1.766907572100003e-9,0
50540,2.4785177903047823e-9,8.836405380831941e-9,1.2753733915244518e-8,2.48512289711058e-8,6.618346803772017e-8,3.6962310811380765e-8,9.102502503807465e-9,1.7680397265231103e-9,0
50541,2.4819404160936235e-9,8.840274497836253e-9,1.2745389310587415e-8,2.48512289711058e-8,6.616170338643302e-8,3.70161439480151e-8,9.102161499239324e-9,1.7691718809462176e-9,0
50542,2.485151026822324e-9,8.820664446440911e-9,1.2726506301009013e-8,2.4772346157253036e-8,6.607285434156623e-8,3.71169965541414e-8,9.083556262221103e-9,1.7709374366752253e-9,0
50543,2.4887170216396986e-9,8.826407667980707e-9,1.2723240366219429e-8,2.4783913779118683e-8,6.592738869686098e-8,3.7083089218549754e-8,9.036698976673657e-9,1.7709374366752253e-9,0
50544,2.492283016457073e-9,8.832150889520503e-9,1.2719974431429843e-8,2.4795481400984328e-8,6.578192305215573e-8,3.704918188295811e-8,8.989841691126212e-9,1.7709374366752253e-9,0
50545,2.495849011274448e-9,8.837894111060299e-9,1.2716708496640259e-8,2.4807049022849975e-8,6.563645740745048e-8,3.7015274547366454e-8,8.942984405578767e-9,1.7709374366752253e-9,0
50546,2.4994150060918226e-9,8.843637332600094e-9,1.2713442561850675e-8,2.4818616644715623e-8,6.549099176274524e-8,3.698136721177481e-8,8.896127120031322e-9,1.7709374366752253e-9,0
50547,2.502981000909197e-9,8.84938055413989e-9,1.2710176627061089e-8,2.483018426658127e-8,6.534552611803998e-8,3.694745987618316e-8,8.849269834483876e-9,1.7709374366752253e-9,0
50548,2.5065469957265716e-9,8.855123775679686e-9,1.2706910692271505e-8,2.4841751888446918e-8,6.520006047333472e-8,3.6913552540591506e-8,8.802412548936431e-9,1.7709374366752253e-9,0
50549,2.510112990543946e-9,8.86086699721948e-9,1.270364475748192e-8,2.4853319510312565e-8,6.505459482862948e-8,3.687964520499986e-8,8.755555263388986e-9,1.7709374366752253e-9,0
50550,2.5136789853613206e-9,8.866610218759276e-9,1.2700378822692335e-8,2.4864887132178213e-8,6.490912918392423e-8,3.6845737869408206e-8,8.70869797784154e-9,1.7709374366752253e-9,0
50551,2.517244980178695e-9,8.872353440299072e-9,1.269711288790275e-8,2.487645475404386e-8,6.476366353921898e-8,3.681183053381656e-8,8.661840692294095e-9,1.7709374366752253e-9,0
50552,2.52081097499607e-9,8.878096661838867e-9,1.2693846953113166e-8,2.4888022375909508e-8,6.461819789451373e-8,3.677792319822491e-8,8.61498340674665e-9,1.7709374366752253e-9,0
50553,2.5243769698134446e-9,8.883839883378663e-9,1.2690581018323582e-8,2.4899589997775155e-8,6.447273224980847e-8,3.674401586263326e-8,8.568126121199205e-9,1.7709374366752253e-9,0
50554,2.527942964630819e-9,8.889583104918459e-9,1.2687315083533996e-8,2.4911157619640803e-8,6.432726660510323e-8,3.671010852704161e-8,8.521268835651758e-9,1.7709374366752253e-9,0
50555,2.534707416246258e-9,8.914936377853598e-9,1.274771228977152e-8,2.5302242632597367e-8,6.509061819511358e-8,3.6926234646327866e-8,8.530973038970287e-9,1.7820597827184658e-9,0
50556,2.541471867861697e-9,8.940289650788735e-9,1.2808109496009044e-8,2.569332764555393e-8,6.585396978512393e-8,3.7142360765614114e-8,8.540677242288815e-9,1.7931821287617065e-9,0
50557,2.5422573590359703e-9,8.95189700180167e-9,1.2806318290751096e-8,2.5924853631525767e-8,6.593208331830472e-8,3.699883507765034e-8,8.51878312007173e-9,1.7957308632613015e-9,0
50558,2.5430428502102433e-9,8.963504352814606e-9,1.2804527085493147e-8,2.6156379617497608e-8,6.60101968514855e-8,3.685530938968657e-8,8.496888997854643e-9,1.7982795977608965e-9,0
50559,2.5438283413845167e-9,8.975111703827542e-9,1.28027358802352e-8,2.6387905603469444e-8,6.608831038466628e-8,3.6711783701722796e-8,8.474994875637559e-9,1.8008283322604915e-09,0
50560,2.54461383255879e-9,8.986719054840476e-9,1.2800944674977251e-8,2.6619431589441285e-8,6.616642391784706e-8,3.656825801375902e-8,8.453100753420474e-9,1.8033770667600866e-9,0
50561,2.5453993237330634e-9,8.998326405853412e-9,1.2799153469719302e-8,2.685095757541312e-8,6.624453745102785e-8,3.642473232579525e-8,8.431206631203388e-9,1.8059258012596816e-9,0
50562,2.5461848149073368e-9,9.009933756866347e-9,1.2797362264461355e-8,2.708248356138496e-8,6.632265098420863e-8,3.628120663783148e-8,8.409312508986303e-9,1.8084745357592768e-9,0
50563,2.54697030608161e-9,9.021541107879283e-9,1.2795571059203406e-8,2.73140095473568e-8,6.640076451738941e-8,3.61376809498677e-8,8.387418386769218e-9,1.8110232702588719e-9,0
50564,2.5474004131672097e-9,9.030911630556702e-9,1.2796863511344147e-8,2.7454163293000917e-8,6.645821437966328e-8,3.612574307507876e-8,8.39224179252472e-9,1.8128836345390063e-9,0
50565,2.5330738648314222e-9,9.01319833420394e-9,1.2783649063445917e-8,2.7682470428826143e-8,6.669352237683915e-8,3.6053826026128886e-8,8.409565910547909e-9,1.8154323690386013e-9,0
50566,2.5187473164956343e-9,8.995485037851176e-9,1.2770434615547688e-8,2.791077756465137e-8,6.692883037401502e-8,3.5981908977179005e-8,8.4268900285711e-9,1.8179811035381965e-9,0
50567,2.504420768159847e-9,8.977771741498413e-9,1.2757220167649456e-8,2.8139084700476595e-8,6.716413837119088e-8,3.590999192822913e-8,8.44421414659429e-9,1.8205298380377915e-9,0
50568,2.4900942198240593e-9,8.96005844514565e-9,1.2744005719751227e-8,2.836739183630182e-8,6.739944636836675e-8,3.583807487927925e-8,8.46153826461748e-9,1.8230785725373866e-9,0
50569,2.475767671488272e-9,8.942345148792885e-9,1.2730791271852996e-8,2.8595698972127048e-8,6.763475436554262e-8,3.5766157830329376e-8,8.47886238264067e-9,1.8256273070369816e-9,0
50570,2.4689971429075148e-9,8.913145409360531e-9,1.2721202294110631e-8,2.858581609024384e-8,6.767068083205247e-8,3.5729971395978516e-8,8.48982857435172e-9,1.8526396546412918e-9,0
50571,2.4622266143267577e-9,8.883945669928176e-9,1.2711613316368267e-8,2.8575933208360628e-8,6.770660729856231e-8,3.5693784961627657e-8,8.500794766062772e-9,1.8796520022456023e-9,0
50572,2.451528629874634e-9,8.854625022562478e-9,1.2696221578610313e-8,2.859430313265427e-8,6.773446648312196e-8,3.568537843506161e-8,8.494828859258797e-9,1.8822007367451973e-9,0
50573,2.4408306454225102e-9,8.82530437519678e-9,1.268082984085236e-8,2.861267305694791e-8,6.77623256676816e-8,3.567697190849557e-8,8.48886295245482e-9,1.8847494712447923e-9,0
50574,2.4301326609703867e-9,8.79598372783108e-9,1.2665438103094407e-8,2.8631042981241546e-8,6.779018485224125e-8,3.566856538192952e-8,8.482897045650845e-9,1.8872982057443873e-9,0
50575,2.4194346765182627e-9,8.766663080465382e-9,1.2650046365336453e-8,2.8649412905535187e-8,6.78180440368009e-8,3.566015885536348e-8,8.47693113884687e-9,1.8898469402439824e-9,0
50576,2.4087366920661392e-9,8.737342433099684e-9,1.26346546275785e-8,2.8667782829828827e-8,6.784590322136055e-8,3.5651752328797425e-8,8.470965232042893e-9,1.8923956747435774e-9,0
50577,2.3980387076140157e-9,8.708021785733985e-9,1.2619262889820546e-8,2.8686152754122467e-8,6.787376240592018e-8,3.564334580223138e-8,8.464999325238918e-9,1.8949444092431724e-9,0
50578,2.3873407231618917e-9,8.678701138368287e-9,1.2603871152062592e-8,2.8704522678416105e-8,6.790162159047983e-8,3.5634939275665336e-8,8.459033418434943e-9,1.8974931437427674e-9,0
50579,2.3766427387097682e-9,8.649380491002587e-9,1.258847941430464e-8,2.8722892602709745e-8,6.792948077503948e-8,3.562653274909929e-8,8.453067511630966e-9,1.9000418782423625e-9,0
50580,2.3659447542576443e-9,8.620059843636889e-9,1.2573087676546686e-8,2.8741262527003386e-8,6.795733995959913e-8,3.5618126222533246e-8,8.447101604826991e-9,1.902590612741958e-9,0
50581,2.3552467698055207e-9,8.59073919627119e-9,1.2557695938788734e-8,2.8759632451297026e-8,6.798519914415878e-8,3.56097196959672e-8,8.441135698023016e-9,1.905139347241553e-9,0
50582,2.344548785353397e-9,8.561418548905491e-9,1.254230420103078e-8,2.8778002375590663e-8,6.801305832871843e-8,3.5601313169401156e-8,8.43516979121904e-9,1.907688081741148e-9,0
50583,2.3338508009012733e-9,8.532097901539793e-9,1.2526912463272826e-8,2.8796372299884304e-8,6.804091751327807e-8,3.559290664283511e-8,8.429203884415065e-9,1.910236816240743e-9,0
50584,2.3231528164491497e-9,8.502777254174093e-9,1.2511520725514873e-8,2.8814742224177944e-8,6.806877669783772e-8,3.558450011626906e-8,8.42323797761109e-9,1.912785550740338e-9,0
50585,2.312454831997026e-9,8.473456606808395e-9,1.249612898775692e-8,2.8833112148471585e-8,6.809663588239736e-8,3.5576093589703015e-8,8.417272070807113e-9,1.915334285239933e-9,0
50586,2.3017568475449022e-9,8.444135959442697e-9,1.2480737249998967e-8,2.8851482072765222e-8,6.8124495066957e-8,3.556768706313697e-8,8.411306164003138e-9,1.917883019739528e-9,0
50587,2.2910588630927787e-9,8.414815312076998e-9,1.2465345512241013e-8,2.8869851997058862e-8,6.815235425151665e-8,3.5559280536570925e-8,8.405340257199163e-9,1.920431754239123e-9,0
50588,2.2803608786406548e-9,8.3854946647113e-9,1.2449953774483059e-8,2.8888221921352503e-8,6.81802134360763e-8,3.555087401000488e-8,8.399374350395186e-9,1.922980488738718e-9,0
50589,2.2696628941885312e-9,8.3561740173456e-9,1.2434562036725106e-8,2.890659184564614e-8,6.820807262063595e-8,3.5542467483438835e-8,8.393408443591211e-9,1.925529223238313e-9,0
50590,2.2589649097364077e-9,8.326853369979902e-9,1.2419170298967152e-8,2.892496176993978e-8,6.82359318051956e-8,3.553406095687279e-8,8.387442536787236e-9,1.928077957737908e-9,0
50591,2.2482669252842838e-9,8.297532722614204e-9,1.24037785612092e-8,2.894333169423342e-8,6.826379098975525e-8,3.552565443030674e-8,8.38147662998326e-9,1.9306266922375032e-9,0
50592,2.2375689408321602e-9,8.268023152656573e-9,1.2388386823451246e-8,2.89559807633765e-8,6.834521348579693e-8,3.546567525614581e-8,8.39880074800645e-9,1.954811427879252e-9,0
50593,2.2268709563800363e-9,8.238513582698942e-9,1.2372995085693292e-8,2.896862983251958e-8,6.842663598183862e-8,3.540569608198488e-8,8.41612486602964e-9,1.978996163521001e-9,0
50594,2.2252313279998824e-9,8.23077534869032e-9,1.2366988518466824e-8,2.8914487954478434e-8,6.844503509924227e-8,3.53928866440947e-8,8.412639971076694e-9,1.97686650286348e-9,0
50595,2.2141961903550394e-9,8.188721407020663e-9,1.2209988935646547e-8,2.8676436207461396e-8,6.824037605566822e-8,3.475671380004809e-8,8.362732775018481e-9,1.970731687992309e-9,0
50596,2.2031610527101965e-9,8.146667465351007e-9,1.205298935282627e-8,2.8438384460444357e-8,6.803571701209417e-8,3.412054095600149e-8,8.31282557896027e-9,1.964596873121138e-9,0
50597,2.1921259150653535e-9,8.10461352368135e-9,1.1895989770005994e-8,2.8200332713427318e-8,6.783105796852012e-8,3.348436811195489e-8,8.262918382902057e-9,1.9584620582499674e-9,0
50598,2.1810907774205106e-9,8.062559582011693e-9,1.1738990187185717e-8,2.796228096641028e-8,6.762639892494607e-8,3.2848195267908286e-8,8.213011186843845e-9,1.9523272433787968e-9,0
50599,2.170055639775668e-9,8.020505640342038e-9,1.158199060436544e-8,2.772422921939324e-8,6.7421739881372e-8,3.2212022423861684e-8,8.163103990785635e-9,1.946192428507626e-9,0
50600,2.159020502130825e-9,7.97845169867238e-9,1.1424991021545163e-8,2.74861774723762e-8,6.721708083779796e-8,3.157584957981508e-8,8.113196794727423e-9,1.9400576136364555e-9,0
50601,2.147985364485982e-9,7.936397757002723e-9,1.1267991438724886e-8,2.7248125725359163e-8,6.701242179422391e-8,3.093967673576848e-8,8.06328959866921e-9,1.933922798765285e-9,0
50602,2.1454976758652654e-9,7.936397757002723e-9,1.1256090972787382e-8,2.7194675200774997e-8,6.705733183856366e-8,3.095161461055742e-8,8.05912269457998e-9,1.9348653360861386e-9,0
50603,2.1430099872445487e-9,7.936397757002723e-9,1.1244190506849877e-8,2.7141224676190832e-8,6.71022418829034e-8,3.0963552485346366e-8,8.05495579049075e-9,1.9358078734069923e-9,0
50604,2.140522298623832e-9,7.936397757002723e-9,1.1232290040912372e-8,2.7087774151606667e-8,6.714715192724316e-8,3.0975490360135316e-8,8.050788886401522e-9,1.936750410727846e-9,0
50605,2.138670655183537e-9,7.936639572869412e-9,1.1236714229507281e-8,2.7074454327551387e-8,6.800670209922128e-8,3.147999238123927e-8,8.180338832663786e-9,1.955393893166758e-9,0
50606,2.1368190117432426e-9,7.9368813887361e-9,1.1241138418102192e-8,2.7061134503496103e-8,6.88662522711994e-8,3.198449440234323e-8,8.309888778926049e-9,1.97403737560567e-9,0
50607,2.1349673683029478e-9,7.937123204602788e-9,1.12455626066971e-8,2.7047814679440823e-8,6.97258024431775e-8,3.248899642344719e-8,8.439438725188314e-9,1.9926808580445817e-9,0
50608,2.133115724862653e-9,7.937365020469477e-9,1.124998679529201e-8,2.7034494855385544e-8,7.058535261515563e-8,3.299349844455115e-8,8.568988671450578e-9,2.011324340483494e-9,0
50609,2.131264081422358e-9,7.937606836336165e-9,1.1254410983886918e-8,2.7021175031330264e-8,7.144490278713375e-8,3.3498000465655105e-8,8.698538617712841e-9,2.029967822922406e-9,0
50610,2.1294124379820632e-9,7.937848652202853e-9,1.1258835172481829e-8,2.7007855207274984e-8,7.230445295911187e-8,3.400250248675907e-8,8.828088563975105e-9,2.048611305361318e-9,0
50611,2.1275607945417688e-9,7.93809046806954e-9,1.1263259361076738e-8,2.6994535383219704e-8,7.316400313108999e-8,3.450700450786302e-8,8.957638510237368e-9,2.0672547878002297e-9,0
50612,2.125709151101474e-9,7.938332283936228e-9,1.1267683549671647e-8,2.6981215559164424e-8,7.40235533030681e-8,3.5011506528966984e-8,9.087188456499633e-9,2.0858982702391416e-9,0
50613,2.123857507661179e-9,7.938574099802917e-9,1.1272107738266556e-8,2.696789573510914e-8,7.488310347504623e-8,3.551600855007094e-8,9.216738402761897e-9,2.1045417526780535e-9,0
50614,2.1220058642208842e-9,7.938815915669605e-9,1.1276531926861467e-08,2.695457591105386e-8,7.574265364702435e-8,3.60205105711749e-8,9.34628834902416e-9,2.1231852351169654e-9,0
50615,2.1183773003372207e-9,7.938128239960466e-9,1.1265537828462927e-8,2.6910869997661508e-8,7.579469423673306e-8,3.602252705032641e-8,9.396788278073617e-9,2.1288858468700685e-9,0
50616,2.1147487364535567e-9,7.937440564251329e-9,1.125454373006439e-8,2.6867164084269155e-8,7.584673482644177e-8,3.602454352947792e-8,9.447288207123073e-9,2.134586458623172e-9,0
50617,2.1111201725698928e-9,7.93675288854219e-9,1.1243549631665852e-8,2.6823458170876802e-8,7.589877541615048e-8,3.6026560008629434e-8,9.49778813617253e-9,2.1402870703762756e-9,0
50618,2.107491608686229e-9,7.936065212833052e-9,1.1232555533267313e-8,2.677975225748445e-8,7.59508160058592e-8,3.6028576487780944e-8,9.548288065221988e-9,2.145987682129379e-9,0
50619,2.1038630448025653e-9,7.935377537123913e-9,1.1221561434868775e-8,2.6736046344092097e-8,7.600285659556791e-8,3.6030592966932455e-8,9.598787994271444e-9,2.1516882938824827e-9,0
50620,2.1002344809189013e-9,7.934689861414774e-9,1.1210567336470237e-8,2.6692340430699744e-8,7.605489718527662e-8,3.6032609446083966e-8,9.649287923320902e-9,2.157388905635586e-9,0
50621,2.0966059170352373e-9,7.934002185705637e-9,1.11995732380717e-8,2.664863451730739e-8,7.610693777498535e-8,3.603462592523548e-8,9.699787852370359e-9,2.1630895173886894e-9,0
50622,2.0053523274823142e-9,7.60882274554725e-9,1.0819400655413527e-8,2.6588231060476968e-08,7.598246848741561e-8,3.55760199242559e-8,9.689414393650553e-9,2.1277425960661337e-9,0
50623,1.9910257791465267e-9,7.605263459068214e-9,1.0818199341968233e-8,2.660028919604191e-8,7.594510653120733e-8,3.55220901875495e-8,9.724813111237243e-9,2.1277425960661337e-9,0
50624,1.9766992308107393e-9,7.601704172589178e-9,1.0816998028522939e-8,2.6612347331606853e-8,7.590774457499904e-8,3.5468160450843095e-8,9.760211828823933e-9,2.1277425960661337e-9,0
50625,1.9623726824749518e-9,7.598144886110141e-9,1.0815796715077645e-8,2.6624405467171795e-8,7.587038261879076e-8,3.5414230714136696e-8,9.795610546410623e-9,2.1277425960661337e-9,0
50626,1.9480461341391643e-9,7.594585599631105e-9,1.0814595401632353e-8,2.6636463602736737e-8,7.583302066258248e-8,3.536030097743029e-8,9.831009263997313e-9,2.1277425960661337e-9,0
50627,1.9337195858033768e-9,7.591026313152068e-9,1.0813394088187059e-8,2.664852173830168e-8,7.57956587063742e-8,3.530637124072389e-8,9.866407981584003e-9,2.1277425960661337e-9,0
50628,1.9193930374675893e-9,7.587467026673031e-9,1.0812192774741765e-8,2.666057987386662e-8,7.575829675016591e-8,3.525244150401749e-8,9.901806699170695e-9,2.1277425960661337e-9,0
50629,1.9042809979575284e-9,7.584595415903134e-9,1.0829874470874873e-8,2.668057196907641e-8,7.573180808702093e-8,3.51972595178474e-8,9.890840507459643e-9,2.1202214596704622e-9,0
50630,1.8891689584474675e-9,7.581723805133236e-9,1.0847556167007982e-8,2.67005640642862e-8,7.570531942387597e-8,3.514207753167731e-8,9.879874315748592e-9,2.112700323274791e-9,0
50631,1.8766193305550487e-9,7.582207436866612e-9,1.0846537130953584e-8,2.6736750830107895e-8,7.580604109113007e-8,3.5267537917045306e-8,9.897375312923355e-9,2.111219193199163e-9,0
50632,1.8640697026626304e-9,7.582691068599989e-9,1.0845518094899186e-8,2.6772937595929587e-8,7.590676275838418e-8,3.53929983024133e-8,9.91487631009812e-9,2.109738063123536e-9,0
50633,1.851520074770212e-9,7.583174700333366e-9,1.0844499058844786e-8,2.6809124361751283e-8,7.600748442563829e-8,3.551845868778129e-8,9.932377307272883e-9,2.1082569330479084e-9,0
50634,1.8389704468777936e-9,7.58365833206674e-9,1.0843480022790388e-8,2.684531112757298e-8,7.610820609289238e-8,3.5643919073149284e-8,9.949878304447647e-9,2.106775802972281e-9,0
50635,1.826420818985375e-9,7.584141963800117e-9,1.084246098673599e-8,2.6881497893394674e-8,7.62089277601465e-8,3.576937945851728e-8,9.96737930162241e-9,2.1052946728966535e-9,0
50636,1.8138711910929566e-9,7.584625595533494e-9,1.084144195068159e-8,2.691768465921637e-8,7.63096494274006e-8,3.589483984388527e-8,9.984880298797173e-9,2.1038135428210263e-9,0
50637,1.8013215632005382e-9,7.58510922726687e-9,1.0840422914627193e-8,2.6953871425038062e-8,7.64103710946547e-8,3.602030022925326e-8,1.0002381295971936e-8,2.1023324127453987e-9,0
50638,1.7887719353081197e-9,7.585592859000246e-9,1.0839403878572794e-8,2.6990058190859758e-8,7.651109276190882e-8,3.6145760614621256e-8,1.0019882293146701e-8,2.100851282669771e-9,0
50639,1.7762223074157013e-9,7.586076490733622e-9,1.0838384842518396e-8,2.7026244956681453e-8,7.661181442916293e-8,3.627122099998925e-8,1.0037383290321465e-8,2.099370152594144e-9,0
50640,1.763672679523283e-9,7.586560122466999e-9,1.0837365806463997e-8,2.706243172250315e-8,7.671253609641702e-8,3.639668138535724e-8,1.0054884287496228e-8,2.0978890225185163e-9,0
50641,1.7511230516308643e-9,7.587043754200375e-9,1.0836346770409599e-8,2.709861848832484e-8,7.681325776367113e-8,3.6522141770725234e-8,1.0072385284670991e-8,2.096407892442889e-9,0
50642,1.738573423738446e-9,7.58752738593375e-9,1.08353277343552e-8,2.7134805254146537e-8,7.691397943092525e-8,3.664760215609323e-8,1.0089886281845754e-8,2.0949267623672614e-9,0
50643,1.7260237958460276e-9,7.588011017667127e-9,1.0834308698300803e-8,2.7170992019968232e-8,7.701470109817936e-8,3.6773062541461227e-8,1.010738727902052e-8,2.0934456322916342e-9,0
50644,1.713474167953609e-9,7.588494649400504e-9,1.0833289662246403e-8,2.7207178785789928e-8,7.711542276543345e-8,3.689852292682922e-8,1.0124888276195283e-8,2.0919645022160066e-9,0
50645,1.7158932105427181e-9,7.5772500221876e-9,1.0799014914910047e-8,2.7243365551611624e-8,7.729972618499709e-8,3.705005800772941e-8,1.0160653505820125e-8,2.0975455950564104e-9,0
50646,1.7054941180782973e-9,7.565038131507944e-9,1.071848530659335e-8,2.7069158323306034e-8,7.705675640519317e-8,3.718290594674635e-8,1.0154333840713003e-8,2.094687724541862e-9,0
50647,1.6950950256138763e-9,7.552826240828289e-9,1.0637955698276652e-8,2.6894951095000444e-8,7.681378662538923e-8,3.7315753885763296e-8,1.014801417560588e-8,2.0918298540273134e-9,0
50648,1.6846959331494555e-9,7.540614350148633e-9,1.0557426089959955e-8,2.6720743866694854e-8,7.657081684558531e-8,3.7448601824780236e-8,1.0141694510498758e-8,2.088971983512765e-9,0
50649,1.6742968406850345e-9,7.528402459468978e-9,1.0476896481643256e-8,2.6546536638389268e-8,7.63278470657814e-8,3.758144976379718e-8,1.0135374845391635e-8,2.0861141129982165e-9,0
50650,1.6638977482206134e-9,7.516190568789321e-9,1.0396366873326557e-8,2.6372329410083678e-8,7.608487728597746e-8,3.771429770281412e-8,1.0129055180284511e-8,2.0832562424836676e-9,0
50651,1.6534986557561926e-9,7.503978678109666e-9,1.031583726500986e-8,2.6198122181778088e-8,7.584190750617354e-8,3.784714564183107e-8,1.0122735515177389e-8,2.080398371969119e-9,0
50652,1.6430995632917716e-9,7.49176678743001e-9,1.0235307656693162e-8,2.60239149534725e-8,7.559893772636962e-8,3.797999358084801e-8,1.0116415850070266e-8,2.0775405014545706e-9,0
50653,1.6327004708273506e-9,7.479554896750355e-9,1.0154778048376465e-8,2.584970772516691e-8,7.53559679465657e-8,3.8112841519864953e-8,1.0110096184963144e-8,2.074682630940022e-9,0
50654,1.6223013783629298e-9,7.467343006070698e-9,1.0074248440059766e-8,2.5675500496861322e-8,7.511299816676177e-8,3.824568945888189e-8,1.0103776519856021e-8,2.0718247604254737e-9,0
50655,1.6119022858985087e-9,7.455131115391044e-9,9.993718831743069e-9,2.5501293268555732e-8,7.487002838695785e-8,3.837853739789884e-8,1.0097456854748899e-8,2.068966889910925e-9,0
50656,1.601503193434088e-9,7.442919224711388e-9,9.91318922342637e-9,2.5327086040250145e-8,7.462705860715393e-8,3.851138533691578e-8,1.0091137189641776e-8,2.0661090193963767e-9,0
50657,1.591104100969667e-9,7.430707334031732e-9,9.832659615109672e-9,2.5152878811944556e-8,7.438408882735e-8,3.864423327593272e-8,1.0084817524534652e-8,2.0632511488818282e-9,0
50658,1.5807050085052459e-9,7.4184954433520766e-9,9.752130006792975e-9,2.4978671583638966e-8,7.414111904754607e-8,3.8777081214949665e-8,1.007849785942753e-8,2.0603932783672798e-9,0
50659,1.580349624416572e-9,7.401500065476113e-9,9.707349875344268e-9,2.5004049543259188e-8,7.438898730335758e-8,3.887125181099263e-8,1.009926861119865e-8,2.0620241859075944e-9,0
50660,1.5801376093564316e-9,7.3809454011211135e-9,9.654680832715698e-9,2.5020223615326317e-8,7.442211797910508e-8,3.889754904973008e-8,1.009162956589148e-8,2.0636550934479085e-9,0
50661,1.5799255942962908e-9,7.3603907367661135e-9,9.602011790087128e-9,2.5036397687393443e-8,7.445524865485258e-8,3.892384628846753e-8,1.008399052058431e-8,2.065286000988223e-9,0
50662,1.5797135792361501e-9,7.339836072411114e-9,9.549342747458558e-9,2.5052571759460568e-8,7.448837933060007e-8,3.895014352720498e-8,1.007635147527714e-8,2.0669169085285373e-9,0
50663,1.5795015641760094e-9,7.319281408056114e-9,9.496673704829988e-9,2.5068745831527694e-8,7.452151000634757e-8,3.8976440765942426e-8,1.006871242996997e-8,2.0685478160688515e-9,0
50664,1.5803557013818904e-9,7.302769661913528e-9,9.432399142170241e-9,2.5008434555158202e-8,7.4479663470715e-8,3.8962784088596616e-8,1.0064577410218254e-8,2.0678745751253845e-9,0
50665,1.5812098385877712e-9,7.2862579157709405e-9,9.368124579510493e-9,2.494812327878871e-8,7.443781693508243e-8,3.89491274112508e-8,1.0060442390466537e-8,2.0672013341819175e-9,0
50666,1.574077848953022e-9,7.191948212467328e-9,9.17418424520795e-9,2.491017607135947e-8,7.447414890091442e-8,3.895113315706097e-8,1.0055284357010397e-8,2.0639793587388554e-9,0
50667,1.566945859318273e-9,7.097638509163717e-9,8.980243910905407e-9,2.487222886393023e-8,7.451048086674641e-8,3.8953138902871135e-8,1.0050126323554257e-8,2.0607573832957933e-9,0
50668,1.5598138696835237e-9,7.0033288058601045e-9,8.786303576602863e-9,2.483428165650099e-8,7.45468128325784e-8,3.89551446486813e-8,1.0044968290098117e-8,2.0575354078527313e-9,0
50669,1.5526818800487747e-9,6.909019102556492e-9,8.59236324230032e-9,2.4796334449071752e-8,7.458314479841039e-8,3.895715039449147e-8,1.0039810256641975e-8,2.0543134324096692e-9,0
50670,1.5455498904140254e-9,6.814709399252881e-9,8.398422907997775e-9,2.4758387241642512e-8,7.461947676424237e-8,3.8959156140301646e-8,1.0034652223185835e-8,2.051091456966607e-9,0
50671,1.5384179007792764e-9,6.720399695949268e-9,8.204482573695232e-9,2.4720440034213272e-8,7.465580873007436e-8,3.8961161886111814e-8,1.0029494189729694e-8,2.047869481523545e-9,0
50672,1.5312859111445272e-9,6.626089992645657e-9,8.01054223939269e-9,2.468249282678403e-8,7.469214069590634e-8,3.896316763192198e-8,1.0024336156273554e-8,2.044647506080483e-9,0
50673,1.5241539215097782e-9,6.531780289342045e-9,7.816601905090146e-9,2.464454561935479e-8,7.472847266173833e-8,3.896517337773215e-8,1.0019178122817412e-8,2.041425530637421e-9,0
50674,1.517021931875029e-9,6.437470586038432e-9,7.622661570787602e-9,2.460659841192555e-8,7.476480462757032e-8,3.896717912354232e-8,1.0014020089361272e-8,2.038203555194359e-9,0
50675,1.50988994224028e-9,6.343160882734821e-9,7.428721236485058e-9,2.456865120449631e-8,7.48011365934023e-8,3.8969184869352486e-8,1.0008862055905132e-8,2.034981579751297e-9,0
50676,1.5027579526055307e-9,6.2488511794312086e-9,7.234780902182514e-9,2.453070399706707e-8,7.483746855923429e-8,3.897119061516266e-8,1.0003704022448992e-8,2.031759604308235e-9,0
50677,1.4956259629707817e-9,6.154541476127597e-9,7.040840567879971e-9,2.449275678963783e-8,7.487380052506628e-8,3.897319636097283e-8,9.99854598899285e-9,2.028537628865173e-9,0
50678,1.4884939733360324e-9,6.060231772823985e-9,6.846900233577427e-9,2.445480958220859e-8,7.491013249089827e-8,3.8975202106782997e-8,9.99338795553671e-9,2.0253156534221108e-9,0
50679,1.4813619837012832e-9,5.9659220695203725e-9,6.652959899274883e-9,2.441686237477935e-8,7.494646445673025e-8,3.8977207852593165e-8,9.98822992208057e-9,2.0220936779790487e-9,0
50680,1.4742299940665342e-9,5.871612366216761e-9,6.45901956497234e-9,2.437891516735011e-8,7.498279642256223e-8,3.897921359840333e-8,9.983071888624429e-9,2.0188717025359867e-9,0
50681,1.4660318521657637e-9,5.793814409055736e-9,6.295460111179453e-9,2.4426657195910585e-8,7.563580021127389e-8,3.907881681202887e-8,9.982048874920003e-9,2.014786869047204e-9,0
50682,1.4649656998997422e-9,5.805217716092909e-9,6.204435157581424e-9,2.4416032750630975e-8,7.628924800516974e-8,3.917842002565441e-8,9.988014781723978e-9,2.0125623998385557e-9,0
50683,1.4638995476337208e-9,5.8166210231300826e-9,6.113410203983395e-9,2.4405408305351364e-8,7.69426957990656e-8,3.927802323927994e-8,9.993980688527955e-9,2.0103379306299075e-9,0
50684,1.4628333953676993e-9,5.828024330167255e-9,6.022385250385366e-9,2.4394783860071754e-8,7.759614359296145e-8,3.9377626452905476e-8,9.99994659533193e-9,2.0081134614212598e-9,0
50685,1.4617672431016778e-9,5.839427637204428e-9,5.9313602967873366e-9,2.4384159414792143e-8,7.82495913868573e-8,3.947722966653101e-8,1.0005912502135905e-8,2.0058889922126116e-9,0
50686,1.4607010908356563e-9,5.850830944241602e-9,5.840335343189307e-9,2.4373534969512532e-8,7.890303918075315e-8,3.9576832880156545e-8,1.0011878408939882e-8,2.0036645230039634e-9,0
50687,1.4602770607153751e-9,5.845238873402812e-9,5.718929509081621e-9,2.429331553897627e-8,7.893981515176935e-8,3.960681173389567e-8,1.0015186424741254e-8,2.0018439983613956e-9,0
50688,1.4658380680015776e-9,5.827525577050049e-9,5.692881678471426e-9,2.429331553897627e-8,7.873799460345028e-8,3.9692927146673936e-8,9.915467685637372e-9,1.9875697750646466e-9,0
50689,1.4658380680015776e-9,5.800441758019866e-9,5.603722558422318e-9,2.427772416106937e-8,7.850516412978951e-8,3.968915966494153e-8,9.807282897275976e-9,1.9725275022733037e-9,0
50690,1.4658380680015776e-9,5.773357938989683e-9,5.51456343837321e-9,2.426213278316247e-8,7.827233365612875e-8,3.9685392183209124e-8,9.69909810891458e-9,1.957485229481961e-9,0
50691,1.4658380680015776e-9,5.7462741199595e-9,5.425404318324102e-9,2.424654140525557e-8,7.803950318246797e-8,3.968162470147672e-8,9.590913320553183e-9,1.9424429566906184e-9,0
50692,1.4658380680015776e-9,5.719190300929318e-9,5.336245198274994e-9,2.4230950027348667e-8,7.78066727088072e-8,3.967785721974431e-8,9.482728532191787e-9,1.9274006838992756e-9,0
50693,1.4658380680015776e-9,5.692106481899136e-9,5.247086078225886e-9,2.4215358649441767e-8,7.757384223514642e-8,3.9674089738011906e-8,9.374543743830391e-9,1.9123584111079327e-9,0
50694,1.4658380680015776e-9,5.665022662868953e-9,5.157926958176778e-9,2.4199767271534867e-8,7.734101176148564e-8,3.96703222562795e-8,9.266358955468995e-9,1.8973161383165902e-9,0
50695,1.4658380680015776e-9,5.63793884383877e-9,5.068767838127669e-9,2.4184175893627965e-8,7.710818128782487e-8,3.9666554774547094e-8,9.158174167107599e-9,1.8822738655252474e-9,0
50696,1.4658380680015776e-9,5.610855024808587e-9,4.979608718078561e-9,2.4168584515721065e-8,7.687535081416409e-8,3.966278729281469e-8,9.049989378746203e-9,1.8672315927339045e-9,0
50697,1.4658380680015776e-9,5.583771205778405e-9,4.890449598029453e-9,2.4152993137814165e-8,7.664252034050331e-8,3.965901981108228e-8,8.941804590384807e-9,1.8521893199425619e-9,0
50698,1.4658380680015776e-9,5.556687386748222e-9,4.801290477980345e-9,2.4137401759907266e-8,7.640968986684254e-8,3.9655252329349876e-8,8.83361980202341e-9,1.8371470471512192e-9,0
50699,1.4658380680015776e-9,5.52960356771804e-9,4.712131357931236e-9,2.4121810382000363e-8,7.617685939318176e-8,3.965148484761747e-8,8.725435013662015e-9,1.8221047743598764e-9,0
50700,1.4658380680015776e-9,5.502519748687857e-9,4.622972237882128e-9,2.4106219004093463e-8,7.594402891952099e-8,3.9647717365885064e-8,8.617250225300618e-9,1.8070625015685337e-9,0
50701,1.4658380680015776e-9,5.475435929657674e-9,4.53381311783302e-9,2.4090627626186564e-8,7.571119844586021e-8,3.9643949884152665e-8,8.509065436939222e-9,1.7920202287771909e-9,0
