time,channel1,channel2,channel3,channel4,channel5,channel6,channel7,channel8,class
60547,6.276983435141199e-8,2.493007194119587e-7,8.371104933880876e-9,7.924884476132765e-8,2.5044135917456874e-7,1.678862658782386e-8,1.4195582872369748e-8,4.556946726702212e-9,0
60548,6.320516289288438e-8,2.46142635095597e-7,8.42527403312327e-9,7.949210891150353e-8,2.497172181574371e-7,1.682507315466095e-8,1.4189937487586816e-8,4.572953842232953e-9,0
60549,6.364049143435678e-8,2.4298455077923533e-7,8.479443132365667e-9,7.973537306167939e-8,2.489930771403055e-7,1.6861519721498037e-8,1.4184292102803884e-8,4.588960957763694e-9,0
60550,6.355268828753322e-8,2.3998859724988506e-7,8.512011072416427e-9,7.993251846989125e-8,2.489930771403055e-7,1.6932239061903993e-8,1.4177762429327722e-8,4.580886876328147e-9,0
60551,6.353702217372076e-8,2.3998973365108734e-7,8.511191193556897e-9,7.994185321685618e-8,2.4928793108535206e-7,1.6944773439361132e-8,1.3859857669580728e-8,4.565806743361644e-9,0
60552,6.352135605990832e-8,2.3999087005228957e-7,8.510371314697366e-9,7.995118796382111e-8,2.4958278503039856e-7,1.6957307816818276e-8,1.3541952909833733e-8,4.550726610395141e-9,0
60553,6.350568994609587e-8,2.399920064534918e-7,8.509551435837834e-9,7.996052271078603e-8,2.498776389754451e-7,1.6969842194275416e-8,1.3224048150086738e-8,4.535646477428638e-9,0
60554,6.349002383228343e-8,2.39993142854694e-7,8.508731556978304e-9,7.996985745775096e-8,2.501724929204916e-7,1.698237657173256e-8,1.2906143390339742e-8,4.5205663444621345e-9,0
60555,6.347435771847098e-8,2.3999427925589625e-7,8.507911678118772e-9,7.997919220471587e-8,2.504673468655382e-7,1.69949109491897e-8,1.2588238630592747e-8,4.505486211495632e-9,0
60556,6.345869160465854e-8,2.3999541565709854e-7,8.507091799259242e-9,7.99885269516808e-8,2.507622008105847e-7,1.7007445326646842e-8,1.2270333870845754e-8,4.490406078529128e-9,0
60557,6.344302549084608e-8,2.3999655205830077e-7,8.50627192039971e-9,7.999786169864572e-8,2.5105705475563124e-7,1.7019979704103985e-8,1.1952429111098758e-8,4.475325945562625e-9,0
60558,6.342735937703364e-8,2.39997688459503e-7,8.50545204154018e-9,8.000719644561065e-8,2.5135190870067775e-7,1.7032514081561125e-8,1.1634524351351763e-8,4.460245812596122e-9,0
60559,6.341169326322119e-8,2.399988248607052e-7,8.504632162680649e-9,8.001653119257556e-8,2.516467626457243e-7,1.7045048459018268e-8,1.1316619591604768e-8,4.445165679629619e-9,0
60560,6.339602714940874e-8,2.3999996126190745e-7,8.503812283821117e-9,8.002586593954049e-8,2.519416165907708e-7,1.7057582836475408e-8,1.0998714831857773e-8,4.430085546663116e-9,0
60561,6.33803610355963e-8,2.400010976631097e-7,8.502992404961587e-9,8.00352006865054e-8,2.5223647053581737e-7,1.707011721393255e-8,1.0680810072110779e-8,4.415005413696612e-9,0
60562,6.336469492178384e-8,2.4000223406431196e-07,8.502172526102056e-9,8.004453543347034e-8,2.5253132448086387e-7,1.708265159138969e-8,1.0362905312363784e-8,4.3999252807301095e-9,0
60563,6.33490288079714e-8,2.400033704655142e-7,8.501352647242526e-9,8.005387018043526e-8,2.5282617842591043e-7,1.7095185968846835e-8,1.0045000552616788e-8,4.384845147763606e-9,0
60564,6.333336269415895e-8,2.400045068667164e-7,8.500532768382994e-9,8.006320492740018e-8,2.5312103237095693e-7,1.7107720346303978e-8,9.727095792869793e-9,4.369765014797103e-9,0
60565,6.331769658034651e-8,2.4000564326791865e-7,8.499712889523464e-9,8.007253967436511e-8,2.534158863160035e-7,1.7120254723761118e-8,9.409191033122798e-9,4.3546848818306e-9,0
60566,6.330203046653406e-8,2.400067796691209e-7,8.498893010663933e-9,8.008187442133003e-8,2.5371074026105e-7,1.713278910121826e-8,9.091286273375804e-9,4.339604748864097e-9,0
60567,6.32863643527216e-8,2.4000791607032316e-7,8.498073131804401e-9,8.009120916829495e-8,2.5400559420609655e-7,1.71453234786754e-8,8.773381513628809e-9,4.324524615897594e-9,0
60568,6.310252921965127e-8,2.399224955930217e-7,8.53341574780209e-9,8.02589776368613e-8,2.544834500757486e-7,1.721121527406819e-8,8.756717677314851e-9,4.321555605084411e-9,0
60569,6.297142121294561e-8,2.4008027129623727e-7,8.575150446776315e-9,8.046227785215004e-8,2.552353173172738e-7,1.729134491074462e-8,8.738129142800768e-9,4.316353959188825e-9,0
60570,6.315354274166563e-8,2.4011456530860813e-7,8.57926660692313e-9,8.046112822775965e-8,2.5584237463440494e-7,1.7283383655509798e-8,8.720424896979915e-9,4.3123874421412286e-9,0
60571,6.333566427038564e-8,2.4014885932097893e-7,8.583382767069944e-9,8.045997860336925e-8,2.5644943195153606e-7,1.7275422400274975e-8,8.702720651159063e-9,4.308420925093631e-9,0
60572,6.40717861379241e-8,2.407787570249261e-7,8.587246656798441e-9,8.046223181815389e-8,2.5651807817615626e-7,1.734301765949426e-8,8.689300199946945e-9,4.308538464543925e-9,0
60573,6.480790800546256e-8,2.4140865472887326e-7,8.591110546526939e-9,8.046448503293853e-8,2.565867244007764e-7,1.741061291871355e-8,8.675879748734829e-9,4.308656003994218e-9,0
60574,6.554402987300103e-8,2.4203855243282045e-7,8.594974436255436e-9,8.046673824772315e-8,2.5665537062539657e-7,1.7478208177932833e-8,8.662459297522712e-9,4.308773543444512e-9,0
60575,6.628015174053949e-8,2.426684501367676e-7,8.598838325983933e-9,8.04689914625078e-8,2.567240168500167e-7,1.754580343715212e-8,8.649038846310594e-9,4.308891082894806e-9,0
60576,6.701627360807796e-8,2.4329834784071477e-7,8.60270221571243e-9,8.047124467729243e-8,2.567926630746369e-7,1.7613398696371407e-8,8.635618395098478e-9,4.309008622345099e-9,0
60577,6.775239547561641e-8,2.439282455446619e-7,8.606566105440927e-9,8.047349789207707e-8,2.5686130929925703e-7,1.768099395559069e-8,8.622197943886361e-9,4.309126161795393e-9,0
60578,6.848851734315488e-8,2.445581432486091e-7,8.610429995169424e-9,8.047575110686171e-8,2.569299555238772e-7,1.7748589214809978e-8,8.608777492674243e-9,4.309243701245687e-9,0
60579,6.922463921069334e-8,2.451880409525563e-7,8.614293884897922e-9,8.047800432164634e-8,2.5699860174849733e-7,1.7816184474029265e-8,8.595357041462127e-9,4.30936124069598e-9,0
60580,6.996076107823181e-8,2.458179386565034e-7,8.618157774626419e-9,8.048025753643098e-8,2.570672479731175e-7,1.788377973324855e-8,8.58193659025001e-9,4.309478780146274e-9,0
60581,7.074163002225965e-8,2.439362597578728e-7,8.500629666340455e-9,8.027399300984738e-8,2.5646447360955634e-7,1.796280872488262e-8,8.584044820260021e-9,4.251743501713544e-9,0
60582,7.15224989662875e-8,2.4205458085924215e-7,8.383101558054489e-9,8.006772848326377e-8,2.5586169924599524e-7,1.8041837716516686e-8,8.586153050270033e-9,4.194008223280815e-9,0
60583,7.145622257590891e-8,2.419026323562138e-7,8.482422283702686e-9,8.006772848326377e-8,2.5525744068254773e-7,1.806363249654988e-8,8.601657300175931e-9,4.187380841703785e-9,0
60584,7.138994618553032e-8,2.4175068385318547e-7,8.581743009350883e-9,8.006772848326377e-8,2.5465318211910016e-7,1.8085427276583068e-8,8.61716155008183e-9,4.180753460126755e-9,0
60585,7.132366979515174e-8,2.4159873535015713e-7,8.68106373499908e-9,8.006772848326377e-8,2.5404892355565265e-7,1.810722205661626e-8,8.632665799987728e-9,4.174126078549725e-9,0
60586,7.125739340477315e-8,2.414467868471288e-7,8.780384460647274e-9,8.006772848326377e-8,2.5344466499220513e-7,1.8129016836649453e-8,8.648170049893626e-9,4.1674986969726955e-9,0
60587,7.119111701439456e-8,2.4129483834410045e-7,8.879705186295471e-9,8.006772848326377e-8,2.5284040642875757e-7,1.8150811616682646e-8,8.663674299799524e-9,4.160871315395665e-9,0
60588,7.112484062401599e-8,2.411428898410721e-7,8.979025911943668e-9,8.006772848326377e-8,2.5223614786531005e-7,1.8172606396715835e-8,8.679178549705422e-9,4.154243933818635e-9,0
60589,7.10585642336374e-8,2.4099094133804377e-7,9.078346637591863e-9,8.006772848326377e-8,2.5163188930186254e-7,1.8194401176749028e-8,8.69468279961132e-9,4.147616552241605e-9,0
60590,7.099228784325881e-8,2.4083899283501543e-7,9.17766736324006e-9,8.006772848326377e-8,2.5102763073841497e-7,1.821619595678222e-8,8.710187049517218e-9,4.140989170664575e-9,0
60591,7.092601145288022e-8,2.406870443319871e-7,9.276988088888257e-9,8.006772848326377e-8,2.5042337217496746e-7,1.8237990736815413e-8,8.725691299423117e-9,4.134361789087545e-9,0
60592,7.085973506250164e-8,2.4053509582895875e-7,9.376308814536452e-9,8.006772848326377e-8,2.4981911361151994e-7,1.8259785516848603e-8,8.741195549329013e-9,4.127734407510516e-9,0
60593,7.079345867212305e-8,2.403831473259304e-7,9.475629540184649e-9,8.006772848326377e-8,2.492148550480724e-7,1.8281580296881795e-8,8.756699799234911e-9,4.121107025933486e-9,0
60594,7.072718228174446e-8,2.4023119882290207e-7,9.574950265832845e-9,8.006772848326377e-8,2.4861059648462486e-7,1.8303375076914988e-8,8.77220404914081e-9,4.1144796443564556e-9,0
60595,7.066090589136588e-8,2.4007925031987373e-7,9.674270991481042e-9,8.006772848326377e-8,2.4800633792117735e-7,1.832516985694818e-8,8.787708299046708e-9,4.1078522627794255e-9,0
60596,7.05946295009873e-8,2.399273018168454e-7,9.773591717129237e-9,8.006772848326377e-8,2.474020793577298e-7,1.834696463698137e-8,8.803212548952606e-9,4.101224881202395e-9,0
60597,7.05283531106087e-8,2.3977535331381705e-7,9.872912442777434e-9,8.006772848326377e-8,2.4679782079428227e-7,1.8368759417014563e-8,8.818716798858504e-9,4.094597499625365e-9,0
60598,7.072982048285536e-8,2.3851742590438277e-7,9.901679560704277e-9,8.011819790129417e-8,2.4551733179721407e-7,1.8465592700314675e-8,8.822593606254976e-9,4.141623883696161e-9,0
60599,7.115355330785803e-8,2.3720654153501848e-7,9.900899897226177e-9,7.920712443896609e-8,2.441900428202621e-7,1.8439921126616255e-8,8.826470413651448e-9,4.157772046567254e-9,0
60600,7.15772861328607e-8,2.358956571656542e-7,9.900120233748077e-9,7.829605097663803e-8,2.428627538433102e-7,1.8414249552917835e-8,8.83034722104792e-9,4.1739202094383476e-9,0
60601,7.200101895786338e-8,2.345847727962899e-7,9.899340570269977e-9,7.738497751430995e-8,2.4153546486635826e-7,1.8388577979219418e-8,8.834224028444392e-9,4.190068372309441e-9,0
60602,7.242475178286604e-8,2.3327388842692561e-7,9.898560906791876e-9,7.647390405198188e-8,2.402081758894063e-7,1.8362906405520997e-8,8.838100835840864e-9,4.206216535180534e-9,0
60603,7.243489643637441e-8,2.331606662686109e-7,9.880794997386162e-9,7.660849315222321e-8,2.406153280791364e-7,1.8418211617609505e-8,8.83327240516245e-9,4.142825329802144e-9,0
60604,7.244504108988277e-8,2.3304744411029616e-7,9.86302908798045e-9,7.674308225246456e-8,2.410224802688665e-7,1.847351682969801e-8,8.828443974484035e-9,4.079434124423752e-9,0
60605,7.246584801674621e-8,2.3251187573204707e-7,9.97424524539818e-9,7.67178332646718e-8,2.416587903540019e-7,1.8320465635671926e-8,8.71696818326829e-9,4.0883411568633015e-9,0
60606,7.248665494360965e-8,2.3197630735379797e-7,1.0085461402815909e-8,7.669258427687905e-8,2.4229510043913735e-7,1.816741444164584e-8,8.605492392052544e-9,4.0972481893028514e-9,0
60607,7.250746187047311e-8,2.3144073897554888e-7,1.0196677560233638e-8,7.66673352890863e-8,2.429314105242728e-7,1.8014363247619757e-8,8.4940166008368e-9,4.1061552217424006e-9,0
60608,7.252826879733655e-8,2.309051705972998e-7,1.0307893717651369e-8,7.664208630129355e-8,2.435677206094082e-7,1.786131205359367e-8,8.382540809621054e-9,4.1150622541819505e-9,0
60609,7.254907572419999e-8,2.3036960221905072e-7,1.0419109875069098e-8,7.66168373135008e-8,2.4420403069454365e-7,1.7708260859567585e-8,8.271065018405307e-9,4.1239692866215e-9,0
60610,7.256988265106345e-8,2.2983403384080162e-7,1.0530326032486827e-8,7.659158832570805e-8,2.448403407796791e-7,1.7555209665541502e-8,8.159589227189562e-9,4.1328763190610496e-09,0
60611,7.259068957792689e-8,2.2929846546255253e-7,1.0641542189904557e-8,7.65663393379153e-8,2.454766508648145e-7,1.7402158471515415e-8,8.048113435973817e-9,4.141783351500599e-9,0
60612,7.261149650479033e-8,2.2876289708430343e-7,1.0752758347322288e-8,7.654109035012254e-8,2.4611296094994995e-7,1.7249107277489332e-8,7.936637644758072e-9,4.150690383940149e-9,0
60613,7.263230343165377e-8,2.2822732870605434e-7,1.0863974504740017e-8,7.651584136232979e-8,2.467492710350854e-7,1.7096056083463246e-8,7.825161853542327e-9,4.159597416379698e-9,0
60614,7.265311035851723e-8,2.2769176032780525e-7,1.0975190662157746e-8,7.649059237453704e-8,2.473855811202208e-7,1.694300488943716e-8,7.71368606232658e-9,4.168504448819247e-9,0
60615,7.267391728538067e-8,2.2715619194955615e-7,1.1086406819575475e-8,7.646534338674429e-8,2.4802189120535625e-7,1.6789953695411077e-8,7.602210271110835e-9,4.177411481258797e-9,0
60616,7.269472421224411e-8,2.2662062357130706e-7,1.1197622976993206e-8,7.644009439895154e-8,2.486582012904917e-7,1.663690250138499e-8,7.49073447989509e-9,4.186318513698346e-9,0
60617,7.271553113910757e-8,2.26085055193058e-7,1.1308839134410936e-8,7.641484541115879e-8,2.492945113756271e-7,1.6483851307358908e-8,7.379258688679344e-9,4.195225546137896e-9,0
60618,7.273633806597101e-8,2.255494868148089e-7,1.1420055291828665e-8,7.638959642336603e-8,2.4993082146076255e-7,1.633080011333282e-8,7.267782897463598e-9,4.204132578577445e-9,0
60619,7.275714499283445e-8,2.250139184365598e-7,1.1531271449246394e-8,7.636434743557328e-8,2.50567131545898e-7,1.6177748919306735e-8,7.156307106247853e-9,4.213039611016995e-9,0
60620,7.27779519196979e-8,2.244783500583107e-7,1.1642487606664124e-8,7.633909844778053e-8,2.512034416310334e-7,1.6024697725280652e-8,7.044831315032108e-9,4.221946643456544e-9,0
60621,7.279875884656135e-8,2.239427816800616e-7,1.1753703764081855e-8,7.631384945998777e-8,2.5183975171616885e-7,1.5871646531254566e-8,6.933355523816362e-9,4.230853675896094e-9,0
60622,7.281956577342479e-8,2.2340721330181252e-7,1.1864919921499584e-8,7.628860047219501e-8,2.5247606180130423e-7,1.5718595337228483e-8,6.821879732600617e-9,4.239760708335643e-9,0
60623,7.284037270028823e-8,2.2287164492356342e-7,1.1976136078917313e-8,7.626335148440226e-8,2.5311237188643967e-7,1.5565544143202396e-8,6.710403941384872e-9,4.248667740775193e-9,0
60624,7.286117962715168e-8,2.2233607654531433e-7,1.2087352236335042e-8,7.623810249660951e-8,2.537486819715751e-7,1.5412492949176314e-8,6.598928150169126e-9,4.257574773214742e-9,0
60625,7.283924706781426e-8,2.221849937148449e-7,1.220501775661446e-8,7.634107199831467e-8,2.543162469396697e-7,1.5388881937473687e-8,6.6223909983140945e-9,4.264272678461948e-9,0
60626,7.293466592654533e-8,2.2197094283818222e-7,1.2247291424087323e-8,7.631158897450933e-8,2.5437721810251216e-7,1.5391930840098398e-8,6.599540120827516e-9,4.275670932774546e-9,0
60627,7.30783005353911e-8,2.2204906361786286e-7,1.2287696214300515e-8,7.628210595070399e-8,2.5470067062132865e-7,1.539497974272311e-8,6.597612442947401e-9,4.29193917880892e-9,0
60628,7.322193514423687e-8,2.221271843975435e-7,1.2328101004513708e-8,7.625262292689864e-8,2.550241231401452e-7,1.5398028645347817e-8,6.5956847650672855e-9,4.308207424843293e-9,0
60629,7.336556975308264e-8,2.2220530517722414e-7,1.2368505794726902e-8,7.62231399030933e-8,2.5534757565896173e-7,1.5401077547972528e-8,6.59375708718717e-9,4.324475670877667e-9,0
60630,7.35092043619284e-8,2.2228342595690478e-7,1.2408910584940095e-8,7.619365687928796e-8,2.556710281777782e-7,1.540412645059724e-8,6.591829409307054e-9,4.340743916912041e-9,0
60631,7.365283897077418e-8,2.2236154673658542e-7,1.2449315375153287e-8,7.616417385548262e-8,2.5599448069659476e-7,1.5407175353221947e-8,6.589901731426939e-9,4.357012162946415e-9,0
60632,7.379647357961995e-8,2.2243966751626606e-7,1.248972016536648e-8,7.613469083167727e-8,2.563179332154113e-7,1.5410224255846658e-8,6.587974053546823e-9,4.373280408980788e-9,0
60633,7.38190229979387e-8,2.232128581407785e-7,1.2523859007812297e-8,7.61119639919523e-8,2.560338256441577e-7,1.5407768079541602e-8,6.596587525716767e-9,4.378291448042917e-9,0
60634,7.384157241625744e-8,2.2398604876529093e-7,1.2557997850258113e-8,7.608923715222733e-8,2.5574971807290416e-7,1.5405311903236546e-8,6.60520099788671e-9,4.383302487105046e-9,0
60635,7.38641218345762e-8,2.2475923938980337e-7,1.259213669270393e-8,7.606651031250236e-8,2.5546561050165056e-7,1.540285572693149e-8,6.613814470056653e-9,4.388313526167174e-9,0
60636,7.388667125289495e-8,2.255324300143158e-7,1.2626275535149745e-8,7.604378347277739e-8,2.55181502930397e-7,1.5400399550626434e-8,6.622427942226596e-9,4.3933245652293026e-9,0
60637,7.39092206712137e-8,2.2630562063882824e-7,1.266041437759556e-8,7.602105663305242e-8,2.548973953591434e-7,1.5397943374321377e-8,6.63104141439654e-9,4.398335604291431e-9,0
60638,7.393177008953244e-8,2.2707881126334066e-7,1.2694553220041377e-8,7.599832979332745e-8,2.5461328778788986e-7,1.539548719801632e-8,6.639654886566484e-9,4.403346643353559e-9,0
60639,7.295969770665181e-8,2.2716348788138328e-7,1.2697608806349198e-8,7.599041342896271e-8,2.5466668063586834e-7,1.540364602869103e-8,6.622605514676503e-9,4.4041065269744e-9,0
60640,7.198762532377117e-8,2.2724816449942588e-7,1.270066439265702e-8,7.598249706459796e-8,2.547200734838468e-7,1.5411804859365737e-8,6.605556142786522e-9,4.40486641059524e-9,0
60641,7.101555294089053e-8,2.273328411174685e-7,1.2703719978964841e-8,7.597458070023322e-8,2.547734663318253e-7,1.5419963690040443e-8,6.588506770896542e-9,4.405626294216079e-9,0
60642,7.00434805580099e-8,2.2741751773551113e-7,1.2706775565272662e-8,7.596666433586848e-8,2.5482685917980376e-7,1.542812252071515e-8,6.571457399006561e-9,4.4063861778369195e-9,0
60643,6.907140817512924e-8,2.2750219435355373e-7,1.2709831151580483e-8,7.595874797150373e-8,2.5488025202778223e-7,1.5436281351389858e-8,6.554408027116581e-9,4.407146061457759e-9,0
60644,6.809933579224861e-8,2.2758687097159636e-7,1.2712886737888305e-8,7.595083160713899e-8,2.549336448757607e-7,1.5444440182064564e-8,6.5373586552266005e-9,4.407905945078599e-9,0
60645,6.712726340936797e-8,2.2767154758963896e-7,1.2715942324196126e-8,7.594291524277424e-8,2.549870377237392e-7,1.545259901273927e-8,6.52030928333662e-9,4.4086658286994385e-9,0
60646,6.631212237833347e-8,2.2723358738656074e-7,1.2713981739389302e-8,7.591436603969275e-8,2.548691462627022e-7,1.5462009309009745e-8,6.498884350932961e-9,4.379641572628212e-9,0
60647,6.540636156184623e-8,2.2669687072615037e-7,1.2708839433065496e-8,7.589147998619136e-8,2.546971289661405e-7,1.5454763176972505e-8,6.478729242798554e-9,4.350617316556985e-9,0
60648,6.450060074535898e-8,2.2616015406573998e-7,1.2703697126741692e-8,7.586859393268997e-8,2.5452511166957874e-7,1.5447517044935262e-8,6.4585741346641484e-09,4.321593060485758e-9,0
60649,6.359483992887174e-8,2.2562343740532962e-7,1.2698554820417888e-8,7.584570787918858e-8,2.5435309437301695e-7,1.5440270912898022e-8,6.438419026529742e-9,4.292568804414532e-9,0
60650,6.26890791123845e-8,2.2508672074491926e-7,1.2693412514094083e-8,7.582282182568719e-8,2.541810770764552e-7,1.543302478086078e-8,6.418263918395336e-9,4.263544548343305e-9,0
60651,6.178331829589726e-8,2.245500040845089e-7,1.268827020777028e-8,7.57999357721858e-8,2.5400905977989347e-07,1.542577864882354e-8,6.398108810260929e-9,4.234520292272078e-9,0
60652,6.087755747941001e-8,2.240132874240985e-7,1.2683127901446475e-8,7.577704971868441e-8,2.5383704248333174e-7,1.54185325167863e-8,6.377953702126523e-9,4.205496036200852e-9,0
60653,5.997179666292277e-8,2.2347657076368815e-7,1.267798559512267e-8,7.575416366518302e-8,2.5366502518677e-7,1.5411286384749056e-8,6.357798593992117e-9,4.176471780129625e-9,0
60654,5.906603584643553e-8,2.2293985410327778e-7,1.2672843288798866e-8,7.573127761168163e-8,2.534930078902082e-7,1.5404040252711816e-8,6.33764348585771e-9,4.147447524058399e-9,0
60655,5.816027502994829e-8,2.2240313744286742e-7,1.2667700982475062e-8,7.570839155818024e-8,2.5332099059364647e-7,1.5396794120674573e-8,6.3174883777233046e-9,4.118423267987172e-9,0
60656,5.725451421346105e-8,2.2186642078245706e-7,1.2662558676151257e-8,7.568550550467885e-8,2.5314897329708473e-7,1.5389547988637333e-8,6.297333269588898e-9,4.0893990119159446e-9,0
60657,5.6348753396973804e-8,2.2132970412204667e-7,1.2657416369827453e-8,7.566261945117746e-8,2.52976956000523e-7,1.5382301856600093e-8,6.277178161454492e-9,4.060374755844718e-9,0
60658,5.544299258048656e-8,2.207929874616363e-7,1.265227406350365e-8,7.563973339767607e-8,2.5280493870396125e-7,1.537505572456285e-8,6.2570230533200855e-9,4.031350499773491e-9,0
60659,5.4537231763999325e-8,2.2025627080122595e-7,1.2647131757179844e-8,7.561684734417468e-8,2.5263292140739946e-7,1.536780959252561e-8,6.23686794518568e-9,4.002326243702265e-9,0
60660,5.363147094751208e-8,2.1971955414081558e-7,1.264198945085604e-8,7.559396129067329e-8,2.524609041108377e-7,1.5360563460488367e-8,6.216712837051273e-9,3.973301987631038e-9,0
60661,5.275339407348474e-8,2.1897790305482006e-7,1.2636847144532235e-8,7.563478826515326e-8,2.5243570193628923e-7,1.534896974191468e-8,6.208460469141123e-9,3.943256717435339e-9,0
60662,5.247294153973549e-8,2.1878795350512762e-7,1.2538661635766466e-8,7.565846311684295e-8,2.520609201901247e-7,1.5207474213751812e-8,6.21898016755494e-9,3.92316300169372e-9,0
60663,5.2198438867377914e-8,2.1858810428105448e-7,1.2519772084917181e-8,7.574295400607661e-8,2.520964123290732e-7,1.5075492584096856e-8,6.21632730147525e-9,3.903306908565676e-9,0
60664,5.207570413562034e-8,2.1830834314634567e-7,1.2583790111294557e-8,7.528770905012043e-8,2.5246169337588837e-7,1.5050168942962237e-8,6.209412092423065e-9,3.903283400675617e-9,0
60665,5.195296940386277e-8,2.1802858201163682e-7,1.2647808137671934e-8,7.483246409416425e-8,2.528269744227035e-7,1.502484530182762e-8,6.202496883370879e-9,3.9032598927855586e-9,0
60666,5.18302346721052e-8,2.17748820876928e-7,1.271182616404931e-8,7.437721913820808e-8,2.531922554695186e-7,1.4999521660693e-8,6.195581674318694e-9,3.9032363848954996e-9,0
60667,5.1707499940347634e-8,2.174690597422192e-7,1.2775844190426688e-8,7.39219741822519e-8,2.535575365163337e-7,1.4974198019558377e-8,6.188666465266509e-9,3.9032128770054406e-9,0
60668,5.158476520859006e-8,2.1718929860751034e-7,1.2839862216804065e-8,7.346672922629573e-8,2.539228175631489e-7,1.4948874378423758e-8,6.181751256214323e-9,3.903189369115382e-9,0
60669,5.146203047683249e-8,2.1690953747280153e-7,1.2903880243181441e-8,7.301148427033955e-8,2.54288098609964e-7,1.492355073728914e-8,6.1748360471621374e-9,3.903165861225323e-9,0
60670,5.133929574507492e-8,2.166297763380927e-7,1.2967898269558818e-8,7.255623931438337e-8,2.546533796567791e-7,1.489822709615452e-8,6.167920838109953e-9,3.903142353335264e-9,0
60671,5.1216561013317353e-8,2.1635001520338386e-7,1.3031916295936194e-8,7.21009943584272e-8,2.5501866070359424e-7,1.4872903455019901e-8,6.161005629057767e-9,3.903118845445206e-9,0
60672,5.109382628155978e-8,2.1607025406867505e-7,1.3095934322313572e-8,7.164574940247102e-8,2.553839417504094e-7,1.484757981388528e-8,6.154090420005581e-9,3.903095337555147e-9,0
60673,5.097109154980221e-8,2.1579049293396623e-7,1.315995234869095e-8,7.119050444651484e-8,2.5574922279722453e-7,1.4822256172750661e-8,6.147175210953396e-9,3.903071829665088e-9,0
60674,5.084835681804464e-8,2.1551073179925738e-7,1.3223970375068325e-8,7.073525949055867e-8,2.5611450384403965e-7,1.4796932531616041e-8,6.14026000190121e-9,3.90304832177503e-9,0
60675,5.0725622086287073e-08,2.1523097066454857e-7,1.3287988401445702e-8,7.028001453460249e-8,2.564797848908548e-7,1.4771608890481422e-8,6.133344792849025e-9,3.903024813884971e-9,0
60676,5.06028873545295e-8,2.1495120952983975e-7,1.3352006427823078e-8,6.982476957864632e-8,2.5684506593766994e-7,1.4746285249346803e-8,6.12642958379684e-9,3.903001305994912e-9,0
60677,5.048015262277193e-8,2.146714483951309e-7,1.3416024454200456e-8,6.936952462269014e-8,2.5721034698448506e-7,1.4720961608212182e-8,6.119514374744654e-9,3.902977798104854e-9,0
60678,5.035741789101436e-8,2.143916872604221e-7,1.3480042480577833e-8,6.891427966673396e-8,2.575756280313002e-7,1.4695637967077563e-8,6.1125991656924685e-9,3.902954290214795e-9,0
60679,5.0234683159256787e-8,2.1411192612571327e-7,1.3544060506955209e-8,6.8459034710777793e-08,2.5794090907811534e-7,1.4670314325942944e-8,6.105683956640284e-9,3.902930782324736e-9,0
60680,5.011194842749922e-8,2.1383216499100443e-7,1.3608078533332586e-8,6.800378975482161e-8,2.5830619012493046e-7,1.4644990684808324e-8,6.098768747588098e-9,3.9029072744346776e-9,0
60681,4.998921369574165e-8,2.135524038562956e-7,1.3672096559709962e-8,6.754854479886544e-8,2.586714711717456e-7,1.4619667043673705e-8,6.0918535385359125e-9,3.9028837665446185e-9,0
60682,4.9763191872331973e-8,2.1356709906129364e-7,1.3632322445542564e-8,6.743952657424322e-8,2.581663473614077e-7,1.4592198032946342e-8,6.09058371426666e-9,3.882816102406046e-9,0
60683,4.937076867675906e-8,2.1323340574279691e-07,1.3711618403459046e-8,6.756405563976855e-8,2.58502965246113e-7,1.4585036708506048e-8,6.079317376017026e-9,3.882816102406046e-9,0
60684,4.8978345481186154e-8,2.128997124243002e-7,1.379091436137553e-8,6.768858470529387e-8,2.5883958313081823e-7,1.4577875384065755e-8,6.068051037767392e-9,3.882816102406046e-9,0
60685,4.862315288932971e-8,2.130430105455742e-7,1.3790260833106587e-8,6.777402360649225e-8,2.62469926132149e-7,1.4611329432199602e-8,6.058620611492931e-9,3.882816102406046e-9,0
60686,4.819271263989479e-8,2.1270568372016405e-7,1.3814579388359999e-8,6.776756456310341e-8,2.6256788569329155e-7,1.4623845478445746e-8,6.052907892121287e-9,3.883599493916944e-9,0
60687,4.7762272390459876e-8,2.1236835689475392e-7,1.3838897943613408e-8,6.776110551971457e-8,2.626658452544341e-7,1.463636152469189e-8,6.047195172749642e-9,3.884382885427843e-9,0
60688,4.733183214102496e-8,2.1203103006934376e-7,1.386321649886682e-8,6.775464647632572e-8,2.6276380481557667e-7,1.4648877570938033e-8,6.041482453377997e-9,3.885166276938741e-9,0
60689,4.690139189159004e-8,2.116937032439336e-7,1.3887535054120231e-8,6.774818743293688e-8,2.6286176437671923e-7,1.4661393617184177e-8,6.0357697340063525e-9,3.8859496684496396e-9,0
60690,4.6470951642155127e-8,2.1135637641852347e-7,1.3911853609373643e-8,6.774172838954804e-8,2.6295972393786185e-7,1.4673909663430323e-8,6.0300570146347086e-9,3.886733059960539e-9,0
60691,4.604051139272021e-8,2.110190495931133e-7,1.3936172164627052e-8,6.773526934615919e-8,2.630576834990044e-7,1.4686425709676466e-8,6.024344295263064e-9,3.887516451471437e-9,0
60692,4.5610071143285293e-8,2.1068172276770318e-7,1.3960490719880464e-8,6.772881030277035e-8,2.6315564306014697e-7,1.469894175592261e-8,6.018631575891419e-9,3.888299842982336e-9,0
60693,4.517963089385038e-8,2.1034439594229302e-7,1.3984809275133875e-8,6.77223512593815e-8,2.6325360262128953e-7,1.4711457802168754e-8,6.012918856519774e-9,3.889083234493234e-9,0
60694,4.474919064441546e-8,2.1000706911688287e-7,1.4009127830387286e-8,6.771589221599266e-8,2.633515621824321e-7,1.4723973848414898e-8,6.00720613714813e-9,3.8898666260041324e-9,0
60695,4.4318750394980543e-8,2.0966974229147273e-7,1.4033446385640696e-8,6.770943317260382e-8,2.6344952174357465e-7,1.4736489894661042e-8,6.001493417776486e-9,3.890650017515032e-9,0
60696,4.420943051208746e-8,2.0978671790941732e-7,1.4012407047170849e-8,6.783358376041264e-8,2.6297336393793737e-7,1.4721244918108e-8,5.991698907562242e-9,3.889676019170676e-9,0
60697,4.410011062919438e-8,2.0990369352736194e-7,1.3991367708701e-8,6.795773434822145e-8,2.6249720613230004e-7,1.4705999941554956e-8,5.981904397347999e-9,3.888702020826321e-9,0
60698,4.3990790746301294e-8,2.1002066914530656e-7,1.3970328370231152e-8,6.808188493603027e-8,2.620210483266627e-7,1.4690754965001914e-8,5.9721098871337556e-9,3.887728022481966e-9,0
60699,4.388147086340821e-8,2.1013764476325115e-7,1.3949289031761303e-8,6.820603552383909e-8,2.6154489052102537e-7,1.4675509988448872e-8,5.962315376919511e-9,3.8867540241376105e-9,0
60700,4.377215098051513e-8,2.1025462038119577e-7,1.3928249693291454e-8,6.83301861116479e-8,2.6106873271538804e-7,1.466026501189583e-8,5.952520866705268e-9,3.885780025793255e-9,0
60701,4.3662831097622044e-8,2.1037159599914038e-7,1.3907210354821606e-8,6.845433669945673e-8,2.605925749097507e-7,1.4645020035342787e-8,5.942726356491025e-9,3.8848060274489e-9,0
60702,4.355351121472896e-8,2.1048857161708497e-7,1.3886171016351757e-8,6.857848728726555e-8,2.601164171041134e-7,1.4629775058789745e-8,5.932931846276781e-9,3.883832029104545e-9,0
60703,4.3518288201301005e-8,2.0666352961063438e-7,1.3845640090929405e-8,6.816764208970812e-8,2.5882461839179515e-7,1.462614259545088e-8,5.918061018665515e-9,3.87753884541431e-9,0
60704,4.348306518787305e-8,2.0283848760418378e-7,1.3805109165507053e-8,6.77567968921507e-8,2.5753281967947687e-7,1.4622510132112014e-8,5.903190191054249e-9,3.871245661724077e-9,0
60705,4.3447842174445094e-8,1.990134455977332e-7,1.3764578240084702e-8,6.734595169459328e-8,2.5624102096715865e-7,1.4618877668773149e-8,5.888319363442982e-9,3.8649524780338424e-09,0
60706,4.3417741107338615e-8,1.9539445881594377e-7,1.3735742266833853e-8,6.681154309498968e-8,2.547177563192252e-7,1.4617221423262622e-8,5.876101401911406e-9,3.858920424847241e-9,0
60707,4.3387640040232135e-8,1.9177547203415435e-7,1.3706906293583002e-8,6.627713449538606e-8,2.531944916712917e-7,1.4615565177752096e-8,5.86388344037983e-9,3.85288837166064e-9,0
60708,4.3357538973125655e-8,1.8815648525236494e-7,1.3678070320332153e-8,6.574272589578245e-8,2.5167122702335824e-7,1.4613908932241568e-8,5.851665478848254e-9,3.8468563184740385e-9,0
60709,4.3327437906019175e-8,1.8453749847057552e-7,1.3649234347081303e-8,6.520831729617883e-8,2.5014796237542477e-7,1.4612252686731042e-8,5.839447517316678e-9,3.840824265287437e-9,0
60710,4.32973368389127e-8,1.809185116887861e-7,1.3620398373830454e-8,6.467390869657522e-8,2.4862469772749124e-7,1.4610596441220516e-8,5.827229555785101e-9,3.834792212100836e-9,0
60711,4.326723577180622e-8,1.7729952490699669e-7,1.3591562400579603e-8,6.41395000969716e-8,2.471014330795578e-7,1.4608940195709988e-8,5.815011594253526e-9,3.828760158914235e-9,0
60712,4.323713470469974e-8,1.7368053812520727e-7,1.3562726427328755e-8,6.3605091497368e-8,2.455781684316243e-7,1.4607283950199461e-8,5.802793632721949e-9,3.822728105727633e-9,0
60713,4.320703363759326e-8,1.7006155134341785e-7,1.3533890454077904e-8,6.307068289776438e-8,2.4405490378369083e-7,1.4605627704688935e-8,5.790575671190373e-9,3.816696052541032e-9,0
60714,4.317693257048678e-8,1.6644256456162844e-7,1.3505054480827055e-8,6.253627429816077e-8,2.4253163913575736e-7,1.4603971459178407e-8,5.778357709658797e-9,3.810663999354431e-9,0
60715,4.314683150338031e-8,1.6282357777983902e-7,1.3476218507576205e-8,6.200186569855715e-8,2.410083744878239e-7,1.4602315213667881e-8,5.766139748127221e-9,3.8046319461678295e-9,0
60716,4.311673043627383e-8,1.592045909980496e-7,1.3447382534325356e-8,6.146745709895355e-8,2.394851098398904e-7,1.4600658968157355e-8,5.753921786595645e-9,3.798599892981228e-9,0
60717,4.3136639096037454e-8,1.5939883732524215e-7,1.3357228567600623e-8,6.142150812665993e-8,2.395212057897055e-7,1.444454007686607e-8,5.536220520454782e-9,3.773805828174219e-9,0
60718,4.3156547755801085e-8,1.595930836524347e-7,1.326707460087589e-8,6.137555915436632e-8,2.3955730173952055e-7,1.4288421185574785e-8,5.318519254313919e-9,3.749011763367209e-9,0
60719,4.3179308230208703e-08,1.598002752782981e-7,1.3287276995982487e-8,6.129833375822422e-8,2.380554631053262e-7,1.4160533183094922e-8,5.317726731525632e-9,3.7429797101806074e-9,0
60720,4.320206870461632e-8,1.6000746690416152e-7,1.3307479391089083e-8,6.122110836208211e-8,2.3655362447113185e-7,1.403264518061506e-8,5.316934208737345e-9,3.736947656994006e-9,0
60721,4.322482917902395e-8,1.6021465853002495e-7,1.332768178619568e-8,6.114388296594e-8,2.3505178583693753e-7,1.3904757178135198e-8,5.3161416859490576e-9,3.730915603807405e-9,0
60722,4.3247589653431566e-8,1.6042185015588836e-7,1.3347884181302276e-8,6.10666575697979e-8,2.335499472027432e-7,1.3776869175655335e-8,5.315349163160771e-9,3.7248835506208036e-9,0
60723,4.327035012783919e-8,1.6062904178175177e-7,1.3368086576408872e-8,6.09894321736558e-8,2.3204810856854885e-7,1.3648981173175472e-8,5.314556640372484e-9,3.7188514974342023e-9,0
60724,4.329311060224681e-8,1.608362334076152e-7,1.338828897151547e-8,6.09122067775137e-8,2.3054626993435453e-7,1.3521093170695609e-8,5.313764117584197e-9,3.712819444247601e-9,0
60725,4.3315871076654434e-8,1.610434250334786e-7,1.3408491366622066e-8,6.08349813813716e-8,2.2904443130016018e-7,1.3393205168215746e-8,5.31297159479591e-9,3.7067873910609997e-9,0
60726,4.333863155106205e-8,1.6125061665934202e-7,1.3428693761728662e-8,6.075775598522949e-8,2.2754259266596585e-7,1.3265317165735883e-8,5.312179072007622e-9,3.700755337874399e-9,0
60727,4.336139202546967e-8,1.6145780828520545e-7,1.3448896156835259e-8,6.068053058908738e-8,2.2604075403177153e-7,1.313742916325602e-8,5.311386549219335e-9,3.6947232846877975e-9,0
60728,4.3607647939130356e-8,1.6325137092001836e-7,1.3452479136202862e-8,6.061987722559337e-8,2.2447703168714099e-7,1.3007724929106725e-8,5.3083266959273814e-9,3.6894040993419184e-9,0
60729,4.385390385279104e-8,1.6504493355483128e-7,1.3456062115570467e-8,6.055922386209937e-8,2.2291330934251044e-7,1.287802069495743e-8,5.3052668426354274e-9,3.6840849139960398e-9,0
60730,4.385443778192306e-8,1.6488484754575049e-7,1.3456062115570467e-8,6.048466909683412e-8,2.2131147781080217e-7,1.274849524160753e-8,5.301934671308634e-9,3.6788127444302783e-9,0
60731,4.3854971711055074e-8,1.6472476153666967e-7,1.3456062115570467e-8,6.041011433156889e-8,2.1970964627909388e-7,1.261896978825763e-8,5.29860249998184e-9,3.673540574864517e-9,0
60732,4.3855505640187095e-8,1.6456467552758885e-7,1.3456062115570467e-8,6.033555956630364e-8,2.181078147473856e-7,1.248944433490773e-8,5.295270328655047e-9,3.6682684052987553e-9,0
60733,4.3856039569319115e-8,1.6440458951850803e-7,1.3456062115570467e-8,6.026100480103841e-8,2.1650598321567734e-7,1.235991888155783e-8,5.291938157328253e-9,3.662996235732994e-9,0
60734,4.3856573498451136e-8,1.642445035094272e-7,1.3456062115570467e-8,6.018645003577316e-8,2.1490415168396907e-7,1.223039342820793e-8,5.28860598600146e-9,3.6577240661672324e-9,0
60735,4.3857107427583156e-8,1.640844175003464e-7,1.3456062115570467e-8,6.011189527050793e-8,2.133023201522608e-7,1.210086797485803e-8,5.2852738146746666e-9,3.652451896601471e-9,0
60736,4.385764135671517e-8,1.6392433149126557e-7,1.3456062115570467e-8,6.00373405052427e-8,2.117004886205525e-7,1.1971342521508129e-8,5.2819416433478724e-9,3.64717972703571e-9,0
60737,4.385817528584719e-8,1.6376424548218478e-7,1.3456062115570467e-8,5.996278573997745e-8,2.1009865708884423e-7,1.1841817068158229e-8,5.278609472021079e-9,3.6419075574699483e-9,0
60738,4.385870921497921e-8,1.6360415947310396e-7,1.3456062115570467e-8,5.988823097471222e-8,2.0849682555713597e-7,1.1712291614808329e-8,5.275277300694286e-9,3.636635387904187e-9,0
60739,4.385924314411123e-8,1.6344407346402314e-7,1.3456062115570467e-8,5.981367620944697e-8,2.068949940254277e-7,1.158276616145843e-8,5.271945129367492e-9,3.6313632183384254e-9,0
60740,4.3734401582930554e-8,1.6329643400049599e-7,1.3374977412502615e-8,5.979369424200342e-8,2.053120183652595e-7,1.1546122019181455e-8,5.271672811332653e-9,3.6073290371522554e-9,0
60741,4.360956002174988e-8,1.6327067709741334e-7,1.3374197749024515e-8,5.975698812375577e-8,2.0362865584101742e-7,1.1534867067566069e-8,5.266232409995848e-9,3.6073760529323726e-9,0
60742,4.348313553990267e-8,1.6311059108833252e-7,1.3368086576408872e-8,5.973378727804844e-8,2.0277638780163827e-7,1.1522360650354916e-8,5.242769561850879e-9,3.5880917803046984e-9,0
60743,4.335774374030469e-8,1.6319714796683623e-7,1.336275506727133e-8,5.970732861570162e-8,2.0205305856536491e-7,1.1509854233143762e-8,5.21930671370591e-9,3.5700661444150708e-9,0
60744,4.324147020087568e-8,1.630459503843591e-7,1.3356362984294795e-8,5.968254307799726e-8,2.012843730796848e-7,1.1497169035133214e-8,5.195730648019757e-9,3.5500219881665567e-9,0
60745,4.3125196661446666e-8,1.6289475280188194e-7,1.3349970901318259e-8,5.965775754029289e-8,2.005156875940047e-7,1.1484483837122666e-8,5.172154582333604e-9,3.5299778319180423e-9,0
60746,4.3008923122017654e-8,1.627435552194048e-7,1.3343578818341724e-8,5.963297200258853e-8,1.9974700210832458e-7,1.1471798639112117e-8,5.1485785166474515e-9,3.5099336756695283e-9,0
60747,4.289264958258865e-8,1.6259235763692764e-7,1.3337186735365188e-8,5.960818646488416e-8,1.9897831662264447e-7,1.1459113441101567e-8,5.125002450961298e-9,3.489889519421014e-9,0
60748,4.277637604315964e-8,1.624411600544505e-7,1.3330794652388653e-8,5.9583400927179794e-8,1.9820963113696436e-7,1.1446428243091019e-8,5.101426385275145e-9,3.4698453631725e-9,0
60749,4.2660102503730625e-8,1.6228996247197335e-7,1.3324402569412117e-8,5.955861538947543e-8,1.9744094565128423e-7,1.143374304508047e-8,5.077850319588993e-9,3.4498012069239854e-9,0
60750,4.254382896430161e-8,1.621387648894962e-7,1.3318010486435582e-8,5.953382985177106e-8,1.9667226016560412e-7,1.1421057847069922e-8,5.05427425390284e-9,3.429757050675471e-9,0
60751,4.242755542487261e-8,1.6198756730701905e-7,1.3311618403459045e-8,5.9509044314066696e-8,1.95903574679924e-7,1.1408372649059372e-8,5.030698188216687e-9,3.409712894426957e-9,0
60752,4.2311281885443596e-8,1.618363697245419e-7,1.330522632048251e-8,5.948425877636233e-8,1.951348891942439e-7,1.1395687451048824e-8,5.007122122530534e-9,3.3896687381784425e-9,0
60753,4.23214328278618e-8,1.6113417510097625e-7,1.3305008477726197e-8,5.940232533822528e-8,1.9517226539377535e-7,1.138633353869982e-8,4.980822876495989e-9,3.3859868595245373e-9,0
60754,4.233158377027999e-8,1.6043198047741058e-7,1.3304790634969883e-8,5.9320391900088226e-8,1.952096415933068e-7,1.1376979626350813e-8,4.954523630461444e-9,3.3823049808706316e-9,0
60755,4.233158377027999e-8,1.5984514005901272e-7,1.3310964875190105e-8,5.9253944555719435e-8,1.9534571034152711e-7,1.1386860715492505e-8,4.929494208696151e-9,3.3806416225756127e-9,0
60756,4.233158377027999e-8,1.5925829964061484e-7,1.3317139115410326e-8,5.9187497211350644e-8,1.954817790897474e-7,1.1396741804634198e-8,4.904464786930859e-9,3.378978264280594e-9,0
60757,4.233158377027999e-8,1.5867145922221695e-7,1.3323313355630548e-8,5.912104986698185e-8,1.956178478379677e-7,1.140662289377589e-8,4.879435365165567e-9,3.377314905985575e-9,0
60758,4.233158377027999e-8,1.580846188038191e-7,1.3329487595850769e-8,5.905460252261306e-8,1.9575391658618802e-7,1.1416503982917583e-8,4.8544059434002745e-9,3.375651547690556e-9,0
60759,4.233158377027999e-8,1.574977783854212e-7,1.3335661836070992e-8,5.898815517824427e-8,1.958899853344083e-7,1.1426385072059276e-8,4.829376521634982e-9,3.373988189395537e-9,0
60760,4.2329019652664334e-8,1.5743432012694462e-7,1.3341773008686634e-8,5.894687894491679e-8,1.9474007665576422e-7,1.1443803841880542e-8,4.830260810328212e-9,3.3641306665016914e-9,0
60761,4.232645553504868e-8,1.57370861868468e-7,1.3347884181302276e-8,5.8905602711589306e-8,1.9359016797712013e-7,1.1461222611701807e-8,4.831145099021442e-9,3.354273143607845e-9,0
60762,4.2323891417433014e-8,1.573074036099914e-7,1.3353995353917919e-8,5.886432647826183e-8,1.9244025929847605e-7,1.1478641381523073e-8,4.832029387714673e-9,3.3444156207139994e-9,0
60763,4.232235998206658e-8,1.5712314942681078e-7,1.3369926813725967e-8,5.8811232288277364e-8,1.912836749386035e-7,1.1476665163694733e-08,4.832029387714673e-9,3.334558097820153e-9,0
60764,4.2320828546700155e-8,1.5693889524363014e-7,1.3385858273534013e-8,5.87581380982929e-8,1.9012709057873092e-7,1.1474688945866396e-8,4.832029387714673e-9,3.3247005749263074e-9,0
60765,4.231929711133372e-8,1.567546410604495e-7,1.3401789733342061e-8,5.8705043908308435e-8,1.8897050621885834e-7,1.1472712728038057e-8,4.832029387714673e-9,3.314843052032461e-9,0
60766,4.231776567596729e-8,1.5657038687726888e-7,1.341772119315011e-8,5.865194971832397e-8,1.878139218589858e-7,1.1470736510209718e-8,4.832029387714673e-9,3.3049855291386154e-9,0
60767,4.2316234240600855e-8,1.5638613269408824e-7,1.3433652652958156e-8,5.8598855528339505e-8,1.8665733749911322e-7,1.146876029238138e-8,4.832029387714673e-9,3.2951280062447696e-9,0
60768,4.231470280523442e-8,1.562018785109076e-7,1.3449584112766204e-8,5.854576133835504e-8,1.8550075313924064e-7,1.1466784074553041e-8,4.832029387714673e-9,3.2852704833509234e-9,0
60769,4.231317136986799e-8,1.5601762432772697e-7,1.3465515572574252e-8,5.8492667148370575e-8,1.843441687793681e-7,1.1464807856724703e-8,4.832029387714673e-9,3.2754129604570776e-9,0
60770,4.2311639934501556e-8,1.5583337014454634e-7,1.3481447032382298e-8,5.843957295838611e-8,1.8318758441949551e-7,1.1462831638896364e-8,4.832029387714673e-9,3.2655554375632314e-9,0
60771,4.231010849913512e-8,1.556491159613657e-7,1.3497378492190346e-8,5.8386478768401646e-8,1.8203100005962294e-7,1.1460855421068027e-8,4.832029387714673e-9,3.2556979146693856e-9,0
60772,4.230857706376869e-8,1.5546486177818507e-7,1.3513309951998394e-8,5.833338457841718e-8,1.808744156997504e-7,1.1458879203239687e-8,4.832029387714673e-9,3.2458403917755394e-9,0
60773,4.2307045628402256e-8,1.5528060759500444e-7,1.352924141180644e-8,5.8280290388432716e-8,1.797178313398778e-7,1.1456902985411348e-8,4.832029387714673e-9,3.2359828688816936e-9,0
60774,4.230551419303582e-8,1.550963534118238e-7,1.3545172871614489e-8,5.822719619844825e-8,1.7856124698000526e-7,1.145492676758301e-8,4.832029387714673e-9,3.2261253459878474e-9,0
60775,4.210560714326058e-8,1.5509091169228756e-7,1.3559046251349128e-8,5.8108386872393164e-8,1.7843250810724772e-7,1.1433922752738849e-8,4.82549971423851e-9,3.2125389286599787e-9,0
60776,4.1905700093485334e-8,1.5508546997275132e-7,1.357291963108377e-8,5.7989577546338077e-08,1.7830376923449018e-7,1.1412918737894687e-8,4.818970040762348e-9,3.1989525113321097e-9,0
60777,4.1899996464197345e-8,1.5491588537206705e-7,1.3573424171920404e-8,5.798166118197333e-8,1.784974106008245e-7,1.1393523750245083e-8,4.8080892380887376e-9,3.1521898014779335e-9,0
60778,4.190295380688577e-8,1.547555457160107e-7,1.3561580232316594e-8,5.7979407967188693e-8,1.793816575339082e-7,1.138256997630702e-8,4.798658811814277e-9,3.1031474407612383e-9,0
60779,4.1905911149574206e-8,1.5459520605995434e-7,1.3549736292712786e-8,5.797715475240406e-8,1.802659044669919e-7,1.1371616202368955e-8,4.789228385539815e-9,3.0541050800445428e-9,0
60780,4.190886849226263e-8,1.5443486640389798e-7,1.3537892353108976e-8,5.797490153761942e-8,1.811501514000756e-7,1.136066242843089e-8,4.779797959265354e-9,3.005062719327847e-9,0
60781,4.1911825834951067e-8,1.542745267478416e-7,1.3526048413505168e-8,5.797264832283478e-8,1.820343983331593e-7,1.1349708654492826e-8,4.770367532990893e-9,2.956020358611152e-9,0
60782,4.1914783177639494e-8,1.5411418709178525e-7,1.3514204473901358e-8,5.797039510805015e-8,1.8291864526624298e-7,1.1338754880554762e-8,4.760937106716432e-9,2.9069779978944564e-9,0
60783,4.191774052032792e-8,1.539538474357289e-7,1.350236053429755e-8,5.796814189326551e-8,1.8380289219932668e-7,1.1327801106616699e-8,4.7515066804419704e-9,2.8579356371777613e-9,0
60784,4.193256240978489e-8,1.537824460815879e-7,1.350656840199152e-8,5.7964739054090475e-8,1.8382357933138298e-7,1.1308566105126e-8,4.740240342192337e-9,2.8088932764610657e-9,0
60785,4.1947384299241846e-8,1.5361104472744694e-7,1.3510776269685489e-8,5.7961336214915446e-8,1.8384426646343928e-7,1.1289331103635302e-8,4.728974003942703e-9,2.75985091574437e-9,0
60786,4.196220618869881e-8,1.5343964337330595e-7,1.3514984137379459e-8,5.795793337574041e-8,1.8386495359549556e-7,1.1270096102144603e-8,4.7177076656930695e-9,2.710808555027675e-9,0
60787,4.197702807815577e-8,1.53268242019165e-7,1.3519192005073428e-8,5.7954530536565376e-8,1.8388564072755186e-7,1.1250861100653906e-8,4.706441327443436e-9,2.6617661943109793e-9,0
60788,4.199184996761273e-8,1.53096840665024e-7,1.3523399872767398e-8,5.795112769739034e-8,1.8390632785960816e-7,1.1231626099163207e-8,4.695174989193802e-9,2.612723833594284e-9,0
60789,4.2006671857069697e-8,1.5292543931088304e-7,1.3527607740461369e-8,5.7947724858215306e-8,1.8392701499166446e-7,1.121239109767251e-8,4.6839086509441686e-9,2.5636814728775886e-9,0
60790,4.2021493746526656e-8,1.5275403795674205e-7,1.3531815608155338e-8,5.794432201904028e-8,1.8394770212372073e-7,1.119315609618181e-8,4.672642312694535e-9,2.514639112160893e-9,0
60791,4.203631563598362e-8,1.525826366026011e-7,1.3536023475849308e-8,5.794091917986524e-8,1.8396838925577704e-7,1.1173921094691113e-8,4.661375974444901e-9,2.465596751444198e-9,0
60792,4.205113752544058e-8,1.5241123524846013e-7,1.3540231343543277e-8,5.793751634069021e-8,1.8398907638783334e-7,1.1154686093200414e-8,4.650109636195268e-9,2.4165543907275023e-9,0
60793,4.206595941489754e-8,1.5223983389431914e-7,1.3544439211237247e-8,5.793411350151517e-8,1.840097635198896e-7,1.1135451091709716e-8,4.638843297945634e-9,2.367512030010807e-9,0
60794,4.2080781304354507e-8,1.5206843254017818e-7,1.3548647078931216e-8,5.793071066234014e-8,1.840304506519459e-7,1.1116216090219017e-8,4.627576959696e-9,2.3184696692941115e-9,0
60795,4.2095603193811466e-8,1.518970311860372e-7,1.3552854946625186e-8,5.792730782316511e-8,1.8405113778400221e-7,1.109698108872832e-8,4.616310621446367e-9,2.269427308577416e-9,0
60796,4.2110425083268425e-8,1.5172562983189623e-7,1.3557062814319155e-8,5.7923904983990074e-8,1.840718249160585e-7,1.107774608723762e-8,4.605044283196733e-9,2.2203849478607208e-9,0
60797,4.212524697272539e-8,1.5155422847775524e-7,1.3561270682013125e-8,5.792050214481504e-8,1.840925120481148e-7,1.1058511085746923e-8,4.593777944947099e-9,2.171342587144025e-9,0
60798,4.1957860672147424e-8,1.5135544026692092e-7,1.3555933385156156e-8,5.7517842069832144e-8,1.8410747866145275e-7,1.1051989705942254e-8,4.585617342941891e-9,2.1690629362815057e-9,0
60799,4.106938033468837e-8,1.5125331583060995e-7,1.3527412749928203e-8,5.748994373802384e-8,1.8412396779857965e-7,1.1051810925142859e-8,4.585504125400708e-9,2.1531968680911172e-9,0
60800,4.090779690253299e-8,1.512618391983555e-7,1.3455867423691863e-8,5.7450920719481e-8,1.841362892250362e-7,1.0943873047351275e-8,4.552494653760104e-9,2.150917217228598e-9,0
60801,4.0746213470377603e-8,1.5127036256610104e-7,1.3384322097455522e-8,5.7411897700938155e-8,1.8414861065149278e-7,1.0835935169559692e-8,4.5194851821195e-9,2.148637566366078e-9,0
60802,4.0584630038222226e-8,1.512788859338466e-7,1.3312776771219183e-8,5.737287468239531e-8,1.8416093207794937e-7,1.0727997291768108e-8,4.486475710478896e-9,2.1463579155035585e-9,0
60803,4.042304660606684e-8,1.5128740930159214e-7,1.3241231444982843e-8,5.733385166385247e-8,1.8417325350440593e-7,1.0620059413976524e-8,4.453466238838292e-9,2.144078264641039e-9,0
60804,4.026146317391146e-8,1.512959326693377e-7,1.3169686118746504e-8,5.729482864530962e-8,1.841855749308625e-7,1.051212153618494e-8,4.420456767197688e-9,2.1417986137785197e-9,0
60805,4.009987974175608e-8,1.5130445603708324e-7,1.3098140792510164e-8,5.7255805626766775e-8,1.8419789635731906e-7,1.0404183658393359e-8,4.387447295557084e-9,2.139518962916e-9,0
60806,3.9941717229391524e-8,1.5150793876806978e-7,1.302553489243483e-8,5.7203429453839605e-8,1.8432156488577082e-7,1.0300433380979315e-8,4.349903162909146e-9,2.1372393120534804e-9,0
60807,3.9783554717026966e-8,1.5171142149905635e-7,1.2952928992359497e-8,5.7151053280912436e-8,1.8444523341422254e-7,1.0196683103565273e-8,4.312359030261208e-9,2.134959661190961e-9,0
60808,3.962539220466241e-8,1.5191490423004292e-7,1.2880323092284164e-8,5.7098677107985266e-8,1.845689019426743e-7,1.0092932826151229e-8,4.2748148976132696e-9,2.1326800103284415e-9,0
60809,3.951425318937456e-8,1.4966147413949736e-7,1.286040739525789e-8,5.709456680764691e-8,1.8271678130476873e-7,1.007144885283035e-8,4.248515651578724e-9,2.116813942138053e-9,0
60810,3.9403114174086707e-8,1.4740804404895183e-7,1.2840491698231613e-8,5.7090456507308556e-8,1.808646606668632e-7,1.0049964879509472e-8,4.222216405544178e-9,2.1009478739476646e-9,0
60811,3.929197515879885e-8,1.451546139584063e-7,1.2820576001205338e-8,5.70863462069702e-8,1.7901254002895764e-7,1.0028480906188591e-8,4.195917159509633e-9,2.085081805757276e-9,0
60812,3.9180836143511e-8,1.4290118386786074e-7,1.2800660304179061e-8,5.7082235906631846e-8,1.771604193910521e-7,1.0006996932867713e-8,4.169617913475087e-9,2.0692157375668876e-9,0
60813,3.906969712822315e-8,1.4045733629771596e-7,1.2781679045782619e-8,5.7082235906631846e-8,1.7534535388529347e-7,9.98150413996869e-9,4.143431884981726e-9,2.053349669376499e-9,0
60814,3.8958558112935296e-8,1.380134887275712e-7,1.2762697787386178e-8,5.7082235906631846e-8,1.7353028837953485e-7,9.956011347069664e-9,4.1172458564883645e-9,2.0374836011861106e-9,0
60815,3.884741909764744e-8,1.3556964115742643e-7,1.2743716528989738e-8,5.7082235906631846e-8,1.7171522287377622e-7,9.93051855417064e-9,4.091059827995003e-9,2.0216175329957217e-9,0
60816,3.8736280082359594e-8,1.3312579358728165e-7,1.2724735270593296e-8,5.7082235906631846e-8,1.699001573680176e-7,9.905025761271615e-9,4.064873799501642e-9,2.0057514648053332e-9,0
60817,3.862514106707174e-8,1.3068194601713687e-7,1.2705754012196855e-8,5.7082235906631846e-8,1.6808509186225897e-7,9.879532968372592e-9,4.03868777100828e-9,1.9898853966149447e-9,0
60818,3.859745712461183e-8,1.3070770292021952e-7,1.2704538663206127e-8,5.6910215575465135e-8,1.6714651916330224e-7,9.848713877343196e-9,4.007128675766825e-9,1.9896477740013707e-9,0
60819,3.8569773182151925e-8,1.3073345982330216e-7,1.2703323314215398e-8,5.673819524429842e-8,1.6620794646434554e-7,9.8178947863138e-9,3.975569580525371e-9,1.9894101513877966e-9,0
60820,3.8542089239692014e-8,1.307592167263848e-7,1.2702107965224672e-8,5.656617491313171e-8,1.6526937376538882e-7,9.787075695284405e-9,3.944010485283916e-9,1.9891725287742225e-9,0
60821,3.853168577626029e-8,1.3097407644885234e-7,1.2702107965224672e-8,5.6388724887565844e-8,1.6417368579486842e-7,9.75625660425501e-9,3.912723708077301e-9,1.989196036664281e-9,0
60822,3.852128231282857e-8,1.3118893617131988e-7,1.2702107965224672e-8,5.621127486199998e-8,1.6307799782434804e-7,9.725437513225614e-9,3.881436930870686e-9,1.98921954455434e-9,0
60823,3.8510878849396845e-8,1.314037958937874e-7,1.2702107965224672e-8,5.6033824836434124e-8,1.6198230985382764e-7,9.69461842219622e-9,3.850150153664071e-9,1.9892430524443987e-9,0
60824,3.8500475385965124e-8,1.3161865561625493e-7,1.2702107965224672e-8,5.585637481086826e-8,1.6088662188330724e-7,9.663799331166824e-9,3.818863376457456e-9,1.9892665603344573e-9,0
60825,3.84900719225334e-8,1.3183351533872244e-7,1.2702107965224672e-8,5.5678924785302404e-8,1.5979093391278687e-7,9.632980240137428e-9,3.78757659925084e-9,1.9892900682245163e-9,0
60826,3.847966845910168e-8,1.3204837506118998e-7,1.2702107965224672e-8,5.550147475973654e-8,1.5869524594226647e-7,9.602161149108033e-9,3.756289822044225e-9,1.989313576114575e-9,0
60827,3.8469264995669955e-8,1.322632347836575e-7,1.2702107965224672e-8,5.5324024734170685e-8,1.5759955797174607e-7,9.571342058078637e-9,3.7250030448376096e-9,1.9893370840046335e-9,0
60828,3.8458861532238234e-8,1.3247809450612503e-7,1.2702107965224672e-8,5.514657470860482e-8,1.565038700012257e-7,9.540522967049243e-9,3.6937162676309945e-9,1.9893605918946925e-9,0
60829,3.844845806880651e-8,1.3269295422859254e-7,1.2702107965224672e-8,5.496912468303896e-8,1.554081820307053e-7,9.509703876019847e-9,3.6624294904243794e-9,1.989384099784751e-9,0
60830,3.8438054605374785e-8,1.3290781395106008e-7,1.2702107965224672e-8,5.47916746574731e-8,1.543124940601849e-7,9.478884784990452e-9,3.6311427132177642e-9,1.9894076076748097e-9,0
60831,3.8427651141943064e-8,1.331226736735276e-7,1.2702107965224672e-8,5.461422463190724e-8,1.532168060896645e-7,9.448065693961056e-9,3.5998559360111487e-9,1.9894311155648687e-9,0
60832,3.8417247678511344e-8,1.3333753339599513e-7,1.2702107965224672e-8,5.443677460634138e-8,1.5212111811914412e-7,9.41724660293166e-9,3.5685691588045336e-09,1.9894546234549273e-9,0
60833,3.8406844215079616e-8,1.3355239311846264e-7,1.2702107965224672e-8,5.425932458077552e-8,1.5102543014862373e-7,9.386427511902267e-9,3.5372823815979184e-9,1.989478131344986e-9,0
60834,3.8396440751647895e-8,1.3376725284093018e-7,1.2702107965224672e-8,5.408187455520966e-8,1.4992974217810333e-7,9.355608420872871e-9,3.5059956043913033e-9,1.989501639235045e-9,0
60835,3.8386037288216174e-8,1.339821125633977e-7,1.2702107965224672e-8,5.39044245296438e-8,1.4883405420758295e-7,9.324789329843475e-9,3.4747088271846877e-9,1.9895251471251035e-9,0
60836,3.8386037288216174e-8,1.341178042344884e-7,1.2700892616233944e-8,5.372697450407794e-8,1.4773475784802756e-7,9.293631471855779e-9,3.4430365144020494e-9,1.9895251471251035e-9,0
60837,3.8386037288216174e-8,1.342534959055791e-7,1.2699677267243215e-8,5.354952447851208e-8,1.466354614884722e-7,9.262473613868083e-9,3.411364201619411e-9,1.9895251471251035e-9,0
60838,3.8386037288216174e-8,1.3438918757666981e-7,1.2698461918252489e-8,5.3372074452946217e-8,1.4553616512891683e-7,9.231315755880386e-9,3.3796918888367726e-9,1.9895251471251035e-9,0
60839,3.8386037288216174e-8,1.345248792477605e-7,1.269724656926176e-8,5.319462442738036e-8,1.4443686876936144e-7,9.20015789789269e-9,3.3480195760541346e-9,1.9895251471251035e-9,0
60840,3.8137571574532184e-8,1.34430770885244e-7,1.269406484774478e-8,5.30171744018145e-8,1.4424894792174547e-07,9.184912921339646e-9,3.3398589740489265e-9,1.9897627697386776e-9,0
60841,3.8170102344104914e-8,1.3413755195720445e-7,1.2675083589348339e-8,5.225395839681358e-8,1.4401649064522448e-7,9.184094195904629e-9,3.3208849039588204e-9,1.9696951056001046e-9,0
60842,3.8202633113677645e-8,1.3384433302916494e-7,1.2656102330951898e-8,5.149074239181266e-8,1.4378403336870346e-7,9.18327547046961e-9,3.3019108338687142e-9,1.9496274414615316e-9,0
60843,3.823516388325037e-8,1.335511141011254e-7,1.2637121072555456e-8,5.072752638681174e-8,1.4355157609218247e-7,9.18245674503459e-9,3.282936763778608e-9,1.929559777322959e-9,0
60844,3.82676946528231e-8,1.3325789517308587e-7,1.2618139814159015e-8,4.9964310381810824e-8,1.4331911881566149e-7,9.181638019599573e-9,3.263962693688502e-9,1.909492113184386e-9,0
60845,3.830022542239583e-8,1.3296467624504636e-7,1.2599158555762575e-8,4.92010943768099e-8,1.4308666153914047e-7,9.180819294164553e-9,3.2449886235983958e-9,1.889424449045813e-9,0
60846,3.833275619196856e-8,1.3267145731700682e-7,1.2580177297366132e-8,4.8437878371808984e-8,1.4285420426261948e-7,9.180000568729536e-9,3.2260145535082896e-9,1.86935678490724e-9,0
60847,3.836528696154129e-8,1.323782383889673e-7,1.2561196038969692e-8,4.767466236680807e-8,1.426217469860985e-7,9.179181843294517e-9,3.2070404834181835e-9,1.8492891207686668e-9,0
60848,3.839781773111402e-8,1.3208501946092777e-7,1.254221478057325e-8,4.6911446361807144e-8,1.4238928970957748e-7,9.178363117859497e-9,3.1880664133280773e-9,1.829221456630094e-9,0
60849,3.843034850068675e-8,1.3179180053288824e-7,1.2523233522176809e-8,4.614823035680623e-8,1.421568324330565e-7,9.17754439242448e-9,3.169092343237971e-9,1.809153792491521e-9,0
60850,3.8462879270259483e-8,1.3149858160484873e-7,1.2504252263780368e-8,4.5385014351805305e-8,1.419243751565355e-7,9.17672566698946e-9,3.150118273147865e-9,1.789086128352948e-9,0
60851,3.8495410039832214e-8,1.312053626768092e-7,1.2485271005383926e-8,4.462179834680439e-8,1.416919178800145e-7,9.175906941554441e-9,3.131144203057759e-9,1.769018464214375e-9,0
60852,3.8527940809404945e-8,1.3091214374876968e-7,1.2466289746987485e-8,4.385858234180347e-8,1.414594606034935e-7,9.175088216119424e-9,3.1121701329676527e-9,1.748950800075802e-9,0
60853,3.8560471578977675e-8,1.3061892482073014e-7,1.2447308488591043e-8,4.309536633680255e-8,1.4122700332697251e-7,9.174269490684404e-9,3.0931960628775465e-9,1.728883135937229e-9,0
60854,3.85930023485504e-8,1.303257058926906e-7,1.2428327230194603e-8,4.233215033180163e-8,1.409945460504515e-7,9.173450765249385e-9,3.0742219927874404e-9,1.708815471798656e-9,0
60855,3.849853953112909e-8,1.290804582539926e-7,1.2413049298655497e-8,4.23149026807455e-8,1.4015926590131647e-7,9.16676939928581e-9,3.042549680004802e-9,1.7001460619726808e-9,0
60856,3.83434913747975e-8,1.2830622035778398e-7,1.2393500431817841e-8,4.2095292095398007e-8,1.4014916970193604e-7,9.16643063232751e-9,2.998634974374357e-9,1.6981745573939116e-9,0
60857,3.8188443218465914e-8,1.2753198246157538e-7,1.2373951564980187e-8,4.1875681510050516e-8,1.4013907350255564e-7,9.166091865369207e-9,2.954720268743912e-9,1.6962030528151423e-9,0
60858,3.8033395062134324e-8,1.2675774456536675e-7,1.2354402698142531e-8,4.1656070924703025e-8,1.4012897730317524e-7,9.165753098410906e-9,2.9108055631134667e-9,1.6942315482363731e-9,0
60859,3.787834690580274e-8,1.2598350666915815e-7,1.2334853831304876e-8,4.1436460339355534e-8,1.401188811037948e-7,9.165414331452606e-9,2.8668908574830217e-9,1.692260043657604e-9,0
60860,3.772329874947115e-8,1.2520926877294953e-7,1.2315304964467222e-8,4.1216849754008036e-8,1.401087849044144e-7,9.165075564494305e-9,2.822976151852576e-9,1.6902885390788348e-9,0
60861,3.756825059313956e-8,1.2443503087674093e-7,1.2295756097629566e-8,4.0997239168660545e-8,1.4009868870503398e-7,9.164736797536003e-9,2.779061446222131e-9,1.6883170345000656e-9,0
60862,3.741320243680797e-8,1.236607929805323e-7,1.2276207230791911e-8,4.0777628583313054e-8,1.4008859250565358e-7,9.164398030577702e-9,2.735146740591686e-9,1.6863455299212963e-9,0
60863,3.725815428047638e-8,1.228865550843237e-7,1.2256658363954257e-8,4.055801799796556e-8,1.4007849630627318e-7,9.164059263619401e-9,2.691232034961241e-9,1.684374025342527e-9,0
60864,3.71031061241448e-8,1.2211231718811507e-7,1.2237109497116601e-8,4.033840741261807e-8,1.4006840010689275e-7,9.163720496661099e-9,2.6473173293307954e-9,1.682402520763758e-9,0
60865,3.6992469593439765e-8,1.2120249903269832e-7,1.22254145449451e-8,4.014534392226281e-8,1.4006601943869953e-7,9.182776717352403e-9,2.6041278118999252e-9,1.684230434289188e-9,0
60866,3.688183306273472e-8,1.202926808772816e-7,1.2213719592773597e-8,3.995228043190755e-8,1.4006363877050629e-7,9.201832938043706e-9,2.5609382944690547e-9,1.686058347814618e-9,0
60867,3.622274398317607e-8,1.180439040822604e-7,1.2020025755922405e-8,3.939847705062299e-8,1.3757353195687412e-7,8.899475317743846e-9,2.5608250769278708e-9,1.6860818557046767e-9,0
60868,3.556376043166185e-8,1.1577482064452669e-7,1.1834564239364842e-8,3.8840715487156066e-8,1.3511731811059642e-7,8.597277683602893e-9,2.56109739496271e-9,1.6868652472155754e-9,0
60869,3.490477688014762e-8,1.1350573720679299e-7,1.1649102722807279e-8,3.8282953923689145e-8,1.3266110426431873e-7,8.29508004946194e-9,2.5613697129975495e-9,1.6876486387264738e-9,0
60870,3.42457933286334e-8,1.112366537690593e-7,1.1463641206249716e-8,3.772519236022222e-8,1.3020489041804103e-7,7.992882415320986e-9,2.5616420310323884e-9,1.6884320302373724e-9,0
60871,3.358680977711918e-8,1.089675703313256e-7,1.1278179689692153e-8,3.716743079675529e-8,1.2774867657176334e-7,7.690684781180031e-9,2.5619143490672278e-9,1.689215421748271e-9,0
60872,3.292782622560496e-8,1.066984868935919e-7,1.1092718173134588e-8,3.6609669233288364e-8,1.2529246272548564e-7,7.388487147039078e-9,2.562186667102067e-9,1.6899988132591696e-9,0
60873,3.226884267409074e-8,1.044294034558582e-7,1.0907256656577025e-8,3.6051907669821437e-8,1.2283624887920797e-7,7.086289512898124e-9,2.5624589851369064e-9,1.6907822047700682e-9,0
60874,3.2242332117939304e-8,1.0316035604204364e-7,1.0836193018954171e-8,3.593922840370838e-8,1.2184835429602931e-7,7.085630773622011e-9,2.549671956219421e-9,1.6828961864549914e-9,0
60875,3.2215821561787874e-8,1.0189130862822908e-7,1.0765129381331318e-8,3.582654913759532e-8,1.2086045971285068e-7,7.0849720343458985e-9,2.5368849273019356e-9,1.6750101681399145e-9,0
60876,3.2189311005636436e-8,1.0062226121441453e-7,1.0694065743708464e-8,3.571386987148227e-8,1.1987256512967202e-7,7.084313295069786e-9,2.5240978983844502e-9,1.6671241498248379e-9,0
60877,3.216365725166017e-8,9.944105265552405e-8,1.0616174337596447e-8,3.5600925307432966e-8,1.1932129151386298e-7,7.084313295069786e-9,2.5109253338909416e-9,1.6604967682478078e-9,0
60878,3.21380034976839e-8,9.825984409663357e-8,1.053828293148443e-8,3.548798074338366e-8,1.1877001789805392e-7,7.084313295069786e-9,2.4977527693974334e-9,1.653869386670778e-9,0
60879,3.211234974370763e-8,9.707863553774309e-8,1.0460391525372413e-8,3.537503617933436e-8,1.1821874428224487e-7,7.084313295069786e-9,2.4845802049039247e-9,1.6472420050937478e-9,0
60880,3.2086695989731364e-8,9.589742697885262e-8,1.0382500119260395e-8,3.526209161528506e-8,1.1766747066643581e-7,7.084313295069786e-9,2.4714076404104165e-9,1.640614623516718e-9,0
60881,3.2061042235755096e-8,9.471621841996215e-8,1.0304608713148378e-8,3.514914705123575e-8,1.1711619705062675e-7,7.084313295069786e-9,2.458235075916908e-9,1.633987241939688e-9,0
60882,3.203538848177883e-8,9.353500986107167e-8,1.0226717307036361e-8,3.5036202487186446e-8,1.1656492343481769e-7,7.084313295069786e-9,2.4450625114233992e-9,1.627359860362658e-9,0
60883,3.200973472780256e-8,9.23538013021812e-8,1.0148825900924344e-8,3.4923257923137144e-8,1.1601364981900864e-7,7.084313295069786e-9,2.431889946929891e-9,1.620732478785628e-9,0
60884,3.198408097382629e-8,9.117259274329073e-8,1.0070934494812327e-8,3.481031335908784e-8,1.1546237620319958e-7,7.084313295069786e-9,2.4187173824363823e-9,1.614105097208598e-9,0
60885,3.195842721985002e-8,8.999138418440026e-8,9.99304308870031e-9,3.469736879503854e-8,1.1491110258739052e-7,7.084313295069786e-9,2.405544817942874e-9,1.607477715631568e-9,0
60886,3.1932773465873755e-8,8.881017562550977e-8,9.915151682588293e-9,3.4584424230989236e-8,1.1435982897158148e-7,7.084313295069786e-9,2.3923722534493655e-9,1.6008503340545382e-9,0
60887,3.190711971189749e-8,8.76289670666193e-8,9.837260276476276e-9,3.4471479666939934e-8,1.1380855535577242e-7,7.084313295069786e-9,2.3791996889558572e-9,1.594222952477508e-9,0
60888,3.188146595792122e-8,8.644775850772882e-8,9.75936887036426e-9,3.435853510289063e-8,1.1325728173996336e-7,7.084313295069786e-9,2.3660271244623486e-9,1.5875955709004782e-9,0
60889,3.185581220394495e-8,8.526654994883835e-8,9.681477464252243e-9,3.424559053884133e-8,1.127060081241543e-7,7.084313295069786e-9,2.35285455996884e-9,1.5809681893234483e-9,0
60890,3.180434139373804e-8,8.464683972958299e-8,9.679700294539728e-9,3.413940561914594e-8,1.129964762033884e-7,7.0559407513104565e-9,2.2178027030669417e-9,1.5793048310284294e-9,0
60891,3.1751908253311525e-8,8.393929065540355e-8,9.675584134392914e-9,3.403744417956916e-8,1.1278915034774736e-7,7.028725699944446e-9,2.0828640637062273e-9,1.5763828359953636e-9,0
60892,3.169947511288501e-8,8.392888368707175e-8,9.67452356055392e-9,3.398838241317161e-8,1.1259640544971987e-7,7.015456941219743e-9,2.079531892379434e-9,1.5751241992573168e-9,0
60893,3.164704197245849e-8,8.392525018015832e-8,9.67374389707582e-9,3.393468684618365e-8,1.1246033670149957e-7,7.000550731625002e-9,2.0773563277807095e-9,1.5730821710083715e-9,0
60894,3.1594608832031974e-8,8.392161667324489e-8,9.67296423359772e-9,3.388099127919569e-8,1.1232426795327926e-7,6.98564452203026e-9,2.0751807631819855e-9,1.5710401427594261e-9,0
60895,3.154217569160546e-8,8.391798316633148e-8,9.67218457011962e-9,3.382729571220773e-8,1.1218819920505897e-7,6.970738312435519e-9,2.0730051985832615e-9,1.5689981145104808e-9,0
60896,3.148974255117894e-8,8.391434965941805e-8,9.67140490664152e-9,3.377360014521977e-8,1.1205213045683867e-7,6.955832102840778e-9,2.0708296339845375e-9,1.5669560862615352e-9,0
60897,3.143730941075242e-8,8.391071615250462e-8,9.67062524316342e-9,3.371990457823181e-8,1.1191606170861836e-7,6.940925893246037e-9,2.068654069385813e-9,1.5649140580125898e-9,0
60898,3.1384876270325906e-8,8.39070826455912e-8,9.66984557968532e-9,3.366620901124385e-8,1.1177999296039806e-7,6.9260196836512954e-9,2.066478504787089e-9,1.5628720297636445e-9,0
60899,3.133244312989939e-8,8.390344913867778e-8,9.66906591620722e-9,3.361251344425589e-8,1.1164392421217776e-7,6.911113474056554e-9,2.064302940188365e-9,1.560830001514699e-9,0
60900,3.128000998947287e-8,8.389981563176436e-8,9.668286252729119e-9,3.355881787726793e-8,1.1150785546395745e-7,6.896207264461813e-9,2.062127375589641e-9,1.5587879732657537e-9,0
60901,3.1227576849046355e-8,8.389618212485093e-8,9.667506589251019e-9,3.350512231027997e-8,1.1137178671573715e-7,6.881301054867072e-9,2.0599518109909166e-9,1.5567459450168084e-9,0
60902,3.1175143708619845e-8,8.38925486179375e-8,9.666726925772918e-9,3.3451426743292e-8,1.1123571796751686e-7,6.8663948452723305e-9,2.0577762463921926e-9,1.5547039167678628e-9,0
60903,3.112271056819333e-8,8.388891511102409e-8,9.665947262294818e-9,3.339773117630404e-8,1.1109964921929655e-7,6.851488635677589e-9,2.0556006817934685e-9,1.5526618885189174e-9,0
60904,3.107027742776681e-8,8.388528160411066e-8,9.665167598816718e-9,3.334403560931608e-8,1.1096358047107625e-7,6.836582426082848e-9,2.053425117194744e-9,1.550619860269972e-9,0
60905,3.1017844287340294e-8,8.388164809719723e-8,9.664387935338619e-9,3.329034004232812e-8,1.1082751172285595e-7,6.821676216488107e-9,2.05124955259602e-9,1.5485778320210267e-9,0
60906,3.096541114691378e-8,8.387801459028382e-8,9.663608271860519e-9,3.323664447534016e-8,1.1069144297463564e-7,6.8067700068933655e-9,2.049073987997296e-9,1.5465358037720813e-9,0
60907,3.091297800648726e-8,8.387438108337039e-8,9.662828608382419e-9,3.31829489083522e-8,1.1055537422641534e-7,6.791863797298624e-9,2.046898423398572e-9,1.544493775523136e-9,0
60908,3.086054486606074e-8,8.387074757645696e-8,9.662048944904318e-9,3.312925334136424e-8,1.1041930547819504e-7,6.776957587703883e-9,2.0447228587998476e-9,1.5424517472741904e-9,0
60909,3.0808111725634226e-8,8.386711406954354e-8,9.661269281426218e-9,3.307555777437628e-8,1.1028323672997473e-7,6.762051378109142e-9,2.0425472942011236e-9,1.540409719025245e-9,0
60910,3.075567858520771e-8,8.386348056263012e-8,9.660489617948118e-9,3.302186220738832e-8,1.1014716798175443e-7,6.7471451685144006e-9,2.0403717296023996e-9,1.5383676907762997e-9,0
60911,3.070324544478119e-8,8.385984705571669e-8,9.659709954470017e-9,3.296816664040036e-8,1.1001109923353414e-7,6.732238958919659e-9,2.0381961650036756e-9,1.5363256625273543e-9,0
60912,3.063644141418043e-8,8.369950739966033e-8,9.659990864830911e-9,3.2921542049698713e-8,1.0851411305969555e-7,6.689271012277901e-9,2.0394659892729284e-9,1.5355422710164557e-9,0
60913,3.0465426869188376e-8,8.334111819131976e-8,9.664043957373147e-9,3.286477972260297e-8,1.0850886100983534e-7,6.618880809795258e-9,2.020605136724006e-9,1.5199373333297e-9,0
60914,3.029441232419633e-8,8.29827289829792e-8,9.66809704991538e-9,3.2808017395507225e-8,1.0850360895997514e-7,6.548490607312615e-9,2.001744284175084e-9,1.5043323956429445e-9,0
60915,3.012315154710059e-8,8.261708130164567e-8,9.669621949209579e-9,3.277604060611585e-8,1.0875343174282117e-7,6.4779404186710656e-9,1.983155749661001e-9,1.4887274579561888e-9,0
60916,2.995213700210854e-8,8.225127764367655e-8,9.668217397405112e-9,3.272024394249923e-8,1.0876992087994808e-7,6.407390230029517e-9,1.964181679570895e-9,1.473122520269433e-9,0
60917,2.9781122457116484e-8,8.188547398570742e-8,9.666812845600647e-9,3.2664447278882614e-8,1.0878641001707498e-7,6.336840041387967e-9,1.9452076094807887e-9,1.4575175825826774e-9,0
60918,2.961010791212443e-8,8.15196703277383e-8,9.66540829379618e-9,3.2608650615266004e-8,1.0880289915420187e-7,6.2662898527464185e-9,1.9262335393906826e-9,1.4419126448959218e-9,0
60919,2.9439093367132382e-8,8.115386666976918e-8,9.664003741991716e-9,3.255285395164939e-8,1.0881938829132877e-7,6.195739664104869e-9,1.9072594693005764e-9,1.4263077072091662e-9,0
60920,2.926807882214033e-8,8.078806301180005e-8,9.662599190187249e-9,3.249705728803278e-8,1.0883587742845567e-7,6.12518947546332e-9,1.8882853992104703e-9,1.4107027695224106e-9,0
60921,2.9097064277148277e-8,8.042225935383093e-8,9.661194638382784e-9,3.244126062441616e-8,1.0885236656558257e-7,6.054639286821771e-9,1.869311329120364e-9,1.395097831835655e-9,0
60922,2.8926049732156224e-8,8.005645569586181e-8,9.659790086578317e-9,3.2385463960799544e-8,1.0886885570270946e-7,5.984089098180222e-9,1.8503372590302582e-9,1.3794928941488991e-9,0
60923,2.875503518716417e-8,7.969065203789267e-8,9.658385534773852e-9,3.2329667297182934e-8,1.0888534483983636e-7,5.9135389095386724e-9,1.831363188940152e-9,1.3638879564621435e-9,0
60924,2.858402064217212e-8,7.932484837992355e-8,9.656980982969387e-9,3.227387063356632e-8,1.0890183397696326e-7,5.842988720897124e-9,1.8123891188500459e-9,1.3482830187753879e-9,0
60925,2.811378567140508e-8,7.906514544166043e-8,9.513517712588658e-9,3.123344324859081e-8,1.0840649735808647e-7,5.818944969033751e-9,1.8068354999720568e-9,1.2762745067771126e-9,0
60926,2.8021206049498322e-8,7.935791872216966e-8,9.503886628209991e-9,3.1063407373998946e-8,1.0823516855983981e-7,5.800726268417956e-9,1.7990604335428719e-9,1.2342146897013148e-9,0
60927,2.7928626427591564e-8,7.96506920026789e-8,9.494255543831324e-9,3.0893371499407085e-8,1.0806383976159316e-7,5.7825075678021615e-9,1.791285367113687e-9,1.1921548726255172e-9,0
60928,2.7836046805684806e-8,7.994346528318814e-8,9.484624459452657e-9,3.0723335624815224e-8,1.078925109633465e-7,5.764288867186366e-9,1.7835103006845022e-9,1.1500950555497196e-9,0
60929,2.7743467183778048e-8,8.023623856369738e-8,9.47499337507399e-9,3.055329975022336e-8,1.0772118216509985e-7,5.7460701665705716e-9,1.7757352342553175e-9,1.1080352384739218e-9,0
60930,2.765088756187129e-8,8.052901184420662e-8,9.465362290695322e-9,3.03832638756315e-8,1.0754985336685319e-7,5.727851465954777e-9,1.7679601678261326e-9,1.0659754213981242e-9,0
60931,2.7558307939964528e-8,8.082178512471586e-8,9.455731206316656e-9,3.021322800103965e-8,1.0737852456860653e-7,5.7096327653389824e-09,1.7601851013969478e-9,1.0239156043223266e-9,0
60932,2.746572831805777e-8,8.111455840522508e-8,9.446100121937989e-9,3.0043192126447786e-8,1.0720719577035988e-7,5.691414064723187e-9,1.7524100349677631e-9,9.818557872465288e-10,0
60933,2.7373148696151012e-8,8.140733168573432e-8,9.436469037559322e-9,2.9873156251855925e-8,1.0703586697211321e-7,5.6731953641073924e-9,1.7446349685385783e-9,9.397959701707312e-10,0
60934,2.710951306432755e-8,8.09701428250002e-8,9.418135519712394e-9,2.975599876358198e-8,1.068958143642839e-7,5.67367532258411e-9,1.7239352243344936e-9,9.37824465591962e-10,0
60935,2.6845877432504087e-8,8.053295396426609e-8,9.399802001865467e-9,2.963884127530803e-8,1.0675576175645459e-7,5.674155281060828e-9,1.7032354801304089e-9,9.358529610131928e-10,0
60936,2.6582241800680624e-8,8.009576510353198e-8,9.38146848401854e-9,2.9521683787034083e-8,1.0661570914862527e-7,5.674635239537545e-9,1.682535735926324e-9,9.338814564344235e-10,0
60937,2.6318606168857162e-8,7.965857624279786e-8,9.363134966171613e-9,2.9404526298760136e-8,1.0647565654079596e-7,5.675115198014263e-9,1.6618359917222393e-9,9.319099518556543e-10,0
60938,2.60549705370337e-8,7.922138738206373e-8,9.344801448324685e-9,2.928736881048619e-8,1.0633560393296665e-7,5.67559515649098e-9,1.6411362475181546e-9,9.299384472768851e-10,0
60939,2.5791334905210237e-8,7.878419852132962e-8,9.326467930477758e-9,2.9170211322212243e-8,1.0619555132513732e-7,5.676075114967698e-9,1.6204365033140697e-9,9.27966942698116e-10,0
60940,2.552769927338677e-8,7.83470096605955e-8,9.30813441263083e-9,2.9053053833938297e-8,1.0605549871730801e-7,5.676555073444415e-9,1.599736759109985e-9,9.259954381193467e-10,0
60941,2.526406364156331e-8,7.790982079986139e-8,9.289800894783903e-9,2.893589634566435e-8,1.059154461094787e-7,5.677035031921133e-9,1.5790370149059003e-9,9.240239335405776e-10,0
60942,2.5000428009739846e-8,7.747263193912727e-8,9.271467376936976e-9,2.8818738857390404e-8,1.0577539350164938e-7,5.6775149903978506e-9,1.5583372707018157e-9,9.220524289618084e-10,0
60943,2.4736792377916384e-8,7.703544307839316e-8,9.253133859090049e-9,2.8701581369116458e-8,1.0563534089382006e-7,5.677994948874568e-9,1.5376375264977308e-9,9.200809243830391e-10,0
60944,2.447315674609292e-8,7.659825421765904e-8,9.234800341243122e-9,2.858442388084251e-8,1.0549528828599075e-7,5.678474907351285e-9,1.516937782293646e-9,9.1810941980427e-10,0
60945,2.420952111426946e-8,7.616106535692491e-8,9.216466823396194e-9,2.8467266392568565e-8,1.0535523567816143e-7,5.678954865828003e-9,1.4962380380895614e-9,9.161379152255008e-10,0
60946,2.3945885482445996e-8,7.57238764961908e-8,9.198133305549267e-9,2.8350108904294618e-8,1.0521518307033212e-7,5.679434824304721e-9,1.4755382938854767e-9,9.141664106467316e-10,0
60947,2.368224985062253e-8,7.528668763545668e-8,9.17979978770234e-9,2.8232951416020672e-8,1.0507513046250281e-7,5.6799147827814385e-9,1.4548385496813918e-9,9.121949060679624e-10,0
60948,2.3418614218799068e-8,7.484949877472257e-8,9.161466269855414e-9,2.8115793927746725e-8,1.0493507785467348e-7,5.6803947412581555e-09,1.4341388054773071e-9,9.102234014891932e-10,0
60949,2.2878377931548994e-8,7.489465394378937e-8,9.100469402123855e-9,2.785537055916014e-8,1.0552763488181793e-7,5.627291746113352e-9,1.4341388054773071e-9,8.854293366821833e-10,0
60950,2.2342735950398216e-8,7.495362676433625e-8,9.037133543957995e-9,2.7594858757928136e-8,1.0555995896183744e-7,5.570659889867121e-9,1.432868981208054e-9,8.6265379223406e-10,0
60951,2.2330225657543386e-8,7.485046879787173e-8,8.995398844983771e-9,2.738046569866014e-8,1.0486814202472534e-7,5.4797552600520235e-9,1.4324834456320309e-9,8.639594447522242e-10,0
60952,2.231771536468856e-8,7.47473108314072e-8,8.953664146009547e-9,2.716607263939214e-8,1.0417632508761323e-7,5.388850630236927e-9,1.4320979100560076e-9,8.652650972703886e-10,0
60953,2.2305205071833734e-8,7.464415286494268e-8,8.91192944703532e-9,2.6951679580124143e-8,1.0348450815050112e-7,5.2979460004218305e-9,1.4317123744799846e-9,8.665707497885529e-10,0
60954,2.2292694778978907e-8,7.454099489847815e-8,8.870194748061096e-9,2.6737286520856148e-8,1.0279269121338903e-7,5.207041370606733e-9,1.4313268389039615e-9,8.678764023067171e-10,0
60955,2.228018448612408e-8,7.443783693201363e-8,8.828460049086872e-9,2.652289346158815e-8,1.0210087427627692e-7,5.116136740791637e-9,1.4309413033279383e-9,8.691820548248815e-10,0
60956,2.2267674193269255e-8,7.43346789655491e-8,8.786725350112648e-9,2.6308500402320153e-8,1.0140905733916482e-7,5.02523211097654e-9,1.4305557677519153e-9,8.704877073430457e-10,0
60957,2.2255163900414425e-8,7.423152099908458e-8,8.744990651138423e-9,2.6094107343052155e-8,1.0071724040205272e-7,4.934327481161443e-9,1.430170232175892e-9,8.7179335986121e-10,0
60958,2.22426536075596e-8,7.412836303262005e-8,8.703255952164199e-9,2.5879714283784157e-8,1.0002542346494062e-7,4.843422851346346e-9,1.429784696599869e-9,8.730990123793743e-10,0
60959,2.2230143314704772e-8,7.402520506615553e-8,8.661521253189975e-9,2.566532122451616e-8,9.933360652782851e-8,4.75251822153125e-9,1.429399161023846e-9,8.744046648975386e-10,0
60960,2.2217633021849946e-8,7.3922047099691e-8,8.61978655421575e-9,2.545092816524816e-8,9.86417895907164e-8,4.6616135917161525e-9,1.4290136254478227e-9,8.757103174157029e-10,0
60961,2.220512272899512e-8,7.381888913322648e-8,8.578051855241524e-9,2.5236535105980164e-8,9.794997265360431e-8,4.570708961901056e-9,1.4286280898717996e-9,8.770159699338672e-10,0
60962,2.2192612436140293e-8,7.371573116676195e-8,8.5363171562673e-9,2.5022142046712166e-8,9.72581557164922e-8,4.4798043320859595e-9,1.4282425542957764e-9,8.783216224520314e-10,0
60963,2.2180102143285463e-8,7.361257320029743e-8,8.494582457293075e-9,2.4807748987444168e-8,9.65663387793801e-8,4.388899702270862e-9,1.4278570187197534e-9,8.796272749701958e-10,0
60964,2.2167591850430637e-8,7.35094152338329e-8,8.452847758318851e-9,2.459335592817617e-8,9.5874521842268e-8,4.297995072455766e-9,1.4274714831437303e-9,8.809329274883601e-10,0
60965,2.215508155757581e-8,7.340625726736838e-8,8.411113059344627e-9,2.4378962868908173e-8,9.51827049051559e-8,4.207090442640669e-9,1.427085947567707e-9,8.822385800065243e-10,0
60966,2.2142571264720984e-8,7.330309930090384e-8,8.369378360370402e-9,2.4164569809640175e-8,9.449088796804379e-8,4.116185812825572e-9,1.426700411991684e-9,8.835442325246887e-10,0
60967,2.2130060971866158e-8,7.319994133443932e-8,8.327643661396178e-9,2.3950176750372177e-8,9.379907103093168e-8,4.025281183010475e-9,1.426314876415661e-9,8.848498850428529e-10,0
60968,2.211755067901133e-8,7.309678336797479e-8,8.285908962421954e-9,2.373578369110418e-8,9.310725409381959e-8,3.934376553195379e-9,1.4259293408396378e-9,8.861555375610172e-10,0
60969,2.2099876974910374e-8,7.293413154546967e-8,8.246513253882029e-9,2.3536063180281298e-8,9.235251145080567e-8,3.8434719233802815e-9,1.4256570228047986e-9,8.874611900791815e-10,0
60970,2.2087366682055548e-8,7.277145744058801e-8,8.207117545342105e-9,2.33216701210133e-8,9.159099021432086e-8,3.752924855163975e-9,1.4265413114980286e-9,8.864871917348263e-10,0
60971,2.1761626853775055e-8,7.273226502655119e-8,8.20534037562959e-9,2.3311726901424446e-8,9.097427890223011e-8,3.75046867885892e-9,1.4265413114980286e-9,8.842780645424829e-10,0
60972,2.143588702549456e-8,7.269307261251435e-8,8.203563205917076e-9,2.330178368183559e-8,9.035756759013935e-8,3.748012502553864e-9,1.4265413114980286e-9,8.820689373501396e-10,0
60973,2.055614685839562e-8,7.205827650690118e-8,8.20203830662288e-9,2.3288437623071702e-8,9.02792673705596e-8,3.6699998117946987e-9,1.4222575168892927e-9,8.757757536599055e-10,0
60974,1.9676406691296673e-8,7.1423480401288e-8,8.200513407328683e-9,2.3275091564307813e-8,9.020096715097984e-8,3.5919871210355343e-9,1.4179737222805568e-9,8.694825699696714e-10,0
60975,1.879666652419773e-8,7.078868429567481e-8,8.198988508034485e-9,2.3261745505543923e-8,9.012266693140007e-8,3.51397443027637e-9,1.413689927671821e-9,8.631893862794373e-10,0
60976,1.7916926357098788e-8,7.015388819006164e-8,8.19746360874029e-9,2.3248399446780034e-8,9.004436671182032e-8,3.4359617395172054e-9,1.4094061330630849e-9,8.568962025892032e-10,0
60977,1.7037186189999845e-8,6.951909208444846e-8,8.195938709446093e-9,2.3235053388016145e-8,8.996606649224056e-8,3.357949048758041e-9,1.405122338454349e-9,8.506030188989691e-10,0
60978,1.61574460229009e-8,6.888429597883528e-8,8.194413810151895e-9,2.3221707329252255e-8,8.988776627266081e-8,3.2799363579988765e-9,1.4008385438456131e-9,8.443098352087349e-10,0
60979,1.5277705855801957e-8,6.824949987322211e-8,8.192888910857699e-9,2.3208361270488366e-8,8.980946605308104e-8,3.201923667239712e-9,1.3965547492368773e-9,8.380166515185008e-10,0
60980,1.4397965688703014e-8,6.761470376760893e-8,8.1913640115635e-9,2.3195015211724476e-8,8.973116583350128e-8,3.1239109764805475e-9,1.3922709546281412e-9,8.317234678282667e-10,0
60981,1.351822552160407e-8,6.697990766199576e-8,8.189839112269305e-9,2.3181669152960587e-8,8.965286561392153e-8,3.045898285721383e-9,1.3879871600194053e-9,8.254302841380326e-10,0
60982,1.2638485354505127e-8,6.634511155638257e-8,8.188314212975108e-9,2.3168323094196698e-8,8.957456539434176e-8,2.9678855949622186e-9,1.3837033654106694e-9,8.191371004477985e-10,0
60983,1.1758745187406185e-8,6.571031545076939e-8,8.18678931368091e-9,2.3154977035432808e-8,8.949626517476201e-8,2.889872904203054e-9,1.3794195708019335e-9,8.128439167575643e-10,0
60984,1.1736090241042999e-8,6.440119658985849e-8,8.088747004628022e-9,2.2236864439573706e-8,8.876205824250905e-8,2.8434228513463462e-9,1.3520125806717801e-9,8.105642658950448e-10,0
60985,1.1713435294679813e-8,6.309207772894758e-8,7.990704695575132e-9,2.13187518437146e-8,8.802785131025609e-8,2.796972798489638e-9,1.324605590541627e-9,8.082846150325253e-10,0
60986,1.1690780348316627e-8,6.178295886803668e-8,7.892662386522243e-9,2.0400639247855498e-8,8.729364437800314e-8,2.75052274563293e-9,1.2971986004114735e-9,8.060049641700057e-10,0
60987,1.1668125401953441e-8,6.047384000712576e-8,7.794620077469355e-9,1.9482526651996396e-8,8.655943744575017e-8,2.704072692776222e-9,1.2697916102813201e-9,8.037253133074863e-10,0
60988,1.1645470455590257e-8,5.916472114621486e-8,7.696577768416465e-9,1.8564414056137293e-8,8.582523051349721e-8,2.6576226399195136e-9,1.242384620151167e-9,8.014456624449668e-10,0
60989,1.162281550922707e-8,5.7855602285303955e-8,7.598535459363576e-9,1.764630146027819e-8,8.509102358124426e-8,2.6111725870628057e-9,1.2149776300210136e-9,7.991660115824472e-10,0
60990,1.1598130374380245e-8,5.654702674226328e-8,7.499088598506221e-9,1.67328226650095e-8,8.444421154189532e-8,2.5635462471722884e-9,1.1866863511976302e-9,7.971474912235606e-10,0
60991,1.157031201677093e-8,5.5277100295389206e-8,7.3989251417753456e-9,1.5816029463211184e-8,8.372303275920787e-8,2.5160798934406768e-9,1.1580095367982236e-9,7.951289708646739e-10,0
60992,1.1542493659161615e-8,5.4007173848515136e-8,7.298761685044469e-9,1.4899236261412874e-8,8.300185397652044e-8,2.468613539709065e-9,1.1293327223988171e-9,7.931104505057872e-10,0
60993,1.15146753015523e-8,5.273724740164106e-8,7.198598228313594e-9,1.398244305961456e-8,8.228067519383299e-8,2.421147185977454e-9,1.1006559079994105e-9,7.910919301469006e-10,0
60994,1.1486856943942985e-8,5.1467320954766985e-8,7.0984347715827185e-9,1.3065649857816249e-8,8.155949641114555e-8,2.3736808322458423e-9,1.0719790936000041e-9,7.890734097880139e-10,0
60995,1.145903858633367e-8,5.0197394507892916e-8,6.998271314851842e-9,1.2148856656017937e-8,8.08383176284581e-8,2.3262144785142307e-9,1.0433022792005975e-9,7.870548894291272e-10,0
60996,1.1431220228724355e-8,4.892746806101884e-8,6.898107858120967e-9,1.1232063454219626e-8,8.011713884577067e-8,2.2787481247826195e-9,1.014625464801191e-9,7.850363690702406e-10,0
60997,1.140340187111504e-8,4.7657541614144764e-8,6.797944401390091e-9,1.0315270252421313e-8,7.939596006308322e-8,2.231281771051008e-9,9.859486504017844e-10,7.830178487113539e-10,0
60998,1.1375583513505725e-8,4.6387615167270695e-8,6.697780944659215e-9,9.398477050623001e-9,7.867478128039579e-8,2.183815417319396e-9,9.572718360023778e-10,7.809993283524673e-10,0
60999,1.1080021393271176e-8,4.622366762680257e-8,6.668171095649693e-9,8.431214430794295e-9,7.862983293132901e-8,2.0613105603208644e-9,9.402224641123974e-10,7.25327042345755e-10,0
61000,1.0562193820280602e-8,4.611267704626445e-8,6.668108028045114e-9,8.425494691324056e-9,7.863168456214598e-8,2.0613105603208644e-9,9.23173092222417e-10,7.005329775387451e-10,0
61001,1.0044366247290028e-8,4.600168646572632e-8,6.668044960440534e-9,8.419774951853818e-9,7.863353619296295e-8,2.0613105603208644e-9,9.061237203324365e-10,6.757389127317352e-10,0
61002,9.526538674299454e-9,4.58906958851882e-8,6.667981892835955e-9,8.41405521238358e-9,7.863538782377991e-8,2.0613105603208644e-9,8.890743484424561e-10,6.509448479247253e-10,0
61003,9.00871110130888e-9,4.5779705304650076e-8,6.6679188252313756e-9,8.408335472913342e-9,7.863723945459686e-8,2.0613105603208644e-9,8.720249765524756e-10,6.261507831177153e-10,0
61004,8.985739570812388e-9,4.573098347579939e-8,6.6668296114498064e-9,8.256587154261283e-9,7.823868318507383e-8,1.990920357838221e-9,8.725696126221541e-10,6.261507831177153e-10,0
61005,8.962768040315894e-9,4.568226164694871e-8,6.665740397668237e-9,8.104838835609224e-9,7.784012691555079e-8,1.920530155355578e-9,8.731142486918326e-10,6.261507831177153e-10,0
61006,8.924287409351494e-9,4.565788105050122e-8,6.5466703255843545e-9,8.004596554671057e-9,7.721963354851411e-8,1.8893722973678815e-9,8.496514005468636e-10,6.172437506781658e-10,0
61007,8.885806778387091e-9,4.5633500454053735e-8,6.427600253500472e-9,7.904354273732891e-9,7.659914018147745e-8,1.858214439380185e-9,8.261885524018947e-10,6.083367182386163e-10,0
61008,8.847326147422689e-9,4.5609119857606244e-8,6.308530181416589e-9,7.804111992794723e-9,7.597864681444077e-8,1.8270565813924884e-9,8.027257042569256e-10,5.994296857990668e-10,0
61009,8.808845516458287e-9,4.558473926115876e-8,6.189460109332706e-9,7.703869711856558e-9,7.53581534474041e-8,1.7958987234047919e-9,7.792628561119566e-10,5.905226533595173e-10,0
61010,8.770364885493885e-9,4.5560358664711277e-8,6.070390037248823e-9,7.60362743091839e-9,7.473766008036743e-8,1.7647408654170956e-9,7.558000079669877e-10,5.816156209199679e-10,0
61011,8.731884254529483e-9,4.5535978068263786e-8,5.9513199651649405e-9,7.503385149980224e-9,7.411716671333075e-8,1.733583007429399e-9,7.323371598220187e-10,5.727085884804183e-10,0
61012,8.693403623565082e-9,4.55115974718163e-8,5.832249893081058e-9,7.403142869042057e-9,7.349667334629409e-8,1.7024251494417025e-9,7.088743116770497e-10,5.638015560408689e-10,0
61013,8.65492299260068e-9,4.548721687536881e-8,5.713179820997175e-9,7.30290058810389e-9,7.287617997925741e-8,1.6712672914540062e-9,6.854114635320808e-10,5.548945236013194e-10,0
61014,8.616442361636278e-9,4.546283627892133e-8,5.594109748913292e-9,7.202658307165724e-9,7.225568661222074e-8,1.6401094334663096e-9,6.619486153871117e-10,5.459874911617699e-10,0
61015,8.577961730671875e-9,4.543845568247384e-8,5.475039676829409e-9,7.102416026227557e-9,7.163519324518407e-8,1.6089515754786131e-9,6.384857672421427e-10,5.370804587222205e-10,0
61016,8.539481099707473e-9,4.541407508602635e-8,5.3559696047455264e-9,7.0021737452893904e-9,7.101469987814739e-8,1.5777937174909168e-9,6.150229190971738e-10,5.281734262826709e-10,0
61017,8.501000468743071e-9,4.538969448957887e-8,5.236899532661644e-9,6.901931464351224e-9,7.039420651111073e-8,1.5466358595032203e-9,5.915600709522048e-10,5.192663938431214e-10,0
61018,8.46251983777867e-9,4.536531389313138e-8,5.117829460577761e-9,6.801689183413057e-9,6.977371314407405e-8,1.515478001515524e-9,5.680972228072358e-10,5.10359361403572e-10,0
61019,8.424039206814268e-9,4.5340933296683895e-8,4.998759388493878e-9,6.7014469024748906e-9,6.915321977703737e-8,1.4843201435278274e-9,5.446343746622668e-10,5.014523289640225e-10,0
61020,8.385558575849866e-9,4.5316552700236404e-8,4.879689316409995e-9,6.601204621536724e-9,6.853272641000071e-8,1.4531622855401309e-9,5.211715265172979e-10,4.925452965244729e-10,0
61021,8.347077944885464e-9,4.529217210378892e-8,4.760619244326112e-9,6.500962340598557e-9,6.791223304296403e-8,1.4220044275524345e-9,4.977086783723288e-10,4.836382640849235e-10,0
61022,8.308597313921062e-9,4.526779150734143e-8,4.6415491722422296e-9,6.400720059660391e-9,6.729173967592737e-8,1.390846569564738e-9,4.742458302273598e-10,4.74731231645374e-10,0
61023,8.27011668295666e-9,4.5243410910893946e-8,4.522479100158347e-9,6.300477778722224e-9,6.667124630889069e-8,1.3596887115770415e-9,4.5078298208239086e-10,4.658241992058246e-10,0
61024,8.231636051992259e-9,4.5219030314446455e-8,4.403409028074464e-9,6.2002354977840575e-9,6.605075294185401e-8,1.3285308535893452e-9,4.273201339374219e-10,4.5691716676627504e-10,0
61025,8.193155421027857e-9,4.519464971799897e-8,4.284338955990581e-9,6.099993216845891e-9,6.543025957481735e-8,1.2973729956016486e-9,4.038572857924529e-10,4.4801013432672556e-10,0
61026,8.155243895210286e-9,4.516036944717078e-8,4.164334445276864e-9,5.998785272428594e-9,6.51625200036544e-8,1.274656351325492e-9,3.803944376474839e-10,4.3910310188717604e-10,0
61027,7.96733207588737e-9,4.49491569731593e-8,4.121779867443108e-9,5.977137275963016e-9,6.47965724319477e-8,1.2691512723957258e-9,3.796692494479092e-10,4.210774659975485e-10,0
61028,7.779420256564455e-9,4.473794449914783e-8,4.079225289609353e-9,5.955489279497438e-9,6.4430624860241e-8,1.2636461934659596e-9,3.7894406124833453e-10,4.030518301079209e-10,0
61029,7.591508437241539e-9,4.452673202513635e-8,4.036670711775598e-9,5.933841283031861e-9,6.406467728853429e-8,1.2581411145361935e-9,3.782188730487598e-10,3.8502619421829335e-10,0
61030,7.403596617918622e-9,4.431551955112488e-8,3.994116133941842e-9,5.912193286566283e-9,6.369872971682759e-8,1.2526360356064271e-9,3.774936848491851e-10,3.670005583286658e-10,0
61031,7.2156847985957066e-9,4.41043070771134e-8,3.9515615561080865e-9,5.8905452901007055e-9,6.333278214512089e-8,1.247130956676661e-9,3.7676849664961036e-10,3.4897492243903823e-10,0
61032,7.027772979272791e-9,4.389309460310193e-8,3.909006978274331e-9,5.868897293635128e-9,6.296683457341418e-8,1.2416258777468947e-9,3.760433084500357e-10,3.309492865494106e-10,0
61033,6.839861159949875e-9,4.368188212909045e-8,3.866452400440575e-9,5.8472492971695495e-9,6.260088700170748e-8,1.2361207988171285e-9,3.75318120250461e-10,3.1292365065978305e-10,0
61034,6.77303453115398e-9,4.2775599810247186e-8,3.830163770374197e-9,5.818845116623599e-9,6.284249952007087e-8,1.2361207988171285e-9,3.640517820008273e-10,3.061552217424007e-10,0
61035,6.706207902358084e-9,4.186931749140392e-8,3.793875140307819e-9,5.790440936077648e-9,6.308411203843427e-8,1.2361207988171285e-9,3.527854437511936e-10,2.9938679282501836e-10,0
61036,6.639381273562189e-9,4.096303517256066e-8,3.75758651024144e-9,5.7620367555316974e-9,6.332572455679766e-8,1.2361207988171285e-9,3.4151910550155995e-10,2.9261836390763596e-10,0
61037,6.572554644766294e-9,4.005675285371739e-8,3.7212978801750612e-9,5.733632574985746e-9,6.356733707516105e-8,1.2361207988171285e-9,3.3025276725192625e-10,2.858499349902536e-10,0
61038,6.505728015970399e-9,3.915047053487412e-8,3.685009250108683e-9,5.705228394439796e-9,6.380894959352444e-8,1.2361207988171285e-9,3.1898642900229256e-10,2.790815060728712e-10,0
61039,6.438901387174504e-9,3.824418821603086e-8,3.648720620042304e-9,5.6768242138938446e-9,6.405056211188785e-8,1.2361207988171285e-9,3.077200907526589e-10,2.7231307715548886e-10,0
61040,6.3450365620049955e-9,3.791791974858017e-8,3.64460445989549e-9,5.671394519494699e-9,6.427237190703655e-8,1.2162930710067762e-9,3.077200907526589e-10,2.735717138935357e-10,0
61041,6.251171736835488e-9,3.759165128112948e-8,3.6404882997486752e-9,5.6659648250955535e-9,6.449418170218527e-8,1.1964653431964238e-9,3.077200907526589e-10,2.748303506315825e-10,0
61042,6.15730691166598e-9,3.7265382813678794e-8,3.636372139601861e-9,5.660535130696408e-9,6.4715991497334e-8,1.1766376153860717e-9,3.077200907526589e-10,2.760889873696293e-10,0
61043,6.063442086496472e-9,3.693911434622811e-8,3.6322559794550463e-9,5.655105436297262e-9,6.4937801292482715e-08,1.1568098875757193e-9,3.077200907526589e-10,2.7734762410767617e-10,0
61044,5.969577261326964e-9,3.6612845878777425e-8,3.628139819308232e-9,5.649675741898117e-9,6.515961108763142e-8,1.136982159765367e-9,3.077200907526589e-10,2.7860626084572297e-10,0
61045,5.875712436157456e-9,3.6286577411326737e-8,3.6240236591614174e-9,5.644246047498971e-9,6.538142088278014e-8,1.1171544319550148e-9,3.077200907526589e-10,2.798648975837698e-10,0
61046,5.780709400694286e-9,3.595523228319792e-8,3.6201253417709167e-9,5.641543573866822e-9,6.532741216446992e-8,1.0973267041446624e-9,3.08105626328682e-10,2.790815060728712e-10,0
61047,5.685706365231117e-9,3.562388715506911e-8,3.6162270243804164e-9,5.638841100234673e-9,6.52734034461597e-8,1.07749897633431e-9,3.0849116190470515e-10,2.7829811456197265e-10,0
61048,5.682461325514352e-9,3.5392727896494503e-8,3.619408745897396e-9,5.629509813543286e-9,6.534322486274694e-8,1.076783853136729e-9,3.0733455517663577e-10,2.7753823094113284e-10,0
61049,5.679216285797586e-9,3.5161568637919904e-8,3.622590467414376e-9,5.6201785268519e-9,6.541304627933418e-8,1.076068729939148e-9,3.061779484485664e-10,2.76778347320293e-10,0
61050,5.6759712460808205e-9,3.49304093793453e-8,3.6257721889313555e-9,5.610847240160514e-9,6.548286769592142e-8,1.0753536067415668e-9,3.050213417204971e-10,2.7601846369945316e-10,0
61051,5.672726206364055e-9,3.469925012077069e-8,3.6289539104483354e-9,5.601515953469127e-9,6.555268911250866e-8,1.0746384835439856e-9,3.038647349924277e-10,2.752585800786133e-10,0
61052,5.669481166647289e-9,3.446809086219609e-8,3.6321356319653154e-9,5.592184666777741e-9,6.56225105290959e-8,1.0739233603464047e-9,3.0270812826435833e-10,2.7449869645777344e-10,0
61053,5.666236126930523e-9,3.4236931603621485e-8,3.635317353482295e-9,5.5828533800863545e-9,6.569233194568314e-8,1.0732082371488235e-9,3.01551521536289e-10,2.7373881283693363e-10,0
61054,5.662991087213758e-9,3.400577234504688e-8,3.638499074999275e-9,5.5735220933949684e-9,6.576215336227038e-8,1.0724931139512423e-9,3.0039491480821963e-10,2.7297892921609377e-10,0
61055,5.659746047496992e-9,3.377461308647228e-8,3.6416807965162544e-9,5.5641908067035815e-9,6.583197477885762e-8,1.0717779907536614e-9,2.9923830808015026e-10,2.7221904559525396e-10,0
61056,5.656501007780226e-9,3.354345382789767e-8,3.6448625180332344e-9,5.5548595200121955e-9,6.590179619544486e-8,1.0710628675560802e-9,2.9808170135208094e-10,2.714591619744141e-10,0
61057,5.653255968063461e-9,3.3312294569323066e-8,3.6480442395502144e-9,5.545528233320809e-9,6.59716176120321e-8,1.070347744358499e-9,2.9692509462401156e-10,2.7069927835357423e-10,0
61058,5.650010928346695e-9,3.3081135310748466e-8,3.651225961067194e-9,5.5361969466294225e-9,6.604143902861934e-8,1.069632621160918e-9,2.957684878959422e-10,2.699393947327344e-10,0
61059,5.64676588862993e-9,3.284997605217386e-8,3.654407682584174e-9,5.526865659938036e-9,6.611126044520658e-8,1.0689174979633369e-9,2.9461188116787287e-10,2.6917951111189456e-10,0
61060,5.643520848913164e-9,3.2618816793599254e-8,3.6575894041011534e-9,5.51753437324665e-9,6.618108186179382e-8,1.0682023747657557e-9,2.934552744398035e-10,2.6841962749105475e-10,0
61061,5.641561012459148e-9,3.238928748863536e-8,3.6568728082276327e-9,5.506851849739189e-9,6.635309915835558e-8,1.0658310060576479e-9,2.9218545017055027e-10,2.676597438702149e-10,0
61062,5.611917233545224e-9,3.236469260925662e-8,3.656156212354112e-9,5.43245629825037e-9,6.637830133290406e-8,1.0678072238859864e-9,2.790128856770418e-10,2.6792087437384776e-10,0
61063,5.579421639987306e-9,3.234009772987787e-8,3.65737156134484e-9,5.35765042628976e-9,6.623412737795044e-8,1.0714396872248517e-9,2.6584032118353334e-10,2.6818200487748063e-10,0
61064,5.540976185037716e-9,3.232540252487984e-8,3.579290952419085e-9,5.222028516785182e-9,6.567967953788373e-8,1.0655582520558055e-9,2.6584032118353334e-10,2.6820551276753933e-10,0
61065,5.502530730088126e-9,3.23107073198818e-8,3.5012103434933297e-9,5.086406607280603e-9,6.512523169781703e-8,1.0596768168867593e-9,2.6584032118353334e-10,2.682290206575981e-10,0
61066,5.464085275138536e-9,3.2296012114883764e-8,3.423129734567575e-9,4.950784697776025e-9,6.457078385775032e-8,1.053795381717713e-9,2.6584032118353334e-10,2.682525285476568e-10,0
61067,5.425639820188946e-9,3.228131690988573e-8,3.3450491256418196e-9,4.815162788271446e-9,6.401633601768361e-8,1.0479139465486668e-9,2.6584032118353334e-10,2.6827603643771554e-10,0
61068,5.387194365239356e-9,3.226662170488769e-8,3.266968516716065e-9,4.679540878766868e-9,6.34618881776169e-8,1.0420325113796206e-9,2.6584032118353334e-10,2.682995443277743e-10,0
61069,5.348748910289766e-9,3.225192649988966e-8,3.18888790779031e-9,4.543918969262289e-9,6.29074403375502e-8,1.0361510762105744e-9,2.6584032118353334e-10,2.68323052217833e-10,0
61070,5.310303455340176e-9,3.2237231294891626e-8,3.1108072988645547e-9,4.4082970597577104e-9,6.2352992497483493e-08,1.0302696410415282e-9,2.6584032118353334e-10,2.6834656010789174e-10,0
61071,5.271858000390586e-9,3.222253608989359e-8,3.0327266899388e-9,4.2726751502531324e-9,6.179854465741678e-8,1.024388205872482e-9,2.6584032118353334e-10,2.683700679979505e-10,0
61072,5.233412545440996e-9,3.220784088489555e-8,2.954646081013045e-9,4.137053240748554e-9,6.124409681735007e-8,1.0185067707034358e-9,2.6584032118353334e-10,2.683935758880092e-10,0
61073,5.194967090491406e-9,3.219314567989752e-8,2.8765654720872898e-9,4.001431331243976e-9,6.068964897728338e-8,1.0126253355343895e-9,2.6584032118353334e-10,2.6841708377806794e-10,0
61074,5.156521635541816e-9,3.217845047489948e-8,2.798484863161535e-9,3.865809421739397e-9,6.013520113721667e-8,1.0067439003653433e-9,2.6584032118353334e-10,2.684405916681267e-10,0
61075,5.118076180592226e-9,3.2163755269901444e-8,2.72040425423578e-9,3.730187512234819e-9,5.958075329714996e-8,1.0008624651962971e-9,2.6584032118353334e-10,2.684640995581854e-10,0
61076,5.079630725642636e-9,3.214906006490341e-8,2.642323645310025e-9,3.59456560273024e-9,5.9026305457083254e-8,9.949810300272509e-10,2.6584032118353334e-10,2.6848760744824415e-10,0
61077,5.041185270693046e-9,3.213436485990537e-8,2.56424303638427e-9,3.4589436932256617e-9,5.8471857617016545e-8,9.890995948582047e-10,2.6584032118353334e-10,2.685111153383029e-10,0
61078,5.002739815743456e-9,3.211966965490734e-8,2.486162427458515e-9,3.3233217837210833e-9,5.791740977694984e-8,9.832181596891585e-10,2.6584032118353334e-10,2.685346232283616e-10,0
61079,4.964294360793866e-9,3.2104974449909306e-8,2.40808181853276e-9,3.187699874216505e-9,5.736296193688313e-8,9.773367245201125e-10,2.6584032118353334e-10,2.6855813111842035e-10,0
61080,4.9258489058442754e-9,3.209027924491127e-8,2.330001209607005e-9,3.0520779647119265e-9,5.680851409681643e-8,9.714552893510662e-10,2.6584032118353334e-10,2.6858163900847905e-10,0
61081,4.887403450894686e-9,3.2075584039913233e-08,2.2519206006812502e-9,2.916456055207348e-9,5.625406625674972e-8,9.6557385418202e-10,2.6584032118353334e-10,2.686051468985378e-10,0
61082,4.848957995945096e-9,3.20608888349152e-8,2.173839991755495e-9,2.7808341457027697e-9,5.5699618416683015e-8,9.596924190129738e-10,2.6584032118353334e-10,2.6862865478859656e-10,0
61083,4.8105125409955056e-9,3.204619362991716e-8,2.09575938282974e-9,2.6452122361981913e-9,5.5145170576616305e-8,9.538109838439276e-10,2.6584032118353334e-10,2.6865216267865526e-10,0
61084,4.772067086045916e-9,3.2031498424919124e-8,2.0176787739039853e-9,2.5095903266936125e-9,5.45907227365496e-8,9.479295486748814e-10,2.6584032118353334e-10,2.68675670568714e-10,0
61085,4.733621631096325e-9,3.2014198042452486e-8,1.938508951196661e-9,2.3746440355970716e-9,5.403489575434581e-8,9.385756363258756e-10,2.6656550938310803e-10,2.6869917845877276e-10,0
61086,4.6579455724302715e-9,3.152251139768372e-8,1.9391624794656025e-9,2.2827460910098506e-9,5.026726030377477e-8,8.886063514027303e-10,2.647295974079355e-10,2.6872268634883146e-10,0
61087,4.6575171713426885e-9,3.1511449699599105e-8,1.9148439242121915e-9,2.2827460910098506e-9,5.003200829339189e-8,8.595750683672877e-10,2.5917597852994636e-10,2.6796280272799165e-10,0
61088,4.657088770255105e-9,3.15003880015145e-8,1.8905253689587805e-9,2.2827460910098506e-9,4.979675628300901e-8,8.305437853318451e-10,2.536223596519572e-10,2.672029191071518e-10,0
61089,4.656660369167522e-9,3.148932630342988e-8,1.8662068137053696e-9,2.2827460910098506e-9,4.956150427262613e-8,8.015125022964026e-10,2.4806874077396806e-10,2.66443035486312e-10,0
61090,4.656231968079939e-9,3.147826460534527e-8,1.8418882584519586e-9,2.2827460910098506e-9,4.932625226224325e-8,7.7248121926096e-10,2.425151218959789e-10,2.656831518654721e-10,0
61091,4.655803566992355e-9,3.146720290726066e-8,1.8175697031985476e-9,2.2827460910098506e-9,4.909100025186037e-8,7.434499362255174e-10,2.3696150301798975e-10,2.6492326824463226e-10,0
61092,4.655375165904772e-9,3.1456141209176046e-8,1.7932511479451367e-9,2.2827460910098506e-9,4.885574824147749e-8,7.144186531900749e-10,2.3140788414000063e-10,2.6416338462379245e-10,0
61093,4.654946764817189e-9,3.144507951109144e-8,1.7689325926917257e-9,2.2827460910098506e-9,4.862049623109461e-8,6.853873701546322e-10,2.258542652620115e-10,2.634035010029526e-10,0
61094,4.654518363729606e-9,3.1434017813006824e-8,1.7446140374383147e-9,2.2827460910098506e-9,4.838524422071173e-8,6.563560871191897e-10,2.2030064638402235e-10,2.6264361738211277e-10,0
61095,4.6540899626420226e-9,3.1422956114922216e-8,1.7202954821849038e-9,2.2827460910098506e-9,4.814999221032885e-8,6.273248040837471e-10,2.147470275060332e-10,2.618837337612729e-10,0
61096,4.65366156155444e-9,3.14118944168376e-8,1.6959769269314928e-9,2.2827460910098506e-9,4.7914740199945964e-8,5.982935210483046e-10,2.0919340862804407e-10,2.6112385014043305e-10,0
61097,4.636023033468295e-9,3.1252301960165256e-8,1.6881230122653397e-9,2.163140871146027e-9,4.7642844977577905e-8,5.984535072072104e-10,2.0919340862804407e-10,2.613849806440659e-10,0
61098,4.618384505382151e-9,3.109270950349291e-8,1.6802690975991866e-9,2.043535651282203e-9,4.7370949755209846e-8,5.986134933661163e-10,2.0919340862804407e-10,2.616461111476988e-10,0
61099,4.600745977296007e-9,3.0933117046820564e-8,1.6724151829330335e-9,1.9239304314183795e-9,4.7099054532841786e-8,5.987734795250221e-10,2.0919340862804407e-10,2.6190724165133166e-10,0
61100,4.583107449209862e-9,3.077352459014822e-8,1.6645612682668804e-9,1.8043252115545556e-9,4.682715931047373e-8,5.98933465683928e-10,2.0919340862804407e-10,2.621683721549645e-10,0
61101,4.5654689211237175e-9,3.061393213347587e-8,1.6567073536007273e-9,1.6847199916907316e-9,4.655526408810567e-8,5.990934518428338e-10,2.0919340862804407e-10,2.6242950265859735e-10,0
61102,4.547830393037574e-9,3.0454339676803526e-8,1.6488534389345742e-9,1.565114771826908e-9,4.628336886573761e-8,5.992534380017397e-10,2.0919340862804407e-10,2.626906331622302e-10,0
61103,4.530191864951429e-9,3.029474722013118e-8,1.640999524268421e-9,1.445509551963084e-9,4.601147364336955e-8,5.994134241606455e-10,2.0919340862804407e-10,2.629517636658631e-10,0
61104,4.512553336865285e-9,3.0135154763458834e-8,1.6331456096022678e-9,1.3259043320992603e-9,4.573957842100149e-8,5.995734103195514e-10,2.0919340862804407e-10,2.632128941694959e-10,0
61105,4.494879632764328e-9,2.997248065857719e-8,1.6246381666671733e-9,1.2016653116450272e-9,4.5446228774950055e-8,6.032058736584167e-10,2.0919340862804407e-10,2.6423390829396865e-10,0
61106,4.477205928663372e-9,2.980980655369554e-8,1.6161307237320786e-9,1.0774262911907942e-9,4.515287912889862e-8,6.068383369972819e-10,2.0919340862804407e-10,2.6525492241844133e-10,0
61107,4.454873855343334e-9,2.9444158872362018e-8,1.5965818568944237e-9,1.1209875820581952e-9,4.509909258555226e-8,6.052008861272446e-10,2.0654054254835375e-10,2.6525492241844133e-10,0
61108,4.432541782023296e-9,2.9078511191028493e-8,1.5770329900567685e-9,1.1645488729255962e-9,4.50453060422059e-8,6.035634352572072e-10,2.0388767646866346e-10,2.6525492241844133e-10,0
61109,4.410209708703258e-9,2.871286350969497e-8,1.5574841232191136e-9,1.2081101637929972e-9,4.499151949885954e-8,6.019259843871698e-10,2.0123481038897314e-10,2.6525492241844133e-10,0
61110,4.38787763538322e-9,2.8347215828361444e-8,1.5379352563814586e-9,1.2516714546603982e-9,4.4937732955513174e-8,6.002885335171324e-10,1.9858194430928284e-10,2.6525492241844133e-10,0
61111,4.365545562063182e-9,2.7981568147027923e-8,1.5183863895438037e-9,1.2952327455277991e-9,4.488394641216681e-8,5.986510826470951e-10,1.9592907822959252e-10,2.6525492241844133e-10,0
61112,4.343213488743144e-9,2.7615920465694398e-8,1.4988375227061485e-9,1.3387940363952001e-9,4.483015986882045e-8,5.970136317770577e-10,1.9327621214990223e-10,2.6525492241844133e-10,0
61113,4.320881415423106e-9,2.7250272784360873e-8,1.4792886558684936e-9,1.382355327262601e-9,4.4776373325474084e-8,5.953761809070203e-10,1.906233460702119e-10,2.6525492241844133e-10,0
61114,4.298549342103068e-9,2.6884625103027352e-8,1.4597397890308387e-9,1.425916618130002e-9,4.472258678212772e-8,5.937387300369829e-10,1.879704799905216e-10,2.6525492241844133e-10,0
61115,4.2762172687830295e-9,2.6518977421693828e-8,1.4401909221931837e-9,1.4694779089974029e-9,4.466880023878136e-8,5.921012791669455e-10,1.8531761391083132e-10,2.6525492241844133e-10,0
61116,4.2538851954629915e-9,2.6153329740360303e-8,1.4206420553555288e-9,1.5130391998648039e-9,4.4615013695434994e-8,5.904638282969082e-10,1.82664747831141e-10,2.6525492241844133e-10,0
61117,4.2315531221429534e-9,2.578768205902678e-8,1.4010931885178736e-9,1.5566004907322049e-9,4.456122715208864e-8,5.888263774268708e-10,1.800118817514507e-10,2.6525492241844133e-10,0
61118,4.209221048822915e-9,2.5422034377693257e-8,1.3815443216802187e-9,1.6001617815996059e-9,4.4507440608742274e-8,5.871889265568334e-10,1.7735901567176038e-10,2.6525492241844133e-10,0
61119,4.186888975502877e-9,2.5056386696359732e-8,1.3619954548425637e-9,1.6437230724670068e-9,4.445365406539591e-8,5.85551475686796e-10,1.747061495920701e-10,2.6525492241844133e-10,0
61120,4.164128501095256e-9,2.4689109061415502e-8,1.3424465880049088e-9,1.6443668481197602e-9,4.433042774136498e-8,5.839140248167587e-10,1.7216650105356364e-10,2.660148060392812e-10,0
61121,4.141368026687635e-9,2.432183142647127e-8,1.3228977211672538e-9,1.6450106237725135e-9,4.420720141733405e-8,5.822765739467213e-10,1.696268525150572e-10,2.66774689660121e-10,0
61122,4.1186075522800135e-9,2.395455379152704e-8,1.3033488543295987e-9,1.6456543994252668e-9,4.4083975093303116e-8,5.806391230766839e-10,1.6708720397655075e-10,2.6753457328096087e-10,0
61123,4.0958470778723925e-9,2.358727615658281e-8,1.2837999874919437e-9,1.6462981750780201e-9,4.396074876927219e-8,5.790016722066465e-10,1.645475554380443e-10,2.682944569018007e-10,0
61124,4.0730866034647715e-9,2.3219998521638575e-8,1.2642511206542888e-9,1.6469419507307734e-9,4.383752244524126e-8,5.773642213366091e-10,1.6200790689953786e-10,2.6905434052264054e-10,0
61125,4.050290953042338e-9,2.2851812509965988e-8,1.2440487255476923e-9,1.6573591763019888e-9,4.3772008101154474e-8,5.757267704665718e-10,1.5946825836103141e-10,2.6905434052264054e-10,0
61126,4.027495302619905e-9,2.24836264982934e-8,1.2238463304410958e-9,1.6677764018732044e-9,4.370649375706769e-8,5.740893195965344e-10,1.56928609822525e-10,2.6905434052264054e-10,0
61127,4.004699652197472e-9,2.2115440486620813e-8,1.2036439353344993e-9,1.6781936274444197e-9,4.36409794129809e-8,5.72451868726497e-10,1.5438896128401855e-10,2.6905434052264054e-10,0
61128,3.981904001775039e-9,2.1747254474948226e-8,1.1834415402279028e-9,1.6886108530156353e-9,4.357546506889412e-8,5.708144178564596e-10,1.518493127455121e-10,2.6905434052264054e-10,0
61129,3.735612912099544e-9,1.979269745432613e-8,1.1798585608602985e-9,1.682456045938758e-9,4.357183443524354e-8,5.70993198655855e-10,1.5157699471067284e-10,2.683414726819182e-10,0
61130,3.4893218224240494e-9,1.7838140433704032e-8,1.1762755814926945e-9,1.6763012388618806e-9,4.3568203801592963e-8,5.711719794552502e-10,1.513046766758336e-10,2.6762860484119577e-10,0
61131,3.4887527172772185e-9,1.7837232056975675e-8,1.1762755814926945e-9,1.6840478335562309e-9,4.3602682355020117e-8,5.711719794552502e-10,1.513046766758336e-10,2.6686872122035596e-10,0
61132,3.488183612130388e-9,1.7836323680247318e-8,1.1762755814926945e-9,1.6917944282505811e-9,4.3637160908447277e-8,5.711719794552502e-10,1.513046766758336e-10,2.661088375995161e-10,0
61133,3.487614506983557e-9,1.7835415303518964e-8,1.1762755814926945e-9,1.6995410229449314e-9,4.367163946187443e-8,5.711719794552502e-10,1.513046766758336e-10,2.653489539786763e-10,0
61134,3.4870454018367265e-9,1.7834506926790607e-8,1.1762755814926945e-9,1.7072876176392815e-9,4.370611801530158e-8,5.711719794552502e-10,1.513046766758336e-10,2.6458907035783643e-10,0
61135,3.4864762966898955e-9,1.783359855006225e-8,1.1762755814926945e-9,1.7150342123336318e-9,4.374059656872874e-8,5.711719794552502e-10,1.513046766758336e-10,2.6382918673699656e-10,0
61136,3.4859071915430646e-9,1.7832690173333896e-8,1.1762755814926945e-9,1.722780807027982e-9,4.3775075122155896e-8,5.711719794552502e-10,1.513046766758336e-10,2.6306930311615675e-10,0
61137,3.485338086396234e-9,1.783178179660554e-8,1.1762755814926945e-9,1.7305274017223323e-9,4.380955367558305e-8,5.711719794552502e-10,1.513046766758336e-10,2.623094194953169e-10,0
61138,3.484768981249403e-9,1.7830873419877182e-8,1.1762755814926945e-9,1.7382739964166824e-9,4.384403222901021e-8,5.711719794552502e-10,1.513046766758336e-10,2.615495358744771e-10,0
61139,3.4841998761025726e-9,1.7829965043148828e-8,1.1762755814926945e-9,1.7460205911110327e-9,4.387851078243736e-8,5.711719794552502e-10,1.513046766758336e-10,2.607896522536372e-10,0
61140,3.4836307709557417e-9,1.782905666642047e-8,1.1762755814926945e-9,1.753767185805383e-9,4.3912989335864516e-8,5.711719794552502e-10,1.513046766758336e-10,2.600297686327974e-10,0
61141,3.4830616658089107e-9,1.7828148289692114e-8,1.1762755814926945e-9,1.7615137804997332e-9,4.3947467889291675e-8,5.711719794552502e-10,1.513046766758336e-10,2.5926988501195755e-10,0
61142,3.482527736676892e-9,1.7826696595093523e-8,1.1770552449707946e-9,1.758843149622868e-9,4.3989809375379605e-8,5.708332124969491e-10,1.5119145913464972e-10,2.5926988501195755e-10,0
61143,3.4819586315300613e-9,1.782578821836517e-8,1.1777087732397362e-9,1.7561725187460027e-9,4.3971767430204686e-8,5.741269088775133e-10,1.5119145913464972e-10,2.5824887088748486e-10,0
61144,3.4803568441340044e-9,1.7578236954052277e-8,1.1775826380305776e-9,1.7567597045086248e-9,4.3824786681923966e-8,5.774206052580774e-10,1.5119145913464972e-10,2.5596922002496533e-10,0
61145,3.4696367965689746e-9,1.7568440150720252e-8,1.1785170766604121e-9,1.7556737656287957e-9,4.372316218305001e-8,5.808930824380369e-10,1.513046766758336e-10,2.5570808952133246e-10,0
61146,3.4589167490039448e-9,1.755864334738823e-8,1.1794515152902468e-9,1.7545878267489667e-9,4.3621537684176066e-8,5.843655596179963e-10,1.5141789421701744e-10,2.554469590176996e-10,0
61147,3.448196701438915e-9,1.7548846544056205e-8,1.1803859539200816e-9,1.7535018878691374e-9,4.351991318530211e-8,5.878380367979558e-10,1.5153111175820132e-10,2.5518582851406677e-10,0
61148,3.437476653873885e-9,1.7539049740724183e-8,1.1813203925499163e-9,1.7524159489893083e-9,4.341828868642816e-8,5.913105139779153e-10,1.5164432929938517e-10,2.549246980104339e-10,0
61149,3.4267566063088553e-9,1.7529252937392158e-8,1.182254831179751e-9,1.7513300101094792e-9,4.3316664187554206e-8,5.947829911578747e-10,1.5175754684056904e-10,2.54663567506801e-10,0
61150,3.4160365587438254e-9,1.7519456134060132e-8,1.1831892698095855e-9,1.7502440712296502e-9,4.321503968868025e-8,5.982554683378342e-10,1.518707643817529e-10,2.5440243700316815e-10,0
61151,3.4053165111787956e-9,1.750965933072811e-8,1.1841237084394202e-9,1.749158132349821e-9,4.31134151898063e-8,6.017279455177937e-10,1.5198398192293676e-10,2.5414130649953533e-10,0
61152,3.3945964636137654e-9,1.7499862527396085e-8,1.185058147069255e-9,1.7480721934699918e-9,4.301179069093235e-8,6.05200422697753e-10,1.5209719946412064e-10,2.5388017599590246e-10,0
61153,3.3838764160487355e-9,1.7490065724064063e-8,1.1859925856990896e-9,1.7469862545901628e-9,4.29101661920584e-8,6.086728998777125e-10,1.522104170053045e-10,2.536190454922696e-10,0
61154,3.3731563684837057e-9,1.7480268920732038e-8,1.1869270243289241e-9,1.7459003157103335e-9,4.2808541693184446e-8,6.12145377057672e-10,1.5232363454648836e-10,2.533579149886367e-10,0
61155,3.362436320918676e-9,1.7470472117400016e-8,1.1878614629587588e-9,1.7448143768305044e-9,4.270691719431049e-8,6.156178542376314e-10,1.524368520876722e-10,2.530967844850039e-10,0
61156,3.361867215771845e-9,1.7345321108900204e-8,1.182403818612058e-9,1.7282423441824116e-9,4.2506600146747693e-8,5.998553299268927e-10,1.5128024535960286e-10,2.5081713362248436e-10,0
61157,3.3612981106250144e-9,1.7220170100400393e-8,1.176946174265357e-9,1.711670311534319e-9,4.2306283099184894e-8,5.84092805616154e-10,1.5012363863153352e-10,2.4853748275996483e-10,0
61158,3.3607290054781834e-9,1.709501909190058e-8,1.1714885299186562e-9,1.6950982788862262e-9,4.21059660516221e-8,5.683302813054152e-10,1.4896703190346414e-10,2.462578318974453e-10,0
61159,3.360159900331353e-9,1.6969868083400767e-8,1.1660308855719553e-9,1.6785262462381334e-9,4.19056490040593e-8,5.525677569946765e-10,1.478104251753948e-10,2.439781810349258e-10,0
61160,3.359590795184522e-9,1.6844717074900955e-8,1.1605732412252545e-9,1.6619542135900408e-9,4.17053319564965e-8,5.368052326839377e-10,1.4665381844732542e-10,2.416985301724063e-10,0
61161,3.3590216900376914e-9,1.6719566066401144e-8,1.1551155968785536e-9,1.645382180941948e-9,4.15050149089337e-8,5.210427083731991e-10,1.4549721171925607e-10,2.3941887930988674e-10,0
61162,3.3584525848908605e-9,1.6594415057901332e-8,1.1496579525318527e-9,1.6288101482938551e-9,4.13046978613709e-8,5.052801840624603e-10,1.4434060499118672e-10,2.371392284473672e-10,0
61163,3.3578834797440296e-9,1.646926404940152e-8,1.1442003081851519e-9,1.6122381156457623e-9,4.1104380813808104e-8,4.895176597517215e-10,1.4318399826311735e-10,2.348595775848477e-10,0
61164,3.356281692347973e-9,1.6465928754216672e-8,1.128922376646046e-9,1.6072187417184085e-9,4.118110196090252e-8,4.903363851867402e-10,1.4352365088666895e-10,2.325799267223282e-10,0
61165,3.3546799049519165e-9,1.6462593459031826e-8,1.11364444510694e-9,1.6021993677910547e-9,4.1257823107996924e-8,4.911551106217589e-10,1.4386330351022055e-10,2.3030027585980865e-10,0
61166,3.35307811755586e-9,1.6457717339742328e-8,1.0977129852988925e-9,1.5967696733919091e-9,4.137703930798151e-8,4.96942572588358e-10,1.4359098547538128e-10,2.2904163912176183e-10,0
61167,3.351476330159803e-9,1.6452841220452832e-8,1.0817815254908449e-9,1.5913399789927634e-9,4.14962555079661e-8,5.027300345549571e-10,1.43318667440542e-10,2.2778300238371503e-10,0
61168,3.3498745427637466e-9,1.6447965101163333e-8,1.0658500656827975e-9,1.5859102845936178e-9,4.161547170795068e-8,5.085174965215562e-10,1.4304634940570277e-10,2.265243656456682e-10,0
61169,3.34827275536769e-9,1.6443088981873838e-8,1.0499186058747498e-9,1.580480590194472e-9,4.173468790793527e-8,5.143049584881553e-10,1.427740313708635e-10,2.2526572890762137e-10,0
61170,3.346670967971633e-9,1.643821286258434e-8,1.0339871460667024e-9,1.5750508957953265e-9,4.1853904107919854e-8,5.200924204547544e-10,1.4250171333602426e-10,2.2400709216957454e-10,0
61171,3.3450691805755766e-9,1.643333674329484e-8,1.018055686258655e-9,1.569621201396181e-9,4.1973120307904444e-8,5.258798824213534e-10,1.42229395301185e-10,2.2274845543152772e-10,0
61172,3.34346739317952e-9,1.6428460624005345e-8,1.0021242264506074e-9,1.5641915069970352e-9,4.209233650788903e-8,5.316673443879526e-10,1.4195707726634575e-10,2.214898186934809e-10,0
61173,3.3418656057834636e-9,1.6423584504715846e-8,9.8619276664256e-10,1.5587618125978897e-9,4.221155270787362e-8,5.374548063545516e-10,1.4168475923150649e-10,2.2023118195543406e-10,0
61174,3.3402638183874067e-9,1.641870838542635e-8,9.702613068345123e-10,1.5533321181987439e-9,4.23307689078582e-8,5.432422683211508e-10,1.4141244119666724e-10,2.1897254521738724e-10,0
61175,3.33866203099135e-9,1.6413832266136852e-8,9.543298470264649e-10,1.5479024237995983e-9,4.244998510784279e-8,5.490297302877498e-10,1.4114012316182798e-10,2.1771390847934044e-10,0
61176,3.3370954196101054e-9,1.6408956146847353e-8,9.381174768575243e-10,1.54314834780849e-9,4.229779679893305e-8,5.491897164466557e-10,1.4202441185505808e-10,2.1569538812045377e-10,0
61177,3.3360627373608794e-9,1.6405509439779933e-8,9.260212668353981e-10,1.54314834780849e-9,4.2111727582134036e-8,5.493497026055615e-10,1.4175209382021882e-10,2.1443675138240694e-10,0
61178,3.335030055111654e-9,1.6402062732712514e-8,9.139250568132719e-10,1.54314834780849e-9,4.192565836533503e-8,5.495096887644674e-10,1.4147977578537957e-10,2.1317811464436012e-10,0
61179,3.3253364008860094e-9,1.6389371081017197e-8,9.141773272315891e-10,1.5374851982283828e-9,4.1048983581786635e-8,5.412284612118334e-10,1.3975708135139088e-10,2.1419912876883283e-10,0
61180,3.3156427466603646e-9,1.6376679429321877e-8,9.144295976499064e-10,1.5318220486482756e-9,4.017230879823825e-8,5.329472336591994e-10,1.380343869174022e-10,2.152201428933055e-10,0
61181,3.30594909243472e-9,1.6363987777626557e-8,9.146818680682235e-10,1.5261588990681685e-9,3.929563401468986e-8,5.246660061065654e-10,1.3631169248341354e-10,2.1624115701777821e-10,0
61182,3.2961499101646402e-9,1.6352770102906344e-8,9.110358210960401e-10,1.515154487734331e-9,3.842482313151168e-8,5.165635593533266e-10,1.348613160842641e-10,2.1650228752141106e-10,0
61183,3.28635072789456e-9,1.634155242818613e-8,9.073897741238566e-10,1.5041500764004933e-9,3.75540122483335e-8,5.084611126000879e-10,1.334109396851147e-10,2.1676341802504393e-10,0
61184,3.2765515456244796e-9,1.6330334753465918e-8,9.037437271516732e-10,1.4931456650666556e-9,3.668320136515532e-8,5.003586658468492e-10,1.3196056328596528e-10,2.1702454852867678e-10,0
61185,3.2548878165858674e-9,1.6330178776830316e-8,8.840458728817112e-10,1.4832908781232152e-9,3.667595028300455e-8,5.005374466462445e-10,1.323460988619884e-10,2.1728567903230965e-10,0
61186,3.2332240875472556e-9,1.6330022800194714e-8,8.643480186117491e-10,1.4734360911797748e-9,3.6668699200853775e-8,5.007162274456398e-10,1.327316344380115e-10,2.175468095359425e-10,0
61187,3.2115603585086434e-9,1.632986682355911e-8,8.446501643417869e-10,1.4635813042363342e-9,3.6661448118703e-8,5.00895008245035e-10,1.3311717001403465e-10,2.1780794003957537e-10,0
61188,3.189896629470031e-9,1.6329710846923513e-8,8.249523100718249e-10,1.4537265172928938e-9,3.665419703655223e-8,5.010737890444303e-10,1.3350270559005777e-10,2.180690705432082e-10,0
61189,3.1682329004314194e-9,1.632955487028791e-8,8.052544558018628e-10,1.4438717303494534e-9,3.664694595440146e-8,5.012525698438256e-10,1.3388824116608089e-10,2.1833020104684108e-10,0
61190,3.146569171392807e-9,1.632939889365231e-8,7.855566015319006e-10,1.4340169434060127e-9,3.6639694872250684e-8,5.014313506432208e-10,1.34273776742104e-10,2.1859133155047393e-10,0
61191,3.124905442354195e-9,1.6329242917016706e-8,7.658587472619386e-10,1.4241621564625723e-9,3.663244379009991e-8,5.016101314426162e-10,1.3465931231812712e-10,2.188524620541068e-10,0
61192,3.1032417133155828e-9,1.6329086940381104e-8,7.461608929919765e-10,1.414307369519132e-9,3.662519270794914e-8,5.017889122420114e-10,1.3504484789415023e-10,2.1911359255773965e-10,0
61193,3.081577984276971e-9,1.6328930963745506e-8,7.264630387220143e-10,1.4044525825756913e-9,3.6617941625798366e-8,5.019676930414067e-10,1.3543038347017335e-10,2.1937472306137252e-10,0
61194,3.0599142552383588e-9,1.6328774987109903e-8,7.067651844520523e-10,1.3945977956322509e-9,3.661069054364759e-8,5.02146473840802e-10,1.3581591904619647e-10,2.1963585356500536e-10,0
61195,3.0382505261997466e-9,1.63286190104743e-8,6.870673301820901e-10,1.3847430086888105e-9,3.660343946149682e-8,5.023252546401972e-10,1.362014546222196e-10,2.1989698406863823e-10,0
61196,3.0165867971611344e-9,1.63284630338387e-8,6.673694759121281e-10,1.3748882217453698e-9,3.659618837934605e-8,5.025040354395925e-10,1.3658699019824272e-10,2.2015811457227108e-10,0
61197,2.9949230681225226e-9,1.6328307057203097e-8,6.47671621642166e-10,1.3650334348019294e-9,3.6588937297195275e-8,5.026828162389878e-10,1.3697252577426584e-10,2.2041924507590395e-10,0
61198,2.9732593390839104e-9,1.63281510805675e-8,6.279737673722038e-10,1.355178647858489e-9,3.65816862150445e-8,5.028615970383831e-10,1.3735806135028896e-10,2.206803755795368e-10,0
61199,2.9525579402649004e-9,1.6325612750228432e-8,6.080580703459279e-10,1.3459110466776705e-9,3.6839208449790764e-8,5.063340742183426e-10,1.3735806135028896e-10,2.206803755795368e-10,0
61200,2.930430634123893e-9,1.6322531102019132e-8,5.88142373319652e-10,1.3699467245694577e-9,3.683195736763999e-8,5.073503750932459e-10,1.3862788561954218e-10,2.2094150608316967e-10,0
61201,2.929004726801896e-9,1.6299864387979673e-8,5.870817994806587e-10,1.3892530736049838e-9,3.682735147237059e-8,5.083666759681493e-10,1.3536304888146102e-10,2.2120263658680251e-10,0
61202,2.9275788194798987e-9,1.6277197673940217e-8,5.860212256416655e-10,1.4085594226405097e-9,3.6822745577101195e-8,5.093829768430527e-10,1.3209821214337988e-10,2.2146376709043536e-10,0
61203,2.926152912157902e-9,1.6254530959900757e-8,5.849606518026721e-10,1.4278657716760358e-9,3.68181396818318e-8,5.10399277717956e-10,1.2883337540529872e-10,2.2172489759406823e-10,0
61204,2.9247270048359046e-9,1.6231864245861298e-8,5.839000779636789e-10,1.4471721207115617e-9,3.68135337865624e-8,5.114155785928594e-10,1.2556853866721756e-10,2.2198602809770108e-10,0
61205,2.9233010975139074e-9,1.6209197531821838e-8,5.828395041246856e-10,1.4664784697470878e-9,3.6808927891293e-8,5.124318794677628e-10,1.2230370192913643e-10,2.2224715860133395e-10,0
61206,2.92187519019191e-9,1.618653081778238e-8,5.817789302856924e-10,1.4857848187826137e-9,3.6804321996023604e-8,5.134481803426663e-10,1.1903886519105527e-10,2.225082891049668e-10,0
61207,2.917028363079088e-9,1.5968904740501906e-8,5.817789302856924e-10,1.518444322202466e-9,3.6688368998759036e-8,5.102768808400291e-10,1.203086894603085e-10,2.2276941960859966e-10,0
61208,2.9121815359662657e-9,1.5751278663221433e-8,5.817789302856924e-10,1.551103825622318e-9,3.6572416001494476e-8,5.071055813373919e-10,1.2157851372956172e-10,2.230305501122325e-10,0
61209,2.9073347088534435e-9,1.553365258594096e-8,5.817789302856924e-10,1.5837633290421702e-9,3.645646300422991e-8,5.039342818347547e-10,1.2284833799881494e-10,2.2329168061586538e-10,0
61210,2.9024878817406213e-9,1.531602650866049e-8,5.817789302856924e-10,1.6164228324620225e-9,3.634051000696535e-8,5.007629823321175e-10,1.2411816226806816e-10,2.2355281111949823e-10,0
61211,2.897641054627799e-9,1.509840043138002e-8,5.817789302856924e-10,1.6490823358818746e-9,3.622455700970078e-8,4.975916828294803e-10,1.2538798653732138e-10,2.238139416231311e-10,0
61212,2.892794227514977e-9,1.4880774354099546e-8,5.817789302856924e-10,1.681741839301727e-9,3.610860401243622e-8,4.944203833268432e-10,1.2665781080657458e-10,2.2407507212676394e-10,0
