time,channel1,channel2,channel3,channel4,channel5,channel6,channel7,channel8,class
29040,2.0101916856055914e-10,2.5143287515362398e-9,1.9195446178380262e-8,3.373708022547883e-9,6.506676344451842e-10,8.222599803594324e-10,2.1778053715790019e-10,1.7468336870506328e-10,0
29041,2.0025057882940924e-10,2.502712086431016e-9,1.9180701881190003e-8,3.3406577216690384e-9,6.424494007458517e-10,8.201269461205584e-10,2.1778053715790019e-10,1.751820559528499e-10,0
29042,1.9948198909825933e-10,2.4910954213257923e-9,1.9165957583999744e-8,3.3076074207901932e-9,6.342311670465192e-10,8.179939118816843e-10,2.1778053715790019e-10,1.7568074320063654e-10,0
29043,1.987133993671094e-10,2.479478756220569e-9,1.9151213286809484e-8,3.274557119911348e-9,6.260129333471866e-10,8.158608776428104e-10,2.1778053715790019e-10,1.7617943044842317e-10,0
29044,1.979448096359595e-10,2.4678620911153453e-9,1.9136468989619225e-8,3.2415068190325033e-9,6.177946996478541e-10,8.137278434039364e-10,2.1778053715790019e-10,1.766781176962098e-10,0
29045,1.9693366336465258e-10,2.451444898122453e-9,1.9096072753641117e-8,3.213383778806099e-9,6.086496984046954e-10,8.115948091650623e-10,2.1778053715790019e-10,1.766781176962098e-10,0
29046,1.9617871367039565e-10,2.43700188766092e-9,1.90572432370269e-8,3.1808442851483866e-9,6.004314647053629e-10,8.157228558727642e-10,2.1860324115131486e-10,1.788394251170536e-10,0
29047,1.954510440499246e-10,2.4055179514644724e-9,1.8749932557268158e-8,3.113729588196109e-9,5.897454331722526e-10,8.223023242629668e-10,2.1942594514472953e-10,1.8050204529011083e-10,0
29048,1.9472337442945356e-10,2.374034015268025e-9,1.844262187750942e-8,3.0466148912438312e-9,5.790594016391423e-10,8.288817926531694e-10,2.202486491381442e-10,1.8216466546316804e-10,0
29049,1.9399570480898251e-10,2.3425500790715777e-9,1.8135311197750684e-8,2.9795001942915538e-9,5.683733701060321e-10,8.354612610433719e-10,2.210713531315589e-10,1.8382728563622525e-10,0
29050,1.9326803518851147e-10,2.3110661428751302e-9,1.7828000517991947e-8,2.912385497339276e-9,5.576873385729219e-10,8.420407294335744e-10,2.2189405712497358e-10,1.8548990580928245e-10,0
29051,1.9254036556804045e-10,2.279582206678683e-9,1.752068983823321e-8,2.8452708003869984e-9,5.470013070398116e-10,8.48620197823777e-10,2.2271676111838825e-10,1.8715252598233966e-10,0
29052,1.918126959475694e-10,2.2480982704822356e-9,1.7213379158474473e-8,2.778156103434721e-9,5.363152755067014e-10,8.551996662139795e-10,2.2353946511180293e-10,1.8881514615539687e-10,0
29053,1.9108502632709836e-10,2.2166143342857885e-9,1.6906068478715736e-8,2.711041406482443e-9,5.256292439735911e-10,8.61779134604182e-10,2.243621691052176e-10,1.9047776632845407e-10,0
29054,1.903573567066273e-10,2.185130398089341e-9,1.6598757798956996e-8,2.6439267095301656e-9,5.149432124404808e-10,8.683586029943846e-10,2.251848730986323e-10,1.9214038650151128e-10,0
29055,1.8962968708615627e-10,2.1536464618928935e-9,1.629144711919826e-8,2.5768120125778877e-9,5.042571809073706e-10,8.749380713845871e-10,2.2600757709204697e-10,1.9380300667456849e-10,0
29056,1.8890201746568525e-10,2.1221625256964464e-9,1.598413643943952e-8,2.50969731562561e-9,4.935711493742603e-10,8.815175397747897e-10,2.2683028108546165e-10,1.954656268476257e-10,0
29057,1.881743478452142e-10,2.090678589499999e-9,1.5676825759680784e-8,2.4425826186733323e-9,4.828851178411501e-10,8.880970081649922e-10,2.2765298507887632e-10,1.971282470206829e-10,0
29058,1.8744667822474315e-10,2.0591946533035518e-9,1.5369515079922047e-8,2.375467921721055e-9,4.721990863080398e-10,8.946764765551947e-10,2.2847568907229102e-10,1.987908671937401e-10,0
29059,1.867190086042721e-10,2.0277107171071043e-9,1.506220440016331e-8,2.308353224768777e-9,4.615130547749296e-10,9.012559449453973e-10,2.292983930657057e-10,2.004534873667973e-10,0
29060,1.8674628867805802e-10,1.9942525983792982e-9,1.4774133711938832e-8,2.24576346818314e-9,4.508270232418193e-10,9.014363106189777e-10,2.2897444218949798e-10,1.9962227608439925e-10,0
29061,1.8674628867805802e-10,1.9604827298186864e-9,1.4505652548794312e-8,2.1781259099058036e-09,4.3990280788468825e-10,9.016166762925582e-10,2.286504913132903e-10,1.9912358883661263e-10,0
29062,1.8674628867805802e-10,1.9267128612580745e-9,1.4237171385649793e-8,2.1104883516284673e-9,4.2897859252755715e-10,9.017970419661386e-10,2.283265404370826e-10,1.98624901588826e-10,0
29063,1.8674628867805802e-10,1.8929429926974626e-9,1.3968690222505275e-8,2.042850793351131e-9,4.180543771704261e-10,9.019774076397191e-10,2.280025895608749e-10,1.9812621434103937e-10,0
29064,1.8674628867805802e-10,1.859173124136851e-9,1.3700209059360755e-8,1.9752132350737947e-9,4.07130161813295e-10,9.021577733132995e-10,2.276786386846672e-10,1.9762752709325277e-10,0
29065,1.8674628867805802e-10,1.825403255576239e-9,1.3431727896216236e-8,1.9075756767964585e-9,3.962059464561639e-10,9.023381389868799e-10,2.2735468780845952e-10,1.9712883984546614e-10,0
29066,1.8674628867805802e-10,1.7916333870156274e-9,1.3163246733071718e-8,1.839938118519122e-9,3.8528173109903284e-10,9.025185046604604e-10,2.270307369322518e-10,1.9663015259767951e-10,0
29067,1.8674628867805802e-10,1.7578635184550156e-9,1.2894765569927199e-8,1.7723005602417857e-9,3.7435751574190174e-10,9.026988703340408e-10,2.267067860560441e-10,1.9613146534989289e-10,0
29068,1.8674628867805802e-10,1.7240936498944039e-9,1.2626284406782679e-8,1.7046630019644494e-9,3.634333003847707e-10,9.028792360076213e-10,2.2638283517983642e-10,1.9563277810210626e-10,0
29069,1.8674628867805802e-10,1.690323781333792e-9,1.235780324363816e-8,1.6370254436871132e-9,3.525090850276396e-10,9.030596016812016e-10,2.260588843036287e-10,1.9513409085431963e-10,0
29070,1.8674628867805802e-10,1.6565539127731802e-9,1.2089322080493642e-8,1.5693878854097769e-9,3.4158486967050853e-10,9.032399673547821e-10,2.2573493342742103e-10,1.9463540360653303e-10,0
29071,1.8747395829852907e-10,1.6565539127731802e-9,1.2118604827868657e-8,1.568865024084718e-9,3.422734533903138e-10,9.025608485639947e-10,2.2573493342742103e-10,1.9297298104173689e-10,0
29072,1.882016279190001e-10,1.6470984334837167e-9,1.2097230287098854e-8,1.5508014249299342e-9,3.3892365895104066e-10,8.984751457598271e-10,2.2573493342742103e-10,1.9297298104173689e-10,0
29073,1.8892929753947116e-10,1.637642954194253e-9,1.2075855746329053e-8,1.5327378257751505e-9,3.355738645117675e-10,8.943894429556595e-10,2.2573493342742103e-10,1.9297298104173689e-10,0
29074,1.8965696715994218e-10,1.6281874749047896e-9,1.205448120555925e-8,1.5146742266203666e-9,3.3222407007249437e-10,8.903037401514919e-10,2.2573493342742103e-10,1.9297298104173689e-10,0
29075,1.9038463678041322e-10,1.6187319956153262e-9,1.203310666478945e-8,1.4966106274655827e-9,3.288742756332213e-10,8.862180373473242e-10,2.2573493342742103e-10,1.9297298104173689e-10,0
29076,1.9111230640088427e-10,1.6092765163258625e-9,1.2011732124019648e-8,1.4785470283107988e-9,3.2552448119394813e-10,8.821323345431565e-10,2.2573493342742103e-10,1.9297298104173689e-10,0
29077,1.9183997602135531e-10,1.599821037036399e-9,1.1990357583249846e-8,1.4604834291560149e-9,3.22174686754675e-10,8.780466317389889e-10,2.2573493342742103e-10,1.9297298104173689e-10,0
29078,1.9256764564182636e-10,1.5903655577469356e-9,1.1968983042480045e-8,1.442419830001231e-9,3.1882489231540185e-10,8.739609289348213e-10,2.2573493342742103e-10,1.9297298104173689e-10,0
29079,1.9329531526229738e-10,1.580910078457472e-9,1.1947608501710242e-8,1.4243562308464473e-9,3.1547509787612875e-10,8.698752261306537e-10,2.2573493342742103e-10,1.9297298104173689e-10,0
29080,1.9402298488276843e-10,1.5714545991680085e-9,1.1926233960940441e-8,1.4062926316916634e-9,3.121253034368556e-10,8.65789523326486e-10,2.2573493342742103e-10,1.9297298104173689e-10,0
29081,1.9475065450323947e-10,1.561999119878545e-9,1.1904859420170638e-8,1.3882290325368795e-9,3.0877550899758247e-10,8.617038205223184e-10,2.2573493342742103e-10,1.9297298104173689e-10,0
29082,1.9550560419749643e-10,1.5528553904218872e-9,1.189310902494145e-8,1.3775864596205712e-9,3.0473713083850405e-10,8.577561394881969e-10,2.2573493342742103e-10,1.938042581935553e-10,0
29083,1.9626055389175336e-10,1.5437116609652292e-9,1.188135862971226e-8,1.3669438867042628e-9,3.006987526794257e-10,8.538084584540754e-10,2.2573493342742103e-10,1.9463553534537373e-10,0
29084,1.9701550358601032e-10,1.5345679315085714e-9,1.1869608234483071e-8,1.3563013137879545e-9,2.966603745203473e-10,8.498607774199538e-10,2.2573493342742103e-10,1.9546681249719215e-10,0
29085,1.9777045328026728e-10,1.5254242020519135e-9,1.1857857839253881e-8,1.3456587408716464e-9,2.9262199636126887e-10,8.459130963858323e-10,2.2573493342742103e-10,1.962980896490106e-10,0
29086,1.9852540297452423e-10,1.5162804725952557e-9,1.1846107444024693e-8,1.335016167955338e-9,2.8858361820219045e-10,8.419654153517108e-10,2.2573493342742103e-10,1.9712936680082902e-10,0
29087,1.992803526687812e-10,1.5071367431385979e-9,1.1834357048795503e-8,1.3243735950390297e-9,2.845452400431121e-10,8.380177343175892e-10,2.2573493342742103e-10,1.9796064395264744e-10,0
29088,2.0003530236303812e-10,1.49799301368194e-9,1.1822606653566314e-8,1.3137310221227214e-9,2.805068618840337e-10,8.340700532834677e-10,2.2573493342742103e-10,1.9879192110446586e-10,0
29089,2.0079025205729508e-10,1.4888492842252822e-9,1.1810856258337124e-8,1.303088449206413e-9,2.7646848372495527e-10,8.301223722493462e-10,2.2573493342742103e-10,1.9962319825628429e-10,0
29090,2.0154520175155204e-10,1.4797055547686243e-9,1.1799105863107934e-8,1.292445876290105e-9,2.7243010556587685e-10,8.261746912152246e-10,2.2573493342742103e-10,2.004544754081027e-10,0
29091,2.02300151445809e-10,1.4705618253119665e-9,1.1787355467878746e-8,1.2818033033737966e-9,2.683917274067985e-10,8.222270101811031e-10,2.2573493342742103e-10,2.0128575255992113e-10,0
29092,2.0305510114006593e-10,1.4614180958553087e-9,1.1775605072649556e-8,1.2711607304574883e-9,2.643533492477201e-10,8.182793291469816e-10,2.2573493342742103e-10,2.0211702971173955e-10,0
29093,2.0381005083432289e-10,1.4522743663986508e-9,1.1763854677420367e-8,1.26051815754118e-9,2.6031497108864167e-10,8.1433164811286015e-10,2.2573493342742103e-10,2.0294830686355797e-10,0
29094,2.0456500052857984e-10,1.443130636941993e-9,1.1752104282191177e-8,1.2498755846248716e-9,2.5627659292956325e-10,8.103839670787386e-10,2.2573493342742103e-10,2.037795840153764e-10,0
29095,2.053199502228368e-10,1.4339869074853352e-9,1.1740353886961987e-8,1.2392330117085633e-9,2.522382147704849e-10,8.064362860446171e-10,2.2573493342742103e-10,2.0461086116719484e-10,0
29096,2.072876826178788e-10,1.4296437059163458e-9,1.1709579030008836e-8,1.2216561115670607e-9,2.480100060088082e-10,8.023505832404495e-10,2.260588843036287e-10,2.0427833713258339e-10,0
29097,2.0925541501292083e-10,1.4253005043473565e-9,1.1678804173055682e-8,1.204079211425558e-9,2.437817972471315e-10,7.982648804362817e-10,2.2638283517983642e-10,2.0394581309797195e-10,0
29098,2.1122314740796285e-10,1.4209573027783671e-9,1.1648029316102529e-8,1.1865023112840551e-9,2.395535884854548e-10,7.941791776321141e-10,2.267067860560441e-10,2.036132890633605e-10,0
29099,2.1320451983989782e-10,1.426464417005113e-9,1.1678598326050178e-8,1.1864661489722777e-9,2.395535884854548e-10,7.857960525061072e-10,2.2685593469125253e-10,2.036132890633605e-10,0
29100,2.1518589227183279e-10,1.426464417005113e-9,1.1709950695679776e-8,1.186952847985559e-9,2.37487837326039e-10,7.857960525061072e-10,2.2685593469125253e-10,2.0328076502874907e-10,0
29101,2.1740982124392478e-10,1.4301635220474324e-9,1.173296794885705e-8,1.186952847985559e-9,2.371789148114303e-10,7.851169337153198e-10,2.2700508332646093e-10,2.02449553746351e-10,0
29102,2.1963375021601677e-10,1.4338626270897517e-9,1.1755985202034325e-8,1.186952847985559e-9,2.3686999229682164e-10,7.844378149245324e-10,2.2715423196166935e-10,2.0161834246395292e-10,0
29103,2.2185767918810876e-10,1.437561732132071e-9,1.17790024552116e-8,1.186952847985559e-9,2.3656106978221293e-10,7.83758696133745e-10,2.2730338059687775e-10,2.0078713118155486e-10,0
29104,2.228688254594157e-10,1.437956568638343e-9,1.175313636987128e-8,1.1884852696489573e-9,2.3736874541402863e-10,7.840770835773715e-10,2.2845003546650014e-10,1.9895841366474285e-10,0
29105,2.2362377515367265e-10,1.4370629790148641e-9,1.1748860355111057e-8,1.1884852696489573e-9,2.3736874541402863e-10,7.84395471020998e-10,2.292727394599148e-10,1.9879211871272693e-10,0
29106,2.2437872484792958e-10,1.4361693893913853e-9,1.1744584340350835e-8,1.1884852696489573e-9,2.3736874541402863e-10,7.847138584646246e-10,2.3009544345332948e-10,1.9862582376071103e-10,0
29107,2.2513367454218653e-10,1.4352757997679067e-9,1.1740308325590613e-8,1.1884852696489573e-9,2.3736874541402863e-10,7.850322459082511e-10,2.3091814744674418e-10,1.9845952880869513e-10,0
29108,2.258886242364435e-10,1.4343822101444279e-9,1.173603231083039e-8,1.1884852696489573e-9,2.3736874541402863e-10,7.853506333518777e-10,2.3174085144015886e-10,1.9829323385667924e-10,0
29109,2.2664357393070045e-10,1.4334886205209493e-9,1.1731756296070168e-8,1.1884852696489573e-9,2.3736874541402863e-10,7.856690207955043e-10,2.3256355543357353e-10,1.9812693890466334e-10,0
29110,2.2739852362495738e-10,1.4325950308974705e-9,1.1727480281309946e-8,1.1884852696489573e-9,2.3736874541402863e-10,7.859874082391307e-10,2.333862594269882e-10,1.9796064395264744e-10,0
29111,2.2815347331921434e-10,1.4317014412739917e-9,1.1723204266549723e-8,1.1884852696489573e-9,2.3736874541402863e-10,7.863057956827573e-10,2.342089634204029e-10,1.9779434900063155e-10,0
29112,2.289084230134713e-10,1.430807851650513e-9,1.1718928251789501e-8,1.1884852696489573e-9,2.3736874541402863e-10,7.866241831263839e-10,2.3503166741381755e-10,1.9762805404861562e-10,0
29113,2.2966337270772825e-10,1.4299142620270342e-9,1.1714652237029279e-8,1.1884852696489573e-9,2.3736874541402863e-10,7.869425705700104e-10,2.358543714072323e-10,1.9746175909659973e-10,0
29114,2.3041832240198519e-10,1.4290206724035554e-9,1.1710376222269056e-8,1.1884852696489573e-9,2.3736874541402863e-10,7.87260958013637e-10,2.3667707540064695e-10,1.9729546414458383e-10,0
29115,2.3117327209624214e-10,1.4281270827800768e-9,1.1706100207508834e-8,1.1884852696489573e-9,2.3736874541402863e-10,7.875793454572634e-10,2.374997793940616e-10,1.9712916919256793e-10,0
29116,2.319282217904991e-10,1.427233493156598e-9,1.1701824192748612e-8,1.1884852696489573e-9,2.3736874541402863e-10,7.8789773290089e-10,2.383224833874763e-10,1.9696287424055203e-10,0
29117,2.3268317148475606e-10,1.4263399035331192e-9,1.169754817798839e-8,1.1884852696489573e-9,2.3736874541402863e-10,7.882161203445166e-10,2.3914518738089097e-10,1.9679657928853614e-10,0
29118,2.324269749077061e-10,1.4263399035331192e-9,1.1696691591778518e-8,1.1874757093106176e-9,2.3867517416305127e-10,7.906675420270172e-10,2.3914518738089097e-10,1.9646405525392468e-10,0
29119,2.324269749077061e-10,1.425155394014304e-9,1.1693484926522807e-8,1.1864299866605002e-9,2.3843699033903046e-10,7.908479077005976e-10,2.388212365046833e-10,1.9613153121931325e-10,0
29120,2.324269749077061e-10,1.4239708844954888e-9,1.1690278261267098e-8,1.185384264010383e-9,2.3819880651500964e-10,7.91028273374178e-10,2.3849728562847555e-10,1.9579900718470182e-10,0
29121,2.324269749077061e-10,1.4227863749766734e-9,1.1687071596011387e-8,1.1843385413602656e-9,2.379606226909888e-10,7.912086390477585e-10,2.3817333475226787e-10,1.9546648315009036e-10,0
29122,2.324269749077061e-10,1.4216018654578582e-9,1.1683864930755678e-8,1.1832928187101484e-9,2.3772243886696795e-10,7.913890047213389e-10,2.378493838760602e-10,1.9513395911547893e-10,0
29123,2.324269749077061e-10,1.420417355939043e-9,1.1680658265499968e-8,1.182247096060031e-9,2.3748425504294714e-10,7.915693703949194e-10,2.375254329998525e-10,1.9480143508086747e-10,0
29124,2.324269749077061e-10,1.4192328464202276e-9,1.1677451600244257e-8,1.1812013734099139e-9,2.372460712189263e-10,7.917497360684997e-10,2.3720148212364477e-10,1.9446891104625604e-10,0
29125,2.324269749077061e-10,1.4180483369014124e-9,1.1674244934988548e-8,1.1801556507597965e-9,2.370078873949055e-10,7.919301017420802e-10,2.368775312474371e-10,1.941363870116446e-10,0
29126,2.324269749077061e-10,1.4168638273825972e-9,1.1671038269732837e-8,1.1791099281096793e-9,2.367697035708847e-10,7.921104674156607e-10,2.365535803712294e-10,1.9380386297703316e-10,0
29127,2.324269749077061e-10,1.4151597348091058e-9,1.1668688190687e-8,1.1720430057413005e-9,2.373391953786795e-10,7.91155305084781e-10,2.365535803712294e-10,1.9347133894242172e-10,0
29128,2.3268317148475606e-10,1.4152636514200409e-9,1.1661564727021561e-8,1.172517650650656e-9,2.3821760970108307e-10,7.913356707583615e-10,2.365535803712294e-10,1.9330510985982616e-10,0
29129,2.3293936806180603e-10,1.4153675680309761e-9,1.165444126335612e-8,1.1729922955600113e-9,2.390960240234866e-10,7.915160364319419e-10,2.365535803712294e-10,1.9313888077723063e-10,0
29130,2.3319556463885597e-10,1.4154714846419114e-9,1.1647317799690681e-8,1.1734669404693666e-9,2.399744383458902e-10,7.916964021055223e-10,2.365535803712294e-10,1.929726516946351e-10,0
29131,2.3345176121590596e-10,1.4155754012528467e-9,1.1640194336025242e-8,1.1739415853787219e-9,2.4085285266829376e-10,7.918767677791028e-10,2.365535803712294e-10,1.9280642261203956e-10,0
29132,2.3370795779295595e-10,1.4156793178637818e-9,1.1633070872359801e-8,1.1744162302880771e-9,2.417312669906973e-10,7.920571334526832e-10,2.365535803712294e-10,1.92640193529444e-10,0
29133,2.339641543700059e-10,1.415783234474717e-9,1.1625947408694362e-8,1.1748908751974324e-9,2.4260968131310086e-10,7.922374991262637e-10,2.365535803712294e-10,1.9247396444684847e-10,0
29134,2.342203509470559e-10,1.4158871510856523e-9,1.1618823945028921e-8,1.1753655201067877e-9,2.434880956355044e-10,7.924178647998442e-10,2.365535803712294e-10,1.9230773536425294e-10,0
29135,2.3447654752410583e-10,1.4159910676965876e-9,1.1611700481363482e-8,1.1758401650161432e-9,2.4436650995790795e-10,7.925982304734245e-10,2.365535803712294e-10,1.9214150628165738e-10,0
29136,2.347327441011558e-10,1.4160949843075226e-9,1.1604577017698043e-8,1.1763148099254985e-9,2.452449242803115e-10,7.92778596147005e-10,2.365535803712294e-10,1.9197527719906184e-10,0
29137,2.3498894067820576e-10,1.416198900918458e-9,1.1597453554032602e-8,1.1767894548348538e-9,2.4612333860271505e-10,7.929589618205854e-10,2.365535803712294e-10,1.918090481164663e-10,0
29138,2.3524513725525575e-10,1.4163028175293932e-9,1.1590330090367163e-8,1.177264099744209e-9,2.470017529251186e-10,7.931393274941659e-10,2.365535803712294e-10,1.9164281903387077e-10,0
29139,2.3524513725525575e-10,1.4163028175293932e-9,1.158769402149876e-8,1.1787844673036817e-9,2.471915835277169e-10,7.931393274941659e-10,2.365535803712294e-10,1.9164281903387077e-10,0
29140,2.3524513725525575e-10,1.419711002676376e-9,1.1653248976178825e-8,1.179259112213037e-9,2.471915835277169e-10,7.934577149377924e-10,2.365535803712294e-10,1.9180911398588667e-10,0
29141,2.3524513725525575e-10,1.4231191878233589e-9,1.171880393085889e-8,1.1797337571223923e-9,2.471915835277169e-10,7.93776102381419e-10,2.365535803712294e-10,1.9197540893790257e-10,0
29142,2.3524513725525575e-10,1.4265273729703416e-9,1.1784358885538956e-8,1.1802084020317476e-9,2.471915835277169e-10,7.940944898250454e-10,2.365535803712294e-10,1.9214170388991846e-10,0
29143,2.312823923913858e-10,1.3896818990330218e-9,1.1792695385249104e-8,1.141937007149994e-9,2.451258323683011e-10,7.935533928043042e-10,2.345329142966106e-10,1.9164301664213184e-10,0
29144,2.2731964752751586e-10,1.352836425095702e-9,1.1801031884959254e-8,1.1036656122682408e-9,2.430600812088853e-10,7.930122957835629e-10,2.325122482219918e-10,1.911443293943452e-10,0
29145,2.233569026636459e-10,1.3159909511583823e-9,1.1809368384669403e-8,1.0653942173864872e-9,2.409943300494695e-10,7.924711987628216e-10,2.3049158214737297e-10,1.906456421465586e-10,0
29146,2.1939415779977596e-10,1.2791454772210625e-9,1.1817704884379552e-8,1.0271228225047337e-9,2.389285788900537e-10,7.919301017420802e-10,2.2847091607275418e-10,1.9014695489877198e-10,0
29147,2.15431412935906e-10,1.2423000032837428e-9,1.1826041384089701e-8,9.888514276229802e-10,2.368628277306379e-10,7.913890047213389e-10,2.2645024999813536e-10,1.8964826765098535e-10,0
29148,2.1146866807203606e-10,1.205454529346423e-9,1.1834377883799851e-8,9.505800327412267e-10,2.347970765712221e-10,7.908479077005976e-10,2.2442958392351657e-10,1.8914958040319872e-10,0
29149,2.075059232081661e-10,1.1686090554091033e-9,1.184271438351e-8,9.123086378594733e-10,2.3273132541180627e-10,7.903068106798563e-10,2.2240891784889775e-10,1.886508931554121e-10,0
29150,2.0354317834429616e-10,1.1317635814717835e-9,1.185105088322015e-8,8.740372429777197e-10,2.3066557425239047e-10,7.89765713659115e-10,2.2038825177427895e-10,1.881522059076255e-10,0
29151,1.995804334804262e-10,1.0949181075344635e-9,1.1859387382930297e-8,8.357658480959663e-10,2.2859982309297466e-10,7.892246166383737e-10,2.1836758569966016e-10,1.8765351865983887e-10,0
29152,1.9561768861655626e-10,1.0580726335971438e-9,1.1867723882640447e-8,7.974944532142128e-10,2.2653407193355885e-10,7.886835196176323e-10,2.1634691962504134e-10,1.8715483141205224e-10,0
29153,1.916549437526863e-10,1.021227159659824e-9,1.1876060382350597e-8,7.592230583324593e-10,2.2446832077414307e-10,7.88142422596891e-10,2.1432625355042255e-10,1.866561441642656e-10,0
29154,1.8769219888881636e-10,9.843816857225042e-10,1.1884396882060745e-8,7.209516634507059e-10,2.2240256961472727e-10,7.876013255761497e-10,2.1230558747580373e-10,1.8615745691647898e-10,0
29155,1.8743600231176637e-10,9.865014447397367e-10,1.1934420030095123e-8,7.033747633092031e-10,2.2240256961472727e-10,7.876013255761497e-10,2.1230558747580373e-10,1.8632375186849488e-10,0
29156,1.8642485604045947e-10,9.899096298867194e-10,1.200816779794514e-8,7.038614623224843e-10,2.2128597146830288e-10,7.879197130197762e-10,2.1115893260618135e-10,1.8665627590310634e-10,0
29157,1.8541370976915255e-10,9.933178150337022e-10,1.2081915565795158e-8,7.043481613357654e-10,2.201693733218785e-10,7.882381004634028e-10,2.10012277736559e-10,1.8698879993771777e-10,0
29158,1.8440256349784562e-10,9.96726000180685e-10,1.2155663333645176e-8,7.048348603490466e-10,2.1905277517545412e-10,7.885564879070293e-10,2.088656228669366e-10,1.8732132397232923e-10,0
29159,1.833914172265387e-10,1.0001341853276678e-9,1.2229411101495194e-8,7.053215593623277e-10,2.1793617702902976e-10,7.888748753506558e-10,2.0771896799731423e-10,1.8765384800694066e-10,0
29160,1.8238027095523177e-10,1.0035423704746505e-9,1.2303158869345211e-8,7.058082583756088e-10,2.1681957888260537e-10,7.891932627942824e-10,2.0657231312769185e-10,1.8798637204155211e-10,0
29161,1.8136912468392485e-10,1.0062231393450868e-9,1.2410743089606067e-8,7.063311197006675e-10,2.15702980736181e-10,7.895116502379089e-10,2.0542565825806946e-10,1.8915017322798197e-10,0
29162,1.8035797841261792e-10,1.0062231393450868e-9,1.2412523955522428e-8,7.078635413640659e-10,2.15702980736181e-10,7.895116502379089e-10,2.046029542646548e-10,1.893164023105775e-10,0
29163,1.7934683214131102e-10,1.0062231393450868e-9,1.2414304821438787e-8,7.093959630274644e-10,2.15702980736181e-10,7.895116502379089e-10,2.0378025027124012e-10,1.8948263139317306e-10,0
29164,1.783356858700041e-10,1.0062231393450868e-9,1.2416085687355147e-8,7.109283846908628e-10,2.15702980736181e-10,7.895116502379089e-10,2.0295754627782544e-10,1.896488604757686e-10,0
29165,1.7732453959869718e-10,1.0062231393450868e-9,1.2417866553271508e-8,7.124608063542613e-10,2.15702980736181e-10,7.895116502379089e-10,2.0213484228441077e-10,1.8981508955836413e-10,0
29166,1.7631339332739025e-10,1.0062231393450868e-9,1.2419647419187867e-8,7.139932280176597e-10,2.15702980736181e-10,7.895116502379089e-10,2.0131213829099607e-10,1.8998131864095966e-10,0
29167,1.7530224705608333e-10,1.0062231393450868e-9,1.2421428285104228e-8,7.155256496810581e-10,2.15702980736181e-10,7.895116502379089e-10,2.004894342975814e-10,1.9014754772355522e-10,0
29168,1.742911007847764e-10,1.0062231393450868e-9,1.2423209151020586e-8,7.170580713444567e-10,2.15702980736181e-10,7.895116502379089e-10,1.9966673030416673e-10,1.9031377680615076e-10,0
29169,1.732799545134695e-10,1.0062231393450868e-9,1.2424990016936947e-8,7.185904930078551e-10,2.15702980736181e-10,7.895116502379089e-10,1.9884402631075205e-10,1.904800058887463e-10,0
29170,1.7226880824216258e-10,1.0062231393450868e-9,1.2426770882853308e-8,7.201229146712536e-10,2.15702980736181e-10,7.895116502379089e-10,1.9802132231733735e-10,1.9064623497134182e-10,0
29171,1.7125766197085565e-10,1.0062231393450868e-9,1.2428551748769667e-8,7.21655336334652e-10,2.15702980736181e-10,7.895116502379089e-10,1.9719861832392268e-10,1.9081246405393738e-10,0
29172,1.7024651569954873e-10,1.0062231393450868e-9,1.2430332614686027e-8,7.231877579980505e-10,2.15702980736181e-10,7.895116502379089e-10,1.96375914330508e-10,1.9097869313653292e-10,0
29173,1.692353694282418e-10,1.0062231393450868e-9,1.2432113480602386e-8,7.247201796614489e-10,2.15702980736181e-10,7.895116502379089e-10,1.9555321033709333e-10,1.9114492221912845e-10,0
29174,1.692353694282418e-10,1.008903908215523e-9,1.2440306293772338e-8,7.252430409865076e-10,2.147762131923549e-10,7.895116502379089e-10,1.9458135770847023e-10,1.914774462537399e-10,0
29175,1.6848041973398485e-10,1.0096104945546005e-9,1.2451633928927903e-8,7.252550950904334e-10,2.1365961504593053e-10,7.903711347022768e-10,1.9375865371505556e-10,1.9230865753613797e-10,0
29176,1.6772547003972792e-10,1.010317080893678e-9,1.2462961564083465e-8,7.252671491943592e-10,2.1254301689950614e-10,7.912306191666446e-10,1.9293594972164089e-10,1.9313986881853603e-10,0
29177,1.6772547003972792e-10,1.0092156580483286e-9,1.246481150675427e-8,7.113984947439703e-10,2.1254301689950614e-10,7.896386819485119e-10,1.9293594972164089e-10,1.9363855606632265e-10,0
29178,1.6798166661677788e-10,1.0086338182576556e-9,1.2461177931651451e-8,7.063627471561972e-10,2.1235318629690786e-10,7.904981664128798e-10,1.9211324572822619e-10,1.9413724331410928e-10,0
29179,1.6823786319382785e-10,1.0080519784669826e-9,1.2457544356548633e-8,7.01326999568424e-10,2.1216335569430958e-10,7.913576508772477e-10,1.9129054173481151e-10,1.946359305618959e-10,0
29180,1.6849405977087782e-10,1.0074701386763094e-9,1.2453910781445814e-8,6.962912519806509e-10,2.119735250917113e-10,7.922171353416155e-10,1.9046783774139684e-10,1.951346178096825e-10,0
29181,1.6875025634792778e-10,1.0068882988856364e-9,1.2450277206342996e-8,6.912555043928777e-10,2.11783694489113e-10,7.930766198059834e-10,1.8964513374798217e-10,1.9563330505746914e-10,0
29182,1.6900645292497775e-10,1.0063064590949635e-9,1.2446643631240178e-8,6.862197568051045e-10,2.1159386388651472e-10,7.939361042703513e-10,1.8882242975456747e-10,1.9613199230525577e-10,0
29183,1.6926264950202772e-10,1.0057246193042903e-9,1.244301005613736e-8,6.811840092173314e-10,2.1140403328391644e-10,7.947955887347191e-10,1.879997257611528e-10,1.966306795530424e-10,0
29184,1.6951884607907768e-10,1.0051427795136173e-9,1.2439376481034541e-8,6.761482616295582e-10,2.1121420268131814e-10,7.95655073199087e-10,1.8717702176773812e-10,1.9712936680082902e-10,0
29185,1.6977504265612765e-10,1.0045609397229443e-9,1.2435742905931723e-8,6.711125140417851e-10,2.1102437207871986e-10,7.965145576634549e-10,1.8635431777432345e-10,1.9762805404861562e-10,0
29186,1.7003123923317762e-10,1.003979099932271e-9,1.2432109330828904e-8,6.660767664540119e-10,2.1083454147612158e-10,7.973740421278227e-10,1.8553161378090875e-10,1.9812674129640225e-10,0
29187,1.7028743581022758e-10,1.003397260141598e-9,1.2428475755726086e-8,6.610410188662388e-10,2.106447108735233e-10,7.982335265921906e-10,1.8470890978749407e-10,1.9862542854418888e-10,0
29188,1.7054363238727758e-10,1.002815420350925e-9,1.2424842180623267e-8,6.560052712784657e-10,2.10454880270925e-10,7.990930110565585e-10,1.838862057940794e-10,1.991241157919755e-10,0
29189,1.7079982896432754e-10,1.0022335805602519e-9,1.2421208605520449e-8,6.509695236906924e-10,2.1026504966832672e-10,7.999524955209263e-10,1.8306350180066473e-10,1.9962280303976213e-10,0
29190,1.710560255413775e-10,1.001651740769579e-9,1.241757503041763e-8,6.459337761029193e-10,2.1007521906572844e-10,8.008119799852942e-10,1.8224079780725003e-10,2.0012149028754876e-10,0
29191,1.7131222211842748e-10,1.001069900978906e-9,1.2413941455314812e-8,6.408980285151461e-10,2.0988538846313016e-10,8.01671464449662e-10,1.8141809381383536e-10,2.0062017753533536e-10,0
29192,1.7156841869547745e-10,1.0004880611882327e-9,1.2410307880211994e-8,6.35862280927373e-10,2.0969555786053186e-10,8.025309489140298e-10,1.8059538982042068e-10,2.01118864783122e-10,0
29193,1.718246152725274e-10,9.999062213975597e-10,1.2406674305109176e-8,6.308265333395998e-10,2.0950572725793358e-10,8.033904333783977e-10,1.79772685827006e-10,2.0161755203090862e-10,0
29194,1.7208081184957738e-10,9.993243816068867e-10,1.2403040730006357e-8,6.257907857518267e-10,2.093158966553353e-10,8.042499178427655e-10,1.789499818335913e-10,2.0211623927869525e-10,0
29195,1.7233700842662735e-10,9.987425418162135e-10,1.2399407154903539e-8,6.207550381640536e-10,2.09126066052737e-10,8.051094023071334e-10,1.7812727784017664e-10,2.0261492652648187e-10,0
29196,1.725932050036773e-10,9.981607020255405e-10,1.239577357980072e-8,6.157192905762804e-10,2.0893623545013872e-10,8.059688867715013e-10,1.7730457384676196e-10,2.0311361377426847e-10,0
29197,1.7284940158072728e-10,9.975788622348676e-10,1.2392140004697902e-8,6.106835429885072e-10,2.0874640484754044e-10,8.068283712358691e-10,1.764818698533473e-10,2.036123010220551e-10,0
29198,1.7310559815777725e-10,9.969970224441944e-10,1.237717879443952e-8,6.056357412968082e-10,2.0855657424494217e-10,8.068283712358691e-10,1.753352149837249e-10,2.0327977698744367e-10,0
29199,1.7310559815777725e-10,9.969970224441944e-10,1.23513127090992e-8,6.056236871928824e-10,2.0836674364234386e-10,8.002489028456666e-10,1.750112641075172e-10,2.0294725295283221e-10,0
29200,1.7311923819467022e-10,9.958955995988452e-10,1.2327588089283561e-8,6.056116330889565e-10,2.0836674364234386e-10,7.982115464733043e-10,1.7483646186651792e-10,2.0261472891822078e-10,0
29201,1.7313287823156316e-10,9.94794176753496e-10,1.2303863469467922e-8,6.055995789850307e-10,2.0836674364234386e-10,7.961741901009421e-10,1.7466165962551863e-10,2.0228220488360935e-10,0
29202,1.7314651826845613e-10,9.93692753908147e-10,1.2280138849652282e-8,6.055875248811049e-10,2.0836674364234386e-10,7.941368337285798e-10,1.7448685738451935e-10,2.019496808489979e-10,0
29203,1.7316015830534907e-10,9.925913310627975e-10,1.2256414229836642e-8,6.055754707771791e-10,2.0836674364234386e-10,7.920994773562176e-10,1.7431205514352007e-10,2.0161715681438647e-10,0
29204,1.7317379834224204e-10,9.914899082174484e-10,1.2232689610021002e-8,6.055634166732532e-10,2.0836674364234386e-10,7.900621209838553e-10,1.741372529025208e-10,2.01284632779775e-10,0
29205,1.7318743837913498e-10,9.903884853720992e-10,1.2208964990205363e-8,6.055513625693274e-10,2.0836674364234386e-10,7.88024764611493e-10,1.739624506615215e-10,2.0095210874516358e-10,0
29206,1.7320107841602795e-10,9.8928706252675e-10,1.2185240370389723e-8,6.055393084654016e-10,2.0836674364234386e-10,7.859874082391307e-10,1.7378764842052222e-10,2.0061958471055215e-10,0
29207,1.732147184529209e-10,9.88185639681401e-10,1.2161515750574083e-8,6.055272543614758e-10,2.0836674364234386e-10,7.839500518667685e-10,1.7361284617952291e-10,2.002870606759407e-10,0
29208,1.7322835848981386e-10,9.870842168360518e-10,1.2137791130758444e-8,6.055152002575499e-10,2.0836674364234386e-10,7.819126954944062e-10,1.7343804393852363e-10,1.9995453664132926e-10,0
29209,1.732419985267068e-10,9.859827939907024e-10,1.2114066510942805e-8,6.055031461536241e-10,2.0836674364234386e-10,7.79875339122044e-10,1.7326324169752435e-10,1.996220126067178e-10,0
29210,1.7325563856359978e-10,9.848813711453533e-10,1.2090341891127165e-8,6.054910920496983e-10,2.0836674364234386e-10,7.778379827496817e-10,1.7308843945652507e-10,1.9928948857210637e-10,0
29211,1.7326927860049272e-10,9.837799483000041e-10,1.2066617271311525e-8,6.054790379457724e-10,2.0836674364234386e-10,7.758006263773195e-10,1.7291363721552579e-10,1.9895696453749494e-10,0
29212,1.732829186373857e-10,9.82678525454655e-10,1.2042892651495885e-8,6.054669838418465e-10,2.0836674364234386e-10,7.737632700049572e-10,1.727388349745265e-10,1.9862444050288348e-10,0
29213,1.7353911521443565e-10,9.815771026093058e-10,1.2017026566155566e-8,6.054669838418465e-10,2.0805782112773517e-10,7.726277420004971e-10,1.7159218010490412e-10,1.9845821142028795e-10,0
29214,1.7379531179148562e-10,9.804756797639565e-10,1.1991160480815246e-8,6.054669838418465e-10,2.077488986131265e-10,7.714922139960371e-10,1.7044552523528174e-10,1.9829198233769242e-10,0
29215,1.740515083685356e-10,9.793742569186073e-10,1.1965294395474926e-8,6.054669838418465e-10,2.0743997609851778e-10,7.70356685991577e-10,1.6929887036565936e-10,1.9812575325509686e-10,0
29216,1.7430770494558556e-10,9.782728340732582e-10,1.1939428310134606e-8,6.054669838418465e-10,2.071310535839091e-10,7.692211579871169e-10,1.68152215496037e-10,1.9795952417250132e-10,0
29217,1.7456390152263552e-10,9.77171411227909e-10,1.1913562224794287e-8,6.054669838418465e-10,2.0682213106930038e-10,7.680856299826568e-10,1.6700556062641462e-10,1.977932950899058e-10,0
29218,1.748200980996855e-10,9.760699883825599e-10,1.1887696139453967e-8,6.054669838418465e-10,2.065132085546917e-10,7.669501019781967e-10,1.6585890575679224e-10,1.9762706600731023e-10,0
29219,1.7507629467673546e-10,9.746568157044049e-10,1.1880923592592054e-8,6.059898451669052e-10,2.0708270036248655e-10,7.666740584381045e-10,1.6488705312816914e-10,1.9779336095932615e-10,0
29220,1.7533249125378542e-10,9.732436430262501e-10,1.1874151045730142e-8,6.065127064919638e-10,2.076521921702814e-10,7.663980148980124e-10,1.6391520049954606e-10,1.9795965591134205e-10,0
29221,1.7533249125378542e-10,9.690666148041929e-10,1.1727592239057043e-8,5.929740477038204e-10,2.0822168397807625e-10,7.672574993623802e-10,1.6376605186433764e-10,1.9829217994595348e-10,0
29222,1.7558868783083542e-10,9.67653442126038e-10,1.1623774214376582e-8,5.930102100155978e-10,2.0798350015405543e-10,7.68116983826748e-10,1.6394085410533692e-10,1.9613087252510964e-10,0
29223,1.7584488440788538e-10,9.662402694478831e-10,1.1519956189696121e-8,5.930463723273753e-10,2.077453163300346e-10,7.689764682911159e-10,1.6411565634633623e-10,1.939695651042658e-10,0
29224,1.7610108098493535e-10,9.648270967697284e-10,1.141613816501566e-8,5.930825346391528e-10,2.0750713250601377e-10,7.698359527554837e-10,1.642904585873355e-10,1.91808257683422e-10,0
29225,1.7634363752509235e-10,9.631230041962368e-10,1.1295007467773151e-8,5.930825346391528e-10,2.066994568741981e-10,7.701543401991103e-10,1.6513881618654107e-10,1.893144262279667e-10,0
29226,1.7658619406524937e-10,9.614189116227454e-10,1.1173876770530644e-8,5.930825346391528e-10,2.0589178124238241e-10,7.704727276427369e-10,1.6598717378574662e-10,1.8682059477251145e-10,0
29227,1.7682875060540637e-10,9.59714819049254e-10,1.1052746073288134e-8,5.930825346391528e-10,2.0508410561056674e-10,7.707911150863634e-10,1.6683553138495218e-10,1.8432676331705618e-10,0
29228,1.770713071455634e-10,9.580107264757627e-10,1.0931615376045627e-8,5.930825346391528e-10,2.0427642997875106e-10,7.7110950252999e-10,1.676838889841577e-10,1.818329318616009e-10,0
29229,1.7731386368572042e-10,9.563066339022713e-10,1.0810484678803117e-8,5.930825346391528e-10,2.0346875434693538e-10,7.714278899736165e-10,1.6853224658336326e-10,1.7933910040614562e-10,0
29230,1.7755642022587742e-10,9.5460254132878e-10,1.068935398156061e-8,5.930825346391528e-10,2.026610787151197e-10,7.71746277417243e-10,1.6938060418256882e-10,1.7684526895069036e-10,0
29231,1.7779897676603444e-10,9.528984487552884e-10,1.05682232843181e-8,5.930825346391528e-10,2.0185340308330403e-10,7.720646648608696e-10,1.7022896178177437e-10,1.743514374952351e-10,0
29232,1.7779897676603444e-10,9.528984487552884e-10,1.0446381070663746e-8,5.975351503822382e-10,2.0161521925928319e-10,7.729241493252375e-10,1.7055291265798208e-10,1.7202383512237536e-10,0
29233,1.780551733430844e-10,9.517970259099393e-10,1.0324538857009389e-8,5.975713126940157e-10,2.0049862111285882e-10,7.740596773296975e-10,1.7072771489898136e-10,1.6986252770153153e-10,0
29234,1.7831136992013437e-10,9.5069560306459e-10,1.0202696643355034e-8,5.976074750057931e-10,1.9938202296643443e-10,7.751952053341576e-10,1.7090251713998065e-10,1.677012202806877e-10,0
29235,1.7832500995702734e-10,9.479940042566847e-10,1.0203551846307077e-8,5.976436373175706e-10,1.9919219236383615e-10,7.761503676650372e-10,1.7022896178177437e-10,1.677012202806877e-10,0
29236,1.7833864999392028e-10,9.452924054487794e-10,1.0204407049259122e-8,5.976797996293482e-10,1.9900236176123787e-10,7.771055299959168e-10,1.6955540642356813e-10,1.677012202806877e-10,0
29237,1.7833864999392028e-10,9.447105656581062e-10,1.0176621944493556e-8,5.976797996293482e-10,1.986934392466292e-10,7.771055299959168e-10,1.694062577883597e-10,1.6803374431529913e-10,0
29238,1.7833864999392028e-10,9.441287258674332e-10,1.0148836839727989e-8,5.976797996293482e-10,1.9838451673202048e-10,7.771055299959168e-10,1.692571091531513e-10,1.6836626834991058e-10,0
29239,1.7833864999392028e-10,9.435468860767602e-10,1.0121051734962423e-8,5.976797996293482e-10,1.980755942174118e-10,7.771055299959168e-10,1.6910796051794287e-10,1.6869879238452201e-10,0
29240,1.7833864999392028e-10,9.42965046286087e-10,1.0093266630196857e-8,5.976797996293482e-10,1.9776667170280308e-10,7.771055299959168e-10,1.6895881188273447e-10,1.6903131641913347e-10,0
29241,1.7833864999392028e-10,9.42383206495414e-10,1.006548152543129e-8,5.976797996293482e-10,1.974577491881944e-10,7.771055299959168e-10,1.6880966324752605e-10,1.693638404537449e-10,0
29242,1.7833864999392028e-10,9.41801366704741e-10,1.0037696420665724e-8,5.976797996293482e-10,1.9714882667358568e-10,7.771055299959168e-10,1.6866051461231765e-10,1.6969636448835633e-10,0
29243,1.7833864999392028e-10,9.412195269140679e-10,1.0009911315900157e-8,5.976797996293482e-10,1.96839904158977e-10,7.771055299959168e-10,1.6851136597710925e-10,1.700288885229678e-10,0
29244,1.7833864999392028e-10,9.406376871233949e-10,9.98212621113459e-9,5.976797996293482e-10,1.965309816443683e-10,7.771055299959168e-10,1.6836221734190082e-10,1.7036141255757922e-10,0
29245,1.7833864999392028e-10,9.400558473327219e-10,9.954341106369025e-9,5.976797996293482e-10,1.962220591297596e-10,7.771055299959168e-10,1.6821306870669242e-10,1.7069393659219068e-10,0
29246,1.7833864999392028e-10,9.394740075420487e-10,9.926556001603457e-9,5.976797996293482e-10,1.959131366151509e-10,7.771055299959168e-10,1.68063920071484e-10,1.710264606268021e-10,0
29247,1.7833864999392028e-10,9.388921677513757e-10,9.898770896837892e-9,5.976797996293482e-10,1.956042141005422e-10,7.771055299959168e-10,1.679147714362756e-10,1.7135898466141354e-10,0
29248,1.7833864999392028e-10,9.383103279607027e-10,9.870985792072326e-9,5.976797996293482e-10,1.952952915859335e-10,7.771055299959168e-10,1.677656228010672e-10,1.71691508696025e-10,0
29249,1.7833864999392028e-10,9.377284881700295e-10,9.843200687306758e-9,5.976797996293482e-10,1.9498636907132482e-10,7.771055299959168e-10,1.6761647416585877e-10,1.7202403273063643e-10,0
29250,1.7833864999392028e-10,9.371466483793565e-10,9.815415582541192e-9,5.976797996293482e-10,1.946774465567161e-10,7.771055299959168e-10,1.6746732553065037e-10,1.7235655676524788e-10,0
29251,1.7833864999392028e-10,9.365648085886835e-10,9.787630477775627e-9,5.976797996293482e-10,1.9436852404210742e-10,7.771055299959168e-10,1.6731817689544194e-10,1.7268908079985931e-10,0
29252,1.7833864999392028e-10,9.359829687980103e-10,9.75984537301006e-9,5.976797996293482e-10,1.940596015274987e-10,7.771055299959168e-10,1.6716902826023354e-10,1.7302160483447077e-10,0
29253,1.7833864999392028e-10,9.354011290073373e-10,9.732060268244493e-9,5.976797996293482e-10,1.9375067901289002e-10,7.771055299959168e-10,1.6701987962502514e-10,1.733541288690822e-10,0
29254,1.7833864999392028e-10,9.348192892166643e-10,9.704275163478926e-9,5.976797996293482e-10,1.934417564982813e-10,7.771055299959168e-10,1.668707309898167e-10,1.7368665290369363e-10,0
29255,1.7833864999392028e-10,9.33634779697849e-10,9.694514247687254e-9,5.976436373175706e-10,1.934417564982813e-10,7.761503676650372e-10,1.6739513771281458e-10,1.740191769383051e-10,0
29256,1.7832500995702734e-10,9.369182182964274e-10,9.735767069875237e-9,6.02168577684211e-10,1.94249432130097e-10,7.751952053341576e-10,1.6739513771281458e-10,1.7518297812473494e-10,0
29257,1.7831136992013437e-10,9.402016568950058e-10,9.77701989206322e-9,6.066935180508513e-10,1.950571077619127e-10,7.742400430032779e-10,1.6739513771281458e-10,1.7634677931116482e-10,0
29258,1.7754278018898447e-10,9.420927527528985e-10,9.847269471803652e-9,6.087005846236051e-10,1.9375067901289002e-10,7.742400430032779e-10,1.6739513771281458e-10,1.7751058049759467e-10,0
29259,1.775291401520915e-10,9.45376191351477e-10,9.91310073350149e-9,6.137483863153041e-10,1.9486727715931438e-10,7.678409402866559e-10,1.6525097660877822e-10,1.7751058049759467e-10,0
29260,1.7751550011519856e-10,9.486596299500554e-10,9.97893199519933e-9,6.187961880070031e-10,1.9598387530573877e-10,7.614418375700337e-10,1.6310681550474188e-10,1.7751058049759467e-10,0
29261,1.775018600783056e-10,9.519430685486338e-10,1.0044763256897169e-8,6.238439896987021e-10,1.9710047345216314e-10,7.550427348534116e-10,1.6096265440070555e-10,1.7751058049759467e-10,0
29262,1.7748822004141265e-10,9.552265071472122e-10,1.0110594518595007e-8,6.288917913904011e-10,1.9821707159858753e-10,7.486436321367896e-10,1.588184932966692e-10,1.7751058049759467e-10,0
29263,1.7747458000451968e-10,9.585099457457907e-10,1.0176425780292847e-8,6.339395930821001e-10,1.993336697450119e-10,7.422445294201674e-10,1.5667433219263287e-10,1.7751058049759467e-10,0
29264,1.7746093996762674e-10,9.617933843443691e-10,1.0242257041990685e-8,6.38987394773799e-10,2.0045026789143628e-10,7.358454267035454e-10,1.5453017108859653e-10,1.7751058049759467e-10,0
29265,1.7744729993073377e-10,9.650768229429476e-10,1.0308088303688524e-8,6.440351964654981e-10,2.0156686603786065e-10,7.294463239869232e-10,1.5238600998456017e-10,1.7751058049759467e-10,0
29266,1.7743365989384082e-10,9.68360261541526e-10,1.0373919565386364e-8,6.49082998157197e-10,2.0268346418428504e-10,7.230472212703011e-10,1.5024184888052383e-10,1.7751058049759467e-10,0
29267,1.7742001985694785e-10,9.716437001401044e-10,1.0439750827084202e-8,6.54130799848896e-10,2.038000623307094e-10,7.16648118553679e-10,1.480976877764875e-10,1.7751058049759467e-10,0
29268,1.774063798200549e-10,9.749271387386829e-10,1.0505582088782042e-8,6.59178601540595e-10,2.049166604771338e-10,7.102490158370569e-10,1.4595352667245116e-10,1.7751058049759467e-10,0
29269,1.7739273978316194e-10,9.782105773372611e-10,1.057141335047988e-8,6.642264032322939e-10,2.0603325862355818e-10,7.038499131204349e-10,1.4380936556841482e-10,1.7751058049759467e-10,0
29270,1.7665143012579795e-10,9.809744328811636e-10,1.0610310560590715e-8,6.687875059107119e-10,2.0696002616738427e-10,7.015788571115147e-10,1.4380936556841482e-10,1.7867438168402455e-10,0
29271,1.7591012046843397e-10,9.837382884250659e-10,1.0649207770701549e-8,6.733486085891297e-10,2.0788679371121035e-10,6.993078011025945e-10,1.4380936556841482e-10,1.798381828704544e-10,0
29272,1.7516881081106998e-10,9.865021439689682e-10,1.0688104980812384e-8,6.779097112675475e-10,2.0881356125503644e-10,6.970367450936744e-10,1.4380936556841482e-10,1.8100198405688428e-10,0
29273,1.7442750115370596e-10,9.892659995128704e-10,1.0727002190923218e-8,6.824708139459653e-10,2.0974032879886252e-10,6.947656890847542e-10,1.4380936556841482e-10,1.8216578524331414e-10,0
29274,1.7368619149634197e-10,9.920298550567727e-10,1.0765899401034053e-8,6.870319166243832e-10,2.1066709634268863e-10,6.924946330758341e-10,1.4380936556841482e-10,1.8332958642974401e-10,0
29275,1.7294488183897798e-10,9.94793710600675e-10,1.0804796611144887e-8,6.91593019302801e-10,2.1159386388651472e-10,6.90223577066914e-10,1.4380936556841482e-10,1.8449338761617387e-10,0
29276,1.72203572181614e-10,9.975575661445773e-10,1.0843693821255722e-8,6.961541219812188e-10,2.125206314303408e-10,6.879525210579938e-10,1.4380936556841482e-10,1.8565718880260375e-10,0
29277,1.7147590256114295e-10,9.970379830899011e-10,1.0818040499210042e-8,6.956794770718635e-10,2.1475382772318956e-10,6.879525210579938e-10,1.434854146922071e-10,1.8598971283721518e-10,0
29278,1.7345727499307792e-10,1.0027321006010484e-9,1.0861220640370237e-8,7.066038292347138e-10,2.1287790716637206e-10,6.795693959319869e-10,1.4146474861758832e-10,1.866546950370177e-10,0
29279,1.7341635488239906e-10,1.0126449062091912e-9,1.0904400781530432e-8,7.175281813975641e-10,2.1287790716637206e-10,6.795693959319869e-10,1.4128994637658904e-10,1.863221051329859e-10,0
29280,1.7337543477172018e-10,1.0225577118173338e-9,1.0947580922690627e-8,7.284525335604144e-10,2.1287790716637206e-10,6.795693959319869e-10,1.4111514413558975e-10,1.8598951522895411e-10,0
29281,1.7333451466104133e-10,1.0324705174254765e-9,1.0990761063850821e-8,7.393768857232647e-10,2.1287790716637206e-10,6.795693959319869e-10,1.4094034189459045e-10,1.856569253249223e-10,0
29282,1.7329359455036245e-10,1.0423833230336193e-9,1.1033941205011015e-8,7.50301237886115e-10,2.1287790716637206e-10,6.795693959319869e-10,1.4076553965359116e-10,1.853243354208905e-10,0
29283,1.732526744396836e-10,1.052296128641762e-9,1.107712134617121e-8,7.612255900489652e-10,2.1287790716637206e-10,6.795693959319869e-10,1.4059073741259188e-10,1.849917455168587e-10,0
29284,1.732117543290047e-10,1.0622089342499047e-9,1.1120301487331404e-8,7.721499422118155e-10,2.1287790716637206e-10,6.795693959319869e-10,1.404159351715926e-10,1.846591556128269e-10,0
29285,1.7317083421832586e-10,1.0721217398580474e-9,1.11634816284916e-8,7.830742943746658e-10,2.1287790716637206e-10,6.795693959319869e-10,1.4024113293059332e-10,1.843265657087951e-10,0
29286,1.7312991410764697e-10,1.0820345454661902e-9,1.1206661769651794e-8,7.939986465375161e-10,2.1287790716637206e-10,6.795693959319869e-10,1.4006633068959403e-10,1.839939758047633e-10,0
29287,1.7308899399696812e-10,1.0919473510743328e-9,1.1249841910811988e-8,8.049229987003664e-10,2.1287790716637206e-10,6.795693959319869e-10,1.3989152844859475e-10,1.836613859007315e-10,0
29288,1.7304807388628924e-10,1.1018601566824756e-9,1.1293022051972182e-8,8.158473508632167e-10,2.1287790716637206e-10,6.795693959319869e-10,1.3971672620759547e-10,1.8332879599669968e-10,0
29289,1.7300715377561038e-10,1.1117729622906183e-9,1.1336202193132377e-8,8.26771703026067e-10,2.1287790716637206e-10,6.795693959319869e-10,1.3954192396659616e-10,1.829962060926679e-10,0
29290,1.7296623366493153e-10,1.121685767898761e-9,1.1379382334292572e-8,8.376960551889173e-10,2.1287790716637206e-10,6.795693959319869e-10,1.3936712172559688e-10,1.826636161886361e-10,0
29291,1.7292531355425265e-10,1.1315985735069037e-9,1.1422562475452767e-8,8.486204073517676e-10,2.1287790716637206e-10,6.795693959319869e-10,1.391923194845976e-10,1.823310262846043e-10,0
29292,1.7167161074278872e-10,1.133718332524136e-9,1.147258285697149e-8,8.506033657166696e-10,2.1356649088617733e-10,6.793890302584065e-10,1.3901751724359832e-10,1.836610565536297e-10,0
29293,1.7041790793132478e-10,1.1358380915413684e-9,1.1522603238490212e-8,8.525863240815718e-10,2.142550746059826e-10,6.792086645848261e-10,1.3884271500259903e-10,1.849910868226551e-10,0
29294,1.6916420511986085e-10,1.136565507817915e-9,1.1557876556303021e-8,8.559932171745398e-10,2.1401689078196175e-10,6.788902771411995e-10,1.3866791276159975e-10,1.8715239424349893e-10,0
29295,1.6993279485101075e-10,1.1318688965411817e-9,1.1564716796661549e-8,8.579761755394419e-10,2.148953051043653e-10,6.788902771411995e-10,1.3849311052060047e-10,1.896462256989542e-10,0
29296,1.7070138458216065e-10,1.1271722852644483e-9,1.1571557037020078e-8,8.59959133904344e-10,2.1577371942676887e-10,6.788902771411995e-10,1.3831830827960116e-10,1.921400571544095e-10,0
29297,1.7146997431331056e-10,1.122475673987715e-9,1.1578397277378606e-8,8.619420922692461e-10,2.1665213374917242e-10,6.788902771411995e-10,1.3814350603860188e-10,1.9463388860986476e-10,0
29298,1.7223856404446048e-10,1.1177790627109817e-9,1.1585237517737133e-8,8.639250506341482e-10,2.1753054807157597e-10,6.788902771411995e-10,1.379687037976026e-10,1.9712772006532002e-10,0
29299,1.7300715377561038e-10,1.1130824514342485e-9,1.1592077758095663e-8,8.659080089990503e-10,2.1840896239397952e-10,6.788902771411995e-10,1.3779390155660331e-10,1.9962155152077529e-10,0
29300,1.7377574350676028e-10,1.108385840157515e-9,1.159891799845419e-8,8.678909673639524e-10,2.192873767163831e-10,6.788902771411995e-10,1.3761909931560403e-10,2.0211538297623058e-10,0
29301,1.7454433323791018e-10,1.1036892288807818e-9,1.160575823881272e-8,8.698739257288545e-10,2.2016579103878664e-10,6.788902771411995e-10,1.3744429707460475e-10,2.0460921443168584e-10,0
29302,1.753129229690601e-10,1.0989926176040484e-9,1.1612598479171247e-8,8.718568840937565e-10,2.2104420536119018e-10,6.788902771411995e-10,1.3726949483360547e-10,2.071030458871411e-10,0
29303,1.7608151270021e-10,1.0942960063273152e-9,1.1619438719529776e-8,8.738398424586587e-10,2.2192261968359373e-10,6.788902771411995e-10,1.3709469259260618e-10,2.0959687734259637e-10,0
29304,1.768501024313599e-10,1.089599395050582e-9,1.1626278959888304e-8,8.758228008235608e-10,2.2280103400599728e-10,6.788902771411995e-10,1.3691989035160688e-10,2.1209070879805166e-10,0
29305,1.7761869216250981e-10,1.0849027837738486e-9,1.1633119200246831e-8,8.778057591884628e-10,2.2367944832840085e-10,6.788902771411995e-10,1.367450881106076e-10,2.1458454025350693e-10,0
29306,1.7838728189365974e-10,1.0802061724971154e-9,1.163995944060536e-8,8.79788717553365e-10,2.245578626508044e-10,6.788902771411995e-10,1.365702858696083e-10,2.170783717089622e-10,0
29307,1.7915587162480964e-10,1.075509561220382e-9,1.1646799680963888e-8,8.817716759182671e-10,2.2543627697320794e-10,6.788902771411995e-10,1.3639548362860903e-10,2.1957220316441746e-10,0
29308,1.7992446135595954e-10,1.0708129499436488e-9,1.1653639921322417e-8,8.837546342831692e-10,2.263146912956115e-10,6.788902771411995e-10,1.3622068138760975e-10,2.2206603461987275e-10,0
29309,1.8069305108710944e-10,1.0661163386669154e-9,1.1660480161680945e-8,8.857375926480713e-10,2.2719310561801507e-10,6.788902771411995e-10,1.3604587914661046e-10,2.2455986607532801e-10,0
29310,1.8146164081825937e-10,1.0614197273901822e-9,1.1667320402039474e-8,8.877205510129733e-10,2.280715199404186e-10,6.788902771411995e-10,1.3587107690561118e-10,2.2705369753078328e-10,0
29311,1.822165905125163e-10,1.0644330760308932e-9,1.1711998185809116e-8,8.9118771462557055e-10,2.2894993426282216e-10,6.780307926768316e-10,1.3587107690561118e-10,2.2954752898623857e-10,0
29312,1.8297154020677326e-10,1.0674464246716043e-9,1.1756675969578759e-8,8.946548782381678e-10,2.298283485852257e-10,6.771713082124637e-10,1.3587107690561118e-10,2.3204136044169384e-10,0
29313,1.8372648990103022e-10,1.0704597733123154e-9,1.1801353753348403e-8,8.98122041850765e-10,2.3070676290762925e-10,6.763118237480959e-10,1.3587107690561118e-10,2.345351918971491e-10,0
29314,1.8347029332398025e-10,1.0727457056764797e-9,1.1814890547525262e-8,8.981823123703941e-10,2.3070676290762925e-10,6.757707267273546e-10,1.3604587914661046e-10,2.3470142097974466e-10,0
29315,1.8321409674693028e-10,1.0750316380406443e-9,1.1828427341702121e-8,8.982425828900234e-10,2.3070676290762925e-10,6.752296297066133e-10,1.3622068138760975e-10,2.3486765006234017e-10,0
29316,1.8295790016988032e-10,1.0773175704048086e-9,1.1841964135878982e-8,8.983028534096525e-10,2.3070676290762925e-10,6.746885326858719e-10,1.3639548362860903e-10,2.3503387914493573e-10,0
29317,1.8270170359283035e-10,1.0796035027689732e-9,1.1855500930055841e-8,8.983631239292816e-10,2.3070676290762925e-10,6.741474356651306e-10,1.365702858696083e-10,2.352001082275313e-10,0
29318,1.8244550701578036e-10,1.0818894351331376e-9,1.18690377242327e-8,8.984233944489108e-10,2.3070676290762925e-10,6.736063386443894e-10,1.367450881106076e-10,2.353663373101268e-10,0
29319,1.821893104387304e-10,1.0841753674973021e-9,1.188257451840956e-8,8.9848366496854e-10,2.3070676290762925e-10,6.73065241623648e-10,1.3691989035160688e-10,2.3553256639272236e-10,0
29320,1.8193311386168042e-10,1.0864612998614665e-9,1.1896111312586418e-8,8.985439354881692e-10,2.3070676290762925e-10,6.725241446029067e-10,1.3709469259260616e-10,2.356987954753179e-10,0
29321,1.8167691728463045e-10,1.088747232225631e-9,1.190964810676328e-8,8.986042060077983e-10,2.3070676290762925e-10,6.719830475821654e-10,1.3726949483360547e-10,2.358650245579134e-10,0
29322,1.8066577101332353e-10,1.0914280010960673e-9,1.1871168123694759e-8,8.986644765274275e-10,2.2828373601218222e-10,6.557892481949841e-10,1.3629764220498237e-10,2.36031253640509e-10,0
29323,1.7965462474201663e-10,1.0941087699665035e-9,1.183268814062624e-8,8.987247470470567e-10,2.258607091167352e-10,6.395954488078027e-10,1.3532578957635927e-10,2.361974827231045e-10,0
29324,1.786434784707097e-10,1.0967895388369397e-9,1.1794208157557722e-8,8.987850175666858e-10,2.2343768222128816e-10,6.234016494206214e-10,1.343539369477362e-10,2.3636371180570005e-10,0
29325,1.7763233219940278e-10,1.099470307707376e-9,1.1755728174489203e-8,8.988452880863149e-10,2.210146553258411e-10,6.072078500334402e-10,1.333820843191131e-10,2.365299408882956e-10,0
29326,1.7662118592809586e-10,1.1021510765778122e-9,1.1717248191420684e-8,8.989055586059442e-10,2.1859162843039407e-10,5.910140506462588e-10,1.3241023169049e-10,2.366961699708911e-10,0
29327,1.7561003965678893e-10,1.1048318454482484e-9,1.1678768208352166e-8,8.989658291255733e-10,2.1616860153494704e-10,5.748202512590775e-10,1.3143837906186692e-10,2.368623990534867e-10,0
29328,1.74598893385482e-10,1.1075126143186846e-9,1.1640288225283647e-8,8.990260996452024e-10,2.1374557463949998e-10,5.586264518718961e-10,1.3046652643324382e-10,2.3702862813608224e-10,0
29329,1.7358774711417508e-10,1.1101933831891206e-9,1.1601808242215128e-8,8.990863701648317e-10,2.1132254774405295e-10,5.424326524847149e-10,1.2949467380462072e-10,2.3719485721867775e-10,0
29330,1.7358774711417508e-10,1.1110661428751302e-9,1.1620687634141067e-8,9.000959305031715e-10,2.1020594959762858e-10,5.416155119238814e-10,1.2949467380462072e-10,2.370285622666619e-10,0
29331,1.7358774711417508e-10,1.11193890256114e-9,1.1639567026067007e-8,9.011054908415112e-10,2.090893514512042e-10,5.407983713630479e-10,1.2949467380462072e-10,2.3686226731464595e-10,0
29332,1.7358774711417508e-10,1.1128116622471496e-9,1.1658446417992946e-8,9.02115051179851e-10,2.0797275330477983e-10,5.399812308022143e-10,1.2949467380462072e-10,2.366959723626301e-10,0
29333,1.7358774711417508e-10,1.1136844219331592e-9,1.1677325809918885e-8,9.031246115181908e-10,2.0685615515835544e-10,5.391640902413808e-10,1.2949467380462072e-10,2.3652967741061416e-10,0
29334,1.7358774711417508e-10,1.1145571816191688e-9,1.1696205201844825e-8,9.041341718565306e-10,2.0573955701193107e-10,5.383469496805473e-10,1.2949467380462072e-10,2.3636338245859824e-10,0
29335,1.7384394369122508e-10,1.1134557587738194e-9,1.1696632111691932e-8,9.036233646353978e-10,2.0481278946810496e-10,5.372114216760872e-10,1.2949467380462072e-10,2.3636338245859824e-10,0
29336,1.7485508996253198e-10,1.114328518459829e-9,1.1698198831055825e-8,9.046329249737376e-10,2.0400511383628928e-10,5.362562593452075e-10,1.2931987156362144e-10,2.360308584239868e-10,0
29337,1.758662362338389e-10,1.1152012781458386e-9,1.1699765550419716e-8,9.056424853120774e-10,2.031974382044736e-10,5.353010970143279e-10,1.2914506932262216e-10,2.356983343893754e-10,0
29338,1.7687738250514582e-10,1.1160740378318482e-9,1.1701332269783608e-8,9.066520456504172e-10,2.0238976257265793e-10,5.343459346834483e-10,1.2897026708162287e-10,2.3536581035476394e-10,0
29339,1.7788852877645275e-10,1.1169467975178578e-9,1.17028989891475e-8,9.07661605988757e-10,2.0158208694084225e-10,5.333907723525686e-10,1.287954648406236e-10,2.350332863201525e-10,0
29340,1.7889967504775967e-10,1.1178195572038674e-9,1.1704465708511392e-8,9.086711663270968e-10,2.0077441130902658e-10,5.32435610021689e-10,1.286206625996243e-10,2.3470076228554103e-10,0
29341,1.799108213190666e-10,1.118692316889877e-9,1.1706032427875285e-8,9.096807266654366e-10,1.999667356772109e-10,5.314804476908094e-10,1.2844586035862503e-10,2.343682382509296e-10,0
29342,1.809219675903735e-10,1.1195650765758866e-9,1.1707599147239176e-8,9.106902870037764e-10,1.9915906004539522e-10,5.305252853599298e-10,1.2827105811762572e-10,2.3403571421631817e-10,0
29343,1.8193311386168042e-10,1.1204378362618964e-9,1.1709165866603068e-8,9.116998473421162e-10,1.9835138441357954e-10,5.295701230290502e-10,1.2809625587662644e-10,2.3370319018170674e-10,0
29344,1.8196039393546633e-10,1.121310595947906e-9,1.1707527303969077e-8,9.116998473421162e-10,1.9866030692818823e-10,5.295701230290502e-10,1.2724789827742088e-10,2.3370319018170674e-10,0
29345,1.8297154020677326e-10,1.1235965283120703e-9,1.1705888741335087e-8,9.132202149015888e-10,1.9896922944279692e-10,5.211869979030432e-10,1.2724789827742088e-10,2.333706661470953e-10,0
29346,1.8398268647808018e-10,1.1258824606762349e-9,1.1704250178701097e-8,9.147405824610615e-10,1.9927815195740563e-10,5.128038727770363e-10,1.2724789827742088e-10,2.330381421124838e-10,0
29347,1.849938327493871e-10,1.1281683930403992e-9,1.1702611616067106e-8,9.16260950020534e-10,1.9958707447201432e-10,5.044207476510293e-10,1.2724789827742088e-10,2.327056180778724e-10,0
29348,1.8600497902069403e-10,1.1304543254045638e-9,1.1700973053433116e-8,9.177813175800066e-10,1.9989599698662303e-10,4.960376225250224e-10,1.2724789827742088e-10,2.3237309404326096e-10,0
29349,1.8600497902069403e-10,1.1334676740452746e-9,1.1699334490799125e-8,9.192414146198501e-10,2.0077441130902658e-10,4.877925191690616e-10,1.2724789827742088e-10,2.3237309404326096e-10,0
29350,1.86261175597744e-10,1.1331767541499383e-9,1.180799636011146e-8,9.241686752722907e-10,2.0189100945545094e-10,4.795474158131008e-10,1.2809625587662644e-10,2.3237309404326096e-10,0
29351,1.8651737217479397e-10,1.1328858342546017e-9,1.1916658229423792e-8,9.290959359247314e-10,2.0300760760187533e-10,4.713023124571399e-10,1.28944613475832e-10,2.3237309404326096e-10,0
29352,1.8677356875184393e-10,1.132594914359265e-9,1.2025320098736127e-8,9.340231965771722e-10,2.041242057482997e-10,4.630572091011791e-10,1.2979297107503755e-10,2.3237309404326096e-10,0
29353,1.870297653288939e-10,1.1323039944639287e-9,1.213398196804846e-8,9.389504572296128e-10,2.0524080389472408e-10,4.5481210574521826e-10,1.306413286742431e-10,2.3237309404326096e-10,0
29354,1.8728596190594387e-10,1.132013074568592e-9,1.2242643837360795e-8,9.438777178820535e-10,2.0635740204114845e-10,4.4656700238925745e-10,1.3148968627344866e-10,2.3237309404326096e-10,0
29355,1.8754215848299383e-10,1.1317221546732555e-9,1.2351305706673128e-8,9.488049785344942e-10,2.0747400018757284e-10,4.383218990332966e-10,1.3233804387265421e-10,2.3237309404326096e-10,0
29356,1.877983550600438e-10,1.131431234777919e-9,1.2459967575985463e-8,9.537322391869348e-10,2.085905983339972e-10,4.300767956773358e-10,1.3318640147185977e-10,2.3237309404326096e-10,0
29357,1.8805455163709377e-10,1.1311403148825825e-9,1.2568629445297796e-8,9.586594998393753e-10,2.097071964804216e-10,4.2183169232137497e-10,1.3403475907106532e-10,2.3237309404326096e-10,0
29358,1.8831074821414373e-10,1.1308493949872459e-9,1.267729131461013e-8,9.63586760491816e-10,2.1082379462684595e-10,4.135865889654141e-10,1.3488311667027088e-10,2.3237309404326096e-10,0
29359,1.885669447911937e-10,1.1305584750919095e-9,1.2785953183922464e-8,9.685140211442566e-10,2.1194039277327034e-10,4.053414856094533e-10,1.3573147426947644e-10,2.3237309404326096e-10,0
29360,1.888231413682437e-10,1.1302675551965729e-9,1.2894615053234799e-8,9.734412817966973e-10,2.1305699091969473e-10,3.9709638225349244e-10,1.36579831868682e-10,2.3237309404326096e-10,0
29361,1.8907933794529366e-10,1.1299766353012363e-9,1.3003276922547132e-8,9.78368542449138e-10,2.141735890661191e-10,3.8885127889753163e-10,1.3742818946788755e-10,2.3237309404326096e-10,0
29362,1.8933553452234363e-10,1.1296857154059e-9,1.3111938791859466e-8,9.832958031015787e-10,2.152901872125435e-10,3.806061755415708e-10,1.382765470670931e-10,2.3237309404326096e-10,0
29363,1.895917310993936e-10,1.1293947955105633e-9,1.32206006611718e-8,9.882230637540193e-10,2.1640678535896785e-10,3.7236107218560996e-10,1.3912490466629866e-10,2.3237309404326096e-10,0
29364,1.8984792767644356e-10,1.1291038756152267e-9,1.3329262530484134e-8,9.9315032440646e-10,2.1752338350539224e-10,3.6411596882964916e-10,1.399732622655042e-10,2.3237309404326096e-10,0
29365,1.9010412425349353e-10,1.1288129557198903e-9,1.3437924399796467e-8,9.980775850589007e-10,2.186399816518166e-10,3.5587086547368835e-10,1.4082161986470977e-10,2.3237309404326096e-10,0
29366,1.903603208305435e-10,1.1285220358245537e-9,1.3546586269108802e-8,1.0030048457113413e-9,2.19756579798241e-10,3.476257621177275e-10,1.4166997746391532e-10,2.3237309404326096e-10,0
29367,1.9061651740759346e-10,1.1282311159292171e-9,1.3655248138421135e-8,1.007932106363782e-9,2.2087317794466536e-10,3.393806587617667e-10,1.4251833506312088e-10,2.3237309404326096e-10,0
29368,1.9063015744448643e-10,1.1265270233557257e-9,1.376391000773347e-8,1.0078236194284496e-9,2.2168085357648104e-10,3.385635182009331e-10,1.4304274178611872e-10,2.3253938899527686e-10,0
29369,1.9064379748137937e-10,1.1248229307822344e-9,1.3872571877045803e-8,1.0077151324931171e-9,2.2248852920829671e-10,3.377463776400996e-10,1.4356714850911657e-10,2.3270568394729276e-10,0
29370,1.9065743751827234e-10,1.123118838208743e-9,1.3981233746358136e-8,1.0076066455577845e-9,2.232962048401124e-10,3.3692923707926607e-10,1.4409155523211444e-10,2.328719788993087e-10,0
29371,1.9065743751827234e-10,1.1225992551540669e-9,1.4025050794144426e-8,1.0030817051911441e-9,2.2317711292810198e-10,3.3692923707926607e-10,1.4491425922552912e-10,2.328719788993087e-10,0
29372,1.9065743751827234e-10,1.1220796720993907e-9,1.4068867841930714e-8,9.985567648245038e-10,2.2305802101609158e-10,3.3692923707926607e-10,1.457369632189438e-10,2.328719788993087e-10,0
29373,1.9065743751827234e-10,1.1215600890447145e-9,1.4112684889717003e-8,9.940318244578634e-10,2.2293892910408117e-10,3.3692923707926607e-10,1.465596672123585e-10,2.328719788993087e-10,0
29374,1.9065743751827234e-10,1.1210405059900384e-9,1.4156501937503291e-8,9.89506884091223e-10,2.2281983719207076e-10,3.3692923707926607e-10,1.4738237120577316e-10,2.328719788993087e-10,0
29375,1.9065743751827234e-10,1.1205209229353624e-9,1.420031898528958e-8,9.849819437245827e-10,2.2270074528006035e-10,3.3692923707926607e-10,1.4820507519918784e-10,2.328719788993087e-10,0
29376,1.9065743751827234e-10,1.1200013398806863e-9,1.4244136033075868e-8,9.804570033579426e-10,2.2258165336804994e-10,3.3692923707926607e-10,1.490277791926025e-10,2.328719788993087e-10,0
29377,1.9065743751827234e-10,1.11948175682601e-9,1.4287953080862156e-8,9.759320629913023e-10,2.224625614560395e-10,3.3692923707926607e-10,1.498504831860172e-10,2.328719788993087e-10,0
29378,1.9065743751827234e-10,1.118962173771334e-9,1.4331770128648444e-8,9.71407122624662e-10,2.223434695440291e-10,3.3692923707926607e-10,1.5067318717943188e-10,2.328719788993087e-10,0
29379,1.9065743751827234e-10,1.1184425907166578e-9,1.4375587176434733e-8,9.668821822580216e-10,2.222243776320187e-10,3.3692923707926607e-10,1.5149589117284656e-10,2.328719788993087e-10,0
29380,1.9065743751827234e-10,1.1184425907166578e-9,1.4304623313766799e-8,9.66918344569799e-10,2.222243776320187e-10,3.377463776400996e-10,1.5246774380146966e-10,2.328719788993087e-10,0
29381,1.9065743751827234e-10,1.1184425907166578e-9,1.4233659451098865e-8,9.669545068815765e-10,2.222243776320187e-10,3.385635182009331e-10,1.5343959643009273e-10,2.328719788993087e-10,0
29382,1.9065743751827234e-10,1.1184425907166578e-9,1.4162695588430933e-8,9.66990669193354e-10,2.222243776320187e-10,3.393806587617667e-10,1.5441144905871583e-10,2.328719788993087e-10,0
29383,1.9065743751827234e-10,1.1184425907166578e-9,1.4091731725762999e-8,9.670268315051315e-10,2.222243776320187e-10,3.401977993226002e-10,1.5538330168733893e-10,2.328719788993087e-10,0
29384,1.9065743751827234e-10,1.1184425907166578e-9,1.4020767863095065e-8,9.67062993816909e-10,2.222243776320187e-10,3.4101493988343374e-10,1.56355154315962e-10,2.328719788993087e-10,0
29385,1.9065743751827234e-10,1.1184425907166578e-9,1.394980400042713e-8,9.670991561286865e-10,2.222243776320187e-10,3.4183208044426724e-10,1.573270069445851e-10,2.328719788993087e-10,0
29386,1.9065743751827234e-10,1.1184425907166578e-9,1.3878840137759199e-8,9.67135318440464e-10,2.222243776320187e-10,3.426492210051008e-10,1.582988595732082e-10,2.328719788993087e-10,0
29387,1.9065743751827234e-10,1.1184425907166578e-9,1.3807876275091265e-8,9.671714807522414e-10,2.222243776320187e-10,3.434663615659343e-10,1.5927071220183127e-10,2.328719788993087e-10,0
29388,1.9064379748137937e-10,1.1064933458411594e-9,1.3725797540562408e-8,9.661619204139017e-10,2.2210528572000828e-10,3.421504678878938e-10,1.6041736707145366e-10,2.3220699669950613e-10,0
29389,1.9063015744448643e-10,1.0945441009656609e-9,1.364371880603355e-8,9.651523600755618e-10,2.2198619380799787e-10,3.4083457420985326e-10,1.6156402194107604e-10,2.315420144997036e-10,0
29390,1.9061651740759346e-10,1.0825948560901625e-9,1.3561640071504695e-8,9.64142799737222e-10,2.2186710189598747e-10,3.3951868053181276e-10,1.6271067681069842e-10,2.3087703229990108e-10,0
29391,1.9060287737070052e-10,1.0706456112146642e-9,1.3479561336975838e-8,9.631332393988822e-10,2.2174800998397703e-10,3.3820278685377227e-10,1.6385733168032078e-10,2.3021205010009855e-10,0
29392,1.9058923733380755e-10,1.0586963663391656e-9,1.3397482602446981e-8,9.621236790605425e-10,2.2162891807196662e-10,3.368868931757318e-10,1.6500398654994316e-10,2.2954706790029606e-10,0
29393,1.905755972969146e-10,1.0467471214636673e-9,1.3315403867918124e-8,9.611141187222028e-10,2.2150982615995621e-10,3.3557099949769123e-10,1.6615064141956554e-10,2.2888208570049353e-10,0
29394,1.9056195726002164e-10,1.0342160367974957e-9,1.318950808560298e-8,9.600683960720854e-10,2.213907342479458e-10,3.334379652588172e-10,1.6632544366056482e-10,2.2805087441809545e-10,0
29395,1.905483172231287e-10,1.0216849521313242e-9,1.3063612303287835e-8,9.59022673421968e-10,2.212716423359354e-10,3.313049310199432e-10,1.665002459015641e-10,2.272196631356974e-10,0
29396,1.9053467718623573e-10,1.0091538674651528e-9,1.293771652097269e-8,9.579769507718508e-10,2.21152550423925e-10,3.2917189678106914e-10,1.6667504814256339e-10,2.2638845185329933e-10,0
29397,1.9052103714934278e-10,9.966227827989813e-10,1.2811820738657545e-8,9.569312281217334e-10,2.2103345851191458e-10,3.270388625421951e-10,1.6684985038356267e-10,2.2555724057090127e-10,0
29398,1.9050739711244981e-10,9.840916981328097e-10,1.2685924956342401e-8,9.558855054716162e-10,2.2091436659990415e-10,3.2490582830332104e-10,1.6702465262456198e-10,2.2472602928850319e-10,0
29399,1.9049375707555687e-10,9.715606134666382e-10,1.2560029174027256e-8,9.548397828214988e-10,2.2079527468789374e-10,3.2277279406444705e-10,1.6719945486556126e-10,2.2389481800610513e-10,0
29400,1.904801170386639e-10,9.590295288004668e-10,1.243413339171211e-8,9.537940601713817e-10,2.2067618277588333e-10,3.20639759825573e-10,1.6737425710656054e-10,2.2306360672370707e-10,0
29401,1.9046647700177096e-10,9.464984441342953e-10,1.2308237609396965e-8,9.527483375212643e-10,2.2055709086387292e-10,3.1850672558669895e-10,1.6754905934755982e-10,2.22232395441309e-10,0
29402,1.9070903354192796e-10,9.464984441342953e-10,1.2307381023187093e-8,9.532229824306195e-10,2.1963032332004684e-10,3.188251130303255e-10,1.6657720671893672e-10,2.2189987140669755e-10,0
29403,1.9070903354192796e-10,9.416979162466268e-10,1.2299472816581881e-8,9.532229824306195e-10,2.1894173960024157e-10,3.154295190763884e-10,1.6473134288531721e-10,2.2173364232410202e-10,0
29404,1.9070903354192796e-10,9.368973883589581e-10,1.2291564609976667e-8,9.532229824306195e-10,2.182531558804363e-10,3.120339251224513e-10,1.628854790516977e-10,2.2156741324150649e-10,0
29405,1.9070903354192796e-10,9.320968604712897e-10,1.2283656403371453e-8,9.532229824306195e-10,2.1756457216063103e-10,3.086383311685142e-10,1.6103961521807817e-10,2.2140118415891095e-10,0
29406,1.9070903354192796e-10,9.272963325836212e-10,1.2275748196766241e-8,9.532229824306195e-10,2.1687598844082576e-10,3.0524273721457706e-10,1.5919375138445866e-10,2.212349550763154e-10,0
29407,1.9046647700177096e-10,9.263610830852041e-10,1.226548991111519e-8,9.542084345611078e-10,2.1711417226484658e-10,3.015287558170134e-10,1.5749703618604754e-10,2.214012500283313e-10,0
29408,1.9022392046161394e-10,9.320552005963514e-10,1.2254376422512094e-8,9.537217355478267e-10,2.164255885450413e-10,2.9781477441944975e-10,1.5547637011142875e-10,2.214012500283313e-10,0
29409,1.8998136392145694e-10,9.377493181074987e-10,1.2243262933908999e-8,9.532350365345454e-10,2.1573700482523604e-10,2.941007930218861e-10,1.5345570403680993e-10,2.214012500283313e-10,0
29410,1.8973880738129991e-10,9.43443435618646e-10,1.2232149445305903e-8,9.527483375212643e-10,2.1504842110543077e-10,2.9038681162432244e-10,1.5143503796219114e-10,2.214012500283313e-10,0
29411,1.894962508411429e-10,9.49137553129793e-10,1.2221035956702808e-8,9.522616385079831e-10,2.143598373856255e-10,2.866728302267588e-10,1.4941437188757232e-10,2.214012500283313e-10,0
29412,1.892536943009859e-10,9.548316706409404e-10,1.2209922468099712e-8,9.51774939494702e-10,2.1367125366582026e-10,2.8295884882919514e-10,1.4739370581295353e-10,2.214012500283313e-10,0
29413,1.8901113776082887e-10,9.605257881520877e-10,1.2198808979496616e-8,9.51288240481421e-10,2.12982669946015e-10,2.792448674316315e-10,1.453730397383347e-10,2.214012500283313e-10,0
29414,1.8876858122067187e-10,9.66219905663235e-10,1.2187695490893521e-8,9.508015414681398e-10,2.1229408622620972e-10,2.7553088603406783e-10,1.4335237366371591e-10,2.214012500283313e-10,0
29415,1.8852602468051485e-10,9.719140231743822e-10,1.2176582002290425e-8,9.503148424548585e-10,2.1160550250640445e-10,2.718169046365042e-10,1.4133170758909712e-10,2.214012500283313e-10,0
29416,1.8828346814035782e-10,9.776081406855295e-10,1.216546851368733e-8,9.498281434415774e-10,2.1091691878659918e-10,2.6810292323894053e-10,1.393110415144783e-10,2.214012500283313e-10,0
29417,1.8804091160020082e-10,9.833022581966766e-10,1.2154355025084234e-8,9.493414444282963e-10,2.102283350667939e-10,2.6438894184137687e-10,1.372903754398595e-10,2.214012500283313e-10,0
29418,1.877983550600438e-10,9.88996375707824e-10,1.2143241536481139e-8,9.488547454150152e-10,2.0953975134698864e-10,2.606749604438132e-10,1.352697093652407e-10,2.214012500283313e-10,0
29419,1.875557985198868e-10,9.946904932189712e-10,1.2132128047878043e-8,9.48368046401734e-10,2.0885116762718337e-10,2.5696097904624957e-10,1.332490432906219e-10,2.214012500283313e-10,0
29420,1.8731324197972978e-10,1.0003846107301185e-9,1.2121014559274947e-8,9.478813473884527e-10,2.081625839073781e-10,2.532469976486859e-10,1.3122837721600308e-10,2.214012500283313e-10,0
29421,1.8707068543957275e-10,1.0060787282412658e-9,1.2109901070671852e-8,9.473946483751716e-10,2.0747400018757284e-10,2.4953301625112226e-10,1.2920771114138428e-10,2.214012500283313e-10,0
29422,1.8682812889941576e-10,1.0117728457524129e-9,1.2098787582068756e-8,9.469079493618905e-10,2.0678541646776757e-10,2.458190348535586e-10,1.2718704506676547e-10,2.214012500283313e-10,0
29423,1.8658557235925873e-10,1.0174669632635602e-9,1.2087674093465661e-8,9.464212503486094e-10,2.060968327479623e-10,2.4210505345599496e-10,1.2516637899214667e-10,2.214012500283313e-10,0
29424,1.8634301581910174e-10,1.0231610807747074e-9,1.2076560604862565e-8,9.459345513353283e-10,2.0540824902815703e-10,2.383910720584313e-10,1.2314571291752785e-10,2.214012500283313e-10,0
29425,1.861004592789447e-10,1.0288551982858547e-9,1.206544711625947e-8,9.454478523220472e-10,2.0471966530835176e-10,2.3467709066086765e-10,1.2112504684290906e-10,2.214012500283313e-10,0
29426,1.861004592789447e-10,1.034549315797002e-9,1.2008087741265012e-8,9.350463614842554e-10,2.040310815885465e-10,2.344967249872872e-10,1.2112504684290906e-10,2.214012500283313e-10,0
29427,1.861004592789447e-10,1.0402434333081493e-9,1.1950728366270554e-8,9.246448706464638e-10,2.0334249786874122e-10,2.343163593137068e-10,1.2112504684290906e-10,2.214012500283313e-10,0
29428,1.8635665585599468e-10,1.0374170879518396e-9,1.1902632537208388e-8,9.14255433912598e-10,2.0669229230801437e-10,2.3413599364012637e-10,1.2144899771911677e-10,2.2372885240119102e-10,0
29429,1.8661285243304465e-10,1.0345907425955298e-9,1.1854536708146222e-8,9.038659971787322e-10,2.1004208674728748e-10,2.339556279665459e-10,1.2177294859532445e-10,2.2605645477405075e-10,0
29430,1.868690490100946e-10,1.03176439723922e-9,1.1806440879084057e-8,8.934765604448664e-10,2.1339188118656063e-10,2.3377526229296546e-10,1.2209689947153216e-10,2.2838405714691048e-10,0
29431,1.8712524558714458e-10,1.0289380518829104e-9,1.175834505002189e-8,8.830871237110005e-10,2.1674167562583375e-10,2.3359489661938504e-10,1.2242085034773984e-10,2.3071165951977021e-10,0
29432,1.8738144216419455e-10,1.0261117065266006e-9,1.1710249220959725e-8,8.726976869771348e-10,2.200914700651069e-10,2.334145309458046e-10,1.2274480122394755e-10,2.3303926189262994e-10,0
29433,1.8763763874124454e-10,1.0232853611702909e-9,1.1662153391897559e-8,8.62308250243269e-10,2.2344126450438e-10,2.3323416527222413e-10,1.2306875210015523e-10,2.353668642654897e-10,0
29434,1.878938353182945e-10,1.0204590158139812e-9,1.1614057562835393e-8,8.519188135094032e-10,2.2679105894365315e-10,2.330537995986437e-10,1.2339270297636294e-10,2.376944666383494e-10,0
29435,1.8815003189534447e-10,1.0176326704576714e-9,1.1565961733773227e-8,8.415293767755374e-10,2.301408533829263e-10,2.328734339250633e-10,1.2371665385257062e-10,2.4002206901120916e-10,0
29436,1.8840622847239444e-10,1.0148063251013617e-9,1.1517865904711061e-8,8.311399400416715e-10,2.3349064782219944e-10,2.3269306825148282e-10,1.2404060472877833e-10,2.4234967138406887e-10,0
29437,1.886624250494444e-10,1.011979979745052e-9,1.1469770075648895e-8,8.207505033078058e-10,2.3684044226147253e-10,2.325127025779024e-10,1.2436455560498604e-10,2.4467727375692863e-10,0
29438,1.8867606508633735e-10,1.0091536343887422e-9,1.1453381682793336e-8,8.207505033078058e-10,2.3995205287672486e-10,2.3219431513427586e-10,1.2436455560498604e-10,2.4633989392998583e-10,0
29439,1.8868970512323032e-10,1.0063272890324325e-9,1.1436993289937776e-8,8.207505033078058e-10,2.430636634919772e-10,2.318759276906493e-10,1.2436455560498604e-10,2.4800251410304304e-10,0
29440,1.8870334516012326e-10,1.0035009436761227e-9,1.1420604897082216e-8,8.207505033078058e-10,2.4617527410722946e-10,2.3155754024702276e-10,1.2436455560498604e-10,2.4966513427610025e-10,0
29441,1.8871698519701623e-10,1.000674598319813e-9,1.1404216504226657e-8,8.207505033078058e-10,2.492868847224818e-10,2.3123915280339622e-10,1.2436455560498604e-10,2.5132775444915745e-10,0
29442,1.8873062523390917e-10,9.978482529635033e-10,1.1387828111371097e-8,8.207505033078058e-10,2.5239849533773406e-10,2.3092076535976968e-10,1.2436455560498604e-10,2.5299037462221466e-10,0
29443,1.8874426527080214e-10,9.950219076071935e-10,1.1371439718515537e-8,8.207505033078058e-10,2.555101059529864e-10,2.3060237791614314e-10,1.2436455560498604e-10,2.5465299479527187e-10,0
29444,1.8875790530769509e-10,9.921955622508838e-10,1.1355051325659978e-8,8.207505033078058e-10,2.586217165682387e-10,2.3028399047251658e-10,1.2436455560498604e-10,2.5631561496832907e-10,0
29445,1.8877154534458805e-10,9.89369216894574e-10,1.1338662932804418e-8,8.207505033078058e-10,2.61733327183491e-10,2.2996560302889004e-10,1.2436455560498604e-10,2.579782351413863e-10,0
29446,1.8902774192163802e-10,9.913433994259328e-10,1.1347926478736712e-8,8.158232426553651e-10,2.657717053425694e-10,2.296472155852635e-10,1.2436455560498604e-10,2.601395425622301e-10,0
29447,1.8902774192163802e-10,9.913433994259328e-10,1.1355623305305111e-8,8.153124354342323e-10,2.6888331595782173e-10,2.2306774719506096e-10,1.2354185161157134e-10,2.601395425622301e-10,0
29448,1.8902774192163802e-10,9.913433994259328e-10,1.1363320131873512e-8,8.148016282130995e-10,2.71994926573074e-10,2.1648827880485841e-10,1.2271914761815667e-10,2.601395425622301e-10,0
29449,1.8902774192163802e-10,9.913433994259328e-10,1.1371016958441912e-8,8.142908209919667e-10,2.7510653718832633e-10,2.0990881041465587e-10,1.21896443624742e-10,2.601395425622301e-10,0
29450,1.8901410188474505e-10,9.941697447822425e-10,1.1442983860375569e-8,8.276486682212226e-10,2.748683533643055e-10,2.0350970769803378e-10,1.227704548297384e-10,2.5781194018937036e-10,0
29451,1.8901410188474505e-10,9.921955622508838e-10,1.1445479009219432e-8,8.301665420151093e-10,2.7394158582047943e-10,2.0281959884780325e-10,1.2179860220111533e-10,2.5614932001631315e-10,0
29452,1.8901410188474505e-10,9.902213797195248e-10,1.1447974158063294e-8,8.326844158089959e-10,2.730148182766533e-10,2.0212948999757272e-10,1.2082674957249223e-10,2.5448669984325594e-10,0
29453,1.8901410188474505e-10,9.88247197188166e-10,1.1450469306907157e-8,8.352022896028824e-10,2.720880507328272e-10,2.0143938114734222e-10,1.1985489694386916e-10,2.5282407967019874e-10,0
29454,1.8901410188474505e-10,9.862730146568074e-10,1.1452964455751019e-8,8.37720163396769e-10,2.711612831890011e-10,2.007492722971117e-10,1.1888304431524606e-10,2.5116145949714153e-10,0
29455,1.8901410188474505e-10,9.842988321254486e-10,1.1455459604594882e-8,8.402380371906556e-10,2.7023451564517504e-10,2.0005916344688117e-10,1.1791119168662296e-10,2.494988393240843e-10,0
29456,1.8901410188474505e-10,9.823246495940899e-10,1.1457954753438744e-8,8.427559109845422e-10,2.6930774810134895e-10,1.9936905459665066e-10,1.1693933905799989e-10,2.478362191510271e-10,0
29457,1.8901410188474505e-10,9.80350467062731e-10,1.1460449902282607e-8,8.452737847784287e-10,2.6838098055752287e-10,1.9867894574642014e-10,1.1596748642937679e-10,2.461735989779699e-10,0
29458,1.8901410188474505e-10,9.783762845313722e-10,1.1462945051126469e-8,8.477916585723153e-10,2.674542130136968e-10,1.979888368961896e-10,1.149956338007537e-10,2.445109788049127e-10,0
29459,1.8901410188474505e-10,9.764021020000134e-10,1.1465440199970332e-8,8.503095323662018e-10,2.665274454698707e-10,1.9729872804595908e-10,1.140237811721306e-10,2.428483586318555e-10,0
29460,1.8901410188474505e-10,9.744279194686547e-10,1.1467935348814194e-8,8.528274061600885e-10,2.6560067792604456e-10,1.9660861919572858e-10,1.1305192854350751e-10,2.411857384587983e-10,0
29461,1.8825915219048812e-10,9.744279194686547e-10,1.1451190506123797e-8,8.508203395873347e-10,2.6467391038221847e-10,2.0231761306212014e-10,1.132267307845068e-10,2.4201694974119635e-10,0
29462,1.8753148257001707e-10,9.747396693014603e-10,1.141485613835344e-8,8.5386107470628e-10,2.639853266624132e-10,2.0802660692851173e-10,1.1340153302550609e-10,2.42515636988983e-10,0
29463,1.8877154534458805e-10,9.75051419134266e-10,1.1374245755822863e-8,8.677417832605946e-10,2.639853266624132e-10,2.0898176925939137e-10,1.1372548390171379e-10,2.433469141408014e-10,0
29464,1.88043875724117e-10,9.747604992389295e-10,1.1374245755822863e-8,8.752954046422544e-10,2.639853266624132e-10,2.0911979102943748e-10,1.1404943477792148e-10,2.450093367055975e-10,0
29465,1.8731620610364596e-10,9.74469579343593e-10,1.1374245755822863e-8,8.82849026023914e-10,2.639853266624132e-10,2.0925781279948357e-10,1.1437338565412918e-10,2.466717592703937e-10,0
29466,1.8658853648317492e-10,9.741786594482563e-10,1.1374245755822863e-8,8.904026474055738e-10,2.639853266624132e-10,2.0939583456952968e-10,1.1469733653033687e-10,2.483341818351898e-10,0
29467,1.858608668627039e-10,9.7388773955292e-10,1.1374245755822863e-8,8.979562687872336e-10,2.639853266624132e-10,2.095338563395758e-10,1.1502128740654457e-10,2.499966043999859e-10,0
29468,1.8513319724223285e-10,9.735968196575833e-10,1.1374245755822863e-8,9.055098901688933e-10,2.639853266624132e-10,2.096718781096219e-10,1.1534523828275227e-10,2.5165902696478204e-10,0
29469,1.844055276217618e-10,9.733058997622467e-10,1.1374245755822863e-8,9.13063511550553e-10,2.639853266624132e-10,2.0980989987966799e-10,1.1566918915895996e-10,2.533214495295782e-10,0
29470,1.8367785800129076e-10,9.7301497986691035e-10,1.1374245755822863e-8,9.206171329322128e-10,2.639853266624132e-10,2.099479216497141e-10,1.1599314003516766e-10,2.549838720943743e-10,0
29471,1.8295018838081972e-10,9.727240599715738e-10,1.1374245755822863e-8,9.281707543138725e-10,2.639853266624132e-10,2.100859434197602e-10,1.1631709091137535e-10,2.5664629465917044e-10,0
29472,1.822225187603487e-10,9.724331400762372e-10,1.1374245755822863e-8,9.357243756955322e-10,2.639853266624132e-10,2.1022396518980632e-10,1.1664104178758306e-10,2.5830871722396656e-10,0
29473,1.8149484913987765e-10,9.721422201809008e-10,1.1374245755822863e-8,9.43277997077192e-10,2.639853266624132e-10,2.103619869598524e-10,1.1696499266379074e-10,2.599711397887627e-10,0
29474,1.807671795194066e-10,9.718513002855642e-10,1.1374245755822863e-8,9.508316184588518e-10,2.639853266624132e-10,2.1050000872989851e-10,1.1728894353999845e-10,2.6163356235355884e-10,0
29475,1.8003950989893556e-10,9.715603803902276e-10,1.1374245755822863e-8,9.583852398405114e-10,2.639853266624132e-10,2.1063803049994462e-10,1.1761289441620613e-10,2.6329598491835496e-10,0
29476,1.793118402784645e-10,9.712694604948912e-10,1.1374245755822863e-8,9.659388612221711e-10,2.639853266624132e-10,2.1077605226999073e-10,1.1793684529241384e-10,2.649584074831511e-10,0
29477,1.785841706579935e-10,9.709785405995546e-10,1.1374245755822863e-8,9.73492482603831e-10,2.639853266624132e-10,2.1091407404003682e-10,1.1826079616862153e-10,2.666208300479472e-10,0
29478,1.7785650103752245e-10,9.70687620704218e-10,1.1374245755822863e-8,9.810461039854906e-10,2.639853266624132e-10,2.1105209581008293e-10,1.1858474704482923e-10,2.6828325261274336e-10,0
29479,1.771288314170514e-10,9.703967008088816e-10,1.1374245755822863e-8,9.885997253671503e-10,2.639853266624132e-10,2.1119011758012904e-10,1.1890869792103694e-10,2.699456751775395e-10,0
29480,1.7640116179658036e-10,9.70105780913545e-10,1.1374245755822863e-8,9.961533467488102e-10,2.639853266624132e-10,2.1132813935017515e-10,1.1923264879724462e-10,2.716080977423356e-10,0
29481,1.756734921761093e-10,9.698148610182084e-10,1.1374245755822863e-8,1.0037069681304699e-9,2.639853266624132e-10,2.1146616112022124e-10,1.1955659967345233e-10,2.732705203071317e-10,0
29482,1.749458225556383e-10,9.69523941122872e-10,1.1374245755822863e-8,1.0112605895121295e-9,2.639853266624132e-10,2.1160418289026735e-10,1.1988055054966002e-10,2.749329428719279e-10,0
29483,1.7419087286138133e-10,9.689212713947298e-10,1.136462161028225e-8,1.0113931846553138e-9,2.6467391038221847e-10,2.1160418289026735e-10,1.2020450142586772e-10,2.757640882849056e-10,0
29484,1.7343592316712438e-10,9.683186016665876e-10,1.1354997464741637e-8,1.011525779798498e-9,2.6536249410202374e-10,2.1160418289026735e-10,1.205284523020754e-10,2.765952336978833e-10,0
29485,1.7268097347286742e-10,9.677159319384454e-10,1.1345373319201026e-8,1.011658374941682e-9,2.66051077821829e-10,2.1160418289026735e-10,1.2085240317828312e-10,2.7742637911086097e-10,0
29486,1.7192602377861049e-10,9.671132622103031e-10,1.1335749173660413e-8,1.0117909700848663e-9,2.667396615416343e-10,2.1160418289026735e-10,1.211763540544908e-10,2.7825752452383867e-10,0
29487,1.7117107408435353e-10,9.66510592482161e-10,1.1326125028119802e-8,1.0119235652280504e-9,2.6742824526143955e-10,2.1160418289026735e-10,1.215003049306985e-10,2.7908866993681636e-10,0
29488,1.7041612439009657e-10,9.659079227540187e-10,1.1316500882579189e-8,1.0120561603712345e-9,2.681168289812448e-10,2.1160418289026735e-10,1.2182425580690622e-10,2.799198153497941e-10,0
29489,1.696611746958396e-10,9.653052530258765e-10,1.1306876737038576e-8,1.0121887555144186e-9,2.688054127010501e-10,2.1160418289026735e-10,1.221482066831139e-10,2.807509607627718e-10,0
29490,1.6890622500158268e-10,9.647025832977343e-10,1.1297252591497964e-8,1.0123213506576029e-9,2.6949399642085535e-10,2.1160418289026735e-10,1.224721575593216e-10,2.815821061757495e-10,0
29491,1.6815127530732572e-10,9.64099913569592e-10,1.1287628445957351e-8,1.012453945800787e-9,2.701825801406606e-10,2.1160418289026735e-10,1.227961084355293e-10,2.824132515887272e-10,0
29492,1.6739632561306877e-10,9.634972438414499e-10,1.1278004300416738e-8,1.012586540943971e-9,2.708711638604659e-10,2.1160418289026735e-10,1.23120059311737e-10,2.832443970017049e-10,0
29493,1.666413759188118e-10,9.628945741133077e-10,1.1306498155078498e-8,1.0082062498244409e-9,2.706813332578676e-10,2.1786526383684335e-10,1.2558817129198102e-10,2.822468248978706e-10,0
29494,1.6588642622455488e-10,9.639959969586568e-10,1.1313837148554234e-8,1.0012719225992464e-9,2.7291452955071634e-10,2.383674756053071e-10,1.2805628327222506e-10,2.8108302371144075e-10,0
29495,1.6513147653029792e-10,9.65097419804006e-10,1.132117614202997e-8,9.94337595374052e-10,2.751477258435651e-10,2.588696873737708e-10,1.305243952524691e-10,2.7991922252501084e-10,0
29496,1.6437652683604096e-10,9.661988426493551e-10,1.1328515135505703e-8,9.874032681488575e-10,2.7738092213641385e-10,2.793718991422345e-10,1.3299250723271316e-10,2.78755421338581e-10,0
29497,1.6240879444099894e-10,9.624997376070358e-10,1.1354878590705402e-8,9.874032681488575e-10,2.798039490318609e-10,3.000121326807443e-10,1.351366683367495e-10,2.78755421338581e-10,0
29498,1.604410620459569e-10,9.588006325647165e-10,1.1381242045905102e-8,9.874032681488575e-10,2.8222697592730797e-10,3.2065236621925416e-10,1.3728082944078583e-10,2.78755421338581e-10,0
29499,1.584733296509149e-10,9.551015275223971e-10,1.1407605501104801e-8,9.874032681488575e-10,2.8465000282275497e-10,3.41292599757764e-10,1.3942499054482217e-10,2.78755421338581e-10,0
29500,1.5650559725587289e-10,9.514024224800778e-10,1.14339689563045e-8,9.874032681488575e-10,2.8707302971820203e-10,3.619328332962738e-10,1.415691516488585e-10,2.78755421338581e-10,0
29501,1.5453786486083086e-10,9.477033174377585e-10,1.14603324115042e-8,9.874032681488575e-10,2.894960566136491e-10,3.8257306683478365e-10,1.4371331275289484e-10,2.78755421338581e-10,0
29502,1.5257013246578884e-10,9.440042123954391e-10,1.1486695866703899e-8,9.874032681488575e-10,2.919190835090961e-10,4.0321330037329344e-10,1.4585747385693118e-10,2.78755421338581e-10,0
29503,1.5060240007074684e-10,9.403051073531198e-10,1.1513059321903598e-8,9.874032681488575e-10,2.9434211040454315e-10,4.238535339118033e-10,1.4800163496096754e-10,2.78755421338581e-10,0
29504,1.486346676757048e-10,9.366060023108005e-10,1.1539422777103297e-8,9.874032681488575e-10,2.967651372999902e-10,4.444937674503131e-10,1.5014579606500388e-10,2.78755421338581e-10,0
29505,1.4787971798144785e-10,9.380191749889555e-10,1.1596996298650223e-8,9.863575454987403e-10,2.9807156604901285e-10,4.6499597921877685e-10,1.5146725317562555e-10,2.7858919225598543e-10,0
29506,1.471247682871909e-10,9.394323476671102e-10,1.165456982019715e-8,9.85311822848623e-10,2.993779947980355e-10,4.854981909872405e-10,1.527887102862472e-10,2.784229631733899e-10,0
29507,1.4611362201588397e-10,9.394323476671102e-10,1.171655474349753e-8,9.85311822848623e-10,2.984512272542094e-10,4.876312252261146e-10,1.527887102862472e-10,2.7825673409079436e-10,0
29508,1.4535867232162704e-10,9.40325937290589e-10,1.1717195799897105e-8,9.85311822848623e-10,2.984512272542094e-10,4.881723222468559e-10,1.519660062928325e-10,2.784230290428103e-10,0
29509,1.4460372262737008e-10,9.412195269140679e-10,1.1717836856296682e-8,9.85311822848623e-10,2.984512272542094e-10,4.887134192675972e-10,1.5114330229941784e-10,2.7858932399482616e-10,0
29510,1.4384877293311312e-10,9.421131165375465e-10,1.1718477912696257e-8,9.85311822848623e-10,2.984512272542094e-10,4.892545162883386e-10,1.5032059830600316e-10,2.787556189468421e-10,0
29511,1.4309382323885617e-10,9.430067061610253e-10,1.1719118969095835e-8,9.85311822848623e-10,2.984512272542094e-10,4.897956133090799e-10,1.494978943125885e-10,2.7892191389885795e-10,0
29512,1.4233887354459923e-10,9.43900295784504e-10,1.1719760025495412e-8,9.85311822848623e-10,2.984512272542094e-10,4.903367103298212e-10,1.486751903191738e-10,2.7908820885087387e-10,0
29513,1.4158392385034228e-10,9.447938854079827e-10,1.1720401081894987e-8,9.85311822848623e-10,2.984512272542094e-10,4.908778073505624e-10,1.4785248632575912e-10,2.792545038028898e-10,0
29514,1.4082897415608532e-10,9.456874750314615e-10,1.1721042138294564e-8,9.85311822848623e-10,2.984512272542094e-10,4.914189043713038e-10,1.4702978233234444e-10,2.7942079875490567e-10,0
29515,1.4007402446182836e-10,9.4658106465494e-10,1.172168319469414e-8,9.85311822848623e-10,2.984512272542094e-10,4.919600013920451e-10,1.4620707833892977e-10,2.795870937069216e-10,0
29516,1.3931907476757143e-10,9.47474654278419e-10,1.1722324251093717e-8,9.85311822848623e-10,2.984512272542094e-10,4.925010984127864e-10,1.4538437434551507e-10,2.7975338865893746e-10,0
29517,1.3856412507331447e-10,9.483682439018977e-10,1.1722965307493294e-8,9.85311822848623e-10,2.984512272542094e-10,4.930421954335278e-10,1.445616703521004e-10,2.799196836109534e-10,0
29518,1.3780917537905751e-10,9.492618335253763e-10,1.172360636389287e-8,9.85311822848623e-10,2.984512272542094e-10,4.935832924542691e-10,1.4373896635868572e-10,2.8008597856296925e-10,0
29519,1.3806537195610748e-10,9.492618335253763e-10,1.1720827991742096e-8,9.863213831869628e-10,2.9714479850518677e-10,4.919913552361364e-10,1.4373896635868572e-10,2.8041850259758074e-10,0
29520,1.3806537195610748e-10,9.504463430441917e-10,1.172039969863716e-8,9.8736710583708e-10,2.973829823292076e-10,4.926704740269238e-10,1.440629172348934e-10,2.8075102663219217e-10,0
29521,1.3780917537905751e-10,9.504463430441917e-10,1.1719544495685115e-8,9.883525579675683e-10,2.9650456800680404e-10,5.051926359200758e-10,1.4653102921513745e-10,2.810835506668036e-10,0
29522,1.3977690777409954e-10,9.584472228569726e-10,1.1718689292733072e-8,1.0475354214602374e-9,2.9650456800680404e-10,5.115917386366979e-10,1.47379386814343e-10,2.810835506668036e-10,0
29523,1.4174464016914157e-10,9.664481026697535e-10,1.1717834089781027e-8,1.1067182849529067e-9,2.9650456800680404e-10,5.1799084135332e-10,1.4822774441354856e-10,2.810835506668036e-10,0
29524,1.4371237256418356e-10,9.744489824825343e-10,1.1716978886828982e-8,1.165901148445576e-9,2.9650456800680404e-10,5.243899440699421e-10,1.4907610201275412e-10,2.810835506668036e-10,0
29525,1.456801049592256e-10,9.824498622953152e-10,1.1716123683876938e-8,1.2250840119382452e-9,2.9650456800680404e-10,5.307890467865642e-10,1.4992445961195967e-10,2.810835506668036e-10,0
29526,1.4764783735426761e-10,9.90450742108096e-10,1.1715268480924893e-8,1.2842668754309146e-9,2.9650456800680404e-10,5.371881495031863e-10,1.5077281721116523e-10,2.810835506668036e-10,0
29527,1.4961556974930964e-10,9.98451621920877e-10,1.171441327797285e-8,1.3434497389235837e-9,2.9650456800680404e-10,5.435872522198084e-10,1.5162117481037079e-10,2.810835506668036e-10,0
29528,1.5158330214435166e-10,1.0064525017336578e-9,1.1713558075020804e-8,1.402632602416253e-9,2.9650456800680404e-10,5.499863549364305e-10,1.5246953240957634e-10,2.810835506668036e-10,0
29529,1.5355103453939366e-10,1.0144533815464387e-9,1.171270287206876e-8,1.4618154659089224e-9,2.9650456800680404e-10,5.563854576530526e-10,1.533178900087819e-10,2.810835506668036e-10,0
29530,1.555187669344357e-10,1.0224542613592195e-9,1.1711847669116716e-8,1.5209983294015915e-9,2.9650456800680404e-10,5.627845603696747e-10,1.5416624760798745e-10,2.810835506668036e-10,0
29531,1.5748649932947771e-10,1.0304551411720004e-9,1.171099246616467e-8,1.5801811928942609e-9,2.9650456800680404e-10,5.691836630862969e-10,1.55014605207193e-10,2.810835506668036e-10,0
29532,1.5945423172451974e-10,1.0384560209847813e-9,1.1710137263212626e-8,1.6393640563869302e-9,2.9650456800680404e-10,5.755827658029189e-10,1.5586296280639856e-10,2.810835506668036e-10,0
29533,1.6142196411956174e-10,1.0464569007975621e-9,1.1709282060260582e-8,1.6985469198795993e-9,2.9650456800680404e-10,5.81981868519541e-10,1.5671132040560412e-10,2.810835506668036e-10,0
29534,1.6338969651460376e-10,1.054457780610343e-9,1.1708426857308537e-8,1.7577297833722687e-9,2.9650456800680404e-10,5.883809712361631e-10,1.5755967800480967e-10,2.810835506668036e-10,0
29535,1.653574289096458e-10,1.0624586604231239e-9,1.1707571654356494e-8,1.816912646864938e-9,2.9650456800680404e-10,5.947800739527852e-10,1.5840803560401523e-10,2.810835506668036e-10,0
29536,1.6732516130468781e-10,1.0704595402359047e-9,1.1706716451404448e-8,1.8760955103576074e-9,2.9650456800680404e-10,6.011791766694074e-10,1.5925639320322078e-10,2.810835506668036e-10,0
29537,1.6929289369972981e-10,1.0784604200486856e-9,1.1705861248452403e-8,1.9352783738502763e-9,2.9650456800680404e-10,6.075782793860294e-10,1.601047508024263e-10,2.810835506668036e-10,0
29538,1.7126062609477184e-10,1.0864612998614665e-9,1.170500604550036e-8,1.9944612373429456e-9,2.9650456800680404e-10,6.139773821026515e-10,1.6095310840163187e-10,2.810835506668036e-10,0
29539,1.7322835848981386e-10,1.0944621796742473e-9,1.1704150842548315e-8,2.053644100835615e-9,2.9650456800680404e-10,6.203764848192736e-10,1.6180146600083742e-10,2.810835506668036e-10,0
29540,1.7545228746190586e-10,1.1025669760979635e-9,1.1698808244799235e-8,2.111781241678167e-9,2.971931517266093e-10,6.269559532094762e-10,1.6264982360004298e-10,2.8091732158420804e-10,0
29541,1.7767621643399785e-10,1.1072635873746967e-9,1.1625274623501687e-8,2.1709641051708365e-9,2.9807156604901285e-10,6.332170341560522e-10,1.6349818119924853e-10,2.805847975495966e-10,0
29542,1.7990014540608984e-10,1.11196019865143e-9,1.1551741002204137e-8,2.2301469686635054e-9,2.989499803714164e-10,6.394781151026282e-10,1.643465387984541e-10,2.802522735149852e-10,0
29543,1.821240743781818e-10,1.1166568099281633e-9,1.1478207380906587e-8,2.2893298321561747e-9,2.9982839469381995e-10,6.457391960492042e-10,1.6519489639765964e-10,2.7991974948037375e-10,0
29544,1.821240743781818e-10,1.1244498565190736e-9,1.1827909309112262e-8,2.403801967035264e-9,3.03580235807455e-10,6.53984299405165e-10,1.6551884727386735e-10,2.7991974948037375e-10,0
29545,1.8438892346095268e-10,1.1280033850755194e-9,1.1816146464562625e-8,2.44887055914278e-9,3.03580235807455e-10,6.595552715015105e-10,1.6980716948194003e-10,2.795872254457623e-10,0
29546,1.8665377254372353e-10,1.1315569136319653e-9,1.1804383620012987e-8,2.493939151250296e-9,3.03580235807455e-10,6.651262435978559e-10,1.740954916900127e-10,2.7925470141115083e-10,0
29547,1.8891862162649437e-10,1.135110442188411e-9,1.179262077546335e-8,2.539007743357812e-9,3.03580235807455e-10,6.706972156942015e-10,1.783838138980854e-10,2.789221773765394e-10,0
29548,1.9118347070926525e-10,1.1386639707448569e-9,1.1780857930913714e-8,2.584076335465328e-9,3.03580235807455e-10,6.762681877905469e-10,1.8267213610615808e-10,2.7858965334192797e-10,0
29549,1.934483197920361e-10,1.1422174993013027e-9,1.1769095086364076e-8,2.6291449275728438e-9,3.03580235807455e-10,6.818391598868924e-10,1.8696045831423075e-10,2.7825712930731654e-10,0
29550,1.9571316887480694e-10,1.1457710278577485e-9,1.1757332241814439e-8,2.6742135196803596e-9,3.03580235807455e-10,6.874101319832379e-10,1.9124878052230343e-10,2.7792460527270506e-10,0
29551,1.9797801795757781e-10,1.1493245564141943e-9,1.1745569397264801e-8,2.7192821117878754e-9,3.03580235807455e-10,6.929811040795834e-10,1.9553710273037613e-10,2.7759208123809363e-10,0
29552,2.0024286704034866e-10,1.1528780849706402e-9,1.1733806552715164e-8,2.7643507038953917e-9,3.03580235807455e-10,6.985520761759288e-10,1.998254249384488e-10,2.772595572034822e-10,0
29553,2.025077161231195e-10,1.156431613527086e-9,1.1722043708165526e-8,2.8094192960029076e-9,3.03580235807455e-10,7.041230482722744e-10,2.0411374714652148e-10,2.7692703316887076e-10,0
29554,2.0477256520589038e-10,1.1599851420835318e-9,1.1710280863615889e-8,2.8544878881104234e-9,3.03580235807455e-10,7.096940203686198e-10,2.0840206935459418e-10,2.7659450913425933e-10,0
29555,2.0703741428866123e-10,1.1635386706399776e-9,1.1698518019066251e-8,2.8995564802179392e-9,3.03580235807455e-10,7.152649924649653e-10,2.1269039156266686e-10,2.7626198509964785e-10,0
29556,2.0930226337143208e-10,1.1670921991964234e-9,1.1686755174516614e-8,2.944625072325455e-9,3.03580235807455e-10,7.208359645613107e-10,2.1697871377073953e-10,2.759294610650364e-10,0
29557,2.1156711245420295e-10,1.1706457277528692e-9,1.1674992329966976e-8,2.989693664432971e-9,3.03580235807455e-10,7.264069366576563e-10,2.212670359788122e-10,2.75596937030425e-10,0
29558,2.138319615369738e-10,1.174199256309315e-9,1.166322948541734e-8,3.034762256540487e-9,3.03580235807455e-10,7.319779087540017e-10,2.255553581868849e-10,2.7526441299581356e-10,0
29559,2.1609681061974464e-10,1.1777527848657609e-9,1.1651466640867703e-8,3.079830848648003e-9,3.03580235807455e-10,7.375488808503472e-10,2.2984368039495758e-10,2.7493188896120213e-10,0
29560,2.1836165970251552e-10,1.1813063134222067e-9,1.1639703796318065e-8,3.124899440755519e-9,3.03580235807455e-10,7.431198529466927e-10,2.341320026030303e-10,2.7459936492659064e-10,0
29561,2.2062650878528636e-10,1.1848598419786525e-9,1.1627940951768428e-8,3.1699680328630347e-9,3.03580235807455e-10,7.486908250430382e-10,2.3842032481110296e-10,2.742668408919792e-10,0
29562,2.228913578680572e-10,1.1891407868116448e-9,1.1582341654807952e-8,3.2150004626587733e-9,3.03580235807455e-10,7.542617971393836e-10,2.4270864701917563e-10,2.7310303970554936e-10,0
29563,2.2515620695082806e-10,1.1961025005150736e-9,1.1642545712191972e-8,3.259023332116172e-9,3.024636376610306e-10,7.601511566793556e-10,2.466730183510406e-10,2.729368106229538e-10,0
29564,2.2742105603359893e-10,1.2030642142185021e-9,1.1702749769575993e-8,3.3030462015735706e-9,3.013470395146062e-10,7.660405162193277e-10,2.506373896829056e-10,2.727705815403583e-10,0
29565,2.2968590511636978e-10,1.2100259279219307e-9,1.1762953826960013e-8,3.3470690710309693e-9,3.0023044136818186e-10,7.719298757592997e-10,2.546017610147706e-10,2.7260435245776273e-10,0
29566,2.2968590511636978e-10,1.2169876416253592e-9,1.1849021203168698e-8,3.3470690710309693e-9,3.0844867506751443e-10,8.217738336359068e-10,2.6370281215391383e-10,2.736019245615971e-10,0
29567,2.299284616565268e-10,1.2187956508097859e-9,1.1847881393651915e-8,3.3460595106926294e-9,3.076409994356987e-10,8.219541993094871e-10,2.6766718348577877e-10,2.7543064207840907e-10,0
29568,2.301710181966838e-10,1.2206036599942125e-9,1.1846741584135131e-8,3.3450499503542894e-9,3.0683332380388307e-10,8.221345649830676e-10,2.7163155481764376e-10,2.772593595952211e-10,0
29569,2.3041357473684082e-10,1.2224116691786391e-9,1.1845601774618348e-8,3.3440403900159495e-9,3.0602564817206737e-10,8.22314930656648e-10,2.7559592614950876e-10,2.7908807711203315e-10,0
29570,2.3065613127699785e-10,1.2242196783630658e-9,1.1844461965101564e-8,3.34303082967761e-9,3.0521797254025166e-10,8.224952963302285e-10,2.7956029748137375e-10,2.809167946288452e-10,0
29571,2.3089868781715484e-10,1.2260276875474924e-9,1.1843322155584781e-8,3.34202126933927e-9,3.04410296908436e-10,8.226756620038089e-10,2.8352466881323874e-10,2.8274551214565723e-10,0
29572,2.3114124435731187e-10,1.227835696731919e-9,1.1842182346067997e-8,3.3410117090009302e-9,3.036026212766203e-10,8.228560276773893e-10,2.8748904014510373e-10,2.845742296624692e-10,0
29573,2.3138380089746887e-10,1.2296437059163457e-9,1.1841042536551214e-8,3.3400021486625907e-9,3.0279494564480466e-10,8.230363933509698e-10,2.9145341147696873e-10,2.8640294717928125e-10,0
29574,2.316263574376259e-10,1.2314517151007723e-9,1.183990272703443e-8,3.338992588324251e-9,3.0198727001298896e-10,8.232167590245502e-10,2.9541778280883367e-10,2.882316646960933e-10,0
29575,2.30857767706476e-10,1.2305789554147627e-9,1.1832350970264054e-8,3.338992588324251e-9,3.021063619249994e-10,8.233971246981307e-10,2.995313027759071e-10,2.898940872608894e-10,0
29576,2.3084412766958302e-10,1.2316803782601119e-9,1.1821664391508067e-8,3.3395033955453836e-9,3.024152844396081e-10,8.227180059073432e-10,3.034956741077721e-10,2.9105782257789895e-10,0
29577,2.3083048763269008e-10,1.232781801105461e-9,1.181097781275208e-8,3.3400142027665163e-9,3.0272420695421676e-10,8.220388871165558e-10,3.0746004543963707e-10,2.9222155789490844e-10,0
29578,2.308168475957971e-10,1.2338832239508104e-9,1.1800291233996092e-8,3.340525009987649e-9,3.030331294688255e-10,8.213597683257684e-10,3.1142441677150206e-10,2.9338529321191793e-10,0
29579,2.3080320755890417e-10,1.2349846467961595e-9,1.1789604655240105e-8,3.341035817208782e-9,3.033420519834342e-10,8.20680649534981e-10,3.1538878810336706e-10,2.9454902852892747e-10,0
29580,2.315308771793752e-10,1.2360860696415087e-9,1.188002680576825e-8,3.3415466244299146e-9,3.057650788788812e-10,8.93064175552414e-10,3.2780630882195985e-10,2.937178172465294e-10,0
29581,2.3225854679984623e-10,1.2371874924868578e-9,1.1970448956296394e-8,3.342057431651048e-9,3.0818810577432825e-10,9.65447701569847e-10,3.4022382954055265e-10,2.928866059641313e-10,0
29582,2.329862164203173e-10,1.238288915332207e-9,1.2060871106824536e-8,3.3425682388721806e-9,3.106111326697753e-10,1.03783122758728e-9,3.526413502591455e-10,2.9205539468173325e-10,0
29583,2.337138860407883e-10,1.2393903381775562e-9,1.215129325735268e-8,3.3430790460933133e-9,3.130341595652223e-10,1.110214753604713e-9,3.650588709777383e-10,2.912241833993352e-10,0
29584,2.3444155566125937e-10,1.2404917610229055e-9,1.2241715407880824e-8,3.343589853314446e-9,3.154571864606694e-10,1.182598279622146e-9,3.774763916963311e-10,2.9039297211693713e-10,0
29585,2.351692252817304e-10,1.2415931838682547e-9,1.2332137558408967e-8,3.344100660535579e-9,3.178802133561164e-10,1.2549818056395792e-9,3.8989391241492395e-10,2.8956176083453907e-10,0
29586,2.3589689490220146e-10,1.2426946067136038e-9,1.2422559708937111e-8,3.3446114677567116e-9,3.2030324025156344e-10,1.3273653316570122e-9,4.0231143313351675e-10,2.88730549552141e-10,0
29587,2.366245645226725e-10,1.243796029558953e-9,1.2512981859465255e-8,3.3451222749778444e-9,3.227262671470105e-10,1.3997488576744451e-9,4.1472895385210954e-10,2.8789933826974295e-10,0
29588,2.373522341431435e-10,1.2448974524043021e-9,1.2603404009993397e-8,3.345633082198977e-9,3.251492940424575e-10,1.4721323836918781e-9,4.271464745707024e-10,2.870681269873449e-10,0
29589,2.3733859410625056e-10,1.2487627307935538e-9,1.2593145724342346e-8,3.4829996440538845e-9,3.262658921888819e-10,1.500688343083279e-9,4.2796917856411707e-10,2.874007168913767e-10,0
29590,2.373249540693576e-10,1.2526280091828052e-9,1.2582887438691295e-8,3.620366205908792e-9,3.273824903353063e-10,1.52924430247468e-9,4.2879188255753174e-10,2.877333067954085e-10,0
29591,2.3731131403246467e-10,1.2564932875720566e-9,1.2572629153040244e-8,3.757732767763699e-9,3.2849908848173065e-10,1.5578002618660813e-9,4.296145865509464e-10,2.880658966994403e-10,0
29592,2.372976739955717e-10,1.2603585659613083e-9,1.2562370867389193e-8,3.895099329618606e-9,3.29615686628155e-10,1.5863562212574822e-9,4.304372905443611e-10,2.8839848660347207e-10,0
29593,2.3728403395867873e-10,1.2642238443505597e-9,1.2552112581738142e-8,4.032465891473513e-9,3.3073228477457943e-10,1.6149121806488832e-9,4.3125999453777576e-10,2.8873107650750386e-10,0
29594,2.372703939217858e-10,1.2680891227398111e-9,1.254185429608709e-8,4.169832453328421e-9,3.318488829210038e-10,1.6434681400402842e-9,4.3208269853119043e-10,2.8906366641153566e-10,0
29595,2.3725675388489285e-10,1.2719544011290625e-9,1.253159601043604e-8,4.307199015183328e-9,3.3296548106742815e-10,1.6720240994316852e-9,4.329054025246051e-10,2.893962563155675e-10,0
29596,2.3724311384799985e-10,1.2758196795183142e-9,1.252133772478499e-8,4.4445655770382346e-9,3.340820792138525e-10,1.7005800588230862e-9,4.337281065180198e-10,2.897288462195993e-10,0
29597,2.372294738111069e-10,1.2796849579075656e-9,1.2511079439133939e-8,4.581932138893142e-9,3.3519867736027693e-10,1.7291360182144872e-9,4.345508105114345e-10,2.900614361236311e-10,0
29598,2.3721583377421396e-10,1.283550236296817e-9,1.2500821153482888e-8,4.719298700748049e-9,3.363152755067013e-10,1.7576919776058883e-9,4.353735145048492e-10,2.903940260276629e-10,0
29599,2.37202193737321e-10,1.2874155146860685e-9,1.2501890502987399e-8,4.856677316706883e-9,3.3743187365312566e-10,1.7871074214616572e-9,4.3652016937447154e-10,2.9155782721409274e-10,0
29600,2.371885537004281e-10,1.2912807930753201e-9,1.2502959852491912e-8,4.994055932665715e-9,3.3854847179955003e-10,1.8165228653174261e-9,4.376668242440939e-10,2.9272162840052264e-10,0
29601,2.371749136635351e-10,1.2951460714645715e-9,1.2504029201996425e-8,5.1314345486245485e-9,3.3966506994597444e-10,1.8459383091731948e-9,4.388134791137163e-10,2.938854295869525e-10,0
29602,2.3716127362664214e-10,1.299011349853823e-9,1.2505098551500937e-8,5.268813164583381e-9,3.407816680923988e-10,1.875353753028964e-9,4.3996013398333866e-10,2.9504923077338235e-10,0
29603,2.371476335897492e-10,1.3028766282430746e-9,1.250616790100545e-8,5.406191780542214e-9,3.4189826623882317e-10,1.9047691968847327e-9,4.4110678885296106e-10,2.962130319598122e-10,0
29604,2.368914370126992e-10,1.3048508107744334e-9,1.257627517746351e-8,5.439254135524985e-9,3.43964017398239e-10,1.97566583727575e-9,4.5647029406275086e-10,2.9637926104240776e-10,0
29605,2.3663524043564926e-10,1.306824993305792e-9,1.2646382453921572e-8,5.472316490507756e-9,3.460297685576548e-10,2.046562477666767e-9,4.718337992725406e-10,2.965454901250033e-10,0
29606,2.3637904385859927e-10,1.3087991758371508e-9,1.2716489730379634e-8,5.505378845490527e-9,3.480955197170706e-10,2.1174591180577837e-9,4.871973044823304e-10,2.9671171920759883e-10,0
29607,2.3612284728154933e-10,1.3107733583685096e-9,1.2786597006837695e-8,5.5384412004732976e-9,3.501612708764864e-10,2.188355758448801e-9,5.025608096921202e-10,2.968779482901944e-10,0
29608,2.3586665070449934e-10,1.3127475408998685e-9,1.2856704283295757e-8,5.571503555456068e-9,3.522270220359022e-10,2.259252398839818e-9,5.1792431490191e-10,2.970441773727899e-10,0
29609,2.356104541274494e-10,1.3147217234312273e-9,1.2926811559753819e-8,5.604565910438839e-9,3.54292773195318e-10,2.330149039230835e-9,5.332878201116998e-10,2.9721040645538546e-10,0
29610,2.353542575503994e-10,1.316695905962586e-9,1.2996918836211879e-8,5.63762826542161e-9,3.563585243547338e-10,2.401045679621852e-9,5.486513253214896e-10,2.97376635537981e-10,0
29611,2.350980609733494e-10,1.3186700884939448e-9,1.3067026112669941e-8,5.670690620404381e-9,3.5842427551414963e-10,2.4719423200128693e-9,5.640148305312794e-10,2.975428646205765e-10,0
29612,2.3484186439629947e-10,1.3206442710253035e-9,1.3137133389128003e-8,5.7037529753871515e-9,3.6049002667356543e-10,2.5428389604038864e-9,5.793783357410693e-10,2.977090937031721e-10,0
29613,2.345856678192495e-10,1.3226184535566624e-9,1.3207240665586063e-8,5.736815330369923e-9,3.6255577783298124e-10,2.6137356007949036e-9,5.947418409508591e-10,2.9787532278576764e-10,0
29614,2.3432947124219954e-10,1.3245926360880212e-9,1.3277347942044125e-8,5.769877685352694e-9,3.6462152899239705e-10,2.6846322411859207e-9,6.101053461606489e-10,2.9804155186836315e-10,0
29615,2.3407327466514954e-10,1.32656681861938e-9,1.3347455218502187e-8,5.802940040335465e-9,3.666872801518128e-10,2.755528881576938e-9,6.254688513704387e-10,2.982077809509587e-10,0
29616,2.338170780880996e-10,1.3285410011507387e-9,1.3417562494960248e-8,5.8360023953182355e-9,3.687530313112286e-10,2.826425521967955e-9,6.408323565802285e-10,2.9837401003355427e-10,0
29617,2.335608815110496e-10,1.3305151836820974e-9,1.348766977141831e-8,5.869064750301006e-9,3.708187824706444e-10,2.897322162358972e-9,6.561958617900183e-10,2.985402391161498e-10,0
29618,2.3330468493399967e-10,1.3324893662134564e-9,1.3557777047876372e-8,5.902127105283777e-9,3.728845336300602e-10,2.968218802749989e-9,6.71559366999808e-10,2.9870646819874534e-10,0
29619,2.330484883569497e-10,1.334463548744815e-9,1.3627884324334432e-8,5.935189460266548e-9,3.7495028478947603e-10,3.0391154431410063e-9,6.869228722095978e-10,2.9887269728134085e-10,0
29620,2.327922917798997e-10,1.3367494811089795e-9,1.3678898062314087e-8,5.96772895392426e-9,3.761376216264883e-10,3.1091525990676555e-9,7.021115751783884e-10,2.98706402329325e-10,0
29621,2.3253609520284974e-10,1.339035413473144e-9,1.3729911800293741e-8,6.000268447581972e-9,3.7732495846350055e-10,3.1791897549943048e-9,7.173002781471789e-10,2.9854010737730905e-10,0
29622,2.3227989862579977e-10,1.3413213458373084e-9,1.3780925538273394e-8,6.032807941239684e-9,3.785122953005128e-10,3.249226910920954e-9,7.324889811159695e-10,2.983738124252932e-10,0
29623,2.320237020487498e-10,1.343607278201473e-9,1.3831939276253049e-8,6.065347434897397e-9,3.79699632137525e-10,3.3192640668476032e-9,7.476776840847599e-10,2.9820751747327726e-10,0
29624,2.3176750547169984e-10,1.3458932105656373e-9,1.3882953014232704e-8,6.097886928555109e-9,3.808869689745373e-10,3.3893012227742524e-9,7.628663870535504e-10,2.980412225212614e-10,0
29625,2.325224551659568e-10,1.3473063832437923e-9,1.390725376346696e-8,6.157033629736001e-9,4.095281127270989e-10,3.4251800933690638e-9,7.721165868279021e-10,2.988724996730798e-10,0
29626,2.3329104489710667e-10,1.3490104758172836e-9,1.3948867185263262e-8,6.21621649322867e-9,4.387387482874554e-10,3.4616000609846166e-9,7.806932312440474e-10,3.0003630085950966e-10,0
29627,2.340596346282566e-10,1.350714568390775e-9,1.3990480607059564e-8,6.2753993567213395e-9,4.679493838478119e-10,3.4980200286001695e-9,7.892698756601928e-10,3.012001020459395e-10,0
29628,2.3482822435940653e-10,1.3524186609642664e-9,1.4032094028855866e-8,6.334582220214009e-9,4.971600194081684e-10,3.5344399962157224e-9,7.978465200763381e-10,3.0236390323236937e-10,0
29629,2.355968140905564e-10,1.354122753537758e-9,1.407370745065217e-8,6.393765083706677e-9,5.263706549685249e-10,3.5708599638312752e-9,8.064231644924836e-10,3.0352770441879927e-10,0
29630,2.3636540382170633e-10,1.3558268461112493e-9,1.4115320872448472e-8,6.452947947199347e-9,5.555812905288813e-10,3.607279931446828e-9,8.149998089086289e-10,3.046915056052291e-10,0
29631,2.3713399355285625e-10,1.3575309386847407e-9,1.4156934294244775e-8,6.512130810692016e-9,5.847919260892378e-10,3.6436998990623805e-9,8.235764533247743e-10,3.05855306791659e-10,0
29632,2.3790258328400613e-10,1.359235031258232e-9,1.4198547716041077e-8,6.571313674184685e-9,6.140025616495943e-10,3.6801198666779334e-9,8.321530977409196e-10,3.0701910797808883e-10,0
29633,2.3891372955531305e-10,1.359235031258232e-9,1.4240872654249227e-8,6.62604392193427e-9,6.426437054021559e-10,3.715998737272745e-9,8.412541488800628e-10,3.080166800819232e-10,0
29634,2.3966867924957e-10,1.3603364541035812e-9,1.4283197592457378e-8,6.685190623115161e-9,6.72163263477121e-10,3.7516015643274645e-9,8.505043486544145e-10,3.088479572337416e-10,0
29635,2.4042362894382697e-10,1.3614378769489305e-9,1.4325522530665528e-8,6.744337324296053e-9,7.016828215520863e-10,3.7872043913821835e-9,8.597545484287661e-10,3.0967923438556e-10,0
29636,2.411785786380839e-10,1.3625392997942797e-9,1.4367847468873678e-8,6.803484025476945e-9,7.312023796270514e-10,3.822807218436903e-9,8.690047482031178e-10,3.1051051153737844e-10,0
29637,2.419335283323409e-10,1.3636407226396288e-9,1.4410172407081827e-8,6.862630726657836e-9,7.607219377020166e-10,3.858410045491622e-9,8.782549479774694e-10,3.1134178868919686e-10,0
29638,2.419198882954479e-10,1.3675060010288803e-9,1.4410883923493675e-8,6.872509356170569e-9,7.61838535848441e-10,4.011409594488768e-9,8.897775768848117e-10,3.11175493737181e-10,0
29639,2.439285408011688e-10,1.3667994146898028e-9,1.4428908112467569e-8,7.242032664748993e-9,7.711733676941979e-10,4.0581857195802695e-9,9.307779469189478e-10,3.116741809849676e-10,0
29640,2.459371933068897e-10,1.3660928283507255e-9,1.4446932301441465e-8,7.611555973327415e-9,7.805081995399549e-10,4.104961844671771e-9,9.717783169530838e-10,3.121728682327542e-10,0
29641,2.4794584581261056e-10,1.365386242011648e-9,1.4464956490415359e-8,7.981079281905839e-9,7.898430313857118e-10,4.151737969763273e-9,1.0127786869872199e-9,3.126715554805408e-10,0
29642,2.4995449831833146e-10,1.3646796556725705e-9,1.4482980679389255e-8,8.35060259048426e-9,7.991778632314686e-10,4.1985140948547735e-9,1.053779057021356e-9,3.1317024272832745e-10,0
29643,2.519631508240523e-10,1.363973069333493e-9,1.450100486836315e-8,8.720125899062684e-9,8.085126950772256e-10,4.245290219946275e-9,1.094779427055492e-9,3.136689299761141e-10,0
29644,2.539718033297732e-10,1.3632664829944158e-9,1.4519029057337043e-8,9.089649207641107e-9,8.178475269229825e-10,4.292066345037777e-9,1.135779797089628e-9,3.141676172239007e-10,0
29645,2.5598045583549413e-10,1.3625598966553383e-9,1.453705324631094e-8,9.45917251621953e-9,8.271823587687395e-10,4.338842470129278e-9,1.1767801671237643e-9,3.1466630447168733e-10,0
29646,2.57989108341215e-10,1.3618533103162608e-9,1.4555077435284833e-8,9.828695824797952e-9,8.365171906144964e-10,4.38561859522078e-9,1.2177805371579003e-9,3.1516499171947396e-10,0
29647,2.599977608469359e-10,1.3611467239771833e-9,1.4573101624258728e-8,1.0198219133376376e-8,8.458520224602533e-10,4.4323947203122815e-9,1.2587809071920363e-9,3.156636789672606e-10,0
29648,2.620064133526568e-10,1.360440137638106e-9,1.4591125813232623e-8,1.0567742441954799e-8,8.551868543060102e-10,4.479170845403782e-9,1.2997812772261724e-9,3.161623662150472e-10,0
29649,2.6401506585837765e-10,1.3597335512990285e-9,1.4609150002206518e-8,1.0937265750533222e-8,8.645216861517672e-10,4.525946970495284e-9,1.3407816472603084e-9,3.1666105346283384e-10,0
29650,2.6602371836409856e-10,1.359026964959951e-9,1.4627174191180412e-8,1.1306789059111644e-8,8.738565179975241e-10,4.5727230955867855e-9,1.3817820172944445e-9,3.1715974071062047e-10,0
29651,2.680323708698194e-10,1.3583203786208736e-9,1.4645198380154308e-8,1.1676312367690067e-8,8.831913498432811e-10,4.619499220678287e-9,1.4227823873285805e-9,3.1765842795840705e-10,0
29652,2.700410233755403e-10,1.3576137922817963e-9,1.4663222569128202e-8,1.204583567626849e-8,8.925261816890379e-10,4.666275345769789e-9,1.4637827573627166e-9,3.181571152061937e-10,0
29653,2.720496758812612e-10,1.3569072059427188e-9,1.4681246758102096e-8,1.2415358984846912e-8,9.018610135347949e-10,4.71305147086129e-9,1.5047831273968526e-9,3.186558024539803e-10,0
29654,2.740583283869821e-10,1.3562006196036413e-9,1.4699270947075992e-8,1.2784882293425336e-8,9.111958453805518e-10,4.759827595952791e-9,1.5457834974309887e-9,3.1915448970176693e-10,0
29655,2.76066980892703e-10,1.3554940332645638e-9,1.4717295136049886e-8,1.3154405602003759e-8,9.205306772263088e-10,4.806603721044293e-9,1.5867838674651247e-9,3.1965317694955356e-10,0
29656,2.7807563339842384e-10,1.3553901166536288e-9,1.4717295136049886e-8,1.352396507289396e-8,9.295565865574569e-10,4.854335008466674e-9,1.6271106821410546e-9,3.201518641973402e-10,0
29657,2.800979259410377e-10,1.3508182519252998e-9,1.4666281398070233e-8,1.3888963441105742e-8,9.377748202567895e-10,4.902066295889055e-9,1.6679619035399822e-9,3.198192742933084e-10,0
29658,2.8212021848365154e-10,1.346246387196971e-9,1.4615267660090578e-8,1.4253961809317524e-8,9.45993053956122e-10,4.949797583311436e-9,1.7088131249389098e-9,3.194866843892766e-10,0
29659,2.841425110262654e-10,1.341674522468642e-9,1.4564253922110924e-8,1.4618960177529307e-8,9.542112876554547e-10,4.997528870733817e-9,1.7496643463378374e-9,3.191540944852448e-10,0
29660,2.8415615106315833e-10,1.3383910838700636e-9,1.4494004342370493e-8,1.4636247779176589e-8,9.568465306226653e-10,5.001062486457801e-9,1.7803352765462986e-9,3.2231290814050257e-10,0
29661,2.8492474079430825e-10,1.3383910838700636e-9,1.4485881989212812e-8,1.4631212031588817e-8,9.599581412379176e-10,5.010273742204084e-9,1.7927527972648914e-9,3.277992582991997e-10,0
29662,2.8569333052545813e-10,1.3383910838700636e-9,1.447775963605513e-8,1.4626176284001043e-8,9.6306975185317e-10,5.019484997950368e-9,1.805170317983484e-9,3.3328560845789693e-10,0
29663,2.8646192025660806e-10,1.3383910838700636e-9,1.4469637282897449e-8,1.462114053641327e-8,9.661813624684223e-10,5.028696253696651e-9,1.817587838702077e-9,3.387719586165941e-10,0
29664,2.87230509987758e-10,1.3383910838700636e-9,1.4461514929739768e-8,1.4616104788825497e-8,9.692929730836746e-10,5.037907509442935e-9,1.8300053594206698e-9,3.4425830877529125e-10,0
29665,2.8799909971890786e-10,1.3383910838700636e-9,1.4453392576582087e-8,1.4611069041237724e-8,9.724045836989267e-10,5.047118765189218e-9,1.8424228801392626e-9,3.497446589339884e-10,0
29666,2.887676894500578e-10,1.3383910838700636e-9,1.4445270223424406e-8,1.460603329364995e-8,9.75516194314179e-10,5.056330020935502e-9,1.8548404008578555e-9,3.5523100909268557e-10,0
29667,2.895362791812077e-10,1.3383910838700636e-9,1.4437147870266725e-8,1.4600997546062178e-8,9.786278049294314e-10,5.065541276681786e-9,1.867257921576448e-9,3.607173592513828e-10,0
29668,2.903048689123576e-10,1.3383910838700636e-9,1.4429025517109043e-8,1.4595961798474404e-8,9.817394155446837e-10,5.074752532428069e-9,1.879675442295041e-9,3.6620370941007993e-10,0
29669,2.910734586435075e-10,1.3383910838700636e-9,1.4420903163951363e-8,1.4590926050886632e-8,9.84851026159936e-10,5.0839637881743524e-9,1.892092963013634e-9,3.716900595687771e-10,0
29670,2.918420483746574e-10,1.3383910838700636e-9,1.441278081079368e-8,1.4585890303298858e-8,9.879626367751883e-10,5.093175043920636e-9,1.9045104837322267e-9,3.7717640972747425e-10,0
29671,2.926106381058073e-10,1.3383910838700636e-9,1.4404658457635999e-8,1.4580854555711086e-8,9.910742473904407e-10,5.10238629966692e-9,1.9169280044508195e-9,3.8266275988617146e-10,0
29672,2.9337922783695724e-10,1.3383910838700636e-9,1.4396536104478319e-8,1.4575818808123312e-8,9.94185858005693e-10,5.1115975554132036e-9,1.9293455251694124e-9,3.881491100448686e-10,0
29673,2.941478175681071e-10,1.3383910838700636e-9,1.4388413751320637e-8,1.457078306053554e-8,9.972974686209453e-10,5.120808811159487e-9,1.9417630458880052e-9,3.936354602035658e-10,0
29674,2.9491640729925704e-10,1.3383910838700636e-9,1.4380291398162957e-8,1.4565747312947766e-8,1.0004090792361977e-9,5.13002006690577e-9,1.954180566606598e-9,3.9912181036226293e-10,0
29675,2.9568499703040697e-10,1.3383910838700636e-9,1.4372169045005275e-8,1.4560711565359993e-8,1.0035206898514498e-9,5.139231322652054e-9,1.966598087325191e-9,4.046081605209601e-10,0
29676,2.9645358676155684e-10,1.3383910838700636e-9,1.4364046691847593e-8,1.455567581777222e-8,1.006632300466702e-9,5.148442578398338e-9,1.9790156080437838e-9,4.100945106796573e-10,0
29677,2.9722217649270677e-10,1.3383910838700636e-9,1.4355924338689913e-8,1.4550640070184447e-8,1.0097439110819544e-9,5.157653834144621e-9,1.991433128762376e-9,4.1558086083835446e-10,0
29678,2.979771261869637e-10,1.341674522468642e-9,1.4412352517688745e-8,1.4550640070184447e-8,1.0115490929481842e-9,5.1645940338819845e-9,2.004174600357177e-9,4.2189848814887004e-10,0
29679,2.9676434348617866e-10,1.3350451554590777e-9,1.4430943153276462e-8,1.4536771415734057e-8,1.0155874711072626e-9,5.173805289628268e-9,2.0169160719519773e-9,4.27717428211599e-10,0
29680,2.9555156078539357e-10,1.3284157884495133e-9,1.444953378886418e-8,1.4522902761283668e-8,1.0196258492663409e-9,5.183016545374552e-9,2.029657543546778e-9,4.33536368274328e-10,0
29681,2.943387780846085e-10,1.321786421439949e-9,1.4468124424451898e-8,1.450903410683328e-8,1.0236642274254194e-9,5.192227801120836e-9,2.0423990151415783e-9,4.3935530833705695e-10,0
29682,2.983151629853714e-10,1.3340682460857224e-9,1.4536811434601919e-8,1.4505554889116756e-8,1.0715185589250325e-9,5.271603244504371e-9,2.048260557518645e-9,4.4218153208828297e-10,0
29683,3.0229154788613434e-10,1.3463500707314956e-9,1.4605498444751941e-8,1.4502075671400234e-8,1.1193728904246455e-9,5.350978687887907e-9,2.054122099895711e-9,4.4500775583950894e-10,0
29684,3.062679327868972e-10,1.3586318953772688e-9,1.4674185454901962e-8,1.449859645368371e-8,1.1672272219242586e-9,5.430354131271442e-9,2.059983642272777e-9,4.4783397959073496e-10,0
29685,3.1024431768766015e-10,1.3709137200230422e-9,1.4742872465051984e-8,1.4495117235967187e-8,1.2150815534238718e-9,5.5097295746549784e-9,2.0658451846498435e-9,4.5066020334196093e-10,0
