time,channel1,channel2,channel3,channel4,channel5,channel6,channel7,channel8,class
47103,1.082759229447379e-7,2.3721876966558553e-8,3.306218927046414e-8,1.3853641116444186e-8,1.3374159564692106e-7,4.850259720211426e-7,7.046857281707943e-8,1.4429567014633098e-7,6
47104,1.0792563161189196e-7,2.3713834659947245e-8,3.2927448552516843e-8,1.383976040788987e-8,1.3396336975666163e-7,4.853422018612364e-7,7.065890082500524e-8,1.4379026490169624e-7,6
47105,1.0799526608778444e-7,2.3239249889372713e-8,3.28370264019887e-8,1.3836804051498406e-8,1.3211551631693263e-7,4.856702637543732e-7,7.060377965744645e-8,1.439947523623627e-7,6
47106,1.0760266850844509e-7,2.3227820227551894e-8,3.261216473917194e-8,1.3797744605005227e-8,1.3222694331357537e-7,4.854498649778622e-7,7.04938213006007e-8,1.4308186865335495e-7,6
47107,1.0721007092910576e-7,2.321639056573107e-8,3.238730307635517e-8,1.3758685158512047e-8,1.323383703102181e-7,4.852294662013513e-7,7.038386294375494e-8,1.4216898494434721e-7,6
47108,1.0681747334976642e-7,2.320496090391025e-8,3.21624414135384e-8,1.3719625712018866e-8,1.3244979730686085e-7,4.850090674248403e-7,7.027390458690918e-8,1.4125610123533945e-7,6
47109,1.0642487577042709e-7,2.3193531242089426e-8,3.1937579750721634e-8,1.3680566265525686e-8,1.325612243035036e-7,4.847886686483293e-7,7.016394623006342e-8,1.403432175263317e-7,6
47110,1.0595455454502481e-7,2.3181581997213928e-8,3.1819590791753874e-08,1.364892784527098e-8,1.3252972495386277e-7,4.845927857049775e-7,7.042072533599953e-8,1.3920024273055605e-7,6
47111,1.0547602435324398e-7,2.3171025095079115e-8,3.1690985714042396e-8,1.361035509779108e-8,1.3268810548221357e-7,4.840344879947557e-7,7.005864011890634e-8,1.3796067638847193e-7,6
47112,1.0499749416146313e-7,2.3160468192944302e-8,3.1562380636330924e-8,1.3571782350311182e-8,1.3284648601056434e-7,4.834761902845338e-7,6.969655490181314e-8,1.367211100463878e-7,6
47113,1.0451896396968228e-7,2.314991129080949e-8,3.1433775558619446e-8,1.3533209602831282e-8,1.3300486653891511e-07,4.829178925743119e-7,6.933446968471994e-8,1.354815437043037e-7,6
47114,1.0404043377790145e-7,2.3139354388674677e-8,3.130517048090797e-8,1.3494636855351382e-8,1.3316324706726589e-7,4.823595948640901e-7,6.897238446762675e-8,1.3424197736221957e-7,6
47115,1.035619035861206e-7,2.3128797486539864e-8,3.1176565403196496e-8,1.3456064107871483e-8,1.3332162759561669e-7,4.818012971538681e-7,6.861029925053356e-8,1.3300241102013545e-7,6
47116,1.0308337339433975e-7,2.311824058440505e-8,3.104796032548502e-8,1.3417491360391584e-8,1.3348000812396746e-7,4.812429994436463e-7,6.824821403344036e-8,1.3176284467805133e-7,6
47117,1.0260484320255891e-7,2.3107683682270238e-8,3.0919355247773546e-8,1.3378918612911685e-8,1.3363838865231823e-7,4.806847017334244e-7,6.788612881634716e-8,1.3052327833596721e-7,6
47118,1.0252813070276729e-7,2.3093240671808705e-8,3.0768293830467304e-8,1.3357069908585983e-8,1.338784751500143e-7,4.807018287150236e-7,6.735586595733159e-8,1.3030798242798335e-7,6
47119,1.0013641261699546e-7,2.2982891719433968e-8,3.087523699432859e-8,1.334367589904495e-8,1.3375146055025996e-7,4.793975172321139e-7,6.734135080972101e-8,1.299751468816824e-7,6
47120,9.774469453122366e-8,2.2872542767059232e-8,3.0982180158189865e-8,1.3330281889503917e-8,1.3362444595050562e-7,4.780932057492043e-7,6.732683566211042e-8,1.2964231133538143e-7,6
47121,9.535297644545185e-8,2.2762193814684495e-8,3.108912332205115e-8,1.3316887879962883e-8,1.3349743135075126e-7,4.7678889426629465e-7,6.731232051449984e-8,1.2930947578908047e-7,6
47122,9.303821638013573e-8,2.2700078338192962e-8,3.1092758280411794e-8,1.3303530032733628e-8,1.3331226321373558e-7,4.770665352259675e-7,6.771921655132428e-8,1.289844539977028e-7,6
47123,9.096597309011424e-8,2.2587048616947787e-8,3.110344485916778e-8,1.3294697125871012e-8,1.3292217470195531e-7,4.7581588835025797e-07,6.801194943151992e-8,1.2870515179098094e-7,6
47124,8.889372980009275e-8,2.2474018895702616e-8,3.1114131437923765e-8,1.3285864219008396e-8,1.3253208619017505e-7,4.7456524147454845e-7,6.830468231171555e-8,1.284258495842591e-7,6
47125,8.682148651007126e-8,2.236098917445744e-8,3.112481801667975e-8,1.3277031312145781e-8,1.3214199767839478e-7,4.7331459459883894e-7,6.85974151919112e-8,1.2814654737753724e-7,6
47126,8.474924322004977e-8,2.2247959453212266e-8,3.113550459543574e-8,1.3268198405283165e-8,1.3175190916661452e-7,4.720639477231294e-7,6.889014807210683e-8,1.278672451708154e-7,6
47127,8.4940917421587e-8,2.22290690914944e-8,3.1125811373140684e-8,1.3265692585593204e-8,1.3145087091761018e-7,4.7186334230208625e-7,6.905639334337914e-8,1.27629839806805e-7,6
47128,8.513259162312422e-8,2.221017872977653e-8,3.1116118150845626e-8,1.3263186765903244e-8,1.3114983266860583e-7,4.7166273688104307e-7,6.922263861465145e-8,1.2739243444279465e-7,6
47129,8.532426582466143e-8,2.219128836805866e-8,3.1106424928550574e-8,1.3260680946213282e-8,1.308487944196015e-7,4.7146213145999994e-07,6.938888388592376e-8,1.2715502907878426e-7,6
47130,8.551594002619865e-8,2.2172398006340795e-8,3.1096731706255516e-8,1.3258175126523321e-8,1.3054775617059712e-7,4.7126152603895677e-7,6.955512915719607e-8,1.2691762371477387e-7,6
47131,8.570761422773588e-8,2.2153507644622926e-8,3.108703848396046e-8,1.325566930683336e-8,1.3024671792159278e-7,4.710609206179136e-7,6.972137442846839e-8,1.266802183507635e-7,6
47132,8.557610708523595e-8,2.2178652900628733e-8,3.107421043967979e-8,1.3248602384464983e-8,1.2994002594316573e-7,4.710609206179136e-7,6.990540000971916e-8,1.26932422977462e-7,6
47133,8.544459994273602e-8,2.2203798156634544e-8,3.106138239539913e-8,1.3241535462096604e-8,1.2963333396473868e-7,4.710609206179136e-7,7.008942559096993e-8,1.2718462760416047e-7,6
47134,8.531309280023609e-8,2.2228943412640354e-8,3.104855435111846e-8,1.3234468539728226e-8,1.2932664198631163e-7,4.710609206179136e-7,7.027345117222069e-8,1.2743683223085897e-7,6
47135,8.518158565773616e-8,2.225408866864616e-8,3.103572630683779e-8,1.3227401617359847e-8,1.2901995000788456e-7,4.710609206179136e-7,7.045747675347146e-8,1.2768903685755746e-7,6
47136,8.505007851523623e-8,2.227923392465197e-8,3.1022898262557125e-8,1.3220334694991469e-8,1.287132580294575e-7,4.710609206179136e-7,7.064150233472222e-8,1.2794124148425593e-7,6
47137,8.49185713727363e-8,2.230437918065778e-8,3.101007021827646e-8,1.321326777262309e-8,1.2840656605103046e-7,4.710609206179136e-7,7.082552791597299e-8,1.2819344611095443e-7,6
47138,8.478706423023638e-8,2.232952443666359e-8,3.099724217399579e-8,1.3206200850254712e-8,1.280998740726034e-7,4.710609206179136e-7,7.100955349722375e-8,1.2844565073765292e-7,6
47139,8.465555708773645e-8,2.23546696926694e-8,3.098441412971512e-8,1.3199133927886332e-8,1.2779318209417634e-7,4.710609206179136e-7,7.119357907847452e-8,1.286978553643514e-7,6
47140,8.452404994523652e-8,2.2379814948675206e-8,3.097158608543446e-8,1.3192067005517955e-8,1.274864901157493e-7,4.710609206179136e-7,7.137760465972528e-8,1.2895005999104989e-7,6
47141,8.450404526040067e-8,2.2422042557214458e-8,3.096695223758157e-8,1.316524282412411e-8,1.2748314032131002e-7,4.7100909263762763e-7,7.169405635309381e-8,1.2941323600067737e-7,6
47142,8.432232180525772e-8,2.245911646123471e-8,3.097450399435194e-8,1.3165717469033464e-8,1.2727601988257103e-7,4.70662950216895e-7,7.109655190728795e-8,1.2891980537584562e-7,6
47143,8.406699816523452e-8,2.249764496473164e-8,3.098283911080427e-8,1.3158650546665087e-8,1.2727483254573402e-7,4.699109355677386e-7,7.097939623195589e-8,1.2884698735486397e-7,6
47144,8.38116745252113e-8,2.253617346822857e-8,3.099117422725659e-8,1.3151583624296707e-8,1.27273645208897e-7,4.691589209185822e-7,7.086224055662384e-8,1.2877416933388233e-7,6
47145,8.355635088518809e-8,2.25747019717255e-8,3.099950934370891e-8,1.314451670192833e-8,1.2727245787205998e-7,4.6840690626942577e-7,7.074508488129178e-8,1.287013513129007e-7,6
47146,8.334955337381586e-8,2.25747019717255e-8,3.10206725044419e-8,1.3141902395303035e-8,1.2727039212090058e-7,4.6770175081683366e-7,7.031479398217064e-8,1.2812146628341374e-7,6
47147,8.314275586244363e-8,2.25747019717255e-8,3.1041835665174885e-8,1.3139288088677742e-8,1.2726832636974117e-7,4.669965953642416e-7,6.98845030830495e-8,1.275415812539268e-7,6
47148,8.29359583510714e-8,2.25747019717255e-8,3.106299882590788e-8,1.313667378205245e-8,1.2726626061858174e-7,4.662914399116495e-7,6.945421218392837e-8,1.2696169622443983e-7,6
47149,8.325526946637901e-8,2.260096948051413e-8,3.107446876434581e-8,1.3132160895789735e-8,1.2726531146556876e-7,4.684420678777685e-7,6.942732426120314e-8,1.286724161888582e-7,6
47150,8.357458058168662e-8,2.2627236989302756e-8,3.1085938702783744e-8,1.312764800952702e-8,1.2726436231255578e-7,4.705926958438875e-7,6.940043633847789e-8,1.3038313615327654e-7,6
47151,8.389389169699424e-8,2.2653504498091385e-8,3.109740864122168e-8,1.3123135123264305e-8,1.2726341315954277e-7,4.727433238100065e-7,6.937354841575266e-8,1.3209385611769488e-7,6
47152,8.421320281230185e-8,2.267977200688001e-8,3.110887857965961e-8,1.311862223700159e-8,1.2726246400652978e-7,4.748939517761255e-7,6.934666049302741e-8,1.3380457608211325e-7,6
47153,8.453251392760946e-8,2.270603951566864e-8,3.1120348518097544e-8,1.3114109350738876e-8,1.272615148535168e-7,4.770445797422445e-7,6.931977257030218e-8,1.355152960465316e-7,6
47154,8.485182504291707e-8,2.2732307024457266e-8,3.113181845653548e-8,1.3109596464476163e-8,1.272605657005038e-7,4.791952077083635e-7,6.929288464757694e-8,1.3722601601094996e-7,6
47155,8.517113615822469e-8,2.2758574533245895e-8,3.114328839497341e-8,1.3105083578213448e-8,1.272596165474908e-7,4.813458356744825e-7,6.92659967248517e-8,1.389367359753683e-7,6
47156,8.54904472735323e-8,2.278484204203452e-8,3.115475833341134e-8,1.3100570691950733e-8,1.2725866739447783e-7,4.834964636406015e-7,6.923910880212646e-8,1.4064745593978667e-7,6
47157,8.58097583888399e-8,2.281110955082315e-8,3.116622827184927e-8,1.3096057805688019e-8,1.2725771824146482e-7,4.856470916067205e-7,6.921222087940123e-8,1.42358175904205e-7,6
47158,8.612906950414753e-8,2.2837377059611776e-8,3.1177698210287205e-8,1.3091544919425304e-8,1.2725676908845183e-7,4.877977195728395e-7,6.918533295667598e-8,1.4406889586862335e-7,6
47159,8.644838061945514e-8,2.28636445684004e-8,3.118916814872514e-8,1.308703203316259e-8,1.2725581993543885e-7,4.899483475389585e-7,6.915844503395075e-8,1.4577961583304172e-7,6
47160,8.676769173476274e-8,2.288991207718903e-8,3.120063808716307e-8,1.3082519146899874e-8,1.2725487078242584e-7,4.920989755050775e-7,6.91315571112255e-8,1.4749033579746006e-7,6
47161,8.708700285007037e-8,2.2916179585977657e-8,3.1212108025601005e-8,1.307800626063716e-8,1.2725392162941286e-7,4.942496034711965e-7,6.910466918850027e-8,1.4920105576187842e-7,6
47162,8.740631396537797e-8,2.2942447094766286e-8,3.122357796403894e-8,1.3073493374374447e-8,1.2725297247639988e-7,4.964002314373155e-7,6.907778126577503e-8,1.5091177572629676e-7,6
47163,8.772562508068558e-8,2.2968714603554912e-8,3.123504790247687e-8,1.3068980488111732e-8,1.2725202332338687e-7,4.985508594034345e-7,6.90508933430498e-8,1.5262249569071513e-7,6
47164,8.828450137269527e-8,2.2953647860351357e-8,3.121516547128521e-8,1.3068980488111732e-8,1.272531399215333e-7,5.01679438797139e-7,6.946686298879949e-8,1.5327718835236007e-7,6
47165,8.833202524744668e-8,2.2919254725201545e-8,3.108556427059715e-8,1.3061619732392885e-8,1.271237058771666e-7,5.034207756687073e-7,6.988215907919097e-8,1.5540819267810625e-7,6
47166,8.837954912219811e-8,2.2884861590051732e-8,3.0955963069909084e-8,1.3054258976674038e-8,1.269942718327999e-7,5.051621125402757e-7,7.029745516958247e-8,1.575391970038524e-7,6
47167,8.842707299694954e-8,2.285046845490192e-8,3.082636186922102e-8,1.3046898220955191e-8,1.268648377884332e-7,5.06903449411844e-7,7.071275125997396e-8,1.5967020132959859e-7,6
47168,8.847459687170096e-8,2.2816075319752107e-8,3.069676066853296e-8,1.3039537465236346e-8,1.267354037440665e-7,5.086447862834124e-7,7.112804735036545e-8,1.6180120565534477e-7,6
47169,8.828837396259018e-8,2.2803835388057683e-8,3.056245930975322e-8,1.3067894068293589e-8,1.273021959190023e-7,5.07339965057326e-7,7.130698099741287e-8,1.617603079656032e-7,6
47170,8.810215105347939e-8,2.2791595456363256e-8,3.0428157950973485e-8,1.3096250671350832e-8,1.278689880939381e-7,5.060351438312398e-7,7.148591464446031e-8,1.6171941027586166e-7,6
47171,8.79159281443686e-8,2.2779355524668833e-8,3.029385659219375e-8,1.3124607274408075e-8,1.284357802688739e-7,5.047303226051535e-7,7.166484829150773e-8,1.616785125861201e-7,6
47172,8.772970523525781e-8,2.276711559297441e-8,3.015955523341401e-8,1.3152963877465318e-8,1.290025724438097e-7,5.034255013790671e-7,7.184378193855515e-8,1.6163761489637856e-7,6
47173,8.754348232614701e-8,2.2754875661279986e-8,3.0025253874634274e-8,1.318132048052256e-8,1.295693646187455e-7,5.021206801529809e-7,7.202271558560258e-8,1.61596717206637e-7,6
47174,8.735725941703623e-8,2.274263572958556e-8,2.989095251585454e-8,1.3209677083579803e-8,1.301361567936813e-7,5.008158589268946e-7,7.220164923265001e-8,1.6155581951689545e-7,6
47175,8.717103650792544e-8,2.2730395797891136e-8,2.9756651157074797e-8,1.3238033686637046e-8,1.3070294896861711e-7,4.995110377008083e-7,7.238058287969743e-8,1.6151492182715388e-7,6
47176,8.698481359881464e-8,2.2718155866196712e-8,2.962234979829506e-8,1.326639028969429e-8,1.3126974114355292e-7,4.98206216474722e-7,7.255951652674486e-8,1.6147402413741234e-7,6
47177,8.679859068970386e-8,2.2705915934502285e-8,2.9488048439515322e-8,1.3294746892751533e-8,1.3183653331848872e-7,4.969013952486357e-7,7.273845017379228e-8,1.614331264476708e-7,6
47178,8.661236778059308e-8,2.2693676002807862e-8,2.9353747080735585e-8,1.3323103495808776e-8,1.3240332549342452e-7,4.955965740225494e-7,7.291738382083971e-8,1.6139222875792924e-7,6
47179,8.694954920377486e-8,2.273640259754073e-8,2.9350896865314713e-8,1.333952618636483e-8,1.3309413616712834e-7,4.932262402971579e-7,7.251902266721889e-8,1.6155498804213537e-7,6
47180,8.787393265459982e-8,2.2727009374987265e-8,2.9391653700901144e-8,1.3317190783025848e-8,1.3323267402408297e-7,4.908477901164552e-7,7.21384788117895e-8,1.6155166313113636e-7,6
47181,8.787898838595636e-8,2.2747582766264745e-8,2.9397137218674766e-8,1.3317419811000438e-8,1.333373674077581e-7,4.886910733533921e-7,7.15628037655023e-8,1.6210278644543022e-7,6
47182,8.788404411731288e-8,2.2768156157542225e-8,2.9402620736448385e-8,1.331764883897503e-8,1.3344206079143325e-7,4.86534356590329e-7,7.09871287192151e-8,1.6265390975972408e-7,6
47183,8.788909984866942e-8,2.2788729548819705e-8,2.9408104254222008e-8,1.331787786694962e-8,1.3354675417510837e-7,4.843776398272657e-7,7.04114536729279e-8,1.6320503307401795e-7,6
47184,8.787311246884501e-8,2.261499682453192e-8,2.926467058672973e-8,1.3264337991097263e-8,1.3364935942215493e-7,4.819269098800834e-7,6.98429377611307e-8,1.635802632939757e-7,6
47185,8.78571250890206e-8,2.244126410024414e-8,2.9121236919237446e-8,1.3210798115244906e-8,1.337519646692015e-7,4.79476179932901e-7,6.927442184933351e-8,1.6395549351393346e-7,6
47186,8.78411377091962e-8,2.2267531375956355e-8,2.8977803251745167e-8,1.3157258239392549e-8,1.3385456991624803e-7,4.770254499857186e-7,6.87059059375363e-8,1.643307237338912e-7,6
47187,8.782515032937179e-8,2.209379865166857e-8,2.8834369584252887e-8,1.3103718363540194e-8,1.339571751632946e-7,4.745747200385363e-7,6.81373900257391e-8,1.6470595395384897e-7,6
47188,8.780916294954737e-8,2.192006592738079e-8,2.8690935916760605e-8,1.3050178487687837e-8,1.3405978041034116e-7,4.72123990091354e-7,6.756887411394191e-8,1.6508118417380671e-7,6
47189,8.781440667729649e-8,2.1743133084244303e-8,2.8569593839481284e-8,1.297703053691337e-8,1.3411595326426604e-7,4.6958688017702827e-7,6.701325359537425e-8,1.650133548037773e-7,6
47190,8.781965040504561e-8,2.156620024110782e-8,2.8448251762201964e-8,1.2903882586138906e-8,1.3417212611819093e-7,4.670497702627026e-7,6.645763307680661e-8,1.6494552543374786e-7,6
47191,8.782489413279474e-8,2.1389267397971333e-8,2.832690968492264e-8,1.2830734635364442e-8,1.342282989721158e-7,4.6451266034837696e-7,6.590201255823895e-8,1.6487769606371844e-7,6
47192,8.783013786054386e-8,2.121233455483485e-8,2.820556760764332e-8,1.2757586684589977e-8,1.342844718260407e-7,4.6197555043405125e-7,6.53463920396713e-8,1.6480986669368904e-7,6
47193,8.783538158829297e-8,2.1035401711698366e-8,2.8084225530364e-8,1.2684438733815513e-8,1.3434064467996558e-7,4.594384405197256e-7,6.479077152110365e-8,1.647420373236596e-7,6
47194,8.784062531604209e-8,2.085846886856188e-8,2.7962883453084676e-8,1.2611290783041048e-8,1.3439681753389046e-7,4.5690133060539994e-7,6.4235151002536e-8,1.6467420795363018e-7,6
47195,8.784586904379121e-8,2.0681536025425395e-8,2.7841541375805356e-8,1.2538142832266582e-8,1.3445299038781534e-7,4.5436422069107423e-7,6.367953048396834e-8,1.6460637858360076e-7,6
47196,8.785111277154033e-8,2.0504603182288908e-8,2.7720199298526035e-8,1.2464994881492118e-8,1.3450916324174022e-7,4.518271107767486e-7,6.31239099654007e-8,1.6453854921357133e-7,6
47197,8.785635649928946e-8,2.0327670339152425e-8,2.7598857221246712e-8,1.2391846930717653e-8,1.3456533609566508e-7,4.492900008624229e-7,6.256828944683304e-8,1.644707198435419e-7,6
47198,8.786160022703857e-8,2.0150737496015938e-8,2.747751514396739e-8,1.2318698979943189e-8,1.3462150894958996e-7,4.467528909480972e-7,6.201266892826539e-8,1.6440289047351248e-7,6
47199,8.786684395478769e-8,1.9973804652879454e-8,2.735617306668807e-8,1.2245551029168724e-8,1.3467768180351485e-7,4.4421578103377156e-7,6.145704840969773e-8,1.6433506110348305e-7,6
47200,8.711466672976807e-8,1.9918962873000564e-8,2.7358742825317687e-8,1.2188464145832536e-8,1.3474135833966702e-7,4.44430309198193e-7,6.0290275747311e-8,1.6434536868986182e-7,6
47201,8.636248950474846e-8,1.9864121093121678e-8,2.7361312583947303e-8,1.213137726249635e-8,1.3480503487581916e-7,4.446448373626144e-7,5.9123503084924255e-8,1.6435567627624056e-7,6
47202,8.622433785540604e-8,1.98230985909623e-8,2.728628408655596e-8,1.1932177368211703e-8,1.3447320735459237e-7,4.443547780005861e-7,5.9050258564512664e-8,1.6426008302659956e-7,6
47203,8.610471894749772e-8,1.9779893839973283e-8,2.7475799205031994e-8,1.1790064357263243e-8,1.341179572400429e-7,4.448241783816255e-7,5.8961650538891284e-8,1.6413506327717393e-7,6
47204,8.59851000395894e-8,1.9736689088984266e-8,2.7665314323508026e-8,1.1647951346314783e-8,1.3376270712549346e-7,4.452935787626649e-7,5.88730425132699e-8,1.640100435277483e-7,6
47205,8.587270623186214e-8,1.97012567877251e-8,2.7568194235903723e-8,1.1450734410395037e-8,1.3354948972200215e-7,4.4495767645775706e-7,5.8799797992858313e-8,1.6463680930830069e-7,6
47206,8.576031242413488e-8,1.9665824486465936e-8,2.747107414829942e-8,1.1253517474475292e-8,1.3333627231851086e-7,4.4462177415284926e-7,5.872655347244672e-8,1.6526357508885305e-7,6
47207,8.564791861640761e-8,1.9630392185206772e-8,2.7373954060695118e-8,1.1056300538555546e-8,1.3312305491501957e-7,4.442858718479414e-7,5.865330895203513e-8,1.6589034086940544e-7,6
47208,8.553552480868035e-8,1.9594959883947607e-8,2.7276833973090815e-8,1.0859083602635801e-8,1.329098375115283e-7,4.439499695430336e-7,5.858006443162354e-8,1.665171066499578e-7,6
47209,8.542313100095308e-8,1.9559527582688443e-8,2.7179713885486513e-8,1.0661866666716056e-8,1.32696620108037e-7,4.4361406723812576e-7,5.8506819911211946e-8,1.6714387243051018e-7,6
47210,8.531073719322582e-8,1.9524095281429278e-8,2.708259379788221e-8,1.0464649730796312e-8,1.324834027045457e-7,4.4327816493321796e-7,5.8433575390800355e-8,1.6777063821106257e-7,6
47211,8.519834338549856e-8,1.9488662980170113e-8,2.6985473710277908e-8,1.0267432794876567e-8,1.322701853010544e-7,4.429422626283101e-7,5.836033087038877e-8,1.6839740399161494e-7,6
47212,8.50859495777713e-8,1.945323067891095e-8,2.688835362267361e-8,1.0070215858956821e-8,1.320569678975631e-7,4.426063603234023e-7,5.828708634997718e-8,1.6902416977216733e-7,6
47213,8.497355577004404e-8,1.9417798377651784e-8,2.6791233535069306e-8,9.872998923037076e-9,1.3184375049407182e-7,4.4227045801849446e-7,5.8213841829565586e-8,1.696509355527197e-7,6
47214,8.486116196231677e-8,1.9382366076392616e-8,2.6694113447465004e-8,9.67578198711733e-9,1.3163053309058053e-7,4.4193455571358666e-7,5.8140597309153994e-8,1.7027770133327209e-7,6
47215,8.47487681545895e-8,1.9346933775133452e-8,2.65969933598607e-8,9.478565051197585e-9,1.3141731568708925e-7,4.415986534086788e-7,5.80673527887424e-8,1.7090446711382445e-7,6
47216,8.463637434686224e-8,1.9311501473874287e-8,2.64998732722564e-8,9.281348115277841e-9,1.3120409828359796e-7,4.41262751103771e-7,5.799410826833081e-8,1.7153123289437685e-7,6
47217,8.452398053913498e-8,1.9276069172615123e-8,2.6402753184652096e-8,9.084131179358096e-9,1.3099088088010665e-7,4.4092684879886316e-7,5.7920863747919226e-8,1.721579986749292e-7,6
47218,8.441158673140772e-8,1.9240636871355958e-8,2.6305633097047794e-8,8.88691424343835e-9,1.3077766347661536e-7,4.4059094649395536e-7,5.7847619227507634e-8,1.7278476445548158e-7,6
47219,8.429919292368046e-8,1.9205204570096793e-8,2.620851300944349e-8,8.689697307518605e-9,1.3056444607312407e-7,4.402550441890475e-7,5.777437470709604e-8,1.7341153023603397e-7,6
47220,8.41867991159532e-8,1.916977226883763e-8,2.611139292183919e-8,8.49248037159886e-9,1.3035122866963278e-7,4.399191418841397e-7,5.770113018668445e-8,1.7403829601658634e-7,6
47221,8.407440530822592e-8,1.9134339967578464e-8,2.6014272834234886e-8,8.295263435679116e-9,1.301380112661415e-7,4.3958323957923185e-7,5.762788566627286e-8,1.7466506179713873e-7,6
47222,8.396201150049866e-8,1.90989076663193e-8,2.5917152746630584e-8,8.09804649975937e-9,1.2992479386265018e-7,4.3924733727432405e-7,5.755464114586127e-8,1.752918275776911e-7,6
47223,8.334335007048469e-8,1.902004265014101e-8,2.5908389337073325e-8,8.095432193134076e-9,1.3004530945097787e-7,4.3936069387003435e-7,5.753900976998639e-8,1.7554735309735396e-7,6
47224,8.323753553353937e-8,1.9011002604218874e-8,2.5953844947493604e-8,8.086599286271462e-9,1.2971970515098157e-7,4.3927444578360433e-7,5.756676036930945e-8,1.7572108626752705e-7,6
47225,8.361079678985061e-8,1.9151609090319897e-8,2.6022171358035306e-8,8.083120068554938e-9,1.3035269001312474e-7,4.382370519062075e-7,5.7744820005151874e-8,1.7581950758526303e-7,6
47226,8.398405804616186e-8,1.9292215576420916e-8,2.6090497768577007e-8,8.079640850838414e-9,1.3098567487526788e-7,4.3719965802881066e-7,5.792287964099431e-8,1.7591792890299904e-7,6
47227,8.43573193024731e-8,1.9432822062521936e-8,2.615882417911871e-8,8.076161633121893e-9,1.3161865973741104e-7,4.3616226415141377e-7,5.8100939276836733e-8,1.7601635022073504e-7,6
47228,8.473058055878433e-8,1.9573428548622955e-8,2.622715058966041e-8,8.072682415405369e-9,1.322516445995542e-7,4.3512487027401694e-7,5.8278998912679167e-8,1.7611477153847102e-7,6
47229,8.510384181509557e-8,1.9714035034723978e-8,2.629547700020211e-8,8.069203197688845e-9,1.3288462946169735e-7,4.340874763966201e-7,5.845705854852159e-8,1.7621319285620703e-7,6
47230,8.547710307140682e-8,1.9854641520824998e-8,2.6363803410743813e-8,8.065723979972323e-9,1.3351761432384052e-7,4.3305008251922327e-7,5.863511818436402e-8,1.7631161417394303e-7,6
47231,8.585036432771805e-8,1.9995248006926017e-8,2.6432129821285514e-8,8.0622447622558e-9,1.3415059918598368e-7,4.3201268864182643e-7,5.881317782020645e-8,1.76410035491679e-7,6
47232,8.622362558402929e-8,2.0135854493027037e-8,2.6500456231827216e-8,8.058765544539276e-9,1.3478358404812682e-7,4.309752947644296e-7,5.899123745604888e-8,1.7650845680941502e-7,6
47233,8.659688684034054e-8,2.0276460979128056e-8,2.656878264236892e-8,8.055286326822754e-9,1.3541656891027e-7,4.2993790088703276e-7,5.916929709189131e-8,1.76606878127151e-7,6
47234,8.697014809665178e-8,2.041706746522908e-8,2.6637109052910622e-8,8.05180710910623e-9,1.3604955377241313e-7,4.289005070096359e-7,5.934735672773374e-8,1.76705299444887e-7,6
47235,8.745097634583701e-8,2.051039655488278e-8,2.6619368087243636e-8,7.976692788927037e-9,1.3691589599333846e-7,4.2862631045315744e-7,5.948355152833611e-8,1.7673622220402325e-7,6
47236,8.793180459502225e-8,2.0603725644536485e-8,2.6601627121576653e-8,7.901578468747844e-9,1.3778223821426379e-7,4.28352113896679e-7,5.961974632893849e-8,1.767671449631595e-7,6
47237,9.032388385295964e-8,2.0607154892697347e-8,2.6519335623753155e-8,7.816074711834785e-9,1.3776896171070181e-07,4.2806636133069773e-7,5.975594112954086e-8,1.7722250511004223e-7,6
47238,9.161487812500552e-8,2.054555899926049e-8,2.6846157069032617e-8,7.76961834731098e-9,1.3770756672406393e-7,4.2793801402029565e-7,6.09505252444613e-8,1.775265769650675e-7,6
47239,9.29058723970514e-8,2.0483963105823633e-8,2.7172978514312077e-8,7.723161982787177e-9,1.3764617173742604e-7,4.2780966670989357e-7,6.214510935938176e-8,1.7783064882009274e-7,6
47240,9.419686666909728e-8,2.0422367212386775e-8,2.7499799959591536e-8,7.676705618263372e-9,1.3758477675078815e-7,4.2768131939949144e-7,6.333969347430221e-8,1.78134720675118e-7,6
47241,9.548786094114315e-8,2.0360771318949918e-8,2.7826621404871e-8,7.630249253739568e-9,1.3752338176415028e-7,4.2755297208908936e-7,6.453427758922267e-8,1.7843879253014327e-7,6
47242,9.677210158605139e-8,2.0336768679511576e-8,2.8183717570728578e-8,7.666352343841284e-9,1.374373911764851e-7,4.2751697879317764e-7,6.546558270007659e-8,1.7860753579784515e-7,6
47243,9.804945516757697e-8,2.0340052118110154e-8,2.85834260478747e-8,7.704925091321182e-9,1.37234063767515e-7,4.2757343357328854e-7,6.667428105091404e-8,1.7892391104215102e-7,6
47244,9.932680874910258e-8,2.0343335556708732e-8,2.8983134525020824e-8,7.743497838801082e-9,1.370307363585449e-7,4.2762988835339945e-7,6.78829794017515e-8,1.792402862864569e-7,6
47245,1.0060416233062816e-7,2.034661899530731e-8,2.9382843002166947e-8,7.782070586280982e-9,1.3682740894957477e-7,4.2768634313351035e-7,6.909167775258896e-8,1.795566615307628e-7,6
47246,1.0218481236756318e-7,2.0452250972620667e-8,2.965965928176379e-8,7.820341981162735e-9,1.3654499201104053e-7,4.275979148199352e-7,6.924616295089417e-8,1.8041036235094349e-7,6
47247,1.0376546240449819e-7,2.055788294993402e-8,2.993647556136063e-8,7.858613376044489e-9,1.3626257507250626e-7,4.275094865063601e-7,6.940064814919938e-8,1.8126406317112415e-7,6
47248,1.053461124414332e-7,2.0663514927247377e-8,3.021329184095747e-8,7.896884770926242e-9,1.3598015813397202e-7,4.2742105819278494e-7,6.955513334750459e-8,1.8211776399130484e-7,6
47249,1.0692676247836821e-7,2.0769146904560734e-8,3.049010812055431e-8,7.935156165807996e-9,1.3569774119543775e-7,4.2733262987920983e-7,6.97096185458098e-8,1.8297146481148554e-7,6
47250,1.0850741251530322e-7,2.0874778881874088e-8,3.076692440015115e-8,7.973427560689749e-9,1.3541532425690351e-7,4.2724420156563473e-7,6.986410374411502e-8,1.8382516563166623e-7,6
47251,1.1008806255223823e-7,2.0980410859187445e-8,3.104374067974799e-8,8.011698955571503e-9,1.3513290731836925e-7,4.271557732520596e-7,7.001858894242023e-8,1.8467886645184692e-7,6
47252,1.1166871258917324e-7,2.10860428365008e-8,3.1320556959344835e-8,8.049970350453256e-9,1.3485049037983498e-7,4.2706734493848447e-7,7.017307414072544e-8,1.855325672720276e-7,6
47253,1.1324936262610825e-7,2.1191674813814155e-8,3.159737323894167e-8,8.08824174533501e-9,1.3456807344130074e-7,4.269789166249093e-7,7.032755933903064e-8,1.863862680922083e-7,6
47254,1.1483001266304326e-7,2.129730679112751e-8,3.187418951853851e-8,8.126513140216763e-9,1.3428565650276648e-7,4.268904883113342e-7,7.048204453733585e-8,1.8723996891238897e-7,6
47255,1.1641066269997827e-7,2.1402938768440866e-8,3.2151005798135356e-8,8.164784535098517e-9,1.3400323956423224e-7,4.2680205999775906e-7,7.063652973564106e-8,1.8809366973256966e-7,6
47256,1.1799131273691329e-7,2.1508570745754223e-8,3.2427822077732194e-8,8.20305592998027e-9,1.3372082262569797e-7,4.2671363168418396e-7,7.079101493394627e-8,1.8894737055275035e-7,6
47257,1.195719627738483e-7,2.1614202723067577e-8,3.270463835732903e-8,8.241327324862023e-9,1.3343840568716373e-7,4.2662520337060886e-7,7.094550013225148e-8,1.8980107137293104e-7,6
47258,1.2066383772004438e-7,2.154325503387578e-8,3.299577479078468e-8,8.27855299709366e-9,1.334165312886972e-7,4.259857579141117e-7,7.032862426008335e-8,1.907304161084975e-7,6
47259,1.2175571266624047e-7,2.1472307344683985e-8,3.3286911224240326e-8,8.315778669325296e-9,1.3339465689023068e-7,4.253463124576146e-7,6.971174838791522e-8,1.9165976084406395e-7,6
47260,1.233482509377671e-7,2.1578521161788015e-8,3.352845418602436e-8,8.344135272382539e-9,1.3276016502188664e-7,4.2457310548783945e-7,6.962360391580619e-8,1.9251927968213547e-7,6
47261,1.247415459425292e-7,2.1541260254483364e-8,3.3715493521266117e-08,8.354440330388925e-9,1.3278973293318302e-7,4.213847319624215e-7,6.971561670643158e-8,1.9323764914847714e-7,6
47262,1.261348409472913e-7,2.1503999347178713e-8,3.390253285650787e-8,8.364745388395309e-9,1.328193008444794e-7,4.1819635843700346e-7,6.980762949705695e-8,1.9395601861481882e-7,6
47263,1.2776261633378393e-7,2.1498118226383167e-8,3.3956616489492175e-8,8.364745388395309e-9,1.3282013448786348e-7,4.1511279676394653e-7,6.988636030175782e-8,1.948846981705772e-7,6
47264,1.2939039172027654e-7,2.1492237105587618e-8,3.401070012247648e-8,8.364745388395309e-9,1.3282096813124756e-7,4.120292350908896e-7,6.996509110645869e-8,1.9581337772633557e-7,6
47265,1.3101816710676918e-7,2.1486355984792068e-8,3.4064783755460786e-8,8.364745388395309e-9,1.3282180177463163e-7,4.0894567341783266e-7,7.004382191115956e-8,1.9674205728209397e-7,6
47266,1.3264594249326179e-7,2.148047486399652e-8,3.411886738844509e-8,8.364745388395309e-9,1.328226354180157e-7,4.0586211174477573e-7,7.012255271586042e-8,1.9767073683785235e-7,6
47267,1.3427371787975442e-7,2.147459374320097e-8,3.4172951021429396e-8,8.364745388395309e-9,1.3282346906139978e-7,4.027785500717188e-7,7.020128352056129e-8,1.9859941639361075e-7,6
47268,1.3590149326624705e-7,2.1468712622405424e-8,3.42270346544137e-8,8.364745388395309e-9,1.3282430270478383e-7,3.9969498839866187e-7,7.028001432526216e-8,1.9952809594936912e-7,6
47269,1.3752926865273966e-7,2.1462831501609875e-8,3.4281118287398007e-8,8.364745388395309e-9,1.328251363481679e-7,3.9661142672560494e-7,7.035874512996303e-8,2.0045677550512753e-7,6
47270,1.391570440392323e-7,2.1456950380814325e-8,3.433520192038231e-8,8.364745388395309e-9,1.3282596999155198e-7,3.93527865052548e-7,7.043747593466389e-8,2.013854550608859e-7,6
47271,1.407848194257249e-7,2.1451069260018776e-8,3.438928555336661e-8,8.364745388395309e-9,1.3282680363493606e-7,3.904443033794911e-7,7.051620673936476e-8,2.023141346166443e-7,6
47272,1.4241259481221754e-7,2.1445188139223227e-8,3.4443369186350916e-8,8.364745388395309e-9,1.3282763727832013e-7,3.8736074170643414e-7,7.059493754406563e-8,2.0324281417240268e-7,6
47273,1.4404037019871017e-7,2.143930701842768e-8,3.449745281933522e-8,8.364745388395309e-9,1.328284709217042e-7,3.842771800333772e-7,7.067366834876649e-8,2.0417149372816108e-7,6
47274,1.4566814558520278e-7,2.1433425897632132e-8,3.4551536452319526e-8,8.364745388395309e-9,1.3282930456508829e-7,3.811936183603203e-7,7.075239915346736e-8,2.0510017328391946e-7,6
47275,1.4729592097169542e-7,2.1427544776836583e-8,3.460562008530383e-8,8.364745388395309e-9,1.3283013820847236e-7,3.7811005668726335e-7,7.083112995816823e-8,2.0602885283967786e-7,6
47276,1.4892369635818805e-7,2.1421663656041033e-8,3.4659703718288137e-8,8.364745388395309e-9,1.3283097185185644e-7,3.750264950142064e-7,7.09098607628691e-8,2.0695753239543624e-7,6
47277,1.5055147174468066e-7,2.1415782535245484e-8,3.471378735127244e-8,8.364745388395309e-9,1.3283180549524049e-7,3.719429333411495e-7,7.098859156756996e-8,2.0788621195119464e-7,6
47278,1.521792471311733e-7,2.1409901414449938e-8,3.476787098425675e-8,8.364745388395309e-9,1.3283263913862456e-7,3.6885937166809256e-7,7.106732237227084e-8,2.08814891506953e-7,6
47279,1.538070225176659e-7,2.140402029365439e-8,3.482195461724105e-8,8.364745388395309e-9,1.3283347278200864e-7,3.657758099950356e-7,7.11460531769717e-8,2.0974357106271142e-7,6
47280,1.5543479790415854e-7,2.139813917285884e-8,3.487603825022536e-8,8.364745388395309e-9,1.328343064253927e-7,3.626922483219787e-7,7.122478398167256e-8,2.106722506184698e-7,6
47281,1.5585004219078435e-7,2.138966013678991e-8,3.4915583433024904e-8,8.245837226733307e-9,1.3116525195001403e-7,3.6030010748120014e-7,7.053682206919549e-8,2.1027025534252328e-7,6
47282,1.5626528647741017e-7,2.1381181100720982e-8,3.495512861582446e-8,8.126929065071307e-9,1.2949619747463532e-7,3.579079666404216e-7,6.984886015671842e-8,2.0986826006657676e-7,6
47283,1.550477814864082e-7,2.1350777757432415e-8,3.4935890007548024e-8,8.014347990581961e-9,1.28037159250256e-7,3.5662441434108984e-7,6.906692742936012e-8,2.086248673597302e-7,6
47284,1.5469399116995276e-7,2.1530599202661206e-8,3.491244722778147e-8,7.887898261642225e-9,1.2643733833400933e-7,3.541649951634513e-7,6.852266905645742e-8,2.0743151527151502e-7,6
47285,1.543402008534973e-7,2.1710420647889998e-8,3.4889004448014913e-08,7.761448532702491e-9,1.2483751741776265e-7,3.517055759858128e-7,6.797841068355472e-8,2.0623816318329987e-7,6
47286,1.5398641053704186e-7,2.189024209311879e-8,3.486556166824836e-8,7.634998803762755e-9,1.2323769650151597e-7,3.4924615680817426e-7,6.743415231065202e-8,2.050448110950847e-7,6
47287,1.5363262022058642e-7,2.207006353834758e-8,3.4842118888481796e-8,7.50854907482302e-9,1.2163787558526932e-7,3.4678673763053574e-7,6.688989393774932e-8,2.0385145900686953e-7,6
47288,1.5327882990413098e-7,2.2249884983576372e-8,3.481867610871524e-8,7.382099345883286e-9,1.2003805466902264e-7,3.443273184528972e-7,6.634563556484662e-8,2.0265810691865438e-7,6
47289,1.5292503958767552e-7,2.2429706428805164e-8,3.4795233328948686e-8,7.255649616943551e-9,1.1843823375277594e-7,3.418678992752587e-7,6.580137719194393e-8,2.0146475483043922e-7,6
47290,1.5257124927122008e-7,2.2609527874033956e-8,3.477179054918213e-8,7.129199888003816e-9,1.1683841283652928e-7,3.3940848009762016e-7,6.525711881904123e-8,2.0027140274222404e-7,6
47291,1.5221745895476465e-7,2.2789349319262747e-8,3.4748347769415575e-8,7.002750159064081e-9,1.152385919202826e-7,3.3694906091998164e-7,6.471286044613853e-8,1.9907805065400888e-7,6
47292,1.518636686383092e-7,2.296917076449154e-8,3.472490498964902e-8,6.876300430124346e-9,1.1363877100403592e-7,3.344896417423431e-7,6.416860207323583e-8,1.978846985657937e-7,6
47293,1.5271917434647716e-7,2.3182284155101205e-8,3.4686717912692206e-8,6.874780062564874e-9,1.133628038319363e-7,3.345223257484422e-7,6.437956986881485e-8,1.9802551271284274e-7,6
47294,1.5357468005464514e-7,2.339539754571087e-8,3.464853083573539e-8,6.873259695005401e-9,1.1308683665983668e-7,3.3455500975454134e-7,6.459053766439386e-8,1.9816632685989175e-7,6
47295,1.544301857628131e-7,2.3608510936320536e-8,3.4610343758778576e-8,6.871739327445929e-9,1.1281086948773706e-7,3.3458769376064043e-7,6.480150545997287e-8,1.9830714100694079e-7,6
47296,1.559357529955531e-7,2.361139953841284e-8,3.456959107296563e-8,6.87020690578253e-9,1.1305470335249306e-7,3.348529787013658e-7,6.487891958056266e-8,1.9880755569041009e-7,6
47297,1.5694546414953114e-7,2.361923424487869e-8,3.465189225359392e-8,6.891009887458113e-9,1.1301791471373175e-7,3.3700769107823494e-7,6.542606785774544e-8,1.9913290980821412e-7,6
47298,1.5795517530350918e-7,2.362706895134454e-8,3.4734193434222206e-8,6.911812869133697e-9,1.1298112607497044e-7,3.391624034551041e-7,6.597321613492821e-8,1.9945826392601812e-7,6
47299,1.589648864574872e-7,2.3634903657810388e-8,3.48164946148505e-8,6.9326158508092795e-9,1.1294433743620914e-7,3.4131711583197324e-7,6.652036441211099e-8,1.9978361804382212e-7,6
47300,1.5995666977931957e-7,2.364959616136873e-8,3.491568155819373e-8,6.947397632766602e-9,1.1310803680371577e-7,3.420071519218287e-7,6.709264602800136e-8,1.997528632263734e-7,6
47301,1.6094845310115193e-7,2.3664288664927073e-8,3.5014868501536954e-08,6.962179414723924e-9,1.132717361712224e-7,3.426971880116841e-7,6.766492764389175e-8,1.9972210840892468e-7,6
47302,1.619402364229843e-7,2.3678981168485415e-8,3.511405544488019e-8,6.976961196681246e-9,1.1343543553872901e-7,3.433872241015395e-7,6.823720925978213e-8,1.9969135359147595e-7,6
47303,1.6293201974481665e-7,2.3693673672043757e-8,3.5213242388223413e-08,6.9917429786385676e-9,1.1359913490623563e-7,3.4407726019139494e-7,6.88094908756725e-8,1.996605987740272e-7,6
47304,1.6392380306664903e-7,2.37083661756021e-8,3.531242933156664e-8,7.00652476059589e-9,1.1376283427374226e-7,3.447672962812503e-7,6.938177249156289e-8,1.9962984395657848e-7,6
47305,1.6467613033207446e-7,2.3709550685120913e-8,3.529426145605255e-8,7.000503560877628e-9,1.1366248819074082e-7,3.460361869191131e-7,6.937705760405544e-8,1.9953092612528558e-7,6
47306,1.654284575974999e-7,2.371073519463973e-8,3.527609358053846e-8,6.9944823611593674e-9,1.1356214210773937e-7,3.473050775569758e-7,6.9372342716548e-8,1.9943200829399268e-7,6
47307,1.6618078486292533e-7,2.3711919704158545e-8,3.525792570502437e-8,6.988461161441106e-9,1.1346179602473792e-7,3.485739681948386e-7,6.936762782904055e-8,1.9933309046269975e-7,6
47308,1.6693311212835078e-7,2.371310421367736e-8,3.523975782951027e-8,6.982439961722845e-9,1.1336144994173646e-7,3.498428588327013e-7,6.936291294153311e-8,1.9923417263140685e-7,6
47309,1.6768543939377623e-7,2.3714288723196173e-8,3.522158995399618e-8,6.976418762004583e-9,1.1326110385873503e-7,3.511117494705641e-7,6.935819805402566e-8,1.9913525480011395e-7,6
47310,1.6843776665920166e-7,2.371547323271499e-8,3.520342207848209e-8,6.970397562286322e-9,1.1316075777573357e-7,3.523806401084268e-7,6.935348316651822e-8,1.9903633696882102e-7,6
47311,1.691900939246271e-7,2.3716657742233806e-8,3.5185254202968e-8,6.964376362568061e-9,1.1306041169273212e-7,3.536495307462896e-7,6.934876827901077e-8,1.9893741913752812e-7,6
47312,1.6994242119005253e-7,2.371784225175262e-8,3.5167086327453905e-8,6.958355162849799e-9,1.1296006560973067e-7,3.549184213841523e-7,6.934405339150334e-8,1.9883850130623522e-7,6
47313,1.7069474845547798e-7,2.3719026761271434e-8,3.5148918451939815e-8,6.952333963131538e-9,1.1285971952672923e-7,3.5618731202201503e-7,6.93393385039959e-8,1.987395834749423e-7,6
47314,1.7144707572090344e-7,2.372021127079025e-8,3.5130750576425725e-8,6.9463127634132765e-9,1.1275937344372778e-7,3.574562026598778e-7,6.933462361648845e-8,1.986406656436494e-7,6
47315,1.7220936440863612e-7,2.3718818928049565e-8,3.513388401515351e-8,6.9404241588382e-9,1.1279993989135497e-7,3.596902400545558e-7,6.931624193896962e-8,1.9730932978190992e-7,6
47316,1.729716530963688e-7,2.371742658530888e-8,3.513701745388129e-8,6.934535554263122e-9,1.1284050633898218e-7,3.619242774492337e-7,6.92978602614508e-8,1.9597799392017044e-7,6
47317,1.733548046106789e-7,2.369014050727196e-8,3.508500067663591e-8,6.9221872673722065e-9,1.1288817442216229e-7,3.6329571502450535e-7,6.907233078404916e-8,1.953332717758796e-7,6
47318,1.7373795612498902e-7,2.366285442923504e-8,3.503298389939053e-8,6.90983898048129e-9,1.1293584250534239e-7,3.6466715259977703e-7,6.884680130664751e-8,1.946885496315888e-7,6
47319,1.736271920128584e-7,2.3671935668879288e-8,3.5082994598104465e-8,7.011435432288157e-9,1.1296313244940759e-7,3.638045527803707e-7,6.892822155978167e-8,1.9462953046880635e-7,6
47320,1.7323411703222778e-7,2.3658157584881894e-8,3.512288793119189e-8,7.019890127072824e-9,1.1544160860799623e-7,3.6419925785181445e-7,6.889496856856262e-8,1.9389320272851307e-7,6
47321,1.732537641119805e-7,2.3663747785782107e-8,3.524985859604285e-8,7.0387945291109855e-9,1.1573567595197957e-7,3.6286364710522865e-7,6.869764668238873e-8,1.938245384585137e-7,6
47322,1.7327341119173324e-7,2.3669337986682316e-8,3.537682926089382e-8,7.057698931149148e-9,1.160297432959629e-7,3.6152803635864286e-7,6.850032479621483e-8,1.9375587418851435e-7,6
47323,1.7329305827148596e-7,2.367492818758253e-8,3.550379992574479e-8,7.07660333318731e-9,1.1632381063994624e-7,3.6019242561205707e-7,6.830300291004094e-8,1.9368720991851498e-7,6
47324,1.7331270535123868e-7,2.368051838848274e-8,3.563077059059576e-8,7.095507735225472e-9,1.1661787798392959e-7,3.588568148654713e-7,6.810568102386705e-8,1.936185456485156e-7,6
47325,1.733323524309914e-7,2.3686108589382954e-8,3.575774125544672e-8,7.114412137263634e-9,1.1691194532791292e-7,3.575212041188855e-7,6.790835913769315e-8,1.9354988137851626e-7,6
47326,1.733519995107441e-7,2.3691698790283167e-8,3.5884711920297695e-8,7.133316539301796e-9,1.1720601267189626e-7,3.5618559337229964e-7,6.771103725151927e-8,1.934812171085169e-7,6
47327,1.7337164659049683e-7,2.369728899118338e-8,3.601168258514866e-8,7.152220941339958e-9,1.1750008001587959e-7,3.5484998262571384e-7,6.751371536534538e-8,1.9341255283851754e-7,6
47328,1.7339129367024955e-7,2.370287919208359e-8,3.6138653249999626e-8,7.17112534337812e-9,1.1779414735986293e-7,3.5351437187912805e-7,6.731639347917148e-8,1.9334388856851817e-7,6
47329,1.7341094075000226e-7,2.37084693929838e-8,3.626562391485059e-8,7.190029745416282e-9,1.1808821470384628e-7,3.5217876113254226e-7,6.711907159299759e-8,1.932752242985188e-7,6
47330,1.7343058782975498e-7,2.3714059593884014e-8,3.6392594579701564e-8,7.208934147454444e-9,1.183822820478296e-7,3.5084315038595647e-7,6.69217497068237e-8,1.9320656002851945e-7,6
47331,1.734502349095077e-7,2.3719649794784227e-8,3.651956524455253e-8,7.227838549492606e-9,1.1867634939181295e-7,3.495075396393707e-7,6.67244278206498e-8,1.9313789575852008e-7,6
47332,1.7346988198926042e-7,2.372523999568444e-8,3.6646535909403495e-8,7.2467429515307675e-9,1.1897041673579628e-7,3.481719288927849e-7,6.652710593447591e-8,1.9306923148852073e-7,6
47333,1.7348952906901313e-7,2.373083019658465e-8,3.677350657425447e-8,7.26564735356893e-9,1.1926448407977963e-07,3.468363181461991e-7,6.632978404830202e-8,1.9300056721852136e-7,6
47334,1.7350917614876585e-7,2.373642039748486e-8,3.690047723910543e-8,7.2845517556070915e-9,1.1955855142376296e-7,3.455007073996133e-7,6.613246216212812e-8,1.9293190294852199e-7,6
47335,1.7352882322851857e-7,2.3742010598385074e-8,3.70274479039564e-8,7.303456157645254e-9,1.198526187677463e-7,3.441650966530275e-7,6.593514027595423e-8,1.9286323867852264e-7,6
47336,1.7354847030827129e-7,2.3747600799285287e-8,3.715441856880737e-8,7.322360559683416e-9,1.2014668611172962e-7,3.4282948590644166e-7,6.573781838978035e-8,1.9279457440852327e-7,6
47337,1.73963375377516e-7,2.37813706678459e-8,3.7315238135389624e-8,7.33258123896232e-9,1.2043745201449512e-7,3.4109917008841214e-7,6.547635780733354e-8,1.93599394656702e-7,6
47338,1.743782804467607e-7,2.381514053640651e-8,3.747605770197188e-8,7.342801918241224e-9,1.2072821791726062e-7,3.393688542703826e-7,6.521489722488673e-8,1.9440421490488078e-7,6
47339,1.7479619167474558e-7,2.381514053640651e-8,3.7489381732854095e-8,7.3303571985189015e-9,1.2092039456566946e-7,3.379306965863879e-7,6.520744635473396e-8,1.9508035605838708e-7,6
47340,1.7521410290273044e-7,2.381514053640651e-8,3.750270576373631e-8,7.317912478796578e-9,1.211125712140783e-7,3.364925389023932e-7,6.519999548458118e-8,1.9575649721189336e-7,6
47341,1.7563201413071528e-7,2.381514053640651e-8,3.751602979461853e-8,7.305467759074256e-9,1.2130474786248714e-7,3.350543812183985e-7,6.51925446144284e-8,1.9643263836539967e-7,6
47342,1.7609180698050863e-7,2.3780975831339625e-8,3.734822906765321e-8,7.260760790084514e-9,1.2128467864588686e-7,3.3420113229284273e-7,6.521838670809908e-8,1.9682166421595503e-7,6
47343,1.76551599830302e-7,2.3746811126272744e-8,3.7180428340687885e-8,7.216053821094774e-9,1.2126460942928657e-7,3.33347883367287e-7,6.524422880176975e-8,1.972106900665104e-7,6
47344,1.7701139268009534e-7,2.371264642120586e-8,3.701262761372256e-8,7.171346852105033e-9,1.212445402126863e-7,3.3249463444173124e-7,6.527007089544042e-8,1.9759971591706576e-7,6
47345,1.774711855298887e-7,2.3678481716138977e-8,3.684482688675724e-8,7.126639883115292e-9,1.2122447099608598e-7,3.316413855161755e-7,6.529591298911111e-8,1.9798874176762112e-7,6
47346,1.7793097837968205e-7,2.3644317011072092e-8,3.667702615979191e-8,7.081932914125551e-9,1.212044017794857e-7,3.3078813659061974e-7,6.532175508278178e-8,1.9837776761817646e-7,6
47347,1.783907712294754e-7,2.3610152306005207e-8,3.6509225432826585e-8,7.03722594513581e-9,1.2118433256288542e-7,3.29934887665064e-7,6.534759717645245e-8,1.9876679346873182e-7,6
47348,1.7885056407926873e-7,2.3575987600938325e-8,3.6341424705861265e-8,6.992518976146069e-9,1.211642633462851e-7,3.2908163873950825e-7,6.537343927012312e-8,1.9915581931928718e-7,6
47349,1.7931035692906208e-7,2.354182289587144e-8,3.617362397889594e-8,6.947812007156328e-9,1.2114419412968483e-7,3.282283898139525e-7,6.53992813637938e-8,1.9954484516984254e-7,6
47350,1.7977014977885544e-7,2.350765819080456e-8,3.600582325193061e-8,6.903105038166587e-9,1.2112412491308454e-7,3.2737514088839675e-7,6.542512345746447e-8,1.999338710203979e-7,6
47351,1.7983222408189237e-7,2.350765819080456e-8,3.6008601624081385e-8,6.889747190937331e-9,1.2094567516813346e-7,3.279155759315972e-7,6.546357875470098e-8,2.0042347896915472e-7,6
47352,1.798942983849293e-7,2.350765819080456e-8,3.601137999623216e-8,6.876389343708075e-9,1.207672254231824e-7,3.284560109747977e-7,6.550203405193751e-8,2.0091308691791157e-7,6
47353,1.7995637268796622e-7,2.350765819080456e-8,3.601415836838294e-8,6.863031496478819e-9,1.2058877567823132e-7,3.2899644601799815e-7,6.554048934917402e-8,2.014026948666684e-7,6
47354,1.7957790387635142e-7,2.3520895861809807e-8,3.6121101532244216e-8,6.850622939068274e-9,1.206583629308163e-7,3.2899893040985895e-7,6.55456516825871e-8,2.0137459787019743e-7,6
47355,1.791994350647366e-7,2.3534133532815054e-8,3.622804469610549e-8,6.8382143816577284e-9,1.2072795018340124e-7,3.290014148017198e-7,6.555081401600016e-8,2.0134650087372647e-7,6
47356,1.7882096625312176e-7,2.3547371203820305e-8,3.6334987859966776e-8,6.825805824247183e-9,1.207975374359862e-7,3.2900389919358065e-7,6.555597634941323e-8,2.013184038772555e-7,6
47357,1.7844249744150693e-7,2.3560608874825553e-8,3.6441931023828053e-8,6.813397266836637e-9,1.2086712468857115e-7,3.2900638358544145e-7,6.55611386828263e-8,2.0129030688078453e-7,6
47358,1.784269299387023e-7,2.3547454290493772e-8,3.647078686135596e-8,6.709878127184498e-9,1.2044867887957129e-7,3.290590083425036e-7,6.548208392724923e-8,2.0131873561085705e-7,6
47359,1.7841136243589765e-7,2.3534299706161988e-8,3.649964269888387e-8,6.606358987532358e-9,1.2003023307057144e-7,3.291116330995658e-7,6.540302917167216e-8,2.013471643409296e-7,6
47360,1.78395794933093e-7,2.3521145121830204e-8,3.652849853641177e-8,6.502839847880219e-9,1.1961178726157158e-7,3.29164257856628e-7,6.532397441609507e-8,2.0137559307100214e-7,6
47361,1.7838022743028836e-7,2.3507990537498423e-8,3.655735437393968e-8,6.399320708228079e-9,1.1919334145257171e-7,3.2921688261369014e-7,6.5244919660518e-8,2.0140402180107468e-7,6
47362,1.7841635293119362e-7,2.348159828216139e-8,3.653298731446664e-8,6.432274576275518e-9,1.1853664387777737e-7,3.314923465788864e-7,6.720838420354104e-8,2.0152571808862853e-7,6
47363,1.784524784320989e-7,2.345520602682436e-8,3.6508620254993595e-8,6.4652284443229556e-9,1.1787994630298302e-7,3.337678105440826e-7,6.917184874656409e-8,2.016474143761824e-7,6
47364,1.7848860393300416e-7,2.3428813771487327e-8,3.648425319552055e-8,6.498182312370394e-9,1.1722324872818867e-7,3.360432745092788e-7,7.113531328958712e-8,2.0176911066373628e-7,6
47365,1.7852472943390945e-7,2.3402421516150295e-8,3.645988613604751e-8,6.531136180417833e-9,1.1656655115339433e-7,3.3831873847447504e-7,7.309877783261017e-8,2.0189080695129013e-7,6
47366,1.785608549348147e-7,2.3376029260813263e-8,3.6435519076574463e-8,6.564090048465271e-9,1.1590985357859998e-7,3.4059420243967125e-7,7.506224237563322e-8,2.0201250323884402e-7,6
47367,1.7859698043572e-7,2.334963700547623e-8,3.641115201710142e-8,6.597043916512709e-9,1.1525315600380563e-7,3.4286966640486746e-7,7.702570691865625e-8,2.0213419952639787e-7,6
47368,1.7863310593662528e-7,2.33232447501392e-8,3.6386784957628376e-8,6.6299977845601476e-9,1.1459645842901128e-7,3.451451303700637e-7,7.89891714616793e-8,2.0225589581395173e-7,6
47369,1.7866923143753054e-7,2.3296852494802167e-8,3.636241789815533e-8,6.662951652607586e-9,1.1393976085421694e-7,3.4742059433525994e-7,8.095263600470234e-8,2.023775921015056e-7,6
47370,1.7870535693843583e-7,2.3270460239465135e-8,3.633805083868229e-8,6.695905520655025e-9,1.1328306327942259e-7,3.4969605830045615e-7,8.291610054772538e-8,2.0249928838905947e-7,6
47371,1.787414824393411e-7,2.3244067984128103e-8,3.6313683779209244e-8,6.728859388702462e-9,1.1262636570462824e-7,3.5197152226565236e-7,8.487956509074842e-8,2.0262098467661333e-7,6
47372,1.7877760794024637e-7,2.3217675728791074e-8,3.62893167197362e-8,6.761813256749901e-9,1.119696681298339e-7,3.5424698623084857e-7,8.684302963377147e-8,2.027426809641672e-7,6
47373,1.7881373344115163e-7,2.3191283473454042e-8,3.6264949660263156e-8,6.7947671247973395e-9,1.1131297055503955e-7,3.565224501960448e-7,8.880649417679452e-8,2.0286437725172107e-7,6
47374,1.78525846736352e-7,2.3172393111736173e-8,3.6245563215673047e-8,6.856607976474757e-9,1.1129452385426908e-7,3.5487692273222067e-7,9.057549153831887e-8,2.028073542211876e-7,6
47375,1.7823796003155232e-7,2.3153502750018303e-8,3.622617677108293e-8,6.918448828152175e-9,1.1127607715349861e-7,3.5323139526839655e-7,9.234448889984323e-8,2.0275033119065414e-7,6
47376,1.7822001855936976e-7,2.3146541036314875e-8,3.610177586486158e-8,7.003844098129902e-9,1.1101465619910846e-7,3.5393474383158433e-7,9.429730482516394e-8,2.023716127947387e-7,6
47377,1.7905763735550274e-7,2.3158469684329315e-8,3.59236546917799e-8,6.951780908277562e-9,1.1065882584590193e-7,3.523343485137246e-7,9.422136131031999e-8,2.021230677767647e-7,6
47378,1.7989525615163572e-7,2.3170398332343756e-8,3.574553351869822e-8,6.899717718425223e-9,1.1030299549269541e-7,3.507339531958649e-7,9.414541779547603e-8,2.018745227587907e-7,6
47379,1.7998697216505423e-7,2.3163831455146597e-8,3.55795979502398e-8,6.8695032328985836e-9,1.1013447693092077e-7,3.4914098584080026e-7,9.40322217184763e-8,2.0158541382662877e-7,6
47380,1.8007868817847274e-7,2.315726457794944e-8,3.541366238178138e-8,6.839288747371945e-9,1.0996595836914612e-7,3.4754801848573567e-7,9.391902564147657e-8,2.0129630489446681e-7,6
47381,1.8017040419189125e-7,2.3150697700752286e-8,3.5247726813322966e-8,6.809074261845306e-9,1.0979743980737147e-7,3.459550511306711e-7,9.380582956447684e-8,2.0100719596230488e-7,6
47382,1.8026212020530976e-7,2.3144130823555127e-8,3.5081791244864545e-8,6.778859776318667e-9,1.0962892124559682e-7,3.4436208377560645e-7,9.36926334874771e-8,2.0071808703014292e-7,6
47383,1.803538362187283e-7,2.313756394635797e-8,3.491585567640613e-8,6.748645290792028e-9,1.0946040268382217e-7,3.4276911642054187e-7,9.357943741047737e-8,2.0042897809798099e-7,6
47384,1.804455522321468e-7,2.3130997069160815e-8,3.474992010794771e-8,6.7184308052653894e-9,1.0929188412204752e-7,3.411761490654773e-7,9.346624133347765e-8,2.0013986916581903e-7,6
47385,1.8053726824556532e-7,2.3124430191963656e-8,3.4583984539489295e-8,6.68821631973875e-9,1.0912336556027287e-7,3.3958318171041265e-7,9.335304525647792e-8,1.998507602336571e-7,6
47386,1.8062898425898383e-7,2.31178633147665e-8,3.4418048971030874e-8,6.658001834212111e-9,1.0895484699849822e-7,3.3799021435534806e-7,9.323984917947818e-8,1.9956165130149513e-7,6
47387,1.8072070027240235e-7,2.3111296437569342e-8,3.425211340257246e-8,6.627787348685473e-9,1.0878632843672359e-7,3.363972470002835e-7,9.312665310247845e-8,1.992725423693332e-7,6
47388,1.8081241628582086e-7,2.3104729560372186e-8,3.408617783411404e-8,6.597572863158834e-9,1.0861780987494894e-7,3.3480427964521884e-7,9.301345702547872e-8,1.9898343343717126e-7,6
47389,1.8090413229923937e-7,2.309816268317503e-8,3.3920242265655625e-8,6.5673583776321944e-9,1.0844929131317429e-7,3.3321131229015426e-7,9.2900260948479e-8,1.986943245050093e-7,6
47390,1.8099584831265788e-7,2.309159580597787e-8,3.3754306697197204e-8,6.537143892105556e-9,1.0828077275139964e-7,3.316183449350897e-7,9.278706487147926e-8,1.9840521557284737e-7,6
47391,1.810875643260764e-7,2.3085028928780716e-8,3.358837112873879e-8,6.506929406578917e-9,1.0811225418962499e-7,3.3002537758002504e-7,9.267386879447953e-8,1.981161066406854e-7,6
47392,1.811792803394949e-7,2.307846205158356e-8,3.342243556028037e-8,6.476714921052278e-9,1.0794373562785034e-7,3.2843241022496045e-7,9.256067271747979e-8,1.9782699770852348e-7,6
47393,1.8127099635291341e-07,2.30718951743864e-8,3.3256499991821954e-8,6.446500435525639e-9,1.077752170660757e-7,3.2683944286989587e-7,9.244747664048006e-8,1.9753788877636152e-7,6
47394,1.8136271236633192e-7,2.3065328297189246e-8,3.309056442336353e-8,6.416285949999e-9,1.0760669850430104e-7,3.252464755148313e-7,9.233428056348034e-8,1.9724877984419958e-7,6
47395,1.815433398708583e-7,2.3037148629528847e-8,3.29321709288707e-8,6.353551544166253e-9,1.0632657386213034e-7,3.240725189611862e-7,9.227749489593657e-8,1.9726773371417244e-7,6
47396,1.8166100172228456e-7,2.274431852606876e-8,3.241253372446416e-8,6.3654854566674425e-9,1.0651835204614791e-7,3.2362295266318397e-7,9.206115476509863e-8,1.9683548276911092e-7,6
47397,1.8177866357371082e-7,2.2451488422608676e-8,3.189289652005761e-8,6.377419369168633e-9,1.067101302301655e-7,3.231733863651817e-7,9.184481463426068e-8,1.9640323182404943e-7,6
47398,1.8189632542513705e-7,2.215865831914859e-8,3.137325931565107e-8,6.389353281669823e-9,1.0690190841418307e-7,3.227238200671794e-7,9.162847450342272e-8,1.959709808789879e-7,6
47399,1.823835692646615e-7,2.1931601137347417e-8,3.085362211124453e-8,6.383891105588398e-9,1.0690095926117007e-7,3.25925162789979e-7,9.140741948507734e-8,1.9540007630386518e-7,6
47400,1.8231987594194093e-7,2.1704543955546247e-8,3.0486810590966654e-8,6.375022036414005e-9,1.0714039030746477e-7,3.275384002735098e-7,9.14760326404065e-8,1.9624064436782662e-7,6
47401,1.8225618261922035e-7,2.1477486773745076e-8,3.0119999070688775e-8,6.366152967239612e-9,1.0737982135375947e-7,3.2915163775704053e-7,9.154464579573565e-8,1.9708121243178806e-7,6
47402,1.8219248929649975e-7,2.1250429591943906e-8,2.97531875504109e-8,6.3572838980652185e-9,1.0761925240005417e-7,3.3076487524057126e-7,9.161325895106482e-8,1.979217804957495e-7,6
47403,1.8212879597377917e-7,2.1023372410142735e-8,2.9386376030133025e-8,6.348414828890825e-9,1.0785868344634888e-7,3.32378112724102e-7,9.168187210639398e-8,1.9876234855971094e-7,6
47404,1.8206510265105857e-7,2.0796315228341565e-8,2.901956450985515e-8,6.3395457597164316e-9,1.0809811449264358e-7,3.339913502076327e-7,9.175048526172315e-8,1.9960291662367237e-7,6
47405,1.82001409328338e-7,2.0569258046540394e-8,2.8652752989577272e-8,6.3306766905420385e-9,1.0833754553893828e-7,3.356045876911635e-7,9.181909841705231e-8,2.004434846876338e-7,6
47406,1.8193771600561742e-7,2.0342200864739223e-8,2.82859414692994e-8,6.321807621367645e-9,1.0857697658523298e-7,3.3721782517469424e-7,9.188771157238147e-8,2.0128405275159525e-7,6
47407,1.8187402268289681e-7,2.0115143682938053e-8,2.7919129949021522e-8,6.312938552193252e-9,1.0881640763152768e-7,3.38831062658225e-7,9.195632472771064e-8,2.0212462081555666e-7,6
47408,1.8181032936017624e-7,1.988808650113688e-8,2.7552318428743646e-8,6.304069483018859e-9,1.0905583867782238e-7,3.404443001417557e-7,9.20249378830398e-8,2.029651888795181e-7,6
47409,1.8164218432361692e-7,1.9952965833172317e-8,2.7635387753217778e-8,6.305079043357199e-9,1.0929139879109143e-7,3.3987713962502127e-7,9.229156079889967e-8,2.044498123270962e-7,6
47410,1.8147403928705762e-7,2.0017845165207752e-8,2.771845707769191e-8,6.306088603695538e-9,1.0952695890436049e-7,3.393099791082868e-7,9.255818371475954e-8,2.0593443577467432e-7,6
47411,1.813357375973094e-7,2.0022063853304746e-8,2.7638297362588303e-8,6.312986768608956e-9,1.0972902107323681e-7,3.4009324130349066e-7,9.267942248345335e-8,2.0593609819723912e-7,6
47412,1.8134894773489691e-7,2.0028880223598714e-8,2.771410921966159e-8,6.319884933522372e-9,1.1027115854707462e-7,3.374789610614337e-7,9.280066125214715e-8,2.059377606198039e-7,6
47413,1.8136215787248445e-7,2.0035696593892678e-8,2.778992107673488e-8,6.3267830984357896e-9,1.1081329602091243e-7,3.3486468081937674e-7,9.292190002084095e-8,2.059394230423687e-7,6
47414,1.81375368010072e-7,2.0042512964186643e-8,2.7865732933808167e-8,6.333681263349206e-9,1.1135543349475024e-7,3.322504005773198e-7,9.304313878953476e-8,2.059410854649335e-7,6
47415,1.815547145317131e-7,1.9910467901598787e-8,2.8023486755159256e-8,6.3405794282626235e-9,1.1130767228741037e-7,3.3213266348781487e-7,9.316769880080755e-8,2.0594058658007745e-7,6
47416,1.8173406105335425e-7,1.9778422839010932e-8,2.818124057651034e-8,6.34747759317604e-9,1.1125991108007051e-7,3.3201492639830993e-7,9.329225881208034e-8,2.059400876952214e-7,6
47417,1.8191340757499536e-7,1.9646377776423074e-8,2.833899439786143e-8,6.3543757580894575e-9,1.1121214987273066e-7,3.31897189308805e-7,9.341681882335313e-8,2.0593958881036536e-7,6
47418,1.8209275409663648e-7,1.9514332713835218e-8,2.8496748219212513e-8,6.361273923002874e-9,1.1116438866539079e-7,3.3177945221930005e-7,9.354137883462592e-8,2.059390899255093e-7,6
47419,1.822721006182776e-7,1.938228765124736e-8,2.8654502040563598e-8,6.368172087916291e-9,1.1111662745805093e-7,3.316617151297951e-7,9.366593884589872e-8,2.0593859104065327e-7,6
47420,1.8296997306133438e-7,1.9261028153953656e-8,2.8741709226289067e-8,6.372697028282931e-9,1.1052079209268821e-7,3.3167386557028166e-7,9.373367620141477e-8,2.062744172613137e-7,6
47421,1.8366784550439115e-7,1.9139768656659953e-8,2.8828916412014536e-8,6.377221968649571e-9,1.0992495672732547e-7,3.316860160107682e-7,9.380141355693084e-8,2.066102434819741e-7,6
47422,1.843657179474479e-7,1.901850915936625e-8,2.8916123597740006e-8,6.381746909016212e-9,1.0932912136196275e-7,3.3169816645125474e-7,9.38691509124469e-8,2.0694606970263455e-7,6
47423,1.8506359039050468e-7,1.8897249662072544e-8,2.900333078346547e-8,6.386271849382852e-9,1.0873328599660003e-7,3.317103168917413e-7,9.393688826796296e-8,2.0728189592329498e-7,6
47424,1.8576146283356147e-7,1.877599016477884e-8,2.909053796919094e-8,6.390796789749492e-9,1.0813745063123729e-7,3.317224673322279e-7,9.400462562347901e-8,2.0761772214395542e-7,6
47425,1.8645933527661824e-7,1.8654730667485137e-8,2.917774515491641e-8,6.395321730116133e-9,1.0754161526587457e-7,3.317346177727144e-7,9.407236297899508e-8,2.0795354836461585e-7,6
47426,1.87157207719675e-7,1.853347117019143e-8,2.926495234064188e-8,6.399846670482773e-9,1.0694577990051184e-7,3.3174676821320096e-7,9.414010033451114e-8,2.0828937458527626e-7,6
47427,1.878550801627318e-7,1.8412211672897728e-8,2.9352159526367345e-8,6.404371610849413e-9,1.0634994453514911e-7,3.317589186536875e-7,9.42078376900272e-8,2.086252008059367e-7,6
47428,1.8855295260578856e-7,1.8290952175604025e-8,2.9439366712092814e-8,6.408896551216054e-9,1.0575410916978638e-7,3.3177106909417405e-7,9.427557504554325e-8,2.0896102702659713e-7,6
47429,1.8925082504884533e-7,1.8169692678310318e-8,2.9526573897818283e-8,6.413421491582694e-9,1.0515827380442366e-7,3.317832195346606e-7,9.434331240105932e-8,2.0929685324725757e-7,6
47430,1.8972631883768832e-7,1.8156808417012812e-8,2.953569375721038e-8,6.404407773161191e-9,1.0513753838957273e-7,3.317399110849364e-7,9.436927321675987e-8,2.0840740783889578e-7,6
47431,1.9020181262653135e-7,1.814392415571531e-8,2.9544813616602472e-8,6.395394054739688e-9,1.051168029747218e-7,3.3169660263521224e-7,9.439523403246043e-8,2.07517962430534e-7,6
47432,1.9087694406262607e-7,1.8111900272679538e-8,2.9544813616602472e-8,6.400441856431387e-9,1.0444558514997023e-7,3.288408725504641e-7,9.441303999604467e-8,2.0782702254129495e-7,6
47433,1.915520754987208e-7,1.8079876389643766e-8,2.9544813616602472e-8,6.405489658123086e-9,1.0377436732521867e-7,3.2598514246571605e-7,9.44308459596289e-8,2.081360826520559e-7,6
47434,1.9222720693481552e-7,1.8047852506607993e-8,2.9544813616602472e-8,6.410537459814785e-9,1.0310314950046709e-7,3.2312941238096794e-7,9.444865192321315e-8,2.0844514276281685e-7,6
47435,1.9368022955331044e-7,1.802042131823802e-8,2.9456823071195058e-8,6.4110603211398435e-9,1.0247485041154758e-7,3.201504809025445e-7,9.437784986117601e-8,2.0879194181553352e-7,6
47436,1.9513325217180535e-7,1.799299012986805e-8,2.9368832525787644e-8,6.411583182464903e-9,1.0184655132262807e-7,3.171715494241211e-7,9.430704779913888e-8,2.0913874086825018e-7,6
47437,1.951105111648433e-7,1.8000367510015217e-8,2.932822075999924e-8,6.434147613778475e-9,1.012305500342222e-7,3.143552631795358e-7,9.453912192027487e-8,2.0930266401951218e-7,6
47438,1.9508777015788127e-7,1.8007744890162385e-8,2.9287608994210833e-8,6.4567120450920475e-9,1.0061454874581634e-7,3.115389769349506e-7,9.477119604141086e-8,2.0946658717077414e-7,6
47439,1.9506502915091923e-7,1.8015122270309557e-8,2.9246997228422425e-8,6.47927647640562e-9,9.999854745741048e-8,3.087226906903654e-7,9.500327016254686e-8,2.0963051032203613e-7,6
47440,1.9504228814395716e-7,1.8022499650456725e-8,2.920638546263402e-8,6.501840907719192e-9,9.938254616900461e-8,3.059064044457802e-7,9.523534428368284e-8,2.097944334732981e-7,6
47441,1.9501954713699512e-7,1.8029877030603896e-8,2.9165773696845613e-8,6.524405339032765e-9,9.876654488059876e-8,3.03090118201195e-7,9.546741840481884e-8,2.099583566245601e-7,6
47442,1.9499680613003308e-7,1.8037254410751065e-8,2.912516193105721e-8,6.546969770346338e-9,9.81505435921929e-8,3.0027383195660974e-7,9.569949252595483e-8,2.1012227977582205e-7,6
47443,1.9497406512307104e-7,1.8044631790898233e-8,2.90845501652688e-8,6.56953420165991e-9,9.753454230378703e-8,2.9745754571202453e-7,9.593156664709082e-8,2.1028620292708405e-7,6
47444,1.94951324116109e-7,1.8052009171045404e-8,2.9043938399480397e-8,6.592098632973483e-9,9.691854101538116e-8,2.946412594674393e-7,9.616364076822682e-8,2.10450126078346e-7,6
47445,1.9492858310914695e-7,1.8059386551192573e-8,2.900332663369199e-8,6.614663064287055e-9,9.630253972697531e-8,2.918249732228541e-7,9.63957148893628e-8,2.10614049229608e-7,6
47446,1.949058421021849e-7,1.8066763931339744e-8,2.8962714867903585e-8,6.637227495600627e-9,9.568653843856945e-8,2.8900868697826886e-7,9.66277890104988e-8,2.1077797238087e-7,6
47447,1.9488310109522287e-7,1.8074141311486912e-8,2.8922103102115178e-8,6.6597919269142e-9,9.507053715016358e-8,2.8619240073368365e-7,9.68598631316348e-8,2.1094189553213196e-7,6
47448,1.9486036008826083e-7,1.808151869163408e-8,2.8881491336326773e-8,6.682356358227773e-9,9.445453586175772e-8,2.8337611448909845e-7,9.709193725277078e-8,2.1110581868339395e-7,6
47449,1.9483761908129879e-7,1.8088896071781252e-8,2.8840879570538366e-8,6.704920789541345e-9,9.383853457335185e-8,2.8055982824451324e-7,9.732401137390678e-8,2.1126974183465592e-7,6
47450,1.9481487807433674e-7,1.809627345192842e-8,2.880026780474996e-8,6.727485220854918e-9,9.3222533284946e-8,2.7774354199992804e-7,9.755608549504276e-8,2.114336649859179e-7,6
47451,1.947921370673747e-7,1.8103650832075588e-8,2.8759656038961554e-8,6.7500496521684905e-9,9.260653199654013e-8,2.749272557553428e-7,9.778815961617876e-8,2.1159758813717987e-7,6
47452,1.9476939606041266e-7,1.811102821222276e-8,2.8719044273173146e-8,6.772614083482063e-9,9.199053070813427e-8,2.7211096951075757e-7,9.802023373731476e-8,2.1176151128844186e-7,6
47453,1.94759489198253e-7,1.8091140111194066e-8,2.8745259892059167e-8,6.793646093132237e-9,9.18485687357667e-8,2.714616430534486e-7,9.824977233165221e-8,2.1184297322171848e-7,6
47454,1.946980227686284e-7,1.8132307956762907e-8,2.879185531199623e-8,6.816198470341883e-9,9.190290685779e-8,2.7143285339442064e-7,9.854604122927222e-8,2.1203366248287993e-7,6
47455,1.939727372918273e-7,1.8167116525280048e-8,2.8827764153177305e-8,6.837230479992058e-9,9.18007743961084e-8,2.7114060281518773e-7,9.855810258390117e-8,2.1141188173046163e-7,6
47456,1.9324745181502617e-7,1.8201925093797192e-8,2.886367299435838e-8,6.8582624896422315e-9,9.169864193442679e-8,2.7084835223595487e-7,9.857016393853012e-8,2.1079010097804336e-7,6
47457,1.9252216633822505e-7,1.8236733662314335e-8,2.8899581835539454e-8,6.879294499292406e-9,9.159650947274518e-8,2.70556101656722e-7,9.858222529315908e-8,2.1016832022562507e-7,6
47458,1.9203405546458727e-7,1.824741531099755e-8,2.8909275057834512e-8,6.882701392385374e-9,9.162256372675195e-8,2.715541396144315e-7,9.852874953358712e-8,2.093541875918723e-7,6
47459,1.915459445909495e-7,1.825809695968077e-8,2.8918968280129567e-8,6.8861082854783424e-9,9.164861798075873e-8,2.72552177572141e-7,9.847527377401517e-8,2.085400549581195e-7,6
47460,1.9105783371731172e-7,1.8268778608363986e-8,2.8928661502424622e-8,6.88951517857131e-9,9.16746722347655e-8,2.735502155298505e-7,9.842179801444321e-8,2.0772592232436669e-7,6
47461,1.9056972284367395e-7,1.8279460257047205e-8,2.8938354724719677e-8,6.892922071664278e-9,9.170072648877228e-8,2.7454825348756e-7,9.836832225487126e-8,2.0691178969061388e-7,6
47462,1.9008161197003617e-7,1.829014190573042e-8,2.8948047947014735e-8,6.896328964757246e-9,9.172678074277905e-8,2.755462914452695e-7,9.83148464952993e-8,2.0609765705686108e-7,6
47463,1.9087180058813474e-7,1.8369318671741516e-8,2.893672031185917e-8,6.8948085971977735e-9,9.177743059781313e-8,2.752441207539897e-7,9.806520683903026e-8,2.0550962653884929e-7,6
47464,1.916619892062333e-7,1.8448495437752612e-8,2.8925392676703607e-8,6.893288229638301e-9,9.182808045284719e-8,2.749419500627099e-7,9.781556718276121e-8,2.0492159602083746e-7,6
47465,1.924521778243319e-7,1.852767220376371e-8,2.8914065041548042e-8,6.891767862078828e-9,9.187873030788127e-8,2.7463977937143006e-7,9.756592752649218e-8,2.0433356550282564e-7,6
47466,1.9324236644243046e-7,1.86068489697748e-8,2.8902737406392478e-8,6.8902474945193555e-9,9.192938016291534e-8,2.7433760868015026e-7,9.731628787022313e-8,2.0374553498481382e-7,6
47467,1.9403329162252125e-7,1.8692385012837595e-8,2.890287970967485e-8,6.8897728496100004e-9,9.204622270515677e-8,2.733971923844002e-7,9.73409063482068e-8,2.0261303519014909e-7,6
47468,1.9482421680261207e-7,1.877792105590039e-8,2.890302201295722e-8,6.889298204700645e-9,9.21630652473982e-8,2.7245677608865015e-7,9.736552482619049e-8,2.0148053539548433e-7,6
47469,1.9561514198270285e-7,1.886345709896318e-8,2.890316431623959e-8,6.88882355979129e-9,9.227990778963962e-8,2.7151635979290014e-7,9.739014330417417e-8,2.003480356008196e-7,6
47470,1.9640606716279364e-7,1.8948993142025972e-8,2.8903306619521958e-8,6.888348914881934e-9,9.239675033188104e-8,2.705759434971501e-7,9.741476178215784e-8,1.9921553580615483e-7,6
47471,1.9578908524085874e-7,1.8937376476920746e-8,2.8904089979203903e-8,6.895283242107129e-9,9.34210558135798e-8,2.700231194648238e-7,9.74223970005507e-8,1.979061445546171e-7,6
47472,1.9506040990074326e-7,1.8778086996170907e-8,2.8847157514056554e-8,6.8803688650066225e-9,9.316652517044143e-8,2.691487267036096e-7,9.743716391121964e-8,1.977488720157862e-7,6
47473,1.9433173456062777e-7,1.8618797515421068e-8,2.8790225048909205e-8,6.865454487906116e-9,9.291199452730305e-8,2.682743339423954e-7,9.74519308218886e-8,1.9759159947695527e-7,6
47474,1.936030592205123e-7,1.845950803467123e-8,2.8733292583761856e-8,6.85054011080561e-9,9.265746388416467e-8,2.6739994118118127e-7,9.746669773255756e-8,1.9743432693812436e-7,6
47475,1.928743838803968e-7,1.830021855392139e-8,2.8676360118614504e-8,6.835625733705104e-9,9.240293324102629e-8,2.665255484199671e-7,9.748146464322652e-8,1.9727705439929346e-7,6
47476,1.9214570854028132e-7,1.814092907317155e-8,2.8619427653467155e-8,6.820711356604598e-9,9.214840259788791e-8,2.656511556587529e-7,9.749623155389547e-8,1.9711978186046256e-7,6
47477,1.9141703320016584e-7,1.798163959242171e-8,2.8562495188319806e-8,6.805796979504092e-9,9.189387195474953e-8,2.647767628975387e-7,9.751099846456443e-8,1.9696250932163163e-7,6
47478,1.9068835786005035e-7,1.7822350111671872e-8,2.8505562723172458e-8,6.790882602403586e-9,9.163934131161115e-8,2.6390237013632455e-7,9.752576537523339e-8,1.9680523678280072e-7,6
47479,1.9103760305476212e-7,1.7660234285565726e-8,2.8521736969475548e-8,6.786405878452649e-9,9.029488199137445e-8,2.6269851651682267e-7,9.752803780436638e-8,1.9660457252516455e-7,6
47480,1.913868482494739e-7,1.7498118459459576e-8,2.8537911215778638e-8,6.781929154501712e-9,8.895042267113775e-8,2.6149466289732083e-7,9.753031023349936e-8,1.9640390826752837e-7,6
47481,1.9173609344418568e-7,1.7336002633353426e-8,2.855408546208173e-8,6.777452430550775e-9,8.760596335090105e-8,2.60290809277819e-7,9.753258266263236e-8,1.962032440098922e-7,6
47482,1.9208533863889747e-7,1.7173886807247276e-8,2.857025970838482e-8,6.772975706599838e-9,8.626150403066435e-8,2.590869556583171e-7,9.753485509176535e-8,1.9600257975225602e-7,6
47483,1.9243458383360923e-7,1.701177098114113e-8,2.8586433954687914e-8,6.768498982648901e-9,8.491704471042764e-8,2.578831020388153e-7,9.753712752089834e-8,1.9580191549461984e-7,6
47484,1.9278382902832103e-7,1.684965515503498e-8,2.8602608200991004e-8,6.764022258697964e-9,8.357258539019094e-8,2.5667924841931346e-7,9.753939995003134e-8,1.9560125123698366e-7,6
47485,1.9313307422303282e-7,1.668753932892883e-8,2.8618782447294098e-8,6.759545534747027e-9,8.222812606995423e-8,2.554753947998116e-7,9.754167237916432e-8,1.9540058697934749e-7,6
47486,1.9348231941774458e-7,1.6525423502822683e-8,2.8634956693597188e-8,6.7550688107960896e-9,8.088366674971753e-8,2.5427154118030975e-7,9.754394480829731e-8,1.951999227217113e-7,6
47487,1.9383156461245638e-7,1.6363307676716533e-8,2.8651130939900278e-8,6.7505920868451525e-9,7.953920742948083e-8,2.530676875608079e-7,9.754621723743031e-8,1.9499925846407513e-7,6
47488,1.9501029851302e-7,1.5592089314875843e-8,2.8096225950712236e-8,6.741139885826072e-9,7.95609887037876e-8,2.533083422430571e-7,9.755759071770244e-8,1.9498928333586155e-7,6
47489,1.961890324135836e-7,1.4820870953035154e-8,2.7541320961524195e-8,6.731687684806991e-9,7.958276997809437e-8,2.535489969253063e-7,9.756896419797457e-8,1.94979308207648e-7,6
47490,1.9728688943306228e-7,1.4821743712721164e-8,2.760374109421865e-8,6.749546364195036e-9,7.938565056945177e-8,2.534333097985674e-7,9.732768641127627e-8,1.9464763830687725e-7,6
47491,1.9838474645254092e-7,1.4822616472407172e-8,2.7666161226913105e-8,6.767405043583081e-9,7.918853116080919e-8,2.533176226718285e-7,9.708640862457798e-8,1.9431596840610647e-7,6
47492,1.9948260347201957e-7,1.4823489232093182e-8,2.7728581359607558e-8,6.785263722971125e-9,7.899141175216661e-8,2.532019355450896e-7,9.684513083787967e-8,1.9398429850533572e-7,6
47493,2.0058046049149821e-7,1.4824361991779192e-8,2.7791001492302012e-8,6.8031224023591695e-9,7.879429234352403e-8,2.5308624841835073e-7,9.660385305118138e-8,1.9365262860456497e-7,6
47494,2.0073042742758264e-7,1.4866589600318443e-8,2.7792500518169288e-8,6.806163137478115e-9,7.857539166057467e-8,2.5277181286126746e-7,9.637040616572317e-8,1.9348072527168883e-7,6
47495,2.0088039436366707e-7,1.4908817208857694e-8,2.7793999544036563e-8,6.80920387259706e-9,7.835649097762532e-8,2.524573773041842e-7,9.613695928026498e-8,1.933088219388127e-7,6
47496,2.0079451631137313e-7,1.493878382268864e-8,2.7782671908881e-8,6.885730073400393e-9,7.842414231781215e-8,2.5217079660758265e-7,9.59035123948068e-8,1.9324481682572427e-7,6
47497,2.007086382590792e-7,1.4968750436519587e-8,2.7771344273725438e-8,6.962256274203727e-9,7.849179365799898e-8,2.5188421591098107e-7,9.567006550934859e-8,1.9318081171263586e-7,6
47498,2.0062276020678524e-7,1.4998717050350533e-8,2.7760016638569874e-8,7.03878247500706e-9,7.855944499818581e-8,2.5159763521437954e-7,9.54366186238904e-8,1.9311680659954745e-7,6
47499,2.005368821544913e-7,1.502868366418148e-8,2.774868900341431e-8,7.115308675810394e-9,7.862709633837263e-8,2.51311054517778e-7,9.52031717384322e-8,1.93052801486459e-7,6
47500,2.0045100410219737e-7,1.5058650278012426e-8,2.7737361368258745e-8,7.191834876613727e-9,7.869474767855946e-8,2.5102447382117643e-07,9.496972485297401e-8,1.929887963733706e-7,6
47501,2.0036512604990344e-7,1.5088616891843373e-8,2.772603373310318e-8,7.2683610774170605e-9,7.876239901874629e-8,2.507378931245749e-7,9.473627796751581e-8,1.9292479126028219e-7,6
47502,2.002792479976095e-7,1.5118583505674323e-8,2.771470609794762e-8,7.3448872782203934e-9,7.883005035893312e-8,2.5045131242797337e-7,9.450283108205762e-8,1.9286078614719375e-7,6
47503,2.0019336994531557e-7,1.514855011950527e-8,2.7703378462792056e-8,7.421413479023727e-9,7.889770169911993e-8,2.501647317313718e-7,9.426938419659942e-8,1.9279678103410533e-7,6
47504,2.0010749189302164e-7,1.5178516733336215e-8,2.7692050827636492e-8,7.497939679827061e-9,7.896535303930677e-8,2.4987815103477025e-7,9.403593731114123e-8,1.9273277592101692e-7,6
47505,2.000216138407277e-7,1.5208483347167162e-8,2.7680723192480928e-8,7.574465880630393e-9,7.90330043794936e-8,2.495915703381687e-7,9.380249042568302e-8,1.9266877080792848e-7,6
47506,1.9993573578843377e-7,1.5238449960998108e-8,2.7669395557325367e-8,7.650992081433727e-9,7.910065571968043e-8,2.4930498964156714e-7,9.356904354022483e-8,1.9260476569484007e-7,6
47507,1.9984985773613983e-7,1.5268416574829055e-8,2.7658067922169802e-8,7.72751828223706e-9,7.916830705986724e-8,2.490184089449656e-7,9.333559665476663e-8,1.9254076058175166e-7,6
47508,1.997639796838459e-7,1.529838318866e-8,2.7646740287014238e-8,7.804044483040393e-9,7.923595840005407e-8,2.487318282483641e-7,9.310214976930844e-8,1.9247675546866322e-7,6
47509,1.9967810163155197e-7,1.5328349802490948e-8,2.7635412651858674e-8,7.880570683843727e-9,7.93036097402409e-8,2.484452475517625e-7,9.286870288385024e-8,1.924127503555748e-7,6
47510,1.9959222357925803e-7,1.5358316416321894e-8,2.762408501670311e-8,7.95709688464706e-9,7.937126108042773e-8,2.4815866685516097e-7,9.263525599839205e-8,1.923487452424864e-7,6
47511,1.9958406917302703e-7,1.5388802613207516e-8,2.750588467769854e-8,8.026202059211918e-9,7.95818387668981e-8,2.4784757032540016e-7,9.203507165015198e-8,1.9251483121616587e-7,6
47512,1.9958412373317459e-7,1.5417896467352456e-8,2.7398300457437683e-8,8.10224156100197e-9,7.960253657537688e-8,2.4789888856250953e-7,9.205375162494122e-8,1.9277750873615382e-7,6
47513,1.9958417829332217e-7,1.5446990321497393e-8,2.7290716237176827e-8,8.178281062792022e-9,7.962323438385566e-8,2.4795020679961885e-7,9.207243159973046e-8,1.9304018625614178e-7,6
47514,1.9958423285346973e-7,1.547608417564233e-8,2.718313201691597e-8,8.254320564582075e-9,7.964393219233445e-8,2.480015250367282e-7,9.209111157451969e-8,1.9330286377612972e-7,6
47515,1.995842874136173e-7,1.5505178029787266e-8,2.7075547796655115e-8,8.330360066372127e-9,7.966463000081323e-8,2.4805284327383754e-7,9.210979154930893e-8,1.9356554129611767e-7,6
47516,1.9973635551834179e-7,1.55028920974231e-8,2.730525607061941e-8,8.406399568162178e-9,7.957842719707628e-8,2.485641201692719e-7,9.264005440832451e-8,1.9436886772211335e-7,6
47517,1.998758699907908e-7,1.5569808334878716e-8,2.7271419618208573e-8,8.408869225540362e-9,7.931475782549032e-8,2.4947668160454024e-7,9.26648894497617e-8,1.9500161821072513e-7,6
47518,2.0001538446323983e-7,1.5636724572334327e-8,2.7237583165797734e-8,8.411338882918545e-9,7.905108845390435e-8,2.5038924303980855e-7,9.268972449119889e-8,1.9563436869933687e-7,6
47519,2.0015489893568885e-7,1.5703640809789938e-8,2.7203746713386893e-8,8.413808540296729e-9,7.878741908231838e-8,2.5130180447507686e-7,9.271455953263607e-8,1.9626711918794864e-7,6
47520,2.002944134081379e-7,1.577055704724555e-8,2.7169910260976055e-8,8.416278197674911e-9,7.852374971073241e-8,2.522143659103452e-7,9.273939457407325e-8,1.968998696765604e-7,6
47521,2.0043392788058692e-7,1.5837473284701164e-8,2.7136073808565216e-8,8.418747855053095e-9,7.826008033914645e-8,2.5312692734561354e-7,9.276422961551043e-8,1.9753262016517216e-7,6
47522,2.0057344235303594e-7,1.5904389522156775e-8,2.7102237356154378e-8,8.421217512431278e-9,7.799641096756048e-8,2.5403948878088186e-7,9.278906465694763e-8,1.981653706537839e-7,6
47523,2.0063599880502926e-7,1.5923072283729183e-8,2.7171709109244175e-8,8.423651007497684e-9,7.779089513323585e-8,2.5337009777356764e-7,9.239248851394977e-8,1.9879030738747239e-7,6
47524,2.0045603848172795e-7,1.5992669290055233e-8,2.723412924193863e-8,8.42155956219745e-9,7.779029967367579e-8,2.5422899460163583e-7,9.211007552758075e-8,1.9936952453650504e-7,6
47525,2.0027607815842666e-7,1.6062266296381282e-8,2.7296549374633082e-8,8.419468116897215e-9,7.778970421411575e-8,2.5508789142970407e-7,9.182766254121171e-8,1.999487416855377e-7,6
47526,2.0009611783512535e-7,1.613186330270733e-8,2.7358969507327535e-8,8.41737667159698e-9,7.77891087545557e-8,2.5594678825777225e-7,9.154524955484268e-8,2.0052795883457033e-7,6
47527,1.9991615751182407e-7,1.6201460309033378e-8,2.742138964002199e-8,8.415285226296746e-9,7.778851329499564e-8,2.5680568508584044e-7,9.126283656847364e-8,2.0110717598360298e-7,6
47528,1.9973619718852276e-7,1.6271057315359428e-8,2.7483809772716442e-8,8.413193780996511e-9,7.77879178354356e-8,2.576645819139086e-7,9.098042358210461e-8,2.0168639313263564e-7,6
47529,1.9955623686522144e-7,1.6340654321685474e-8,2.75462299054109e-8,8.411102335696277e-9,7.778732237587554e-8,2.585234787419768e-7,9.069801059573558e-8,2.022656102816683e-7,6
47530,1.9937627654192016e-7,1.6410251328011524e-8,2.7608650038105352e-8,8.409010890396042e-9,7.778672691631548e-8,2.5938237557004504e-7,9.041559760936654e-8,2.0284482743070095e-7,6
47531,1.9919631621861885e-7,1.6479848334337573e-8,2.7671070170799806e-8,8.406919445095807e-9,7.778613145675543e-8,2.6024127239811323e-7,9.013318462299751e-8,2.034240445797336e-7,6
47532,1.9901635589531754e-7,1.654944534066362e-8,2.773349030349426e-8,8.404827999795573e-9,7.778553599719538e-8,2.611001692261814e-7,8.985077163662847e-8,2.0400326172876626e-7,6
47533,1.991595769160534e-7,1.6575006729265993e-8,2.7799045258174326e-8,8.407297657173755e-9,7.779059426705803e-8,2.617584606332064e-7,8.955057834028099e-8,2.0409286888709006e-7,6
47534,1.9930279793678924e-7,1.6600568117868362e-8,2.786460021285439e-8,8.409767314551939e-9,7.77956525369207e-8,2.624167520402315e-7,8.925038504393351e-8,2.0418247604541383e-7,6
47535,1.9944601895752507e-7,1.6626129506470732e-8,2.7930155167534457e-8,8.412236971930123e-9,7.780071080678335e-8,2.630750434472565e-7,8.895019174758603e-8,2.0427208320373763e-7,6
47536,1.9958923997826092e-7,1.6651690895073105e-8,2.799571012221452e-8,8.414706629308306e-9,7.780576907664601e-8,2.6373333485428155e-7,8.864999845123853e-8,2.0436169036206143e-7,6
47537,1.9973246099899678e-7,1.6677252283675475e-8,2.8061265076894588e-8,8.417176286686488e-9,7.781082734650867e-8,2.6439162626130656e-7,8.834980515489105e-8,2.044512975203852e-7,6
47538,2.0057150310663176e-7,1.663662485109878e-8,2.808428233007186e-8,8.416701641777133e-9,7.784077850129335e-8,2.671276429915313e-7,8.834443580402356e-8,2.043399092144266e-7,6
47539,2.0141054521426674e-7,1.6595997418522087e-8,2.8107299583249137e-8,8.416226996867778e-9,7.787072965607802e-8,2.698636597217561e-7,8.833906645315604e-8,2.04228520908468e-7,6
47540,2.0143515847336557e-7,1.657835405613544e-8,2.809932091663165e-8,8.43807570119348e-9,7.791122178273154e-8,2.696718514911491e-7,8.810179778339356e-8,2.0394256736475148e-7,6
47541,2.0145977173246443e-7,1.6560710693748795e-8,2.809134225001417e-8,8.459924405519179e-9,7.795171390938505e-8,2.6948004326054204e-7,8.786452911363106e-8,2.0365661382103492e-7,6
47542,2.0148438499156326e-7,1.654306733136215e-8,2.8083363583396683e-8,8.48177310984488e-9,7.799220603603857e-8,2.6928823502993505e-7,8.762726044386856e-8,2.033706602773184e-7,6
47543,2.015089982506621e-7,1.6525423968975503e-8,2.80753849167792e-8,8.503621814170581e-9,7.803269816269209e-8,2.69096426799328e-7,8.738999177410607e-8,2.0308470673360183e-7,6
47544,2.0153361150976092e-7,1.650778060658886e-8,2.8067406250161714e-8,8.525470518496281e-9,7.807319028934562e-8,2.68904618568721e-7,8.715272310434357e-8,2.027987531898853e-7,6
47545,2.0155822476885975e-7,1.649013724420221e-8,2.8059427583544232e-8,8.547319222821982e-9,7.811368241599914e-8,2.6871281033811396e-7,8.691545443458108e-8,2.0251279964616874e-7,6
47546,2.0158283802795858e-7,1.6472493881815566e-8,2.8051448916926746e-8,8.569167927147683e-9,7.815417454265266e-8,2.6852100210750696e-7,8.667818576481858e-8,2.022268461024522e-7,6
47547,2.0155892515840644e-7,1.6493379022925853e-8,2.8030642206028595e-8,8.586564015730298e-9,7.819554508362858e-8,2.682823346803356e-7,8.675405231884516e-8,2.0244795956724097e-7,6
47548,2.015350122888543e-7,1.651426416403614e-8,2.8009835495130444e-8,8.603960104312912e-9,7.82369156246045e-8,2.6804366725316425e-7,8.682991887287174e-8,2.0266907303202973e-7,6
47549,2.0151109941930214e-7,1.6535149305146425e-8,2.7989028784232292e-8,8.621356192895529e-9,7.827828616558042e-8,2.678049998259929e-7,8.690578542689832e-8,2.028901864968185e-7,6
47550,2.0096107792307015e-7,1.6529766937468082e-8,2.7977915295629196e-8,8.640650861115565e-9,7.831854010840992e-8,2.647105489801105e-7,8.6578249004529e-8,2.0082069496770197e-7,6
47551,2.0041105642683816e-7,1.652438456978974e-8,2.7966801807026103e-8,8.659945529335602e-9,7.835879405123942e-8,2.6161609813422806e-7,8.625071258215969e-8,1.9875120343858543e-7,6
47552,1.9986103493060618e-7,1.65190022021114e-8,2.7955688318423007e-8,8.679240197555638e-9,7.839904799406892e-8,2.5852164728834564e-7,8.592317615979037e-8,1.9668171190946888e-7,6
47553,1.9959139156234194e-7,1.682324206976048e-8,2.7953838375752204e-8,8.728399782288464e-9,7.870133357175158e-8,2.5659736370062883e-7,8.594379983983685e-8,1.9471945216881301e-7,6
47554,1.9932174819407772e-7,1.712748193740956e-8,2.79519884330814e-8,8.77755936702129e-9,7.900361914943426e-8,2.54673080112912e-7,8.596442351988335e-8,1.9275719242815712e-7,6
47555,1.990521048258135e-7,1.743172180505864e-8,2.7950138490410596e-8,8.826718951754117e-9,7.930590472711692e-8,2.527487965251952e-7,8.598504719992983e-8,1.9079493268750125e-7,6
47556,1.987323572293253e-7,1.745387500851403e-8,2.8097205733005695e-8,8.823678216635171e-9,7.930685388012992e-8,2.495931260776069e-7,8.568044387495296e-8,1.8862303067201353e-7,6
47557,1.9841260963283714e-7,1.7476028211969415e-8,2.8244272975600795e-8,8.820637481516226e-9,7.93078030331429e-8,2.464374556300186e-7,8.53758405499761e-8,1.864511286565258e-7,6
47558,1.9809286203634894e-7,1.7498181415424805e-8,2.8391340218195894e-8,8.81759674639728e-9,7.93087521861559e-8,2.4328178518243036e-7,8.507123722499922e-8,1.8427922664103809e-7,6
47559,1.9777311443986074e-7,1.7520334618880194e-8,2.8538407460790993e-8,8.814556011278335e-9,7.93097013391689e-8,2.4012611473484206e-7,8.476663390002235e-8,1.8210732462555036e-7,6
47560,1.9745336684337257e-7,1.754248782233558e-8,2.8685474703386093e-8,8.81151527615939e-9,7.931065049218188e-8,2.3697044428725376e-7,8.446203057504549e-8,1.7993542261006264e-7,6
47561,1.9713361924688437e-7,1.756464102579097e-8,2.8832541945981192e-8,8.808474541040445e-9,7.931159964519487e-8,2.3381477383966548e-7,8.415742725006861e-8,1.777635205945749e-7,6
47562,1.968138716503962e-7,1.7586794229246358e-8,2.897960918857629e-8,8.8054338059215e-9,7.931254879820787e-8,2.306591033920772e-7,8.385282392509175e-8,1.7559161857908717e-7,6
47563,1.96494124053908e-7,1.7608947432701744e-8,2.9126676431171388e-8,8.802393070802554e-9,7.931349795122085e-8,2.275034329444889e-7,8.354822060011488e-8,1.7341971656359945e-7,6
47564,1.9617437645741982e-7,1.7631100636157133e-8,2.9273743673766487e-8,8.79935233568361e-9,7.931444710423385e-8,2.2434776249690063e-7,8.324361727513801e-8,1.7124781454811172e-7,6
47565,1.9585462886093162e-7,1.7653253839612522e-8,2.9420810916361586e-8,8.796311600564665e-9,7.931539625724684e-8,2.2119209204931235e-7,8.293901395016115e-8,1.69075912532624e-7,6
47566,1.9553488126444345e-7,1.767540704306791e-8,2.9567878158956686e-8,8.79327086544572e-9,7.931634541025983e-8,2.1803642160172405e-7,8.263441062518427e-8,1.6690401051713628e-7,6
47567,1.9521513366795525e-7,1.7697560246523297e-8,2.9714945401551785e-8,8.790230130326774e-9,7.931729456327282e-8,2.1488075115413578e-7,8.23298073002074e-8,1.6473210850164856e-7,6
47568,1.9489538607146708e-7,1.7719713449978687e-8,2.986201264414688e-8,8.787189395207829e-9,7.931824371628582e-8,2.117250807065475e-7,8.202520397523054e-8,1.6256020648616083e-7,6
47569,1.9457563847497888e-7,1.7741866653434076e-8,3.000907988674198e-8,8.784148660088883e-9,7.93191928692988e-8,2.085694102589592e-7,8.172060065025367e-8,1.603883044706731e-7,6
47570,1.944896376623529e-7,1.7741866653434076e-8,3.016084728742876e-8,8.745390566193848e-9,7.86239158030093e-8,2.084598979090256e-7,8.165235976862087e-8,1.603883044706731e-7,6
47571,1.9440363684972694e-7,1.7741866653434076e-8,3.0312614688115535e-8,8.706632472298813e-9,7.792863873671978e-8,2.0835038555909196e-7,8.158411888698806e-8,1.603883044706731e-7,6
47572,1.9431763603710095e-7,1.7741866653434076e-8,3.046438208880231e-8,8.66787437840378e-9,7.723336167043026e-8,2.0824087320915833e-7,8.151587800535525e-8,1.603883044706731e-7,6
47573,1.94231635224475e-7,1.7741866653434076e-8,3.061614948948908e-8,8.629116284508745e-9,7.653808460414074e-8,2.081313608592247e-7,8.144763712372246e-8,1.603883044706731e-7,6
47574,1.9507824343321336e-7,1.7749451866803114e-8,3.097354824426316e-8,8.595297505370077e-9,7.587026134476677e-8,2.0800474189147656e-7,8.155866994762e-8,1.6238647832206368e-7,6
47575,1.9592485164195173e-7,1.7757037080172155e-8,3.133094699903723e-8,8.561478726231408e-9,7.520243808539281e-8,2.078781229237284e-7,8.166970277151755e-8,1.6438465217345428e-7,6
47576,1.967714598506901e-7,1.7764622293541196e-8,3.168834575381131e-8,8.52765994709274e-9,7.453461482601884e-8,2.0775150395598025e-7,8.17807355954151e-8,1.6638282602484485e-7,6
47577,1.9761806805942847e-7,1.7772207506910234e-8,3.204574450858539e-8,8.493841167954072e-9,7.386679156664488e-8,2.0762488498823208e-7,8.189176841931264e-8,1.6838099987623544e-7,6
47578,1.9846467626816683e-7,1.7779792720279275e-8,3.240314326335946e-8,8.460022388815405e-9,7.319896830727091e-8,2.0749826602048394e-7,8.200280124321019e-8,1.70379173727626e-7,6
47579,1.993112844769052e-7,1.7787377933648313e-8,3.276054201813354e-8,8.426203609676735e-9,7.253114504789695e-8,2.073716470527358e-7,8.211383406710774e-8,1.723773475790166e-7,6
47580,1.9907997215081632e-7,1.7746687778182803e-8,3.2851381395704e-8,8.398003709970529e-9,7.188184639255022e-8,2.087639039351655e-7,8.207948274383922e-8,1.722932255193325e-7,6
47581,1.9826145779708426e-7,1.7758117440003623e-8,3.289861372226715e-8,8.408561904159356e-9,7.17848205539527e-8,2.1016427727290634e-7,8.202731412237928e-8,1.7237518765485358e-7,6
47582,1.983622711628206e-7,1.77395804879935e-8,3.298111936664312e-8,8.39655566703461e-9,7.172163918863466e-8,2.1134291719300776e-7,8.217027669177715e-8,1.7190270156508178e-7,6
47583,1.9846308452855696e-7,1.7721043535983375e-8,3.3063625011019085e-8,8.384549429909866e-9,7.165845782331663e-8,2.1252155711310916e-7,8.231323926117501e-8,1.7143021547530995e-7,6
47584,1.9856389789429334e-7,1.770250658397325e-8,3.314613065539505e-8,8.37254319278512e-9,7.159527645799858e-8,2.1370019703321056e-7,8.245620183057288e-8,1.7095772938553815e-7,6
47585,1.986647112600297e-7,1.7683969631963127e-8,3.322863629977102e-8,8.360536955660375e-9,7.153209509268055e-8,2.1487883695331199e-7,8.259916439997075e-8,1.7048524329576634e-7,6
47586,1.9876552462576604e-7,1.7665432679953004e-8,3.3311141944146984e-8,8.34853071853563e-9,7.146891372736251e-8,2.1605747687341338e-7,8.274212696936861e-8,1.7001275720599452e-7,6
47587,1.988663379915024e-7,1.7646895727942876e-8,3.339364758852294e-8,8.336524481410885e-9,7.140573236204448e-8,2.1723611679351478e-7,8.288508953876649e-8,1.695402711162227e-7,6
47588,1.9896715135723877e-7,1.7628358775932753e-8,3.347615323289891e-8,8.32451824428614e-9,7.134255099672645e-8,2.1841475671361618e-7,8.302805210816436e-8,1.690677850264509e-7,6
47589,1.9906796472297512e-7,1.760982182392263e-8,3.3558658877274875e-8,8.312512007161395e-9,7.12793696314084e-8,2.195933966337176e-7,8.317101467756222e-8,1.6859529893667908e-7,6
47590,1.9914754698113795e-7,1.7594484990761208e-08,3.361907293143788e-8,8.32011384495876e-9,7.126262065921204e-8,2.2085841652096233e-7,8.330108185373054e-8,1.6856587243689445e-7,6
47591,1.992271292393008e-7,1.7579148157599783e-8,3.367948698560089e-8,8.327715682756122e-9,7.124587168701568e-8,2.2212343640820704e-7,8.343114902989886e-8,1.685364459371098e-7,6
47592,1.993067114974636e-7,1.7563811324438362e-8,3.373990103976389e-8,8.335317520553485e-9,7.122912271481931e-8,2.233884562954518e-7,8.356121620606719e-8,1.685070194373252e-7,6
47593,1.9938629375562643e-7,1.7548474491276937e-8,3.38003150939269e-8,8.342919358350847e-9,7.121237374262295e-8,2.246534761826965e-7,8.369128338223551e-8,1.6847759293754057e-7,6
47594,1.9946587601378927e-7,1.7533137658115516e-8,3.3860729148089904e-8,8.350521196148211e-9,7.119562477042657e-8,2.2591849606994123e-7,8.382135055840383e-8,1.6844816643775594e-7,6
47595,1.9948440875522338e-7,1.7555477398702485e-8,3.3911524589743606e-8,8.375128856346314e-9,7.13570569175513e-8,2.2575226227008182e-7,8.383017896587835e-8,1.6860527248402655e-7,6
47596,1.9950294149665746e-7,1.757781713928945e-8,3.3962320031397314e-8,8.399736516544419e-9,7.151848906467601e-8,2.2558602847022241e-7,8.383900737335287e-8,1.6876237853029719e-7,6
47597,1.999779863448657e-7,1.7551923403993217e-8,3.3962320031397314e-8,8.397266859166235e-9,7.14966146662095e-8,2.2556597006127393e-7,8.387356571407582e-8,1.694373585173939e-7,6
47598,2.0045303119307392e-7,1.7526029668696983e-8,3.3962320031397314e-8,8.394797201788052e-9,7.147474026774298e-8,2.2554591165232545e-7,8.390812405479877e-8,1.7011233850449056e-7,6
47599,2.0092807604128216e-7,1.7500135933400746e-8,3.3962320031397314e-8,8.392327544409868e-9,7.145286586927645e-8,2.25525853243377e-7,8.394268239552173e-8,1.7078731849158727e-7,6
47600,2.0140312088949037e-7,1.747424219810451e-8,3.3962320031397314e-8,8.389857887031686e-9,7.143099147080994e-8,2.2550579483442852e-7,8.397724073624467e-8,1.7146229847868394e-7,6
47601,2.0187816573769862e-7,1.7448348462808278e-8,3.3962320031397314e-8,8.387388229653502e-9,7.140911707234342e-8,2.2548573642548004e-7,8.401179907696763e-8,1.7213727846578064e-7,6
47602,2.0235321058590683e-7,1.742245472751204e-8,3.3962320031397314e-8,8.384918572275319e-9,7.138724267387691e-8,2.2546567801653158e-7,8.404635741769059e-8,1.7281225845287732e-7,6
47603,2.0282825543411507e-7,1.7396560992215806e-8,3.3962320031397314e-8,8.382448914897135e-9,7.136536827541038e-8,2.254456196075831e-7,8.408091575841353e-8,1.7348723843997402e-7,6
47604,2.0328476754088918e-7,1.737284950574921e-8,3.3697776415529935e-8,8.322892374182765e-9,7.136691647026652e-8,2.246661014555669e-7,8.413083760434629e-8,1.7419164492685533e-7,6
47605,2.037412796476633e-7,1.7349138019282615e-8,3.343323279966256e-8,8.263335833468396e-9,7.136846466512265e-8,2.2388658330355074e-7,8.418075945027903e-8,1.7489605141373664e-7,6
47606,2.041905666542564e-7,1.731765408308617e-8,3.3455324389875516e-8,8.25888321772531e-9,7.122798014892062e-8,2.2391236783748176e-7,8.421531779100198e-8,1.7484867237063995e-7,6
47607,2.0463985366084947e-7,1.728617014688972e-8,3.3477415980088475e-8,8.254430601982225e-9,7.108749563271859e-8,2.239381523714128e-7,8.424987613172493e-8,1.7480129332754326e-7,6
47608,2.0508914066744253e-7,1.7254686210693272e-8,3.349950757030144e-8,8.24997798623914e-9,7.094701111651658e-8,2.2396393690534385e-7,8.428443447244789e-8,1.7475391428444656e-7,6
47609,2.053211806631519e-7,1.723764528495836e-8,3.3513400814313135e-8,8.246510822626542e-9,7.118036847529874e-8,2.2381494612873475e-7,8.428994163734341e-8,1.741271485038942e-7,6
47610,2.0555322065886126e-7,1.7220604359223446e-8,3.352729405832483e-8,8.243043659013946e-9,7.14137258340809e-8,2.2366595535212569e-7,8.429544880223895e-8,1.7350038272334183e-7,6
47611,2.0549745578999233e-7,1.7186543570767497e-8,3.36001810901915e-8,8.243152145949278e-9,7.129321024575324e-8,2.235113732396356e-7,8.434273250694998e-8,1.727485971933638e-7,6
47612,2.054416909211234e-7,1.715248278231155e-8,3.367306812205816e-8,8.24326063288461e-9,7.117269465742556e-8,2.2335679112714554e-7,8.439001621166102e-8,1.719968116633858e-7,6
47613,2.0538592605225447e-7,1.71184219938556e-8,3.374595515392482e-8,8.243369119819942e-9,7.105217906909788e-8,2.2320220901465545e-7,8.443729991637206e-8,1.712450261334078e-7,6
47614,2.0533016118338555e-7,1.7084361205399652e-8,3.3818842185791485e-8,8.243477606755275e-9,7.093166348077021e-8,2.230476269021654e-7,8.44845836210831e-8,1.7049324060342978e-7,6
47615,2.0527439631451662e-7,1.7050300416943703e-8,3.3891729217658145e-8,8.243586093690608e-9,7.081114789244253e-8,2.228930447896753e-7,8.453186732579414e-8,1.6974145507345178e-7,6
47616,2.052186314456477e-7,1.7016239628487755e-8,3.3964616249524806e-8,8.24369458062594e-9,7.069063230411485e-8,2.2273846267718524e-7,8.457915103050516e-8,1.6898966954347375e-7,6
47617,2.0516286657677876e-7,1.6982178840031806e-8,3.403750328139147e-8,8.243803067561273e-9,7.057011671578718e-8,2.2258388056469515e-7,8.46264347352162e-8,1.6823788401349575e-7,6
47618,2.0510710170790983e-7,1.6948118051575858e-8,3.411039031325813e-8,8.243911554496605e-9,7.044960112745951e-8,2.224292984522051e-7,8.467371843992724e-8,1.6748609848351775e-7,6
47619,2.050513368390409e-7,1.691405726311991e-8,3.41832773451248e-8,8.244020041431937e-9,7.032908553913184e-8,2.2227471633971503e-7,8.472100214463828e-8,1.6673431295353973e-7,6
47620,2.0499557197017195e-7,1.687999647466396e-8,3.425616437699146e-8,8.24412852836727e-9,7.020856995080416e-8,2.2212013422722494e-7,8.476828584934931e-8,1.6598252742356173e-7,6
47621,2.0493980710130302e-7,1.6845935686208012e-8,3.432905140885812e-8,8.244237015302602e-9,7.008805436247648e-8,2.2196555211473488e-7,8.481556955406035e-8,1.6523074189358373e-7,6
47622,2.048840422324341e-7,1.6811874897752064e-8,3.440193844072479e-8,8.244345502237936e-9,6.99675387741488e-8,2.218109700022448e-7,8.486285325877139e-8,1.644789563636057e-7,6
47623,2.0482827736356516e-7,1.6777814109296116e-8,3.447482547259145e-8,8.244453989173268e-9,6.984702318582113e-8,2.2165638788975473e-7,8.491013696348243e-8,1.637271708336277e-7,6
47624,2.0477251249469623e-7,1.6743753320840167e-8,3.4547712504458115e-8,8.2445624761086e-9,6.972650759749345e-8,2.2150180577726464e-7,8.495742066819345e-8,1.629753853036497e-7,6
47625,2.0476873774622496e-7,1.6734006921655367e-8,3.458832427024652e-8,8.2445624761086e-9,6.969823895037991e-8,2.2059606850008254e-7,8.497695377358145e-8,1.62859840611932e-7,6
47626,2.042858872044971e-7,1.6574613990447414e-8,3.46060652359135e-8,8.239208786962508e-9,6.87113811411269e-8,2.2064147701386726e-7,8.484617784245005e-8,1.628196077726514e-7,6
47627,2.0380303666276925e-7,1.6415221059239462e-8,3.4623806201580485e-8,8.233855097816415e-9,6.772452333187391e-8,2.2068688552765198e-7,8.471540191131866e-8,1.6277937493337082e-7,6
47628,2.0332018612104142e-7,1.6255828128031506e-8,3.464154716724747e-8,8.228501408670322e-9,6.67376655226209e-8,2.207322940414367e-7,8.458462598018727e-8,1.6273914209409024e-7,6
47629,2.0283733557931355e-7,1.6096435196823554e-8,3.465928813291445e-8,8.22314771952423e-9,6.57508077133679e-8,2.207777025552214e-7,8.445385004905587e-8,1.6269890925480965e-7,6
47630,2.023544850375857e-7,1.5937042265615602e-8,3.467702909858143e-8,8.217794030378137e-9,6.47639499041149e-8,2.2082311106900613e-7,8.432307411792448e-8,1.6265867641552905e-7,6
47631,2.0187163449585787e-7,1.5777649334407646e-8,3.4694770064248415e-8,8.212440341232044e-9,6.37770920948619e-8,2.2086851958279087e-7,8.419229818679309e-8,1.6261844357624845e-7,6
47632,2.0146072716333987e-7,1.5637042848306627e-8,3.475890336936262e-8,8.306535922929202e-9,6.359191321099693e-8,2.2172079136589686e-7,8.400830004775622e-8,1.624960823064948e-7,6
47633,2.0104981983082184e-7,1.5496436362205607e-8,3.4823036674476816e-8,8.40063150462636e-9,6.340673432713197e-8,2.2257306314900282e-7,8.382430190871934e-8,1.6237372103674113e-7,6
47634,2.008547741536723e-7,1.5337646100725794e-8,3.476112221118871e-8,8.395277815480268e-9,6.236074069528618e-8,2.2336761759228284e-7,8.372913790475644e-8,1.6225318848450426e-7,6
47635,2.0065972847652275e-7,1.5178855839245985e-8,3.4699207747900594e-8,8.389924126334175e-9,6.131474706344041e-8,2.2416217203556287e-7,8.363397390079353e-8,1.6213265593226742e-7,6
47636,2.004646827993732e-7,1.5020065577766172e-8,3.4637293284612485e-8,8.384570437188082e-9,6.026875343159464e-8,2.249567264788429e-7,8.353880989683062e-8,1.6201212338003055e-7,6
47637,2.0026963712222366e-7,1.4861275316286362e-8,3.457537882132438e-8,8.37921674804199e-9,5.9222759799748855e-8,2.257512809221229e-7,8.344364589286773e-8,1.618915908277937e-7,6
47638,1.9816334043632193e-7,1.479238489629939e-8,3.457801489019278e-8,8.384252495629764e-9,5.9056384892390396e-8,2.2655739137490575e-7,8.334848188890481e-8,1.6134662088781038e-7,6
47639,1.9715812873631175e-7,1.478851961791014e-8,3.417153801595823e-8,8.350240850828281e-9,5.8938128468107824e-8,2.2720609657210943e-7,8.219492857062383e-8,1.609529392396845e-7,6
47640,1.9615291703630157e-7,1.4784654339520888e-8,3.3765061141723675e-8,8.3162292060268e-9,5.881987204382526e-8,2.2785480176931309e-7,8.104137525234284e-8,1.6055925759155863e-7,6
47641,1.9514770533629136e-7,1.4780789061131636e-8,3.335858426748912e-8,8.282217561225319e-9,5.8701615619542686e-8,2.2850350696651677e-7,7.988782193406184e-8,1.601655759434328e-7,6
47642,1.9414249363628118e-7,1.4776923782742385e-8,3.295210739325457e-8,8.248205916423836e-9,5.858335919526012e-8,2.2915221216372044e-7,7.873426861578086e-8,1.5977189429530692e-7,6
47643,1.93137281936271e-7,1.4773058504353134e-8,3.2545630519020014e-8,8.214194271622355e-9,5.846510277097755e-8,2.298009173609241e-7,7.758071529749987e-8,1.5937821264718107e-7,6
47644,1.9213207023626081e-7,1.4769193225963881e-8,3.213915364478546e-8,8.180182626820875e-9,5.834684634669498e-8,2.3044962255812778e-7,7.642716197921889e-8,1.589845309990552e-7,6
47645,1.911268585362506e-7,1.476532794757463e-8,3.173267677055091e-8,8.146170982019392e-9,5.822858992241241e-8,2.3109832775533146e-7,7.527360866093789e-8,1.5859084935092935e-7,6
47646,1.9012164683624042e-7,1.4761462669185379e-8,3.1326199896316354e-8,8.112159337217911e-9,5.811033349812984e-8,2.317470329525351e-7,7.41200553426569e-8,1.5819716770280348e-7,6
47647,1.8881313868082082e-7,1.465524885208135e-8,3.1042615219631086e-8,8.078449045014575e-9,5.807116660341142e-8,2.3254062124342482e-7,7.402071517690816e-8,1.5726616047880282e-7,6
47648,1.8750463052540121e-7,1.4549035034977322e-8,3.075903054294582e-8,8.04473875281124e-9,5.8031999708692995e-8,2.333342095343145e-7,7.392137501115942e-8,1.5633515325480215e-7,6
47649,1.861961223699816e-7,1.4442821217873293e-8,3.047544586626055e-8,8.011028460607905e-9,5.7992832813974576e-8,2.3412779782520422e-7,7.382203484541068e-8,1.5540414603080149e-7,6
47650,1.84887614214562e-7,1.4336607400769263e-8,3.019186118957527e-8,7.977318168404569e-9,5.795366591925615e-8,2.349213861160939e-7,7.372269467966193e-8,1.5447313880680082e-7,6
47651,1.835791060591424e-7,1.4230393583665235e-8,2.9908276512890004e-8,7.943607876201234e-9,5.7914499024537726e-8,2.357149744069836e-7,7.362335451391319e-8,1.5354213158280013e-7,6
47652,1.8227059790372277e-7,1.4124179766561206e-8,2.9624691836204736e-8,7.909897583997896e-9,5.787533212981931e-8,2.365085626978733e-7,7.352401434816445e-8,1.5261112435879947e-7,6
47653,1.8105361005354004e-7,1.4017363279729037e-8,2.9332772043067144e-8,7.881540980940654e-9,5.7834479145146663e-08,2.367333717056888e-7,7.355309117759766e-8,1.5183606122422677e-7,6
47654,1.7983662220335731e-7,1.3910546792896865e-8,2.9040852249929553e-08,7.85318437788341e-9,5.779362616047402e-8,2.3695818071350433e-7,7.358216800703088e-8,1.510609980896541e-7,6
47655,1.7838354384413213e-7,1.3910546792896865e-8,2.877009561752495e-8,7.841737164395502e-9,5.783960098913373e-8,2.3766893364303412e-7,7.339043024656988e-8,1.5022608359297526e-7,6
47656,1.7693046548490696e-7,1.3910546792896865e-8,2.8499338985120346e-8,7.830289950907593e-9,5.788557581779343e-8,2.3837968657256393e-7,7.31986924861089e-8,1.4939116909629642e-7,6
47657,1.754773871256818e-7,1.3910546792896865e-8,2.8228582352715742e-8,7.818842737419684e-9,5.793155064645313e-8,2.390904395020937e-7,7.300695472564792e-8,1.4855625459961755e-7,6
47658,1.7402430876645664e-7,1.3910546792896865e-8,2.795782572031114e-8,7.807395523931775e-9,5.797752547511284e-8,2.3980119243162353e-7,7.281521696518692e-8,1.4772134010293872e-7,6
47659,1.7257123040723148e-7,1.3910546792896865e-8,2.7687069087906536e-8,7.795948310443866e-9,5.802350030377254e-8,2.4051194536115334e-7,7.262347920472594e-8,1.4688642560625988e-7,6
47660,1.711181520480063e-7,1.3910546792896865e-8,2.7416312455501932e-8,7.784501096955958e-9,5.806947513243224e-8,2.4122269829068316e-7,7.243174144426494e-8,1.4605151110958104e-7,6
47661,1.6966507368878112e-7,1.3910546792896865e-8,2.714555582309733e-8,7.77305388346805e-9,5.8115449961091944e-8,2.4193345122021297e-7,7.224000368380396e-8,1.452165966129022e-7,6
47662,1.6840631926533288e-7,1.40170723598337e-8,2.6968209710150627e-8,7.78250608448713e-9,5.816297298460779e-8,2.426531926959119e-7,7.21343241031672e-8,1.445919922056401e-7,6
47663,1.6714756484188462e-7,1.4123597926770533e-8,2.679086359720393e-8,7.79195828550621e-9,5.8210496008123624e-8,2.433729341716109e-7,7.202864452253044e-8,1.4396738779837798e-7,6
47664,1.6565433003670584e-7,1.4198743707198266e-8,2.6746473186514678e-8,7.811715544531676e-9,5.828675329955178e-8,2.4398786379494877e-7,7.193624692781818e-8,1.4313247330169914e-7,6
47665,1.6416109523152707e-7,1.4273889487625999e-8,2.670208277582543e-8,7.831472803557142e-9,5.836301059097993e-8,2.4460279341828665e-7,7.184384933310594e-8,1.422975588050203e-7,6
47666,1.626678604263483e-7,1.4349035268053732e-8,2.665769236513618e-8,7.851230062582608e-9,5.843926788240809e-8,2.4521772304162454e-7,7.175145173839369e-8,1.4146264430834147e-7,6
47667,1.6117462562116952e-7,1.4424181048481465e-8,2.661330195444693e-8,7.870987321608074e-9,5.851552517383624e-8,2.4583265266496243e-7,7.165905414368145e-8,1.4062772981166263e-7,6
47668,1.6021187317218247e-7,1.4403607657203985e-8,2.6562851896565445e-8,7.864966121889813e-9,5.8700067409485917e-8,2.4627824316075493e-7,7.171851971365943e-8,1.39695891442249e-7,6
47669,1.5924912072319542e-7,1.4383034265926505e-8,2.651240183868396e-8,7.858944922171552e-9,5.888460964513559e-8,2.467238336565475e-7,7.17779852836374e-8,1.3876405307283535e-7,6
47670,1.580737992183548e-7,1.4402173887664771e-8,2.6481473612385815e-8,7.851914162114951e-9,5.889631556837228e-8,2.4693601545087814e-7,7.174475973463224e-8,1.3783221470342168e-7,6
47671,1.5689847771351418e-7,1.4421313509403038e-8,2.6450545386087673e-8,7.84488340205835e-9,5.890802149160897e-8,2.4714819724520874e-7,7.171153418562709e-8,1.3690037633400804e-7,6
47672,1.5572315620867356e-7,1.4440453131141305e-8,2.641961715978953e-8,7.837852642001748e-9,5.891972741484566e-8,2.473603790395394e-7,7.167830863662194e-8,1.359685379645944e-7,6
47673,1.5454783470383294e-7,1.4459592752879571e-8,2.6388688933491386e-8,7.830821881945147e-9,5.893143333808235e-8,2.4757256083387006e-7,7.16450830876168e-8,1.3503669959518076e-7,6
47674,1.5337251319899233e-7,1.4478732374617838e-8,2.6357760707193244e-8,7.823791121888546e-9,5.8943139261319036e-8,2.4778474262820067e-7,7.161185753861165e-8,1.341048612257671e-7,6
47675,1.521971916941517e-7,1.4497871996356105e-8,2.6326832480895102e-8,7.816760361831945e-9,5.895484518455573e-8,2.4799692442253133e-7,7.157863198960649e-8,1.3317302285635346e-7,6
47676,1.5102187018931111e-7,1.4517011618094371e-8,2.6295904254596956e-8,7.809729601775345e-9,5.896655110779242e-8,2.48209106216862e-7,7.154540644060134e-8,1.3224118448693982e-7,6
47677,1.498465486844705e-7,1.4536151239832638e-8,2.6264976028298814e-8,7.802698841718744e-9,5.8978257031029106e-8,2.484212880111926e-7,7.151218089159619e-8,1.3130934611752618e-7,6
47678,1.4867122717962988e-7,1.4555290861570903e-8,2.623404780200067e-8,7.795668081662143e-9,5.89899629542658e-8,2.4863346980552326e-7,7.147895534259104e-8,1.303775077481125e-7,6
47679,1.4749590567478926e-7,1.457443048330917e-8,2.6203119575702527e-8,7.788637321605542e-9,5.900166887750249e-8,2.4884565159985387e-7,7.144572979358588e-8,1.2944566937869887e-7,6
47680,1.4632058416994864e-7,1.4593570105047436e-8,2.6172191349404385e-8,7.78160656154894e-9,5.9013374800739176e-8,2.490578333941845e-7,7.141250424458073e-8,1.2851383100928523e-7,6
47681,1.4514526266510802e-7,1.4612709726785703e-8,2.614126312310624e-8,7.774575801492339e-9,5.902508072397587e-8,2.492700151885152e-7,7.137927869557558e-8,1.275819926398716e-7,6
47682,1.439699411602674e-7,1.463184934852397e-8,2.6110334896808098e-8,7.767545041435738e-9,5.9036786647212554e-8,2.494821969828458e-7,7.134605314657043e-8,1.2665015427045795e-7,6
47683,1.4279461965542679e-7,1.4650988970262236e-8,2.6079406670509956e-8,7.760514281379137e-9,5.9048492570449246e-8,2.4969437877717645e-7,7.131282759756527e-8,1.2571831590104429e-7,6
47684,1.4325204742821396e-7,1.4692052899220141e-8,2.6107262235287794e-8,7.74715643414988e-9,5.885018224268656e-8,2.4879797203006025e-7,7.137357286344136e-8,1.2562787496253072e-7,6
47685,1.428457605264546e-7,1.4522892039660687e-8,2.6139321971555754e-8,7.747667241371014e-9,5.879265460679123e-8,2.4907743216125083e-7,7.119664377486184e-8,1.2548739340538572e-7,6
47686,1.4243947362469526e-7,1.4353731180101233e-8,2.6171381707823717e-8,7.748178048592146e-9,5.87351269708959e-8,2.4935689229244147e-7,7.101971468628231e-8,1.2534691184824072e-7,6
47687,1.420331867229359e-7,1.418457032054178e-8,2.6203441444091676e-8,7.74868885581328e-9,5.867759933500057e-8,2.4963635242363205e-7,7.084278559770279e-8,1.2520643029109575e-7,6
47688,1.4162689982117653e-7,1.4015409460982326e-8,2.623550118035964e-8,7.749199663034411e-9,5.8620071699105245e-8,2.499158125548227e-7,7.066585650912327e-8,1.2506594873395075e-7,6
47689,1.412206129194172e-7,1.3846248601422872e-8,2.62675609166276e-8,7.749710470255545e-9,5.856254406320992e-8,2.5019527268601326e-7,7.048892742054375e-8,1.2492546717680576e-7,6
47690,1.4081432601765783e-7,1.3677087741863416e-8,2.629962065289556e-8,7.750221277476679e-9,5.850501642731459e-8,2.504747328172039e-7,7.031199833196422e-8,1.2478498561966078e-7,6
47691,1.4018608805049352e-7,1.3488787260565695e-8,2.643812618316542e-8,7.876671006416413e-9,5.843958306251763e-8,2.5073655622361864e-7,7.020367106410668e-8,1.247447538342909e-7,6
47692,1.39343280086759e-7,1.3270520165437028e-8,2.6537452663275366e-8,7.878131103456257e-9,6.020722320996988e-8,2.506956271141636e-7,6.99859003001273e-8,1.2462721465705977e-7,6
47693,1.385004721230245e-7,1.3052253070308361e-8,2.663677914338531e-8,7.8795912004961e-9,6.197486335742211e-8,2.5065469800470853e-7,6.976812953614792e-8,1.245096754798286e-7,6
47694,1.3765766415928995e-7,1.2833985975179693e-8,2.673610562349525e-8,7.881051297535942e-9,6.374250350487436e-8,2.506137688952535e-7,6.955035877216855e-8,1.2439213630259745e-7,6
47695,1.3681485619555543e-7,1.2615718880051026e-8,2.6835432103605193e-8,7.882511394575786e-9,6.551014365232661e-8,2.5057283978579837e-7,6.933258800818916e-8,1.2427459712536632e-7,6
47696,1.359720482318209e-7,1.2397451784922359e-8,2.6934758583715138e-8,7.88397149161563e-9,6.727778379977885e-8,2.505319106763433e-7,6.911481724420978e-8,1.2415705794813516e-7,6
47697,1.344791787435143e-7,1.2389409478311049e-8,2.7036650672681214e-8,7.8854436427594e-9,6.852562291037548e-8,2.50258380632262e-7,6.903060015521964e-8,1.236799182344837e-7,6
47698,1.3348216533396973e-7,1.2376421067326198e-8,2.701548889520605e-8,7.864580390564187e-9,7.005408452448942e-8,2.480954231520369e-7,6.84766489096365e-8,1.2337783908649758e-7,6
47699,1.3248515192442513e-7,1.2363432656341348e-8,2.699432711773089e-8,7.843717138368974e-9,7.158254613860334e-8,2.4593246567181177e-7,6.792269766405336e-8,1.2307575993851143e-7,6
47700,1.3148813851488053e-7,1.2350444245356497e-8,2.697316534025573e-8,7.822853886173762e-9,7.311100775271727e-8,2.4376950819158666e-7,6.736874641847023e-8,1.2277368079052528e-7,6
47701,1.3049112510533596e-7,1.2337455834371647e-8,2.6952003562780568e-8,7.80199063397855e-9,7.463946936683121e-8,2.4160655071136155e-7,6.681479517288709e-8,1.2247160164253915e-7,6
47702,1.2949411169579136e-7,1.2324467423386797e-8,2.6930841785305408e-8,7.781127381783337e-9,7.616793098094513e-8,2.3944359323113643e-7,6.626084392730394e-8,1.22169522494553e-7,6
47703,1.2849709828624676e-7,1.2311479012401946e-8,2.6909680007830245e-8,7.760264129588124e-9,7.769639259505907e-8,2.3728063575091132e-7,6.570689268172081e-8,1.2186744334656687e-7,6
47704,1.275000848767022e-7,1.2298490601417094e-8,2.6888518230355085e-8,7.739400877392912e-9,7.9224854209173e-8,2.351176782706862e-7,6.515294143613767e-8,1.2156536419858072e-7,6
47705,1.265030714671576e-7,1.2285502190432243e-8,2.6867356452879922e-8,7.7185376251977e-9,8.075331582328693e-8,2.3295472079046107e-7,6.459899019055453e-8,1.2126328505059457e-7,6
47706,1.2574551411401993e-7,1.228602177348692e-8,2.6963549494262082e-8,7.718477354678071e-9,8.254582288790894e-8,2.3021290876222865e-7,6.462203544836922e-8,1.2102936891645262e-7,6
47707,1.2498795676088226e-7,1.2286541356541595e-8,2.7059742535644243e-8,7.718417084158441e-9,8.433832995253094e-8,2.274710967339962e-7,6.46450807061839e-8,1.2079545278231067e-7,6
47708,1.242303994077446e-7,1.2287060939596273e-8,2.7155935577026403e-8,7.718356813638812e-9,8.613083701715294e-8,2.2472928470576376e-7,6.466812596399859e-8,1.205615366481687e-7,6
47709,1.2347284205460694e-7,1.2287580522650949e-8,2.725212861840856e-8,7.718296543119184e-9,8.792334408177496e-8,2.219874726775313e-7,6.469117122181326e-8,1.2032762051402675e-7,6
47710,1.2271528470146925e-7,1.2288100105705625e-8,2.734832165979072e-8,7.718236272599554e-9,8.971585114639696e-8,2.1924566064929886e-7,6.471421647962796e-8,1.2009370437988478e-7,6
47711,1.2195772734833158e-7,1.2288619688760301e-8,2.744451470117288e-8,7.718176002079924e-9,9.150835821101897e-8,2.1650384862106642e-7,6.473726173744263e-8,1.1985978824574283e-7,6
47712,1.2119131519941622e-7,1.2287726099136821e-8,2.74391721034238e-8,7.738978983755508e-9,9.146069012783886e-8,2.1381156216326696e-7,6.500522520241128e-8,1.200243769720294e-7,6
47713,1.2042490305050089e-7,1.2286832509513344e-8,2.743382950567472e-8,7.759781965431091e-9,9.141302204465875e-8,2.111192757054675e-7,6.527318866737992e-8,1.2018896569831596e-7,6
47714,1.197742395807643e-7,1.2323199827194515e-8,2.7436465574543124e-8,7.780813975081266e-9,9.137245559703155e-8,2.083979658890035e-7,6.543868163386855e-8,1.2001024473349312e-7,6
47715,1.1907273353727032e-7,1.2323199827194515e-8,2.750101610669964e-8,7.818340999911047e-9,9.135207745791665e-8,2.0565615386077108e-7,6.553877708879241e-8,1.1978331160407798e-7,6
47716,1.1837122749377633e-7,1.2323199827194515e-8,2.7565566638856152e-8,7.85586802474083e-9,9.133169931880175e-8,2.0291434183253863e-7,6.563887254371627e-8,1.1955637847466287e-7,6
47717,1.1766972145028235e-7,1.2323199827194515e-8,2.7630117171012664e-8,7.893395049570612e-9,9.131132117968686e-8,2.0017252980430618e-7,6.573896799864012e-8,1.1932944534524777e-7,6
47718,1.1696821540678837e-7,1.2323199827194515e-8,2.769466770316918e-8,7.930922074400393e-9,9.129094304057196e-8,1.9743071777607374e-7,6.583906345356398e-8,1.1910251221583263e-7,6
47719,1.1626670936329438e-7,1.2323199827194515e-8,2.7759218235325692e-8,7.968449099230176e-9,9.127056490145705e-8,1.946889057478413e-7,6.593915890848784e-8,1.1887557908641751e-7,6
47720,1.1605911894624114e-7,1.2286832509513344e-8,2.7721741291522898e-8,7.892031385362174e-9,9.127056490145705e-8,1.941811311142868e-7,6.57323046328759e-8,1.1806294297549402e-7,6
47721,1.1613383939768784e-7,1.2273324515473816e-8,2.7694381713346613e-8,7.908755428516373e-9,8.881937868693363e-8,1.9241605158988226e-7,6.564012360161716e-8,1.1792761544208137e-7,6
47722,1.1579583778875125e-7,1.2240448236536683e-8,2.757994480340678e-8,7.915029764417077e-9,8.855260128701551e-8,1.9238128788350726e-7,6.571201146531326e-8,1.171246244383748e-7,6
47723,1.1545783617981465e-7,1.220757195759955e-8,2.7465507893466947e-8,7.921304100317781e-9,8.828582388709737e-8,1.9234652417713226e-7,6.578389932900936e-8,1.1632163343466822e-7,6
47724,1.1511983457087806e-7,1.2174695678662417e-8,2.7351070983527116e-8,7.927578436218485e-9,8.801904648717924e-8,1.9231176047075726e-7,6.585578719270547e-8,1.1551864243096166e-7,6
47725,1.1478183296194146e-7,1.2141819399725284e-8,2.7236634073587284e-8,7.933852772119189e-9,8.775226908726111e-8,1.9227699676438226e-7,6.592767505640157e-8,1.1471565142725508e-7,6
47726,1.1446279761149563e-7,1.2113161808885147e-8,2.708914268766073e-8,7.901067661526712e-9,8.746960232628295e-8,1.9230465089540576e-7,6.597165839913988e-8,1.1475455673930463e-7,6
47727,1.1421263111133503e-7,1.2116652847629184e-8,2.6910155245564384e-8,7.875836172315894e-9,8.723928225714235e-8,1.9383137976374834e-7,6.63052377277349e-8,1.1397051841992133e-7,6
47728,1.1396246461117444e-7,1.2120143886373223e-8,2.6731167803468038e-8,7.850604683105078e-9,8.700896218800176e-8,1.9535810863209094e-7,6.663881705632993e-8,1.1318648010053805e-7,6
47729,1.1371229811101385e-7,1.2123634925117263e-8,2.6552180361371694e-8,7.825373193894261e-9,8.677864211886115e-8,1.9688483750043352e-7,6.697239638492496e-8,1.1240244178115475e-7,6
47730,1.1346213161085325e-7,1.21271259638613e-8,2.6373192919275347e-8,7.800141704683445e-9,8.654832204972056e-8,1.984115663687761e-7,6.730597571351998e-8,1.1161840346177147e-7,6
47731,1.1321196511069266e-7,1.213061700260534e-8,2.6194205477179e-8,7.774910215472626e-9,8.631800198057997e-8,1.9993829523711868e-7,6.763955504211501e-8,1.1083436514238818e-7,6
47732,1.1296179861053206e-7,1.2134108041349377e-8,2.6015218035082657e-8,7.74967872626181e-9,8.608768191143936e-8,2.0146502410546126e-7,6.797313437071004e-8,1.1005032682300489e-7,6
47733,1.1259165856150393e-7,1.2101231762412244e-8,2.5928140703319108e-8,7.719849972060798e-9,8.582090451152123e-8,2.014426445392094e-7,6.838681249532858e-8,1.0934625444102427e-7,6
47734,1.1228256802920453e-7,1.2085957419063229e-8,2.5889664870024073e-8,7.694485887706796e-9,8.563689057902411e-8,2.018873189839061e-7,6.835860490410084e-8,1.0890785084621586e-7,6
47735,1.1197347749690513e-7,1.2070683075714213e-8,2.5851189036729038e-8,7.669121803352796e-9,8.545287664652699e-8,2.0233199342860282e-7,6.833039731287309e-8,1.0846944725140744e-7,6
47736,1.1166438696460574e-7,1.2055408732365199e-8,2.5812713203434e-8,7.6437577189987945e-09,8.526886271402988e-8,2.0277666787329952e-7,6.830218972164533e-8,1.0803104365659902e-7,6
47737,1.1135529643230633e-7,1.2040134389016183e-8,2.5774237370138964e-8,7.618393634644793e-9,8.508484878153276e-8,2.0322134231799625e-7,6.827398213041758e-8,1.0759264006179061e-7,6
47738,1.1104620590000693e-7,1.2024860045667168e-8,2.573576153684393e-8,7.593029550290793e-9,8.490083484903564e-8,2.0366601676269297e-7,6.824577453918982e-8,1.071542364669822e-7,6
47739,1.1073711536770754e-7,1.2009585702318152e-8,2.569728570354889e-8,7.567665465936791e-9,8.471682091653852e-8,2.0411069120738968e-7,6.821756694796207e-8,1.0671583287217377e-7,6
47740,1.1042802483540813e-7,1.1994311358969138e-8,2.5658809870253856e-8,7.54230138158279e-9,8.45328069840414e-8,2.045553656520864e-7,6.818935935673431e-8,1.0627742927736536e-7,6
47741,1.1011893430310874e-7,1.1979037015620122e-8,2.562033403695882e-8,7.516937297228788e-9,8.434879305154428e-8,2.0500004009678313e-7,6.816115176550656e-8,1.0583902568255695e-7,6
47742,1.0980984377080934e-7,1.1963762672271107e-8,2.5581858203663783e-8,7.491573212874788e-9,8.416477911904716e-8,2.0544471454147983e-7,6.81329441742788e-8,1.0540062208774853e-7,6
47743,1.0945887161670144e-7,1.1982653033988976e-8,2.5724507128216292e-8,7.498471377788204e-9,8.419301105155918e-8,2.053044802277376e-7,6.80714436192276e-8,1.0524933379589107e-7,6
47744,1.0910789946259355e-7,1.2001543395706844e-8,2.58671560527688e-8,7.505369542701621e-9,8.422124298407119e-8,2.051642459139954e-7,6.80099430641764e-8,1.0509804550403358e-7,6
47745,1.0875692730848565e-7,1.2020433757424713e-8,2.6009804977321305e-8,7.512267707615039e-9,8.424947491658321e-8,2.0502401160025314e-7,6.794844250912519e-8,1.0494675721217611e-7,6
47746,1.0840595515437776e-7,1.2039324119142581e-8,2.615245390187381e-8,7.519165872528456e-9,8.427770684909522e-8,2.0488377728651091e-7,6.788694195407399e-8,1.0479546892031864e-7,6
47747,1.0805498300026987e-7,1.205821448086045e-8,2.629510282642632e-8,7.526064037441872e-9,8.430593878160724e-8,2.047435429727687e-7,6.782544139902278e-8,1.0464418062846118e-7,6
47748,1.0770401084616198e-7,1.2077104842578318e-8,2.6437751750978827e-8,7.532962202355289e-9,8.433417071411926e-8,2.0460330865902647e-7,6.776394084397158e-8,1.0449289233660371e-7,6
47749,1.0735303869205408e-7,1.2095995204296186e-8,2.6580400675531333e-8,7.539860367268707e-9,8.436240264663128e-8,2.0446307434528422e-7,6.770244028892037e-8,1.0434160404474624e-7,6
47750,1.0773153300020146e-7,1.2109232875301435e-8,2.67693521139092e-8,7.54973899678144e-9,8.454085239158235e-8,2.0397341644217237e-7,6.772840110462093e-8,1.0413911212350397e-7,6
47751,1.0811002730834884e-7,1.2122470546306684e-8,2.6958303552287064e-8,7.559617626294173e-9,8.471930213653342e-8,2.034837585390605e-7,6.775436192032148e-8,1.0393662020226171e-7,6
47752,1.0848852161649624e-7,1.2135708217311932e-8,2.714725499066493e-8,7.569496255806906e-9,8.489775188148448e-8,2.0299410063594865e-7,6.778032273602205e-8,1.0373412828101944e-7,6
47753,1.0886701592464362e-7,1.2148945888317182e-8,2.7336206429042795e-8,7.579374885319639e-9,8.507620162643555e-8,2.025044427328368e-7,6.78062835517226e-8,1.0353163635977717e-7,6
47754,1.09245510232791e-7,1.2162183559322431e-8,2.752515786742066e-8,7.589253514832372e-9,8.525465137138663e-8,2.0201478482972492e-7,6.783224436742315e-8,1.0332914443853491e-7,6
47755,1.1006454765559014e-7,1.2162183559322431e-8,2.7609944514088018e-8,7.598182854526393e-9,8.518506411880168e-8,2.020630775779527e-7,6.789149814694716e-8,1.0364435746252044e-7,6
47756,1.1088358507838928e-7,1.2162183559322431e-8,2.769473116075538e-8,7.607112194220416e-9,8.511547686621672e-8,2.0211137032618047e-7,6.795075192647116e-8,1.0395957048650599e-7,6
47757,1.1170262250118841e-7,1.2162183559322431e-8,2.7779517807422738e-8,7.616041533914438e-9,8.504588961363176e-8,2.0215966307440824e-7,6.801000570599516e-8,1.0427478351049153e-7,6
47758,1.1252165992398756e-7,1.2162183559322431e-8,2.78643044540901e-8,7.624970873608461e-9,8.49763023610468e-8,2.0220795582263602e-7,6.806925948551917e-8,1.0458999653447706e-7,6
47759,1.1334069734678669e-7,1.2162183559322431e-8,2.7949091100757458e-8,7.633900213302482e-9,8.490671510846185e-8,2.022562485708638e-7,6.812851326504317e-8,1.049052095584626e-7,6
47760,1.1415973476958584e-7,1.2162183559322431e-8,2.8033877747424816e-8,7.642829552996505e-9,8.483712785587689e-8,2.0230454131909157e-7,6.818776704456717e-8,1.0522042258244814e-7,6
47761,1.1497877219238497e-7,1.2162183559322431e-8,2.8118664394092178e-8,7.651758892690528e-9,8.476754060329193e-8,2.0235283406731934e-7,6.824702082409117e-8,1.0553563560643369e-7,6
47762,1.1579780961518412e-7,1.2162183559322431e-8,2.8203451040759536e-8,7.66068823238455e-9,8.469795335070697e-8,2.0240112681554709e-7,6.830627460361518e-8,1.0585084863041922e-7,6
47763,1.1656515403427334e-7,1.217542123032768e-8,2.8341460584427845e-8,7.533144564378994e-9,8.48666178639165e-8,2.0022658035564083e-7,6.632300908453907e-8,1.0607279409692343e-7,6
47764,1.1733249845336255e-7,1.2188658901332928e-8,2.8479470128096155e-8,7.405600896373439e-9,8.503528237712604e-8,1.9805203389573456e-7,6.433974356546296e-8,1.0629473956342763e-7,6
47765,1.1809984287245179e-7,1.2201896572338178e-8,2.8617479671764464e-8,7.2780572283678836e-9,8.520394689033556e-8,1.9587748743582828e-7,6.235647804638684e-8,1.0651668502993185e-7,6
47766,1.18867187291541e-7,1.2215134243343427e-8,2.8755489215432774e-8,7.1505135603623275e-9,8.537261140354509e-8,1.93702940975922e-7,6.037321252731072e-8,1.0673863049643605e-7,6
47767,1.1963453171063022e-7,1.2228371914348675e-8,2.8893498759101083e-8,7.022969892356772e-9,8.554127591675463e-8,1.9152839451601575e-7,5.838994700823461e-8,1.0696057596294027e-7,6
47768,1.2040187612971944e-7,1.2241609585353925e-8,2.9031508302769393e-8,6.895426224351216e-9,8.570994042996415e-8,1.8935384805610947e-7,5.64066814891585e-8,1.0718252142944447e-7,6
47769,1.2116922054880866e-7,1.2254847256359174e-8,2.9169517846437702e-8,6.767882556345661e-9,8.587860494317368e-8,1.871793015962032e-7,5.442341597008239e-8,1.0740446689594869e-7,6
47770,1.2122903000276282e-7,1.2289011961426057e-8,2.9172730044724722e-8,6.630460258827373e-9,8.637933426966342e-8,1.852510325082712e-7,5.2360072535588995e-8,1.0767761599183769e-7,6
47771,1.2183103569114463e-7,1.2303808381595335e-8,2.9252609303037076e-8,6.492515099984025e-9,8.6742050460068e-8,1.8329010301069326e-7,5.056223101569164e-8,1.0804153999940213e-7,6
