time,channel1,channel2,channel3,channel4,channel5,channel6,channel7,channel8,class
25509,3.215655362619707e-8,3.750217912961263e-9,1.0328813574648719e-8,5.232069539970573e-9,4.15520837611135e-8,2.691874238733577e-7,4.223817333475227e-8,5.608375382096501e-8,0
25510,3.21648580728339e-8,3.748825570220577e-9,1.0293479479628431e-8,5.236582426233288e-9,4.159013763996859e-8,2.692385226335584e-7,4.220333280436561e-8,5.6082922543813186e-8,0
25511,3.2176800867573086e-8,3.7474332274798916e-9,1.0249234138737207e-8,5.2335416911143425e-09,4.1546913563905015e-8,2.694822215521396e-7,4.2247773139008614e-8,5.612282246384265e-8,0
25512,3.2188743662312266e-8,3.746040884739206e-9,1.0204988797845983e-8,5.230500955995397e-9,4.150368948784144e-8,2.6972592047072076e-7,4.2292213473651623e-8,5.6162722383872104e-8,0
25513,3.2200686457051445e-8,3.74464854199852e-9,1.0160743456954758e-8,5.227460220876452e-9,4.146046541177787e-8,2.69969619389302e-7,4.2336653808294626e-8,5.620262230390156e-8,0
25514,3.2212629251790625e-8,3.743256199257834e-9,1.0116498116063534e-8,5.224419485757507e-9,4.141724133571429e-8,2.702133183078832e-7,4.238109414293763e-8,5.6242522223931016e-8,0
25515,3.2203665335717794e-8,3.7444407087766495e-9,1.0150340101505683e-8,5.221463129366042e-9,4.141724133571429e-8,2.7015859348676046e-7,4.246054981020828e-8,5.626696066558822e-8,0
25516,3.219470141964496e-8,3.745625218295465e-9,1.0184182086947832e-8,5.218506772974578e-9,4.141724133571429e-8,2.7010386866563774e-7,4.254000547747894e-8,5.629139910724542e-8,0
25517,3.2170088160546126e-8,3.748929486831512e-9,1.0245525953848635e-8,5.216037115596395e-9,4.1397886670586066e-8,2.693807629498289e-7,4.2545867019856004e-8,5.6280592504271776e-8,0
25518,3.2145474901447297e-8,3.75223375536756e-9,1.030686982074944e-8,5.213567458218211e-9,4.1378532005457836e-8,2.686576572340201e-7,4.255172856223307e-8,5.6269785901298134e-8,0
25519,3.212086164234846e-8,3.755538023903607e-9,1.0368213687650242e-8,5.2110978008400284e-9,4.135917734032961e-8,2.6793455151821125e-7,4.2557590104610135e-8,5.62589792983245e-8,0
25520,3.2096248383249624e-8,3.7588422924396545e-9,1.0429557554551047e-8,5.208628143461845e-9,4.133982267520138e-8,2.6721144580240243e-7,4.25634516469872e-8,5.624817269535086e-8,0
25521,3.207163512415079e-8,3.762146560975703e-9,1.049090142145185e-8,5.206158486083662e-9,4.132046801007315e-8,2.664883400865936e-7,4.2569313189364267e-8,5.6237366092377215e-8,0
25522,3.204702186505196e-8,3.76545082951175e-9,1.0552245288352655e-8,5.203688828705478e-9,4.130111334494493e-8,2.657652343707848e-7,4.257517473174133e-8,5.622655948940358e-8,0
25523,3.202240860595312e-8,3.768755098047798e-9,1.0613589155253458e-8,5.2012191713272954e-9,4.12817586798167e-8,2.65042128654976e-7,4.2581036274118405e-8,5.621575288642994e-8,0
25524,3.1997795346854285e-8,3.772059366583845e-9,1.067493302215426e-8,5.198749513949112e-9,4.1262404014688477e-8,2.643190229391672e-7,4.258689781649547e-8,5.62049462834563e-8,0
25525,3.1973182087755455e-8,3.775363635119893e-9,1.0736276889055065e-8,5.196279856570929e-9,4.124304934956025e-8,2.6359591722335837e-7,4.2592759358872536e-8,5.619413968048266e-8,0
25526,3.19734382843325e-8,3.775363635119893e-9,1.0798404115637815e-8,5.196754501480284e-9,4.0935787879325395e-8,2.634092015755151e-7,4.2586923470101256e-8,5.619746452561225e-8,0
25527,3.1973694480909554e-8,3.775363635119893e-9,1.0860531342220564e-8,5.19722914638964e-9,4.0628526409090543e-08,2.632224859276719e-7,4.258108758132998e-8,5.6200789370741845e-8,0
25528,3.19739506774866e-8,3.775363635119893e-9,1.0922658568803315e-8,5.197703791298995e-9,4.03212649388557e-8,2.630357702798287e-7,4.257525169255871e-8,5.620411421587144e-8,0
25529,3.197420687406365e-8,3.775363635119893e-9,1.0984785795386064e-8,5.19817843620835e-9,4.001400346862085e-8,2.6284905463198543e-7,4.2569415803787434e-8,5.620743906100103e-8,0
25530,3.1974463070640706e-8,3.775363635119893e-9,1.1046913021968814e-8,5.198653081117705e-9,3.9706741998385995e-8,2.6266233898414223e-7,4.256357991501616e-8,5.621076390613062e-8,0
25531,3.197471926721775e-8,3.775363635119893e-9,1.1109040248551563e-8,5.199127726027061e-9,3.9399480528151144e-8,2.62475623336299e-7,4.255774402624488e-8,5.6214088751260214e-8,0
25532,3.1974975463794805e-8,3.775363635119893e-9,1.1171167475134312e-8,5.199602370936416e-9,3.909221905791629e-8,2.6228890768845573e-7,4.2551908137473606e-8,5.6217413596389806e-8,0
25533,3.1974975463794805e-8,3.774636218843346e-9,1.1173090644333042e-8,5.2101485110213174e-9,3.878483849576943e-8,2.6214824831934397e-7,4.254607224870233e-8,5.6215750976216746e-8,0
25534,3.1974975463794805e-8,3.7739088025668e-9,1.1175013813531772e-8,5.2206946511062196e-9,3.847745793362257e-8,2.6200758895023215e-7,4.254023635993106e-8,5.621408835604369e-8,0
25535,3.197724031287757e-8,3.771207203758894e-9,1.116575026759948e-8,5.225742452797918e-9,3.8469883512704714e-8,2.604366782492533e-7,4.248609360660854e-8,5.617119532448621e-8,0
25536,3.191577388325299e-8,3.768505604950989e-9,1.1153137753129108e-8,5.2258509397332505e-9,3.839438554368695e-8,2.5893366682095954e-7,4.2375400841193915e-8,5.600511112928107e-8,0
25537,3.185430745362841e-8,3.765804006143083e-9,1.1140525238658737e-8,5.225959426668584e-9,3.831888757466919e-8,2.574306553926658e-7,4.2264708075779294e-8,5.583902693407592e-8,0
25538,3.179284102400383e-8,3.763102407335178e-9,1.1127912724188365e-8,5.226067913603916e-9,3.824338960565143e-8,2.55927643964372e-7,4.2154015310364674e-8,5.5672942738870784e-8,0
25539,3.173137459437926e-8,3.760400808527272e-9,1.1115300209717993e-8,5.226176400539248e-9,3.816789163663367e-8,2.5442463253607825e-7,4.2043322544950047e-8,5.550685854366564e-8,0
25540,3.166990816475468e-8,3.757699209719368e-9,1.1102687695247622e-8,5.226284887474581e-9,3.809239366761591e-8,2.529216211077845e-7,4.1932629779535426e-8,5.53407743484605e-8,0
25541,3.16084417351301e-8,3.754997610911462e-9,1.109007518077725e-8,5.226393374409913e-9,3.801689569859815e-8,2.514186096794907e-7,4.1821937014120806e-8,5.5174690153255355e-8,0
25542,3.154697530550552e-8,3.752296012103557e-9,1.1077462666306878e-8,5.226501861345246e-9,3.794139772958039e-8,2.4991559825119696e-7,4.1711244248706185e-8,5.500860595805022e-8,0
25543,3.148550887588094e-8,3.7495944132956514e-9,1.1064850151836506e-8,5.226610348280579e-9,3.786589976056263e-8,2.484125868229032e-7,4.160055148329156e-8,5.484252176284507e-8,0
25544,3.142404244625636e-8,3.746892814487746e-9,1.1052237637366135e-8,5.226718835215911e-9,3.7790401791544866e-8,2.4690957539460944e-7,4.148985871787694e-8,5.4676437567639933e-8,0
25545,3.136129503374653e-8,3.783738288425066e-9,1.1113158744193313e-8,5.244343951773117e-9,3.771442745487906e-8,2.4538902291940636e-7,4.138033826093773e-8,5.451201579499959e-8,0
25546,3.130650039103823e-8,3.808904607444754e-9,1.1327840880918266e-8,5.456012673987938e-9,3.764332155747332e-8,2.4398561310272453e-7,4.130997231019904e-8,5.435407774701351e-8,0
25547,3.125170574832992e-8,3.8340709264644435e-9,1.154252301764322e-8,5.6676813962027604e-9,3.7572215660067576e-8,2.4258220328604265e-7,4.1239606359460346e-8,5.419613969902743e-8,0
25548,3.119691110562162e-8,3.859237245484132e-9,1.1757205154368173e-8,5.879350118417582e-9,3.750110976266183e-8,2.4117879346936076e-7,4.116924040872165e-8,5.403820165104136e-8,0
25549,3.114211646291332e-8,3.88440356450382e-9,1.1971887291093126e-8,6.091018840632404e-9,3.743000386525609e-8,2.3977538365267894e-7,4.1098874457982955e-8,5.388026360305528e-8,0
25550,3.115006923271484e-8,3.9017768369325985e-9,1.218030255036251e-8,6.2972253867658e-9,3.743439593686811e-8,2.36604494931819e-7,4.106924756822095e-8,5.368142786532766e-8,0
25551,3.115802200251637e-8,3.919150109361378e-9,1.2388717809631897e-8,6.503431932899197e-9,3.743878800848013e-8,2.3343360621095906e-7,4.103962067845895e-8,5.3482592127600026e-08,0
25552,3.1037429904323506e-8,3.915762754151863e-9,1.2349317696630373e-8,6.541019228248608e-9,3.696514715683311e-8,2.326497340699896e-7,4.0952159307707194e-8,5.272365492664403e-8,0
25553,3.091683780613064e-8,3.91237539894235e-9,1.230991758362885e-8,6.5786065235980195e-9,3.649150630518609e-8,2.318658619290201e-7,4.0864697936955436e-8,5.1964717725688034e-8,0
25554,3.0796245707937784e-8,3.908988043732836e-9,1.2270517470627324e-8,6.616193818947431e-9,3.601786545353908e-8,2.3108198978805062e-7,4.077723656620368e-8,5.120578052473203e-8,0
25555,3.067565360974492e-8,3.905600688523323e-9,1.22311173576258e-8,6.653781114296842e-9,3.554422460189206e-8,2.3029811764708115e-7,4.068977519545192e-8,5.0446843323776036e-8,0
25556,3.0555061511552056e-8,3.902213333313809e-9,1.2191717244624277e-8,6.691368409646253e-9,3.5070583750245046e-8,2.2951424550611168e-7,4.060231382470016e-8,4.968790612282003e-8,0
25557,3.043446941335919e-8,3.898825978104296e-9,1.2152317131622753e-8,6.728955704995664e-9,3.459694289859803e-8,2.2873037336514218e-7,4.0514852453948404e-8,4.892896892186404e-8,0
25558,3.0313877315166335e-8,3.8954386228947814e-9,1.2112917018621228e-8,6.766543000345075e-9,3.4123302046951014e-8,2.279465012241727e-7,4.0427391083196646e-8,4.817003172090804e-8,0
25559,3.019328521697347e-8,3.892051267685268e-9,1.2073516905619704e-8,6.804130295694486e-9,3.3649661195303995e-08,2.2716262908320324e-7,4.033992971244489e-8,4.741109451995204e-8,0
25560,3.007269311878061e-8,3.888663912475754e-9,1.203411679261818e-8,6.8417175910438974e-9,3.3176020343656975e-8,2.2637875694223377e-7,4.025246834169313e-8,4.665215731899604e-8,0
25561,2.995210102058775e-8,3.885276557266241e-9,1.1994716679616657e-8,6.8793048863933086e-9,3.270237949200996e-8,2.2559488480126427e-7,4.016500697094137e-8,4.5893220118040047e-8,0
25562,2.9831508922394885e-8,3.881889202056727e-9,1.1955316566615131e-8,6.91689218174272e-9,3.222873864036294e-8,2.248110126602948e-7,4.0077545600189614e-8,4.5134282917084044e-8,0
25563,2.971091682420202e-8,3.878501846847213e-9,1.1915916453613608e-8,6.954479477092131e-9,3.175509778871593e-8,2.2402714051932533e-7,3.9990084229437856e-8,4.437534571612805e-8,0
25564,2.959032472600916e-8,3.8751144916376995e-9,1.1876516340612084e-8,6.992066772441542e-9,3.128145693706891e-8,2.2324326837835586e-7,3.99026228586861e-8,4.361640851517205e-8,0
25565,2.9469732627816297e-8,3.871727136428186e-9,1.183711622761056e-8,7.029654067790954e-9,3.080781608542189e-8,2.2245939623738638e-7,3.981516148793434e-8,4.285747131421605e-8,0
25566,2.9349140529623436e-8,3.8683397812186725e-9,1.1797716114609035e-8,7.067241363140365e-9,3.033417523377488e-8,2.2167552409641689e-7,3.972770011718258e-8,4.2098534113260053e-8,0
25567,2.9228548431430572e-8,3.864952426009159e-9,1.1758316001607511e-8,7.104828658489776e-9,2.986053438212786e-8,2.2089165195544742e-7,3.9640238746430824e-8,4.133959691230405e-8,0
25568,2.910795633323771e-8,3.8615650707996455e-9,1.1718915888605988e-8,7.142415953839187e-9,2.9386893530480842e-8,2.2010777981447794e-7,3.9552777375679066e-8,4.0580659711348055e-8,0
25569,2.8987364235044847e-8,3.851008168664833e-9,1.1718915888605988e-8,7.245935093491327e-9,2.892315700248738e-8,2.193243217388186e-7,3.9466190016132303e-8,3.9823717456991466e-8,0
25570,2.8867527086546242e-8,3.8381653341658556e-9,1.1830206910497588e-8,7.251883968586033e-9,2.8443173837697848e-8,2.1853927172594112e-7,3.9377905941387133e-8,3.906511278007008e-8,0
25571,2.8866273383734777e-8,3.837853584333049e-9,1.1849790902546237e-8,7.257832843680739e-9,2.802660305748419e-8,2.1745840163954022e-7,3.934887564616596e-8,3.9061122689263e-8,0
25572,2.877738917270071e-8,3.8348402356923385e-9,1.1953458324397363e-8,7.265253869919215e-9,2.7969789973060925e-8,2.1745894273656094e-7,3.929927775110943e-8,3.904050738476666e-8,0
25573,2.8753530863296132e-8,3.83523507219861e-9,1.2118896522996401e-8,7.272662842053765e-9,2.7927061067831466e-8,2.1730221659977255e-7,3.929845504711601e-8,3.903502123221622e-8,0
25574,2.8729672553891554e-8,3.835629908704882e-9,1.2284334721595441e-8,7.280071814188314e-9,2.7884332162602007e-8,2.1714549046298417e-7,3.92976323431226e-8,3.9029535079665785e-8,0
25575,2.8705814244486977e-8,3.836024745211154e-9,1.2449772920194479e-8,7.287480786322864e-9,2.7841603257372547e-8,2.1698876432619578e-7,3.9296809639129187e-8,3.902404892711535e-8,0
25576,2.86819559350824e-8,3.836419581717426e-9,1.2615211118793517e-8,7.294889758457414e-9,2.7798874352143088e-8,2.168320381894074e-7,3.929598693513577e-8,3.901856277456492e-8,0
25577,2.865809762567782e-8,3.8368144182236974e-09,1.2780649317392555e-8,7.302298730591964e-9,2.775614544691363e-8,2.16675312052619e-7,3.9295164231142356e-8,3.901307662201448e-8,0
25578,2.8634239316273242e-8,3.837209254729969e-9,1.2946087515991594e-8,7.309707702726513e-9,2.771341654168417e-8,2.1651858591583062e-7,3.929434152714894e-8,3.900759046946404e-8,0
25579,2.8610381006868665e-8,3.837604091236241e-9,1.3111525714590633e-8,7.317116674861063e-9,2.767068763645471e-8,2.1636185977904223e-7,3.9293518823155525e-8,3.9002104316913606e-8,0
25580,2.8586522697464087e-8,3.837998927742513e-9,1.3276963913189672e-8,7.324525646995613e-9,2.762795873122525e-8,2.1620513364225384e-7,3.929269611916211e-8,3.899661816436317e-8,0
25581,2.856266438805951e-8,3.838393764248784e-9,1.344240211178871e-8,7.331934619130163e-9,2.758522982599579e-8,2.1604840750546543e-7,3.9291873415168694e-8,3.899113201181273e-8,0
25582,2.8538806078654933e-8,3.838788600755056e-9,1.3607840310387748e-8,7.339343591264712e-9,2.754250092076633e-8,2.1589168136867704e-7,3.929105071117528e-8,3.8985645859262295e-8,0
25583,2.8514947769250356e-8,3.839183437261328e-9,1.3773278508986788e-8,7.346752563399262e-9,2.7499772015536872e-8,2.1573495523188865e-7,3.929022800718186e-8,3.8980159706711865e-8,0
25584,2.8491089459845778e-08,3.839578273767599e-9,1.3938716707585826e-8,7.3541615355338116e-9,2.7457043110307413e-8,2.1557822909510026e-7,3.928940530318845e-8,3.897467355416143e-8,0
25585,2.8476195066514035e-8,3.838165101089445e-9,1.409617623956738e-8,7.354028940390627e-9,2.7457043110307413e-8,2.1554235022450546e-7,3.9210273586794e-8,3.897301113159663e-8,0
25586,2.846130067318229e-8,3.83675192841129e-9,1.4253635771548934e-8,7.353896345247444e-9,2.7457043110307413e-8,2.1550647135391065e-7,3.913114187039956e-8,3.8971348709031835e-8,0
25587,2.8446406279850546e-8,3.835338755733135e-9,1.441109530353049e-8,7.3537637501042595e-9,2.7457043110307413e-8,2.1547059248331582e-7,3.905201015400511e-8,3.8969686286467036e-8,0
25588,2.84315118865188e-8,3.83392558305498e-9,1.4568554835512043e-8,7.353631154961075e-9,2.7457043110307413e-8,2.1543471361272102e-7,3.897287843761066e-8,3.896802386390224e-8,0
25589,2.8416617493187054e-8,3.832512410376826e-9,1.4726014367493597e-8,7.353498559817891e-9,2.7457043110307413e-8,2.153988347421262e-7,3.889374672121621e-8,3.8966361441337444e-8,0
25590,2.8402976802666776e-8,3.8362115154191446e-9,1.4945330352071437e-8,7.34741708958e-9,2.7468655909384348e-8,2.1538634393407714e-7,3.8816311720020176e-8,3.8966361441337444e-8,0
25591,2.838731381960388e-8,3.839910620461464e-9,1.4949964199924326e-8,7.407501026475677e-9,2.7472217919895386e-8,2.1535074110702242e-7,3.8742717595126584e-8,3.8966361441337444e-8,0
25592,2.83736731290836e-8,3.845064324980466e-9,1.5049355607015228e-8,7.47647360589735e-9,2.7481362921138542e-8,2.1534341819581901e-7,3.866695365552317e-8,3.896469901877265e-8,0
25593,2.8319725952203886e-8,3.8387883676786455e-9,1.515629877087651e-8,7.513940360207503e-9,2.745986818387722e-8,2.1529327783061768e-7,3.866211527298631e-8,3.896386774162083e-8,0
25594,2.8265778775324175e-8,3.832512410376826e-9,1.526324193473779e-8,7.551407114517657e-9,2.7438373446615896e-8,2.1524313746541632e-7,3.865727689044945e-8,3.896303646446901e-8,0
25595,2.8211831598444464e-8,3.826236453075005e-9,1.537018509859907e-8,7.58887386882781e-9,2.7416878709354575e-8,2.1519299710021498e-7,3.865243850791259e-8,3.896220518731719e-8,0
25596,2.8157884421564753e-8,3.819960495773184e-9,1.5477128262460347e-8,7.626340623137962e-9,2.739538397209325e-8,2.1514285673501362e-7,3.864760012537573e-8,3.8961373910165374e-8,0
25597,2.810393724468504e-8,3.813684538471364e-9,1.5584071426321627e-8,7.663807377448115e-9,2.737388923483193e-8,2.150927163698123e-7,3.8642761742838866e-8,3.8960542633013556e-8,0
25598,2.8049990067805328e-8,3.807408581169544e-9,1.5691014590182907e-8,7.701274131758268e-9,2.7352394497570608e-8,2.1504257600461093e-7,3.8637923360302005e-8,3.895971135586174e-8,0
25599,2.7996042890925617e-8,3.801132623867724e-9,1.5797957754044188e-8,7.738740886068421e-9,2.7330899760309283e-8,2.149924356394096e-7,3.863308497776514e-8,3.895888007870992e-8,0
25600,2.7942095714045906e-8,3.794856666565903e-9,1.5904900917905465e-8,7.776207640378573e-9,2.7309405023047962e-8,2.1494229527420823e-7,3.8628246595228276e-8,3.8958048801558103e-8,0
25601,2.7888148537166192e-8,3.788580709264083e-9,1.6011844081766745e-8,7.813674394688726e-9,2.7287910285786637e-8,2.148921549090069e-7,3.8623408212691415e-8,3.8957217524406286e-8,0
25602,2.783420136028648e-8,3.7823047519622626e-9,1.6118787245628026e-8,7.85114114899888e-9,2.7266415548525316e-8,2.1484201454380554e-7,3.8618569830154553e-8,3.895638624725446e-8,0
25603,2.778025418340677e-8,3.776028794660443e-9,1.6225730409489306e-8,7.888607903309033e-9,2.724492081126399e-8,2.147918741786042e-7,3.861373144761769e-8,3.8955554970102644e-8,0
25604,2.7725026023641808e-8,3.76547189252563e-9,1.6230646097391277e-8,7.882333567408329e-9,2.7222711522530607e-8,2.1471345389755153e-7,3.86060496950128e-8,3.8956386115515626e-8,0
25605,2.7669797863876846e-8,3.754914990390817e-9,1.6235561785293248e-8,7.876059231507625e-9,2.7200502233797223e-8,2.1463503361649888e-7,3.8598367942407905e-8,3.89572172609286e-8,0
25606,2.7614569704111885e-8,3.744358088256004e-9,1.624047747319522e-8,7.869784895606921e-9,2.7178292945063836e-8,2.1455661333544623e-7,3.859068618980301e-8,3.8958048406341576e-8,0
25607,2.7559341544346923e-8,3.7338011861211915e-9,1.624539316109719e-8,7.863510559706217e-9,2.7156083656330452e-8,2.1447819305439358e-7,3.858300443719812e-8,3.895887955175456e-8,0
25608,2.750411338458196e-8,3.7232442839863787e-9,1.625030884899916e-8,7.857236223805513e-9,2.7133874367597065e-8,2.143997727733409e-7,3.857532268459322e-8,3.895971069716753e-8,0
25609,2.7448885224817e-8,3.7126873818515663e-9,1.6255224536901132e-8,7.85096188790481e-9,2.711166507886368e-8,2.1432135249228825e-7,3.856764093198832e-8,3.8960541842580515e-8,0
25610,2.7393657065052038e-8,3.7021304797167535e-9,1.6260140224803103e-8,7.844687552004105e-9,2.7089455790130294e-8,2.142429322112356e-7,3.855995917938343e-8,3.896137298799349e-8,0
25611,2.7338428905287076e-8,3.6915735775819407e-9,1.6265055912705077e-8,7.838413216103401e-9,2.706724650139691e-8,2.1416451193018295e-7,3.8552277426778535e-8,3.8962204133406466e-8,0
25612,2.7283200745522114e-8,3.681016675447128e-9,1.6269971600607048e-8,7.832138880202699e-9,2.7045037212663527e-8,2.1408609164913028e-7,3.854459567417364e-8,3.896303527881945e-8,0
25613,2.723592535555868e-8,3.934549898488029e-9,1.629519662954779e-8,7.825864544301995e-9,2.7014516566071055e-8,2.1401827221524959e-7,3.853975729163678e-8,3.8962702688915415e-8,0
25614,2.7188649965595243e-8,4.188083121528929e-9,1.6320421658488534e-8,7.819590208401291e-9,2.6983995919478584e-8,2.1395045278136887e-7,3.8534918909099916e-8,3.896237009901138e-8,0
25615,2.702883072749872e-8,4.451445830428095e-9,1.633681005134409e-8,7.825064438586642e-9,2.67904609068162e-8,2.1360471181955273e-7,3.842706951375333e-8,3.887159657059377e-8,0
25616,2.703752480695761e-8,4.711255010770816e-9,1.634771492642603e-8,7.850295927797458e-9,2.6552964881149014e-8,2.13553711969887e-7,3.813994641287639e-8,3.8614405466633936e-8,0
25617,2.70462188864165e-8,4.971064191113537e-9,1.635861980150797e-8,7.875527417008276e-9,2.631546885548183e-8,2.1350271212022128e-7,3.7852823311999446e-8,3.83572143626741e-8,0
25618,2.705491296587539e-8,5.230873371456257e-9,1.6369524676589905e-8,7.900758906219093e-9,2.6077972829814645e-8,2.1345171227055557e-7,3.756570021112251e-8,3.810002325871428e-8,0
25619,2.706360704533428e-8,5.490682551798978e-9,1.6380429551671843e-8,7.92599039542991e-9,2.584047680414746e-8,2.1340071242088986e-7,3.7278577110245567e-8,3.7842832154754444e-8,0
25620,2.7072301124793168e-8,5.750491732141698e-9,1.6391334426753782e-8,7.951221884640726e-9,2.5602980778480276e-8,2.1334971257122415e-7,3.699145400936863e-8,3.758564105079461e-8,0
25621,2.708099520425206e-8,6.010300912484419e-9,1.640223930183572e-8,7.976453373851544e-9,2.536548475281309e-8,2.1329871272155843e-7,3.670433090849169e-8,3.732844994683478e-8,0
25622,2.708968928371095e-8,6.270110092827139e-9,1.6413144176917656e-8,8.00168486306236e-9,2.5127988727145904e-8,2.1324771287189272e-7,3.641720780761475e-8,3.7071258842874946e-8,0
25623,2.7098383363169838e-8,6.52991927316986e-9,1.6424049051999595e-8,8.026916352273177e-9,2.489049270147872e-8,2.13196713022227e-7,3.613008470673781e-8,3.681406773891512e-8,0
25624,2.7107077442628727e-8,6.7897284535125805e-9,1.6434953927081534e-8,8.052147841483995e-9,2.4652996675811535e-8,2.131457131725613e-7,3.584296160586087e-8,3.655687663495529e-8,0
25625,2.711577152208762e-8,7.0495376338553015e-9,1.644585880216347e-8,8.077379330694812e-9,2.441550065014435e-8,2.1309471332289556e-7,3.555583850498393e-8,3.6299685530995455e-8,0
25626,2.7124465601546508e-8,7.3093468141980225e-9,1.6456763677245408e-8,8.102610819905628e-9,2.4178004624477166e-8,2.1304371347322985e-7,3.526871540410699e-8,3.604249442703562e-8,0
25627,2.7125234191277657e-8,7.303673526624344e-9,1.6482412849517607e-08,8.140612489644766e-9,2.3952835949358977e-8,2.1298524331686548e-7,3.497807537780381e-8,3.5784804635828004e-8,0
25628,2.7125247831314553e-8,7.297418399259993e-9,1.652502516080615e-8,8.171816962158141e-9,2.3720967685362244e-8,2.129245444483957e-7,3.468726054925963e-8,3.5527946121772204e-8,0
25629,2.7125261471351445e-8,7.290020189175354e-9,1.6573120989868316e-8,8.20761869966171e-9,2.369607480044023e-8,2.118448522339028e-7,3.463226943833791e-8,3.5494197468231826e-8,0
25630,2.7124533801730975e-8,7.288918766330005e-9,1.662962516191073e-8,8.245890094543465e-9,2.3659092748793232e-8,2.1181595590694887e-7,3.463209463609691e-8,3.548954259283321e-8,0
25631,2.71238061321105e-8,7.287817343484656e-9,1.668612933395314e-8,8.284161489425217e-9,2.3622110697146235e-8,2.1178705957999498e-7,3.463191983385591e-8,3.5484887717434594e-8,0
25632,2.712307846249003e-8,7.286715920639307e-9,1.6742633505995554e-8,8.322432884306972e-9,2.358512864549924e-8,2.1175816325304105e-7,3.463174503161491e-8,3.5480232842035974e-8,0
25633,2.712235079286956e-8,7.2856144977939575e-9,1.679913767803797e-8,8.360704279188724e-9,2.3548146593852242e-8,2.1172926692608713e-7,3.463157022937391e-8,3.5475577966637355e-8,0
25634,2.712162312324909e-8,7.284513074948608e-9,1.6855641850080383e-8,8.398975674070479e-9,2.3511164542205245e-8,2.1170037059913323e-7,3.463139542713291e-8,3.547092309123874e-8,0
25635,2.712089545362862e-8,7.283411652103259e-9,1.6912146022122796e-8,8.437247068952231e-9,2.347418249055825e-8,2.116714742721793e-7,3.463122062489191e-8,3.546626821584012e-8,0
25636,2.7120167784008148e-8,7.28231022925791e-9,1.696865019416521e-8,8.475518463833986e-9,2.3437200438911252e-8,2.1164257794522539e-7,3.463104582265091e-8,3.54616133404415e-8,0
25637,2.7119440114387674e-8,7.281208806412561e-9,1.7025154366207625e-8,8.513789858715738e-9,2.3400218387264255e-8,2.116136816182715e-7,3.463087102040992e-8,3.5456958465042884e-8,0
25638,2.7118712444767204e-8,7.280107383567212e-9,1.7081658538250038e-8,8.552061253597493e-9,2.336323633561726e-8,2.1158478529131757e-7,3.4630696218168916e-8,3.545230358964427e-8,0
25639,2.7117984775146733e-8,7.279005960721863e-9,1.713816271029245e-8,8.590332648479245e-9,2.3326254283970262e-8,2.1155588896436364e-7,3.4630521415927916e-8,3.544764871424565e-8,0
25640,2.7117257105526263e-8,7.2779045378765134e-9,1.7194666882334864e-8,8.628604043361e-9,2.3289272232323265e-8,2.1152699263740975e-7,3.4630346613686915e-8,3.544299383884703e-8,0
25641,2.7116529435905792e-8,7.2768031150311635e-9,1.7251171054377277e-8,8.666875438242753e-9,2.325229018067627e-8,2.1149809631045582e-7,3.4630171811445915e-8,3.543833896344842e-8,0
25642,2.7068003307254808e-8,7.275701692185814e-9,1.7308886879206574e-8,8.698079910756127e-9,2.3185144758172833e-8,2.1040929465913986e-7,3.4630171811445915e-8,3.5217558286171944e-8,0
25643,2.7047998622418958e-8,7.269446564821463e-9,1.7358267587583547e-8,8.735365853507393e-9,2.317141785471506e-8,2.093204930078239e-7,3.462648008377868e-8,3.515355132873975e-8,0
25644,2.7027993937583105e-8,7.263191437457112e-9,1.740764829596052e-8,8.772651796258659e-9,2.3157690951257283e-8,2.0823169135650793e-7,3.462278835611144e-8,3.508954437130756e-8,0
25645,2.7007989252747255e-08,7.256936310092761e-9,1.7457029004337495e-8,8.809937739009923e-9,2.314396404779951e-8,2.0714288970519194e-07,3.46190966284442e-8,3.5025537413875366e-8,0
25646,2.698873951760566e-8,7.263212267394582e-9,1.761448853631905e-8,8.811506322985099e-9,2.3124490290759272e-8,2.060579400570436e-7,3.462126644315403e-8,3.496053288433934e-8,0
25647,2.6969489782464068e-8,7.269488224696402e-9,1.7771948068300606e-8,8.813074906960275e-9,2.3105016533719033e-8,2.0497299040889524e-7,3.462343625786385e-8,3.489552835480332e-8,0
25648,2.6949471457591322e-8,7.2670983757213025e-9,1.7764824604635164e-8,8.82966635497129e-9,2.3085661868590806e-8,2.0388215140120691e-7,3.462089118506624e-8,3.483069012021931e-8,0
25649,2.692945313271858e-8,7.2647085267462024e-9,1.7757701140969725e-8,8.846257802982305e-9,2.306630720346258e-8,2.027913123935186e-7,3.461834611226862e-8,3.47658518856353e-8,0
25650,2.6893703624598476e-8,7.252156612142562e-9,1.7758770490474236e-8,8.841756970823516e-9,2.2723016416876817e-8,2.0203315270506675e-7,3.439281663486697e-8,3.470882747184401e-8,0
25651,2.6432555663487578e-8,7.2332454204872246e-9,1.7743165457300623e-8,8.852399543739824e-9,2.271152270971189e-8,2.0190281975592104e-7,3.416728715746533e-8,3.440076354992906e-8,0
25652,2.597140770237668e-8,7.2143342288318864e-9,1.772756042412701e-8,8.863042116656132e-9,2.2700029002546963e-8,2.0177248680677533e-7,3.394175768006368e-8,3.4092699628014116e-8,0
25653,2.5510259741265784e-8,7.195423037176549e-9,1.7711955390953396e-8,8.873684689572441e-9,2.2688535295382037e-8,2.016421538576296e-7,3.371622820266204e-8,3.378463570609917e-8,0
25654,2.5049111780154886e-8,7.176511845521212e-9,1.7696350357779783e-8,8.88432726248875e-9,2.2677041588217112e-8,2.0151182090848388e-7,3.349069872526039e-8,3.347657178418423e-8,0
25655,2.458796381904399e-8,7.157600653865874e-9,1.768074532460617e-8,8.894969835405057e-9,2.2665547881052186e-8,2.0138148795933818e-7,3.3265169247858746e-8,3.3168507862269286e-8,0
25656,2.4126815857933092e-8,7.138689462210536e-9,1.7665140291432556e-8,8.905612408321365e-9,2.265405417388726e-8,2.0125115501019247e-7,3.3039639770457097e-8,3.286044394035434e-8,0
25657,2.3665667896822197e-8,7.119778270555199e-9,1.7649535258258943e-8,8.916254981237675e-9,2.2642560466722336e-8,2.0112082206104673e-7,3.2814110293055454e-8,3.25523800184394e-8,0
25658,2.32045199357113e-8,7.100867078899862e-9,1.763393022508533e-8,8.926897554153983e-9,2.263106675955741e-8,2.0099048911190102e-7,3.258858081565381e-8,3.2244316096524456e-8,0
25659,2.27433719746004e-8,7.0819558872445236e-9,1.7618325191911716e-8,8.93754012707029e-9,2.261957305239248e-8,2.008601561627553e-7,3.236305133825216e-8,3.193625217460951e-8,0
25660,2.2282237653526398e-8,7.059179417199934e-9,1.760507023778394e-8,8.94797778021986e-9,2.2611998631474623e-8,2.0072982321360958e-7,3.213637520598089e-8,3.1628021957742556e-8,0
25661,2.1820847135875343e-8,7.040268225544597e-9,1.759395259940736e-8,8.973619108964155e-9,2.2602261752954507e-8,2.005998086519075e-7,3.190969907370963e-8,3.131979174087559e-8,0
25662,2.135945661822429e-8,7.02135703388926e-9,1.7582834961030783e-8,8.99926043770845e-9,2.2592524874434387e-8,2.004697940902054e-7,3.1683022941438356e-8,3.101156152400864e-8,0
25663,2.0898066100573235e-8,7.0024458422339225e-9,1.7571717322654205e-8,9.024901766452745e-9,2.2582787995914267e-8,2.0033977952850332e-7,3.1456346809167085e-8,3.0703331307141674e-8,0
25664,2.043667558292218e-8,6.983534650578584e-9,1.7560599684277627e-8,9.050543095197041e-9,2.257305111739415e-8,2.0020976496680122e-7,3.122967067689582e-8,3.039510109027472e-8,0
25665,1.9975285065271128e-8,6.964623458923247e-9,1.7549482045901048e-8,9.076184423941336e-9,2.256331423887403e-8,2.0007975040509914e-7,3.100299454462455e-8,3.0086870873407755e-8,0
25666,1.9513894547620073e-8,6.94571226726791e-9,1.753836440752447e-8,9.101825752685631e-9,2.255357736035391e-8,1.9994973584339704e-7,3.0776318412353287e-8,2.9778640656540795e-8,0
25667,1.9052746586509178e-8,6.925637396031226e-9,1.7531167717331107e-8,9.24374136311503e-9,2.2550395011048073e-8,1.998202623787157e-7,3.0549817082323016e-8,2.9471075421873637e-8,0
25668,1.859159862539828e-8,6.902154339647559e-9,1.751435103137061e-8,9.275379783369736e-9,2.2538592381368538e-8,1.9969010979524356e-7,3.0323315752292746e-8,2.9162845205006678e-8,0
25669,1.813045066428738e-8,6.878671283263893e-9,1.7497534345410116e-8,9.30701820362444e-9,2.2526789751689002e-8,1.9955995721177142e-7,3.0096814422262476e-8,2.8854614988139718e-8,0
25670,1.7669302703176486e-8,6.855188226880226e-9,1.7480717659449618e-8,9.338656623879146e-9,2.2514987122009467e-8,1.994298046282993e-7,2.9870313092232206e-8,2.854638477127276e-8,0
25671,1.7208154742065587e-8,6.83170517049656e-9,1.7463900973489124e-8,9.37029504413385e-9,2.2503184492329932e-8,1.9929965204482715e-7,2.964381176220194e-8,2.82381545544058e-8,0
25672,1.6902672313670843e-8,6.818467499491311e-9,1.7416522193870115e-8,9.408831629301973e-9,2.2455140330227722e-8,1.9890359035213607e-7,2.9436423533867925e-8,2.8214214602388126e-8,0
25673,1.684690744480191e-8,6.8072662677534175e-9,1.7390513805247426e-8,9.447368214470094e-9,2.244920364604266e-8,1.9825866184401814e-7,2.9423856864514122e-8,2.8188611700850294e-8,0
25674,1.6827011880261202e-8,6.796065036015524e-9,1.7353318701493717e-8,9.426758098457324e-9,2.2399492197172302e-8,1.974525513912353e-7,2.924424966210849e-8,2.8159517988577953e-8,0
25675,1.6807116315720497e-8,6.784863804277631e-9,1.7316123597740004e-8,9.406147982444553e-9,2.2349780748301947e-8,1.9664644093845245e-7,2.9064642459702857e-8,2.8130424276305612e-8,0
25676,1.6787220751179788e-8,6.7736625725397386e-9,1.7278928493986295e-8,9.385537866431784e-9,2.230006929943159e-8,1.958403304856696e-7,2.8885035257297224e-8,2.8101330564033275e-8,0
25677,1.676732518663908e-8,6.762461340801845e-9,1.7241733390232583e-8,9.364927750419014e-9,2.2250357850561232e-8,1.9503422003288674e-7,2.8705428054891592e-8,2.8072236851760934e-8,0
25678,1.6747429622098374e-8,6.751260109063952e-9,1.7204538286478874e-8,9.344317634406245e-9,2.2200646401690874e-8,1.942281095801039e-7,2.8525820852485962e-8,2.8043143139488596e-8,0
25679,1.6727534057557665e-8,6.740058877326059e-9,1.716734318272516e-8,9.323707518393473e-9,2.2150934952820516e-8,1.9342199912732106e-7,2.834621365008033e-8,2.8014049427216255e-8,0
25680,1.6707638493016957e-8,6.7288576455881656e-9,1.7130148078971452e-8,9.303097402380704e-9,2.210122350395016e-8,1.926158886745382e-7,2.8166606447674697e-8,2.7984955714943917e-8,0
25681,1.668774292847625e-8,6.717656413850272e-9,1.709295297521774e-8,9.282487286367934e-9,2.2051512055079804e-8,1.9180977822175535e-7,2.7986999245269065e-8,2.7955862002671576e-8,0
25682,1.6667847363935542e-8,6.706455182112379e-9,1.705575787146403e-8,9.261877170355165e-9,2.2001800606209446e-8,1.910036677689725e-7,2.7807392042863432e-8,2.792676829039924e-8,0
25683,1.6647951799394837e-8,6.695253950374486e-9,1.7018562767710318e-8,9.241267054342394e-9,2.195208915733909e-8,1.9019755731618967e-7,2.76277848404578e-8,2.7897674578126898e-8,0
25684,1.662879754451149e-8,6.68475930497567e-9,1.7139904844989638e-8,9.191998982674236e-9,2.190237770846873e-8,1.893971558572732e-7,2.7450023501885787e-8,2.7868414636771962e-8,0
25685,1.660964328962815e-8,6.674264659576854e-9,1.7261246922268962e-8,9.142730911006076e-9,2.1852666259598373e-8,1.8859675439835675e-7,2.7272262163313774e-8,2.783915469541703e-8,0
25686,1.6590489034744804e-8,6.663770014178038e-9,1.7382588999548282e-8,9.093462839337918e-9,2.180295481072802e-8,1.8779635293944027e-7,2.709450082474176e-8,2.7809894754062093e-8,0
25687,1.6211905174587003e-8,6.659904735788787e-9,1.7532791064128992e-8,9.1023319085123115e-09,2.176633003481705e-8,1.8754467235464955e-7,2.7092233168608307e-8,2.750149830811254e-8,0
25688,1.6170833062620338e-8,6.641720960409996e-9,1.7617438174029638e-8,9.105312373111627e-9,2.1763907007921603e-8,1.87148798785023e-7,2.7002811984992588e-8,2.7492021867146766e-8,0
25689,1.6129760950653673e-8,6.623537185031205e-9,1.7702085283930284e-8,9.108292837710943e-9,2.176148398102616e-8,1.8675292521539648e-7,2.6913390801376865e-8,2.748254542618099e-8,0
25690,1.608868883868701e-8,6.605353409652414e-9,1.7786732393830926e-8,9.11127330231026e-9,2.175906095413071e-8,1.8635705164576993e-7,2.6823969617761142e-8,2.7473068985215218e-8,0
25691,1.6047616726720344e-8,6.587169634273623e-9,1.7871379503731572e-8,9.114253766909576e-9,2.1756637927235265e-8,1.859611780761434e-7,2.6734548434145423e-8,2.7463592544249446e-8,0
25692,1.600654461475368e-8,6.568985858894832e-9,1.795602661363222e-8,9.117234231508891e-9,2.1754214900339817e-8,1.8556530450651686e-7,2.66451272505297e-8,2.745411610328367e-8,0
25693,1.5965472502787014e-8,6.550802083516041e-9,1.8040673723532864e-8,9.120214696108207e-9,2.175179187344437e-8,1.8516943093689034e-7,2.655570606691398e-8,2.7444639662317898e-8,0
25694,1.592440039082035e-8,6.53261830813725e-9,1.8125320833433507e-8,9.123195160707524e-9,2.1749368846548924e-8,1.847735573672638e-7,2.6466284883298257e-8,2.7435163221352125e-8,0
25695,1.5883328278853685e-8,6.514434532758459e-9,1.8209967943334153e-8,9.12617562530684e-9,2.1746945819653476e-8,1.8437768379763727e-7,2.6376863699682534e-8,2.742568678038635e-8,0
25696,1.584225616688702e-8,6.496250757379668e-9,1.82946150532348e-8,9.129156089906155e-9,2.1744522792758028e-8,1.8398181022801072e-7,2.6287442516066815e-8,2.7416210339420577e-8,0
25697,1.5801184054920355e-8,6.4780669820008775e-9,1.8379262163135445e-8,9.13213655450547e-9,2.1742099765862583e-8,1.835859366583842e-7,2.6198021332451092e-8,2.7406733898454805e-8,0
25698,1.576011194295369e-8,6.459883206622086e-9,1.8463909273036087e-8,9.135117019104788e-9,2.1739676738967135e-8,1.8319006308875765e-7,2.6108600148835373e-8,2.7397257457489032e-8,0
25699,1.5719039830987026e-8,6.441699431243295e-9,1.8548556382936733e-8,9.138097483704104e-9,2.1737253712071686e-8,1.827941895191311e-7,2.601917896521965e-8,2.7387781016523257e-8,0
25700,1.567796771902036e-8,6.423515655864504e-9,1.863320349283738e-8,9.14107794830342e-9,2.173483068517624e-8,1.8239831594950458e-7,2.592975778160393e-8,2.7378304575557484e-8,0
25701,1.567796771902036e-8,6.424118325592646e-9,1.8790529021083528e-8,9.149947017477812e-9,2.1710488488875942e-8,1.8107023983363986e-7,2.546747449516371e-8,2.723266813837768e-8,0
25702,1.567796771902036e-8,6.424720995320789e-9,1.894785454932968e-8,9.158816086652205e-9,2.1686146292575645e-8,1.7974216371777514e-7,2.5005191208723492e-8,2.708703170119788e-8,0
25703,1.567796771902036e-8,6.425323665048931e-9,1.910518007757583e-8,9.167685155826599e-9,2.166180409627535e-8,1.7841408760191042e-7,2.4542907922283275e-8,2.6941395264018078e-8,0
25704,1.567698385282284e-8,6.425926334777073e-9,1.9105891593987675e-8,9.16667559548826e-9,2.1638578498121475e-8,1.770812576545102e-7,2.4078778772009438e-8,2.679575882683828e-8,0
25705,1.5675999986625318e-8,6.426529004505215e-9,1.9106603110399524e-8,9.16566603514992e-9,2.1615352899967605e-8,1.7574842770710997e-7,2.36146496217356e-8,2.6650122389658475e-8,0
25706,1.5675999986625318e-8,6.427131674233358e-9,1.917094502903488e-8,9.443536326810086e-9,2.1606494435769888e-8,1.7441817621310285e-7,2.3152366335295384e-8,2.6508143387512297e-8,0
25707,1.5421404016222576e-8,6.4277343439615e-9,1.9226878604689987e-8,9.721406618470252e-9,2.1488688411383105e-8,1.7336378852687418e-7,2.315324034650038e-8,2.649234964858311e-8,0
25708,1.5166808045819835e-8,6.428337013689642e-9,1.9282812180345094e-8,9.99927691013042e-9,2.137088238699632e-8,1.7230940084064548e-7,2.315411435770538e-8,2.6476555909653924e-8,0
25709,1.4912212075417093e-8,6.428939683417784e-9,1.9338745756000206e-8,1.0277147201790585e-8,2.1253076362609533e-8,1.7125501315441678e-7,2.3154988368910374e-8,2.6460762170724736e-8,0
25710,1.4657616105014354e-8,6.429542353145927e-9,1.9394679331655313e-8,1.0555017493450751e-8,2.1135270338222748e-8,1.702006254681881e-7,2.315586238011537e-8,2.6444968431795548e-8,0
25711,1.4403020134611612e-8,6.430145022874069e-9,1.945061290731042e-8,1.0832887785110918e-8,2.1017464313835965e-8,1.6914623778195941e-7,2.3156736391320366e-8,2.642917469286636e-8,0
25712,1.4148424164208871e-8,6.430747692602211e-9,1.950654648296553e-8,1.1110758076771084e-8,2.089965828944918e-8,1.6809185009573074e-7,2.3157610402525362e-8,2.6413380953937176e-8,0
25713,1.389382819380613e-8,6.431350362330353e-9,1.9562480058620637e-8,1.138862836843125e-8,2.0781852265062394e-8,1.6703746240950205e-7,2.315848441373036e-8,2.6397587215007988e-8,0
25714,1.3639232223403388e-8,6.4319530320584956e-9,1.9618413634275744e-8,1.1666498660091418e-8,2.066404624067561e-8,1.6598307472327338e-7,2.3159358424935357e-8,2.63817934760788e-8,0
25715,1.3384636253000647e-8,6.4325557017866376e-9,1.9674347209930852e-8,1.1944368951751583e-8,2.0546240216288825e-8,1.6492868703704468e-7,2.3160232436140353e-8,2.6365999737149612e-8,0
25716,1.3130040282597905e-8,6.4331583715147796e-9,1.973028078558596e-8,1.2222239243411749e-8,2.042843419190204e-8,1.6387429935081598e-7,2.316110644734535e-8,2.6350205998220424e-8,0
25717,1.2875444312195164e-8,6.433761041242922e-9,1.978621436124107e-8,1.2500109535071917e-8,2.0310628167515254e-8,1.628199116645873e-7,2.3161980458550345e-8,2.633441225929124e-8,0
25718,1.2620848341792423e-8,6.4343637109710644e-9,1.984214793689618e-8,1.2777979826732082e-8,2.019282214312847e-8,1.6176552397835861e-7,2.316285446975534e-8,2.631861852036205e-8,0
25719,1.2366279651463466e-8,6.4349663806992064e-9,1.9955581807570287e-8,1.2777919556212453e-8,2.0059841309153713e-8,1.607098737324149e-7,2.316285446975534e-8,2.629949987043385e-8,0
25720,1.2111710961134512e-8,6.4355690504273484e-9,2.0069015678244395e-8,1.2777859285692825e-8,1.9926860475178954e-8,1.5965422348647114e-7,2.316285446975534e-8,2.6280381220505652e-8,0
25721,1.1857142270805556e-8,6.4361717201554904e-9,2.0182449548918503e-8,1.2777799015173195e-8,1.9793879641204195e-8,1.5859857324052738e-7,2.316285446975534e-8,2.626126257057745e-8,0
25722,1.185413611206542e-8,6.436878306494568e-9,2.0274151045730143e-8,1.2778784467303683e-8,1.978238593403927e-8,1.5855977716531118e-7,2.3161980458550345e-8,2.6254944943266936e-8,0
25723,1.1532200759050677e-8,6.43748097622271e-9,2.0382101398630628e-8,1.2777215883328507e-8,1.9585516347840597e-8,1.5612492101373814e-7,2.316295231117897e-8,2.5935078756487708e-8,0
25724,1.1210265406035931e-8,6.438083645950852e-9,2.0490051751531117e-8,1.2775647299353331e-8,1.9388646761641923e-8,1.5369006486216513e-7,2.3163924163807593e-8,2.5615212569708484e-8,0
25725,1.0888330053021188e-8,6.438686315678995e-9,2.0598002104431603e-8,1.2774078715378156e-8,1.9191777175443247e-8,1.5125520871059209e-7,2.3164896016436214e-8,2.5295346382929256e-8,0
25726,1.0566394700006442e-8,6.439288985407137e-9,2.070595245733209e-8,1.277251013140298e-8,1.8994907589244574e-8,1.4882035255901905e-7,2.3165867869064838e-8,2.4975480196150028e-8,0
25727,1.0243704397297441e-8,6.452422739801451e-9,2.0699184060243658e-8,1.2854985207301019e-8,1.880015210742674e-8,1.4638508234213588e-7,2.3165693066823837e-8,2.4655447714418784e-8,0
25728,9.92101409458844e-9,6.4655564941957645e-9,2.069241566315523e-8,1.2937460283199058e-8,1.86053966256089e-8,1.439498121252527e-7,2.316551826458284e-8,2.4335415232687543e-8,0
25729,9.598323791879439e-9,6.478690248590078e-9,2.06856472660668e-8,1.3019935359097098e-8,1.8410641143791066e-8,1.4151454190836952e-7,2.316534346234184e-8,2.40153827509563e-8,0
25730,9.275633489170438e-9,6.491824002984392e-9,2.067887886897837e-8,1.3102410434995137e-8,1.821588566197323e-8,1.3907927169148636e-7,2.316516866010084e-8,2.3695350269225055e-8,0
25731,8.952943186461435e-9,6.504957757378706e-9,2.067211047188994e-8,1.3184885510893178e-8,1.8021130180155393e-8,1.3664400147460317e-7,2.3164993857859842e-8,2.3375317787493815e-8,0
25732,8.630252883752434e-9,6.5180915117730195e-9,2.066534207480151e-8,1.3267360586791217e-8,1.7826374698337558e-8,1.3420873125772e-7,2.316481905561884e-8,2.305528530576257e-8,0
25733,8.307562581043433e-9,6.5312252661673325e-9,2.0658573677713082e-8,1.3349835662689257e-8,1.7631619216519723e-8,1.3177346104083684e-7,2.3164644253377844e-8,2.2735252824031327e-8,0
25734,7.984872278334431e-9,6.544359020561646e-9,2.0651805280624652e-8,1.3432310738587296e-8,1.7436863734701885e-8,1.2933819082395367e-7,2.3164469451136844e-8,2.2415220342300086e-8,0
25735,7.662181975625429e-9,6.55749277495596e-9,2.064503688353622e-8,1.3514785814485336e-8,1.724210825288405e-8,1.2690292060707048e-7,2.3164294648895843e-8,2.2095187860568842e-8,0
25736,7.339491672916428e-9,6.570626529350274e-9,2.063826848644779e-8,1.3597260890383375e-8,1.7047352771066215e-8,1.2446765039018732e-7,2.3164119846654846e-8,2.1775155378837598e-8,0
25737,7.016801370207426e-9,6.5837602837445875e-9,2.063150008935936e-8,1.3679735966281416e-8,1.685259728924838e-8,1.2203238017330415e-7,2.3163945044413846e-8,2.1455122897106357e-8,0
25738,6.694111067498425e-9,6.596894038138901e-9,2.0624731692270933e-8,1.3762211042179455e-8,1.6657841807430542e-8,1.1959710995642096e-7,2.3163770242172845e-8,2.1135090415375113e-8,0
25739,6.371420764789423e-9,6.610027792533215e-9,2.0617963295182503e-8,1.3844686118077495e-8,1.6463086325612707e-8,1.171618397395378e-7,2.3163595439931848e-8,2.081505793364387e-8,0
25740,6.048730462080422e-9,6.623161546927529e-9,2.0611194898094073e-8,1.3927161193975534e-8,1.6268330843794872e-8,1.1472656952265462e-7,2.3163420637690847e-8,2.049502545191263e-8,0
25741,5.728007891766463e-9,6.641947992034462e-9,2.0596233687835692e-8,1.4085913869350712e-8,1.6071342165684186e-8,1.1228944231507267e-7,2.3163245835449847e-8,2.017482674109879e-8,0
25742,5.407326241563182e-9,6.663352716199424e-9,2.0621882860107887e-8,1.4100731813619812e-8,1.5874472579485513e-8,1.0985213474181713e-7,2.3163394984085055e-8,1.9857121861740406e-8,0
25743,5.086644591359901e-9,6.684757440364386e-9,2.0647532032380085e-8,1.4115549757888911e-8,1.567760299328684e-8,1.0741482716856159e-7,2.3163544132720264e-8,1.9539416982382023e-8,0
25744,5.079972804443625e-9,6.701694216411954e-9,2.0669048876432257e-8,1.4105844420687388e-8,1.5480733407088163e-8,1.0660066910921253e-7,2.315444308158112e-8,1.95334321425838e-8,0
25745,5.001562408870902e-9,6.718630992459523e-9,2.069469804870445e-8,1.410964157996223e-8,1.5481042329602773e-8,1.0414969738072244e-7,2.314202556086253e-8,1.93695092547995e-8,0
25746,4.923152013298178e-9,6.73556776850709e-9,2.072034722097665e-8,1.4113438739237072e-8,1.5481351252117382e-8,1.0169872565223233e-7,2.3129608040143935e-8,1.9205586367015204e-8,0
25747,4.844741617725454e-9,6.752504544554659e-9,2.0745996393248844e-8,1.4117235898511916e-8,1.548166017463199e-8,9.924775392374223e-8,2.3117190519425345e-8,1.9041663479230907e-8,0
25748,4.766331222152731e-9,6.769441320602227e-9,2.0771645565521043e-8,1.4121033057786758e-8,1.54819690971466e-8,9.679678219525214e-8,2.310477299870675e-8,1.8877740591446607e-8,0
25749,4.687920826580007e-9,6.786378096649795e-9,2.0797294737793238e-8,1.41248302170616e-8,1.5482278019661208e-8,9.434581046676203e-8,2.3092355477988157e-8,1.871381770366231e-8,0
25750,4.609510431007283e-9,6.803314872697364e-9,2.0822943910065436e-8,1.4128627376336443e-8,1.5482586942175815e-8,9.189483873827193e-8,2.3079937957269566e-8,1.854989481587801e-8,0
25751,4.531100035434559e-9,6.820251648744932e-9,2.084859308233763e-8,1.4132424535611285e-8,1.5482895864690424e-8,8.944386700978184e-8,2.3067520436550972e-8,1.8385971928093713e-8,0
25752,4.452689639861836e-9,6.8371884247925005e-9,2.087424225460983e-8,1.4136221694886127e-8,1.5483204787205034e-8,8.699289528129173e-8,2.305510291583238e-8,1.8222049040309416e-8,0
25753,4.374279244289112e-9,6.854125200840069e-9,2.0899891426882024e-8,1.4140018854160971e-8,1.548351370971964e-8,8.454192355280163e-8,2.3042685395113787e-8,1.8058126152525116e-8,0
25754,4.295868848716388e-9,6.871061976887637e-9,2.0925540599154222e-8,1.4143816013435814e-8,1.548382263223425e-8,8.209095182431154e-8,2.3030267874395193e-8,1.789420326474082e-8,0
25755,4.217458453143665e-9,6.887998752935205e-9,2.0951189771426417e-8,1.4147613172710656e-8,1.548413155474886e-8,7.963998009582143e-8,2.3017850353676602e-8,1.7730280376956522e-8,0
25756,4.170940976998402e-9,6.8753426886442185e-9,2.0954747353485656e-8,1.4097834293821365e-8,1.4838848892092054e-8,7.796883100834344e-8,2.3017027649683186e-8,1.7724295537158297e-8,0
25757,4.124423500853139e-9,6.862686624353232e-9,2.095830493554489e-8,1.4048055414932073e-8,1.4193566229435247e-8,7.629768192086547e-8,2.301620494568977e-8,1.7718310697360075e-8,0
25758,4.077906024707877e-9,6.850030560062246e-9,2.0961862517604127e-8,1.3998276536042782e-8,1.354828356677844e-8,7.462653283338748e-8,2.3015382241696356e-8,1.7712325857561852e-8,0
25759,4.031388548562614e-9,6.83737449577126e-9,2.0965420099663367e-8,1.394849765715349e-8,1.2903000904121634e-8,7.295538374590949e-8,2.3014559537702943e-8,1.770634101776363e-8,0
25760,3.984871072417351e-9,6.8247184314802734e-9,2.0968977681722602e-8,1.3898718778264197e-8,1.2257718241464828e-8,7.128423465843151e-8,2.3013736833709528e-8,1.7700356177965408e-8,0
25761,3.938353596272088e-9,6.812062367189287e-9,2.0972535263781842e-08,1.3848939899374906e-8,1.1612435578808021e-8,6.961308557095352e-8,2.3012914129716113e-8,1.7694371338167186e-8,0
25762,3.8918361201268256e-9,6.7994063028983e-9,2.0976092845841078e-8,1.3799161020485614e-8,1.0967152916151215e-8,6.794193648347553e-8,2.3012091425722697e-8,1.768838649836896e-8,0
25763,3.845277723870884e-9,6.773346394255133e-9,2.1248131591044835e-8,1.3749382141596323e-8,1.0321870253494408e-8,6.627282475236992e-8,2.301179312845228e-8,1.768007405619788e-8,0
25764,3.798719327614942e-9,6.747286485611965e-9,2.152017033624859e-8,1.3699603262707031e-8,9.676587590837602e-9,6.460371302126429e-8,2.3011494831181866e-8,1.7671761614026797e-8,0
25765,3.798719327614942e-9,6.791218186724708e-9,2.1505776955861857e-8,1.3748847226167338e-8,9.677276174557407e-9,6.400865982486707e-8,2.2922886805560483e-8,1.763069789281091e-8,0
25766,3.798719327614942e-9,6.83514988783745e-9,2.1491383575475127e-8,1.3798091189627646e-8,9.677964758277211e-9,6.341360662846983e-8,2.2834278779939104e-8,1.7589634171595025e-8,0
25767,3.798719327614942e-9,6.8790815889501925e-9,2.1476990195088395e-8,1.3847335153087953e-8,9.678653341997017e-9,6.281855343207261e-8,2.2745670754317725e-8,1.7548570450379137e-8,0
25768,3.798719327614942e-9,6.923013290062935e-9,2.1462596814701665e-8,1.389657911654826e-8,9.679341925716822e-9,6.222350023567539e-8,2.2657062728696342e-8,1.750750672916325e-8,0
25769,3.798719327614942e-9,6.966944991175676e-9,2.1448203434314932e-8,1.3945823080008568e-8,9.680030509436628e-9,6.162844703927816e-8,2.2568454703074963e-8,1.7466443007947364e-8,0
25770,3.798719327614942e-9,7.010876692288419e-9,2.14338100539282e-8,1.3995067043468874e-8,9.680719093156433e-9,6.103339384288093e-8,2.247984667745358e-8,1.7425379286731476e-8,0
25771,3.798719327614942e-9,7.054808393401161e-9,2.141941667354147e-8,1.4044311006929181e-8,9.681407676876239e-9,6.043834064648371e-8,2.23912386518322e-8,1.738431556551559e-8,0
25772,3.798719327614942e-9,7.0987400945139035e-9,2.1405023293154738e-8,1.4093554970389488e-8,9.682096260596043e-9,5.984328745008648e-8,2.2302630626210822e-8,1.7343251844299703e-8,0
25773,3.798719327614942e-9,7.142671795626646e-9,2.1390629912768005e-8,1.4142798933849796e-8,9.682784844315848e-9,5.924823425368926e-8,2.221402260058944e-8,1.7302188123083815e-8,0
25774,3.798719327614942e-9,7.186603496739388e-9,2.1376236532381275e-8,1.4192042897310102e-8,9.683473428035654e-9,5.865318105729203e-8,2.212541457496806e-8,1.726112440186793e-8,0
25775,3.798719327614942e-9,7.23053519785213e-9,2.1361843151994543e-8,1.4241286860770409e-8,9.684162011755459e-9,5.80581278608948e-8,2.203680654934668e-8,1.7220060680652043e-8,0
25776,3.798719327614942e-9,7.274466898964872e-9,2.134744977160781e-8,1.4290530824230717e-8,9.684850595475265e-9,5.746307466449757e-8,2.1948198523725298e-8,1.7178996959436158e-8,0
25777,3.7947020226035006e-9,7.275069568693015e-9,2.1328852219730955e-8,1.4310138899152825e-8,9.684969687387275e-9,5.686770308065672e-8,2.185959049810392e-8,1.7138764449502667e-8,0
25778,3.790684717592058e-9,7.275672238421157e-9,2.13102546678541e-8,1.4329746974074932e-8,9.685088779299285e-9,5.6272331496815865e-8,2.177098247248254e-8,1.7098531939569178e-8,0
25779,3.647207500279163e-9,7.261582404590957e-9,2.1286811888087546e-8,1.4352311405388506e-8,9.154977789832668e-9,5.62429160529601e-8,2.1192839314215092e-8,1.6991134185503606e-8,0
25780,3.5037302829662675e-9,7.247492570760757e-9,2.126336910832099e-8,1.4374875836702078e-8,8.624866800366049e-9,5.621350060910433e-8,2.0614696155947648e-8,1.688373643143803e-8,0
25781,3.473630739578156e-9,7.214034452032951e-9,2.1234582347547525e-8,1.4375104864676668e-8,8.621423881767023e-9,5.6104974775345674e-8,1.9836827429952933e-8,1.6240179735069154e-8,0
25782,3.443531196190045e-9,7.180576333305145e-9,2.1205795586774063e-8,1.437533389265126e-8,8.617980963167997e-9,5.599644894158702e-8,1.9058958703958222e-8,1.5596623038700276e-8,0
25783,3.413431652801934e-9,7.1471182145773385e-9,2.11770088260006e-8,1.437556292062585e-8,8.61453804456897e-9,5.588792310782836e-8,1.8281089977963507e-8,1.49530663423314e-8,0
25784,3.3873494144252644e-9,7.134462150286352e-9,2.1180281801495098e-8,1.4353750378611927e-8,8.611095125969943e-9,5.577939727406971e-8,1.7503221251968796e-8,1.4309842235866554e-8,0
25785,3.361267176048595e-9,7.121806085995366e-9,2.1183554776989596e-8,1.4331937836598005e-8,8.607652207370917e-9,5.567087144031105e-8,1.672535252597408e-8,1.366661812940171e-8,0
25786,3.3351849376719255e-9,7.10915002170438e-9,2.1186827752484093e-8,1.4310125294584082e-8,8.604209288771891e-9,5.55623456065524e-8,1.594748379997937e-8,1.3023394022936863e-8,0
25787,3.3091026992952563e-9,7.0964939574133934e-9,2.1190100727978594e-8,1.4288312752570158e-8,8.600766370172865e-9,5.545381977279374e-8,1.5169615073984654e-8,1.2380169916472018e-8,0
25788,3.283020460918587e-9,7.083837893122407e-9,2.119337370347309e-8,1.4266500210556235e-8,8.597323451573837e-9,5.5345293939035086e-8,1.4391746347989943e-8,1.1736945810007174e-8,0
25789,3.2569382225419174e-9,7.071181828831421e-9,2.119664667896759e-8,1.4244687668542312e-8,8.593880532974811e-9,5.523676810527643e-8,1.361387762199523e-8,1.1093721703542329e-8,0
25790,3.230855984165248e-9,7.058525764540434e-9,2.1199919654462086e-8,1.422287512652839e-8,8.590437614375785e-9,5.5128242271517775e-8,1.2836008896000517e-8,1.0450497597077482e-8,0
25791,3.2047737457885785e-9,7.0458697002494476e-9,2.1203192629956587e-8,1.4201062584514465e-8,8.58699469577676e-9,5.501971643775912e-8,1.2058140170005804e-8,9.807273490612637e-9,0
25792,3.1786915074119093e-9,7.033213635958461e-9,2.1206465605451085e-8,1.4179250042500543e-8,8.583551777177733e-9,5.491119060400046e-8,1.128027144401109e-8,9.164049384147793e-9,0
25793,3.1526092690352396e-9,7.020557571667475e-9,2.1209738580945582e-8,1.415743750048662e-8,8.580108858578707e-9,5.480266477024181e-8,1.0502402718016377e-8,8.520825277682948e-9,0
25794,3.1265270306585704e-9,7.007901507376489e-9,2.121301155644008e-8,1.4135624958472697e-8,8.57666593997968e-9,5.469413893648315e-8,9.724533992021664e-9,7.877601171218101e-9,0
25795,3.100444792281901e-9,6.9952454430855026e-9,2.1216284531934577e-8,1.4113812416458773e-8,8.573223021380653e-9,5.45856131027245e-8,8.946665266026953e-9,7.234377064753257e-9,0
25796,3.0743625539052315e-9,6.982589378794516e-9,2.1219557507429078e-8,1.409199987444485e-8,8.569780102781627e-9,5.447708726896584e-8,8.16879654003224e-9,6.591152958288412e-9,0
25797,3.0482803155285622e-9,6.969933314503529e-9,2.1222830482923576e-8,1.4070187332430928e-8,8.566337184182601e-9,5.436856143520719e-8,7.3909278140375254e-9,5.947928851823566e-9,0
25798,3.0221980771518926e-9,6.957277250212543e-9,2.1226103458418073e-8,1.4048374790417005e-8,8.562894265583575e-9,5.426003560144853e-8,6.613059088042813e-9,5.304704745358721e-9,0
25799,2.9943224627358737e-9,6.9465956015293265e-9,2.1199169406831067e-8,1.4030978701834389e-8,8.562894265583575e-9,5.4153547124062237e-8,5.836038719647306e-9,4.660483066790042e-9,0
25800,2.9664468483198544e-9,6.935913952846109e-9,2.1172235355244064e-8,1.4013582613251774e-8,8.562894265583575e-9,5.4047058646675945e-8,5.059018351251798e-9,4.016261388221362e-9,0
25801,2.9664604883567474e-9,6.931217341569376e-9,2.1216052403030353e-8,1.3995735987967656e-8,8.46675758815773e-9,5.340226816032807e-8,5.046600830533205e-9,3.943609266975216e-9,0
25802,2.96647412839364e-9,6.926520730292643e-9,2.125986945081664e-8,1.3977889362683536e-8,8.370620910731884e-9,5.275747767398019e-8,5.0341833098146124e-9,3.87095714572907e-9,0
25803,2.966487768430533e-9,6.9218241190159096e-9,2.130368649860293e-8,1.3960042737399417e-8,8.27448423330604e-9,5.211268718763231e-8,5.021765789096019e-9,3.798305024482924e-9,0
25804,2.966501408467426e-9,6.9171275077391755e-9,2.1347503546389218e-8,1.3942196112115299e-8,8.178347555880193e-9,5.146789670128443e-8,5.009348268377427e-9,3.7256529032367775e-9,0
25805,2.966515048504319e-9,6.912430896462442e-9,2.1391320594175506e-8,1.3924349486831179e-8,8.082210878454347e-9,5.082310621493655e-8,4.996930747658834e-9,3.6530007819906315e-9,0
25806,2.9665286885412122e-9,6.907734285185709e-9,2.1435137641961794e-8,1.390650286154706e-8,7.986074201028503e-9,5.017831572858867e-8,4.984513226940241e-9,3.5803486607444855e-9,0
25807,2.966542328578105e-9,6.903037673908976e-9,2.1478954689748083e-8,1.3888656236262942e-8,7.889937523602657e-9,4.953352524224079e-8,4.972095706221649e-9,3.5076965394983395e-9,0
25808,2.966555968614998e-9,6.898341062632243e-9,2.152277173753437e-8,1.3870809610978822e-8,7.793800846176811e-9,4.8888734755892913e-8,4.959678185503055e-9,3.4350444182521934e-9,0
25809,2.966569608651891e-9,6.8936444513555095e-9,2.156658878532066e-8,1.3852962985694704e-8,7.697664168750967e-9,4.8243944269545035e-8,4.947260664784463e-9,3.3623922970060474e-9,0
25810,2.966583248688784e-9,6.888947840078776e-9,2.1610405833106948e-8,1.3835116360410585e-8,7.601527491325121e-9,4.759915378319716e-8,4.93484314406587e-9,3.2897401757599014e-9,0
25811,2.966596888725677e-9,6.884251228802043e-9,2.1654222880893236e-8,1.3817269735126467e-8,7.505390813899275e-9,4.695436329684928e-8,4.922425623347277e-9,3.2170880545137553e-9,0
25812,2.7980972112071583e-9,6.886370987819275e-9,2.166697631538815e-8,1.3789717772640823e-8,7.498479008948965e-9,4.49732279948276e-8,4.916142288670377e-9,3.144435933267609e-9,0
25813,2.6295975336886395e-9,6.888490746836508e-9,2.1679729749883062e-8,1.3762165810155182e-8,7.491567203998655e-9,4.299209269280592e-8,4.909858953993476e-9,3.071783812021463e-9,0
25814,2.461097856170121e-9,6.89061050585374e-9,2.1692483184377978e-8,1.373461384766954e-8,7.484655399048347e-9,4.101095739078424e-8,4.903575619316575e-9,2.999131690775317e-9,0
25815,2.2925981786516024e-9,6.892730264870972e-9,2.170523661887289e-8,1.3707061885183896e-8,7.477743594098037e-9,3.9029822088762563e-8,4.897292284639674e-9,2.926479569529171e-9,0
25816,2.124098501133084e-9,6.894850023888204e-9,2.1717990053367804e-8,1.3679509922698255e-8,7.470831789147727e-9,3.704868678674088e-8,4.891008949962774e-9,2.8538274482830248e-9,0
25817,1.9555988236145653e-9,6.896969782905437e-9,2.1730743487862716e-8,1.3651957960212611e-8,7.463919984197417e-9,3.50675514847192e-8,4.884725615285873e-9,2.7811753270368788e-9,0
25818,1.7870991460960468e-9,6.899089541922669e-9,2.174349692235763e-8,1.362440599772697e-8,7.457008179247107e-9,3.3086416182697525e-8,4.878442280608973e-9,2.7085232057907327e-9,0
25819,1.6185994685775282e-9,6.901209300939901e-9,2.1756250356852545e-8,1.3596854035241328e-8,7.450096374296797e-9,3.110528088067584e-8,4.872158945932072e-9,2.6358710845445867e-9,0
25820,1.6066839539121324e-9,6.903329059957133e-9,2.1796859356125296e-8,1.3596854035241328e-8,7.307449400492508e-9,3.1101885286721906e-8,4.841488015723611e-9,2.6355384946405547e-9,0
25821,1.5985295476811285e-9,6.909002347530812e-9,2.1799709571546168e-8,1.3607400175326229e-8,7.164802426688219e-9,3.1100622727006844e-8,4.814781456847015e-9,2.6355384946405547e-9,0
25822,1.5903751414501244e-9,6.91467563510449e-9,2.180255978696704e-8,1.361794631541113e-8,7.02215545288393e-9,3.109936016729178e-8,4.788074897970419e-9,2.6355384946405547e-9,0
25823,1.5804273591797707e-9,6.991566934904242e-9,2.2038760151001992e-8,1.3628335752144997e-8,6.877963866506597e-9,3.1095964573337846e-8,4.757254819126749e-9,2.6345409225367204e-9,0
25824,1.570479576909417e-9,7.068458234703993e-9,2.2274960515036944e-8,1.3638725188878862e-8,6.733772280129265e-9,3.1092568979383904e-8,4.7264347402830804e-9,2.633543350432886e-9,0
25825,1.5605317946390633e-9,7.145349534503746e-9,2.2511160879071896e-8,1.3649114625612728e-8,6.589580693751933e-9,3.108917338542997e-8,4.695614661439411e-9,2.632545778329052e-9,0
25826,1.5505840123687096e-9,7.2222408343034976e-9,2.2747361243106848e-8,1.3659504062346593e-8,6.4453891073746005e-9,3.108577779147603e-8,4.664794582595742e-9,2.6315482062252173e-9,0
25827,1.5406362300983558e-9,7.299132134103249e-9,2.29835616071418e-8,1.366989349908046e-8,6.301197520997268e-9,3.10823821975221e-8,4.633974503752072e-9,2.630550634121383e-9,0
25828,1.5306884478280021e-9,7.376023433903001e-9,2.321976197117675e-8,1.3680282935814325e-8,6.157005934619936e-9,3.1078986603568155e-8,4.603154424908403e-9,2.629553062017549e-9,0
25829,1.5207406655576484e-9,7.452914733702753e-9,2.3455962335211704e-8,1.3690672372548191e-8,6.012814348242604e-9,3.107559100961422e-8,4.572334346064733e-9,2.6285554899137146e-9,0
25830,1.5107928832872947e-9,7.529806033502505e-9,2.3692162699246655e-8,1.3701061809282056e-8,5.8686227618652714e-9,3.1072195415660284e-8,4.541514267221063e-9,2.6275579178098803e-9,0
25831,1.500845101016941e-9,7.606697333302258e-9,2.3928363063281607e-8,1.3711451246015923e-8,5.724431175487938e-9,3.106879982170635e-8,4.510694188377394e-9,2.6265603457060457e-9,0
25832,1.4908973187465872e-9,7.683588633102009e-9,2.416456342731656e-8,1.3721840682749788e-8,5.580239589110606e-9,3.1065404227752406e-8,4.4798741095337246e-9,2.6255627736022114e-9,0
25833,1.4809495364762333e-9,7.760479932901761e-9,2.440076379135151e-8,1.3732230119483654e-8,5.436048002733274e-9,3.106200863379847e-8,4.449054030690056e-9,2.624565201498377e-9,0
25834,1.4801945867819765e-9,7.761373522525239e-9,2.444137417388209e-8,1.3731220559145314e-8,5.401042160369032e-9,2.9180799796169278e-8,4.347986723137574e-9,2.4135920400950403e-9,0
25835,1.4794396370877194e-9,7.762267112148718e-9,2.448198455641267e-8,1.3730210998806975e-8,5.36603631800479e-9,2.7299590958540085e-8,4.246919415585093e-9,2.2026188786917034e-9,0
25836,1.4674286421640731e-9,7.737163282941437e-9,2.4434746696818204e-8,1.3703169843542465e-8,5.365347734284985e-9,2.6877877904685297e-8,4.113458809019948e-9,2.1909811961745066e-9,0
25837,1.4554176472404266e-9,7.712059453734156e-9,2.4387508837223735e-8,1.3676128688277955e-8,5.3646591505651795e-9,2.6456164850830512e-8,3.979998202454804e-9,2.1793435136573098e-9,0
25838,1.4434066523167801e-9,7.686955624526875e-9,2.434027097762927e-8,1.3649087533013447e-8,5.363970566845374e-9,2.6034451796975724e-8,3.84653759588966e-9,2.167705831140113e-9,0
25839,1.4313956573931336e-9,7.661851795319594e-9,2.4293033118034804e-8,1.3622046377748937e-8,5.363281983125569e-9,2.5612738743120935e-8,3.7130769893245154e-9,2.156068148622916e-9,0
25840,1.4193846624694873e-9,7.636747966112311e-9,2.424579525844034e-8,1.3595005222484427e-8,5.362593399405763e-9,2.5191025689266147e-8,3.5796163827593712e-9,2.1444304661057193e-9,0
25841,1.4073736675458408e-9,7.61164413690503e-9,2.419855739884587e-8,1.3567964067219917e-8,5.361904815685958e-9,2.476931263541136e-8,3.4461557761942266e-9,2.132792783588522e-9,0
25842,1.3953626726221943e-9,7.586540307697749e-9,2.4151319539251404e-8,1.3540922911955407e-8,5.3612162319661535e-9,2.4347599581556574e-8,3.3126951696290824e-9,2.1211551010713253e-9,0
25843,1.383095481121498e-9,7.57134928409861e-9,2.4137219064976377e-8,1.35209125167475e-8,5.3612162319661535e-9,2.392556814025816e-8,3.179059760822939e-9,2.109184828650097e-9,0
25844,1.3708282896208015e-9,7.556158260499471e-9,2.412311859070135e-8,1.3500902121539591e-8,5.3612162319661535e-9,2.3503536698959744e-8,3.045424352016795e-9,2.097214556228868e-9,0
25845,1.3585610981201051e-9,7.540967236900334e-9,2.4109018116426323e-8,1.3480891726331682e-8,5.3612162319661535e-9,2.308150525766133e-8,2.9117889432106517e-9,2.0852442838076395e-9,0
25846,1.3462939066194087e-9,7.525776213301195e-9,2.4094917642151296e-8,1.3460881331123773e-8,5.3612162319661535e-9,2.2659473816362916e-8,2.778153534404508e-9,2.0732740113864106e-9,0
25847,1.3340267151187124e-9,7.510585189702057e-9,2.408081716787627e-8,1.3440870935915866e-8,5.3612162319661535e-9,2.2237442375064503e-8,2.6445181255983644e-9,2.061303738965182e-9,0
25848,1.3217595236180158e-9,7.495394166102918e-9,2.4066716693601242e-8,1.3420860540707957e-8,5.3612162319661535e-9,2.181541093376609e-8,2.510882716792221e-9,2.0493334665439533e-9,0
25849,1.3094923321173194e-9,7.480203142503779e-9,2.4052616219326215e-8,1.3400850145500048e-8,5.3612162319661535e-9,2.1393379492467675e-8,2.377247307986077e-9,2.037363194122725e-9,0
25850,1.297225140616623e-9,7.46501211890464e-9,2.4038515745051185e-8,1.338083975029214e-8,5.3612162319661535e-9,2.0971348051169262e-8,2.2436118991799336e-9,2.025392921701496e-9,0
25851,1.2849579491159266e-9,7.4498210953055025e-9,2.4024415270776158e-8,1.3360829355084232e-8,5.3612162319661535e-9,2.0549316609870848e-8,2.1099764903737898e-9,2.0134226492802675e-9,0
25852,1.2726907576152302e-9,7.434630071706364e-9,2.401031479650113e-8,1.3340818959876323e-8,5.3612162319661535e-9,2.0127285168572434e-8,1.9763410815676463e-9,2.0014523768590387e-9,0
25853,1.2604235661145338e-9,7.419439048107225e-9,2.3996214322226104e-8,1.3320808564668415e-8,5.3612162319661535e-9,1.970525372727402e-8,1.8427056727615027e-9,1.9894821044378102e-9,0
25854,1.2481563746138374e-9,7.404248024508086e-9,2.3982113847951077e-8,1.3300798169460506e-8,5.3612162319661535e-9,1.9283222285975604e-8,1.709070263955359e-9,1.9775118320165814e-9,0
25855,1.2479138180736803e-9,7.412768487375544e-9,2.4052442187250746e-8,1.3305311055723221e-8,5.356157962103495e-9,1.892050012172129e-8,1.644036675871198e-9,1.79430255022482e-9,0
25856,1.2439510732098103e-9,7.42216170992901e-9,2.4123766649527e-8,1.3311332255441482e-8,5.26588006560594e-9,1.8911108500301424e-8,1.624508343482753e-9,1.7519082059151246e-9,0
25857,1.2399883283459405e-9,7.4315549324824764e-9,2.4195091111803252e-8,1.3317353455159743e-8,5.175602169108384e-9,1.890171687888156e-8,1.604980011094308e-9,1.7095138616054292e-9,0
25858,1.2360255834820704e-9,7.4310353494278005e-9,2.420086061939944e-8,1.333367971288439e-8,5.08819769940206e-9,1.8893184741926063e-8,1.5863000363050687e-9,1.6662883060133358e-9,0
25859,1.2320628386182006e-9,7.4305157663731245e-9,2.4206630126995627e-8,1.3350005970609036e-8,5.000793229695736e-9,1.8884652604970566e-8,1.5676200615158292e-9,1.6230627504212424e-9,0
25860,1.2291112400256375e-9,7.429414343527775e-9,2.4296123848043802e-8,1.3348473548945637e-8,4.910753517022201e-9,1.8875260983550705e-8,1.5484156800035921e-9,1.5810009960155789e-9,0
25861,1.2261596414330744e-9,7.428312920682426e-9,2.4385617569091974e-8,1.334694112728224e-8,4.820713804348666e-9,1.886586936213084e-8,1.5292112984913548e-9,1.5389392416099154e-9,0
25862,1.2232080428405115e-9,7.427211497837076e-9,2.4475111290140146e-8,1.334540870561884e-8,4.730674091675131e-9,1.8856477740710976e-8,1.5100069169791176e-9,1.4968774872042518e-9,0
25863,1.2202564442479483e-9,7.426110074991727e-9,2.456460501118832e-8,1.3343876283955443e-8,4.640634379001596e-9,1.8847086119291112e-8,1.4908025354668803e-9,1.4548157327985883e-9,0
25864,1.2173048456553854e-9,7.425008652146378e-9,2.4654098732236493e-8,1.3342343862292044e-8,4.550594666328061e-9,1.8837694497871247e-8,1.471598153954643e-9,1.4127539783929248e-9,0
25865,1.2143532470628223e-9,7.423907229301029e-9,2.4743592453284668e-8,1.3340811440628645e-8,4.460554953654526e-9,1.8828302876451383e-8,1.4523937724424059e-9,1.3706922239872613e-9,0
25866,1.2114016484702594e-9,7.42280580645568e-9,2.483308617433284e-8,1.3339279018965247e-8,4.370515240980991e-9,1.8818911255031518e-8,1.4331893909301686e-9,1.3286304695815978e-9,0
25867,1.2084500498776963e-9,7.4217043836103305e-9,2.492257989538101e-8,1.3337746597301848e-8,4.280475528307456e-9,1.8809519633611657e-8,1.4139850094179313e-9,1.2865687151759343e-9,0
25868,1.2054984512851332e-9,7.420602960764981e-9,2.5012073616429186e-8,1.333621417563845e-8,4.190435815633921e-9,1.8800128012191793e-8,1.394780627905694e-9,1.2445069607702708e-9,0
25869,1.2025468526925703e-9,7.419501537919632e-9,2.5101567337477358e-8,1.3334681753975051e-8,4.100396102960387e-9,1.8790736390771928e-8,1.3755762463934567e-9,1.2024452063646073e-9,0
25870,1.1995952541000072e-9,7.418400115074283e-9,2.519106105852553e-8,1.3333149332311652e-8,4.010356390286852e-9,1.8781344769352064e-8,1.3563718648812196e-9,1.1603834519589437e-9,0
25871,1.1966436555074442e-9,7.417298692228934e-9,2.5280554779573705e-8,1.3331616910648255e-8,3.920316677613317e-9,1.87719531479322e-8,1.3371674833689823e-9,1.1183216975532802e-9,0
25872,1.1936920569148811e-9,7.416197269383585e-9,2.5370048500621876e-8,1.3330084488984856e-8,3.830276964939782e-9,1.8762561526512335e-8,1.317963101856745e-9,1.0762599431476167e-9,0
25873,1.190740458322318e-9,7.4150958465382356e-9,2.545954222167005e-8,1.3328552067321458e-8,3.740237252266247e-9,1.8753169905092473e-8,1.2987587203445078e-9,1.0341981887419532e-9,0
25874,1.1877888597297551e-9,7.4139944236928864e-9,2.5549035942718223e-8,1.3327019645658059e-8,3.650197539592712e-9,1.874377828367261e-8,1.2795543388322705e-9,9.921364343362897e-10,0
25875,1.1327925805919736e-9,7.386126505865293e-9,2.5518041406181293e-8,1.3309160966270015e-8,3.6083954019070784e-9,1.8621561789838012e-8,1.2755899675004056e-9,9.896428004890953e-10,0
25876,1.0777963014541922e-9,7.358258588037698e-9,2.548704686964436e-8,1.329130228688197e-8,3.5665932642214454e-9,1.8499345296003412e-8,1.2716255961685405e-9,9.871491666419011e-10,0
25877,1.0665402562248027e-9,7.352003460673347e-9,2.5508856619808237e-8,1.3263738270292402e-8,3.5325141894010295e-9,1.8456303516094125e-8,1.2716255961685405e-9,9.71687688269644e-10,0
25878,1.055284210995413e-9,7.345748333308996e-9,2.553066636997211e-8,1.3236174253702833e-8,3.4984351145806137e-9,1.8413261736184834e-8,1.2716255961685405e-9,9.562262098973868e-10,0
25879,1.0440281657660236e-9,7.339493205944645e-9,2.5552476120135986e-8,1.3208610237113266e-8,3.4643560397601974e-9,1.8370219956275546e-8,1.2716255961685405e-9,9.407647315251297e-10,0
25880,1.0327721205366341e-9,7.333238078580294e-9,2.5574285870299863e-8,1.3181046220523697e-8,3.4302769649397816e-9,1.8327178176366255e-8,1.2716255961685405e-9,9.253032531528725e-10,0
25881,1.0215160753072447e-9,7.326982951215943e-9,2.5596095620463737e-8,1.3153482203934129e-8,3.3961978901193657e-9,1.8284136396456964e-8,1.2716255961685405e-9,9.098417747806153e-10,0
25882,1.0102600300778552e-9,7.320727823851591e-9,2.5617905370627612e-08,1.312591818734456e-8,3.36211881529895e-9,1.8241094616547677e-8,1.2716255961685405e-9,8.943802964083582e-10,0
25883,9.990039848484657e-10,7.31447269648724e-9,2.563971512079149e-8,1.3098354170754993e-8,3.328039740478534e-9,1.8198052836638386e-8,1.2716255961685405e-9,8.78918818036101e-10,0
25884,9.877479396190762e-10,7.308217569122889e-9,2.5661524870955364e-8,1.3070790154165424e-8,3.293960665658118e-9,1.8155011056729095e-8,1.2716255961685405e-9,8.634573396638438e-10,0
25885,9.764918943896868e-10,7.3019624417585376e-9,2.568333462111924e-8,1.3043226137575856e-8,3.2598815908377023e-9,1.8111969276819807e-8,1.2716255961685405e-9,8.479958612915866e-10,0
25886,9.65235849160297e-10,7.2957073143941865e-9,2.5705144371283115e-8,1.3015662120986287e-8,3.2258025160172865e-9,1.8068927496910516e-8,1.2716255961685405e-9,8.325343829193294e-10,0
25887,9.539798039309076e-10,7.289140437197029e-9,2.5722885336950098e-8,1.3010662535710292e-8,3.1914852573728496e-9,1.8026066082674806e-8,1.2713016452923328e-9,8.16075332443238e-10,0
25888,9.427237587015182e-10,7.282573559999873e-9,2.574062630261708e-8,1.3005662950434296e-8,3.157167998728413e-9,1.79832046684391e-8,1.2709776944161251e-9,7.996162819671465e-10,0
25889,9.304565672008218e-10,7.28371664272016e-9,2.570172909250625e-8,1.2979571084988497e-8,3.127909009946634e-9,1.794016288852981e-8,1.27180039840954e-9,7.833235264430709e-10,0
25890,9.182848559583761e-10,7.26833838276021e-9,2.5695886358382132e-8,1.2967162527577952e-8,3.1329672798092915e-9,1.7905080794711182e-8,1.2021449912420248e-9,7.359423096555094e-10,0
25891,9.061131447159303e-10,7.252960122800259e-9,2.569004362425802e-8,1.2954753970167407e-8,3.1380255496719493e-9,1.7869998700892556e-8,1.1324895840745096e-9,6.885610928679478e-10,0
25892,8.938459532152339e-10,7.261522012466244e-9,2.5914544687466466e-8,1.2961261868898949e-8,3.0373929296250577e-9,1.7339323767850088e-8,1.1324895840745096e-9,6.918860038669604e-10,0
25893,8.815787617145375e-10,7.270083902132229e-9,2.6139045750674914e-8,1.2967769767630492e-8,2.9367603095781656e-9,1.680864883480762e-8,1.1324895840745096e-9,6.95210914865973e-10,0
25894,8.69311570213841e-10,7.278645791798214e-9,2.636354681388336e-8,1.2974277666362034e-8,2.8361276895312736e-9,1.6277973901765156e-8,1.1324895840745096e-9,6.985358258649856e-10,0
25895,8.570443787131446e-10,7.287207681464199e-9,2.6588047877091812e-8,1.2980785565093577e-8,2.7354950694843816e-9,1.5747298968722688e-8,1.1324895840745096e-9,7.018607368639982e-10,0
25896,8.447771872124482e-10,7.295769571130184e-9,2.681254894030026e-8,1.2987293463825119e-8,2.6348624494374896e-9,1.521662403568022e-8,1.1324895840745096e-9,7.051856478630109e-10,0
25897,8.325099957117518e-10,7.304331460796168e-9,2.7037050003508707e-8,1.2993801362556662e-8,2.534229829390598e-9,1.4685949102637752e-8,1.1324895840745096e-9,7.085105588620235e-10,0
25898,8.202428042110554e-10,7.312893350462153e-9,2.7261551066717154e-8,1.3000309261288204e-8,2.433597209343706e-9,1.4155274169595284e-8,1.1324895840745096e-9,7.118354698610361e-10,0
25899,8.079756127103589e-10,7.321455240128138e-9,2.7486052129925602e-8,1.3006817160019745e-8,2.332964589296814e-9,1.3624599236552818e-8,1.1324895840745096e-9,7.151603808600487e-10,0
25900,7.957084212096625e-10,7.330017129794122e-9,2.771055319313405e-8,1.3013325058751289e-8,2.232331969249922e-9,1.309392430351035e-8,1.1324895840745096e-9,7.184852918590613e-10,0
25901,7.834412297089662e-10,7.338579019460107e-9,2.7935054256342497e-8,1.301983295748283e-8,2.1316993492030303e-9,1.2563249370467882e-8,1.1324895840745096e-9,7.21810202858074e-10,0
25902,7.711740382082698e-10,7.3471409091260924e-9,2.8159555319550944e-8,1.3026340856214374e-8,2.0310667291561383e-9,1.2032574437425416e-8,1.1324895840745096e-9,7.251351138570866e-10,0
25903,7.589068467075733e-10,7.355702798792077e-9,2.8384056382759395e-8,1.3032848754945915e-8,1.9304341091092462e-9,1.1501899504382948e-8,1.1324895840745096e-9,7.284600248560992e-10,0
25904,7.466396552068769e-10,7.364264688458062e-9,2.8608557445967842e-8,1.3039356653677459e-8,1.8298014890623544e-9,1.097122457134048e-8,1.1324895840745096e-9,7.317849358551118e-10,0
25905,7.343724637061805e-10,7.372826578124047e-9,2.883305850917629e-8,1.3045864552409e-8,1.7291688690154624e-9,1.0440549638298013e-8,1.1324895840745096e-9,7.351098468541244e-10,0
25906,7.221052722054841e-10,7.381388467790031e-9,2.9057559572384737e-8,1.3052372451140544e-8,1.6285362489685706e-9,9.909874705255545e-9,1.1324895840745096e-9,7.384347578531371e-10,0
25907,7.098380807047876e-10,7.389950357456016e-9,2.9282060635593185e-8,1.3058880349872085e-8,1.5279036289216786e-9,9.379199772213078e-9,1.1324895840745096e-9,7.417596688521497e-10,0
25908,6.975708892040912e-10,7.398512247122001e-9,2.9506561698801632e-8,1.3065388248603629e-8,1.4272710088747868e-9,8.848524839170611e-9,1.1324895840745096e-9,7.450845798511623e-10,0
25909,6.853036977033948e-10,7.407074136787985e-9,2.973106276201008e-8,1.307189614733517e-8,1.3266383888278947e-9,8.317849906128143e-9,1.1324895840745096e-9,7.484094908501749e-10,0
25910,6.730365062026984e-10,7.41563602645397e-9,2.995556382521853e-8,1.3078404046066713e-8,1.226005768781003e-9,7.787174973085675e-9,1.1324895840745096e-9,7.517344018491875e-10,0
25911,6.607693147020019e-10,7.424197916119955e-9,3.0180064888426974e-8,1.3084911944798255e-8,1.125373148734111e-9,7.256500040043208e-9,1.1324895840745096e-9,7.550593128482002e-10,0
25912,6.448637750989503e-10,7.43275980578594e-9,3.0413477197506364e-8,1.3098973464911457e-8,1.1060184836058837e-9,6.533224948620253e-9,1.0532087190448533e-9,7.176530266659375e-10,0
25913,6.289582354958987e-10,7.441321695451925e-9,3.0646889506585747e-8,1.311303498502466e-8,1.0866638184776565e-9,5.809949857197298e-9,9.739278540151973e-10,6.802467404836749e-10,0
25914,6.13052695892847e-10,7.44988358511791e-9,3.088030181566513e-8,1.3127096505137862e-8,1.0673091533494293e-9,5.086674765774342e-9,8.94646988985541e-10,6.428404543014124e-10,0
25915,5.971471562897954e-10,7.458445474783895e-9,3.111371412474452e-8,1.3141158025251064e-8,1.0479544882212019e-9,4.3633996743513865e-9,8.153661239558848e-10,6.054341681191497e-10,0
25916,5.812416166867438e-10,7.467007364449879e-9,3.13471264338239e-8,1.3155219545364265e-8,1.0285998230929747e-9,3.6401245829284313e-9,7.360852589262285e-10,5.680278819368872e-10,0
25917,5.653360770836923e-10,7.475569254115863e-9,3.1580538742903284e-8,1.3169281065477469e-8,1.0092451579647475e-9,2.9168494915054757e-9,6.568043938965724e-10,5.306215957546245e-10,0
25918,5.673038094787343e-10,7.495644125352547e-9,3.166462217270577e-8,1.3207552460359222e-8,1.009126066052737e-9,2.8626344135594037e-9,6.509428515195062e-10,5.251354432041884e-10,0
25919,5.673038094787343e-10,7.492235940205565e-9,3.1617598459663767e-8,1.320859818300934e-8,1.0088171435381283e-9,2.8077402168225447e-9,6.454052600186476e-10,5.193167666191409e-10,0
25920,5.673038094787343e-10,7.488827755058582e-9,3.1570574746621766e-8,1.3209643905659457e-8,1.0085082210235198e-9,2.7528460200856853e-9,6.398676685177891e-10,5.134980900340934e-10,0
25921,5.673038094787343e-10,7.485419569911598e-9,3.152355103357977e-8,1.3210689628309574e-8,1.008199298508911e-9,2.697951823348826e-9,6.343300770169305e-10,5.076794134490459e-10,0
25922,5.873084943145854e-10,7.775236324730973e-9,3.154029449301234e-8,1.3262752818161913e-8,1.0103134028897493e-9,2.6440127889428463e-9,6.296151895094866e-10,5.018607368639983e-10,0
25923,6.073131791504365e-10,8.065053079550347e-9,3.155703795244491e-8,1.3314816008014253e-8,1.0124275072705878e-9,2.5900737545368668e-9,6.249003020020427e-10,4.960420602789508e-10,0
25924,6.273178639862876e-10,8.354869834369721e-9,3.1573781411877475e-8,1.3366879197866593e-8,1.014541611651426e-9,2.536134720130887e-9,6.201854144945988e-10,4.902233836939033e-10,0
25925,6.473225488221387e-10,8.644686589189095e-9,3.1590524871310045e-8,1.3418942387718931e-8,1.0166557160322645e-9,2.4821956857249073e-9,6.154705269871549e-10,4.844047071088557e-10,0
25926,6.673272336579899e-10,8.93450334400847e-9,3.1607268330742615e-8,1.3471005577571271e-8,1.0187698204131027e-9,2.4282566513189277e-9,6.10755639479711e-10,4.785860305238082e-10,0
25927,6.87331918493841e-10,9.224320098827844e-9,3.1624011790175185e-8,1.3523068767423611e-8,1.020883924793941e-9,2.3743176169129478e-9,6.060407519722671e-10,4.727673539387607e-10,0
25928,7.073366033296922e-10,9.514136853647218e-9,3.1640755249607755e-8,1.357513195727595e-8,1.0229980291747794e-9,2.3203785825069682e-9,6.013258644648234e-10,4.669486773537131e-10,0
25929,7.273412881655433e-10,9.803953608466592e-9,3.1657498709040325e-8,1.3627195147128289e-8,1.0251121335556176e-9,2.2664395481009887e-9,5.966109769573795e-10,4.611300007686656e-10,0
25930,7.473459730013944e-10,1.0093770363285966e-8,3.1674242168472895e-8,1.3679258336980629e-8,1.027226237936456e-9,2.2125005136950087e-9,5.918960894499356e-10,4.553113241836181e-10,0
25931,7.673506578372456e-10,1.038358711810534e-8,3.1690985627905465e-8,1.3731321526832969e-8,1.0293403423172943e-9,2.158561479289029e-9,5.871812019424917e-10,4.4949264759857054e-10,0
25932,7.873553426730967e-10,1.0673403872924715e-8,3.1707729087338035e-8,1.3783384716685309e-8,1.0314544466981328e-9,2.1046224448830496e-9,5.824663144350478e-10,4.43673971013523e-10,0
25933,8.073600275089478e-10,1.0963220627744089e-8,3.1724472546770605e-8,1.3835447906537648e-8,1.033568551078971e-9,2.0506834104770697e-9,5.777514269276039e-10,4.378552944284755e-10,0
25934,8.276209089218489e-10,1.125376479884001e-8,3.180142006358719e-8,1.387743960121444e-8,1.03580174737182e-9,1.9506880973396724e-9,5.7303653942016e-10,4.370240831460774e-10,0
25935,8.4788179033475e-10,1.154430896993593e-8,3.187836758040378e-8,1.3919431295891234e-8,1.0380349436646687e-9,1.8506927842022747e-9,5.683216519127162e-10,4.3619287186367937e-10,0
25936,8.658778226648802e-10,1.183682732356321e-8,3.195688181658426e-8,1.3966933383065157e-8,1.036229761798439e-9,1.8322499089250595e-9,5.68619949183133e-10,4.358603478290679e-10,0
25937,8.838738549950105e-10,1.212934567719049e-8,3.203539605276475e-8,1.4014435470239078e-8,1.0344245799322094e-9,1.8138070336478443e-9,5.689182464535498e-10,4.3552782379445645e-10,0
25938,9.018698873251407e-10,1.2421864030817768e-8,3.211391028894523e-8,1.4061937557412999e-8,1.0326193980659797e-9,1.795364158370629e-9,5.692165437239666e-10,4.35195299759845e-10,0
25939,9.19865919655271e-10,1.2714382384445049e-8,3.219242452512571e-8,1.4109439644586921e-8,1.03081421619975e-9,1.7769212830934138e-9,5.695148409943835e-10,4.348627757252336e-10,0
25940,9.378619519854013e-10,1.3006900738072328e-8,3.227093876130619e-8,1.4156941731760842e-8,1.0290090343335204e-9,1.7584784078161986e-9,5.698131382648003e-10,4.3453025169062216e-10,0
25941,9.558579843155315e-10,1.3299419091699608e-8,3.234945299748667e-8,1.4204443818934765e-8,1.0272038524672907e-9,1.7400355325389832e-9,5.701114355352171e-10,4.341977276560107e-10,0
25942,9.738540166456617e-10,1.3591937445326887e-8,3.242796723366715e-8,1.4251945906108686e-8,1.0253986706010611e-9,1.721592657261768e-9,5.704097328056339e-10,4.3386520362139925e-10,0
25943,9.91850048975792e-10,1.3884455798954168e-8,3.250648146984764e-8,1.4299447993282607e-8,1.0235934887348314e-9,1.7031497819845526e-9,5.707080300760508e-10,4.335326795867878e-10,0
25944,1.0098460813059222e-9,1.4176974152581446e-8,3.258499570602812e-8,1.434695008045653e-8,1.0217883068686019e-9,1.6847069067073374e-9,5.710063273464675e-10,4.332001555521764e-10,0
25945,1.0496372103873371e-9,1.4743849079776735e-8,3.261064764481597e-8,1.434190227876483e-8,1.0175600981069252e-9,1.6651285034256622e-9,5.703327719882613e-10,4.332001555521764e-10,0
25946,1.048653344189816e-9,1.4708167285420762e-8,3.254117589172617e-8,1.4319824546464539e-8,1.015874008152706e-9,1.6632715127268802e-9,5.691604635128481e-10,4.312052089527688e-10,0
25947,1.0399729047678194e-9,1.4679696697865026e-8,3.231473644348289e-8,1.410373937081841e-8,1.0096767546744584e-9,1.5440914978332976e-9,5.281600934787119e-10,4.228927667816864e-10,0
25948,1.0312924653458225e-9,1.465122611030929e-8,3.208829699523961e-8,1.388765419517228e-8,1.003479501196211e-9,1.424911482939715e-9,4.871597234445759e-10,4.1458032461060393e-10,0
25949,1.0226120259238256e-9,1.4622755522753554e-8,3.186185754699633e-8,1.367156901952615e-8,9.972822477179636e-10,1.3057314680461325e-9,4.4615935341043985e-10,4.062678824395215e-10,0
25950,1.0139315865018287e-9,1.4594284935197817e-8,3.163541809875305e-8,1.345548384388002e-8,9.910849942397162e-10,1.1865514531525498e-9,4.051589833763038e-10,3.97955440268439e-10,0
25951,1.005251147079832e-9,1.4566417017370224e-8,3.140790930100526e-8,1.324943400109766e-8,9.827736363806305e-10,1.0676898257025938e-9,3.6415861334216776e-10,3.903079802971591e-10,0
25952,9.96570707657835e-10,1.453854909954263e-8,3.1180400503257466e-8,1.3043384158315298e-8,9.744622785215447e-10,9.488281982526376e-10,3.2315824330803167e-10,3.826605203258792e-10,0
25953,9.96570707657835e-10,1.4529405370085972e-8,3.1165439292999085e-8,1.3014882906010946e-8,9.6823905729104e-10,9.47109229323902e-10,3.221863906794086e-10,3.834917316082773e-10,0
25954,9.96570707657835e-10,1.4520261640629313e-8,3.1150478082740704e-8,1.2986381653706593e-8,9.620158360605356e-10,9.453902603951662e-10,3.212145380507855e-10,3.8432294289067533e-10,0
25955,9.96570707657835e-10,1.4511117911172655e-8,3.113551687248232e-8,1.295788040140224e-8,9.55792614830031e-10,9.436712914664304e-10,3.202426854221624e-10,3.851541541730734e-10,0
25956,9.96570707657835e-10,1.4501974181715998e-8,3.112055566222394e-8,1.2929379149097887e-8,9.495693935995263e-10,9.419523225376948e-10,3.192708327935393e-10,3.8598536545547145e-10,0
25957,9.96570707657835e-10,1.449283045225934e-8,3.1105594451965555e-8,1.2900877896793534e-8,9.433461723690217e-10,9.40233353608959e-10,3.182989801649162e-10,3.868165767378695e-10,0
25958,9.96570707657835e-10,1.4483686722802681e-8,3.1090633241707174e-8,1.2872376644489182e-8,9.37122951138517e-10,9.385143846802232e-10,3.173271275362931e-10,3.8764778802026757e-10,0
25959,9.96570707657835e-10,1.4474542993346024e-8,3.107567203144879e-8,1.2843875392184828e-8,9.308997299080124e-10,9.367954157514876e-10,3.1635527490767007e-10,3.8847899930266563e-10,0
25960,9.96570707657835e-10,1.4465399263889367e-8,3.106071082119041e-8,1.2815374139880474e-8,9.246765086775078e-10,9.350764468227519e-10,3.15383422279047e-10,3.8931021058506374e-10,0
25961,9.96570707657835e-10,1.4456255534432709e-8,3.104574961093203e-8,1.2786872887576123e-8,9.184532874470032e-10,9.33357477894016e-10,3.144115696504239e-10,3.901414218674618e-10,0
25962,9.96570707657835e-10,1.444711180497605e-8,3.103078840067365e-8,1.2758371635271769e-8,9.122300662164986e-10,9.316385089652805e-10,3.134397170218008e-10,3.9097263314985986e-10,0
25963,9.96570707657835e-10,1.4437968075519393e-8,3.101582719041527e-8,1.2729870382967415e-8,9.060068449859939e-10,9.299195400365447e-10,3.124678643931777e-10,3.918038444322579e-10,0
25964,9.96570707657835e-10,1.4428824346062735e-8,3.100086598015688e-8,1.2701369130663063e-8,8.997836237554894e-10,9.28200571107809e-10,3.1149601176455463e-10,3.9263505571465597e-10,0
25965,9.96570707657835e-10,1.4419680616606078e-8,3.09859047698985e-8,1.267286787835871e-8,8.935604025249847e-10,9.264816021790733e-10,3.1052415913593153e-10,3.9346626699705403e-10,0
25966,9.96570707657835e-10,1.4410536887149419e-8,3.097094355964012e-8,1.2644366626054356e-8,8.873371812944801e-10,9.247626332503375e-10,3.0955230650730843e-10,3.942974782794521e-10,0
25967,9.963145110807852e-10,1.4404094756500668e-8,3.097094355964012e-8,1.2605830040886235e-8,8.811139600639755e-10,9.229056425515557e-10,3.08405651637686e-10,3.946300023140635e-10,0
25968,9.96058314503735e-10,1.4397652625851915e-8,3.097094355964012e-8,1.2567293455718114e-8,8.748907388334709e-10,9.210486518527739e-10,3.0725899676806366e-10,3.94962526348675e-10,0
25969,9.958021179266852e-10,1.4391210495203162e-8,3.097094355964012e-8,1.252875687054999e-8,8.686675176029663e-10,9.191916611539921e-10,3.061123418984413e-10,3.9529505038328643e-10,0
25970,9.95545921349635e-10,1.4391937911479708e-8,3.09315434466386e-8,1.2424288441079141e-8,8.525399727189099e-10,9.16920605145072e-10,3.0409167582382246e-10,3.936326278184903e-10,0
25971,9.945347750783284e-10,1.439495126012042e-8,3.078085231174547e-8,1.2417390276165724e-8,8.526590646309203e-10,9.162414863542845e-10,3.037677249476148e-10,3.936326278184903e-10,0
25972,9.935236288070214e-10,1.4397964608761131e-8,3.0630161176852345e-8,1.2410492111252308e-8,8.527781565429307e-10,9.155623675634971e-10,3.034437740714071e-10,3.936326278184903e-10,0
25973,9.925124825357145e-10,1.4400977957401842e-8,3.047947004195922e-8,1.240359394633889e-8,8.528972484549412e-10,9.148832487727097e-10,3.031198231951994e-10,3.936326278184903e-10,0
25974,9.915013362644076e-10,1.4403991306042553e-8,3.03287789070661e-8,1.2396695781425473e-8,8.530163403669515e-10,9.142041299819223e-10,3.027958723189917e-10,3.936326278184903e-10,0
25975,9.904901899931007e-10,1.4404303055875359e-8,3.029244177278009e-8,1.2394322556878698e-8,8.539431079107777e-10,9.136630329611809e-10,3.027958723189917e-10,3.9330010378387883e-10,0
25976,9.894790437217937e-10,1.4404614805708164e-8,3.0256104638494074e-8,1.239194933233192e-8,8.548698754546037e-10,9.131219359404396e-10,3.027958723189917e-10,3.929675797492674e-10,0
25977,9.884678974504868e-10,1.440492655554097e-8,3.0219767504208065e-8,1.2389576107785144e-8,8.557966429984298e-10,9.125808389196983e-10,3.027958723189917e-10,3.9263505571465597e-10,0
25978,9.874567511791799e-10,1.4405238305373776e-8,3.018343036992205e-8,1.2387202883238367e-8,8.567234105422559e-10,9.120397418989569e-10,3.027958723189917e-10,3.9230253168004454e-10,0
25979,9.86445604907873e-10,1.440555005520658e-8,3.014709323563604e-8,1.2384829658691591e-8,8.57650178086082e-10,9.114986448782156e-10,3.027958723189917e-10,3.919700076454331e-10,0
25980,9.85434458636566e-10,1.4405861805039387e-8,3.011075610135003e-8,1.2382456434144814e-8,8.58576945629908e-10,9.109575478574744e-10,3.027958723189917e-10,3.9163748361082163e-10,0
25981,9.844233123652591e-10,1.4406173554872193e-8,3.007441896706402e-8,1.2380083209598037e-8,8.595037131737342e-10,9.10416450836733e-10,3.027958723189917e-10,3.913049595762102e-10,0
25982,9.834121660939522e-10,1.4406485304704998e-8,3.003808183277801e-8,1.237770998505126e-8,8.604304807175602e-10,9.098753538159917e-10,3.027958723189917e-10,3.9097243554159877e-10,0
25983,9.824010198226453e-10,1.4406797054537804e-8,3.0001744698492e-8,1.2375336760504485e-8,8.613572482613864e-10,9.093342567952504e-10,3.027958723189917e-10,3.9063991150698734e-10,0
25984,9.813898735513383e-10,1.440710880437061e-8,2.9965407564205984e-8,1.2372963535957708e-8,8.622840158052125e-10,9.08793159774509e-10,3.027958723189917e-10,3.903073874723759e-10,0
25985,9.803787272800314e-10,1.4407420554203415e-8,2.9929070429919975e-8,1.237059031141093e-8,8.632107833490385e-10,9.082520627537677e-10,3.027958723189917e-10,3.899748634377644e-10,0
25986,9.793675810087245e-10,1.4407732304036221e-8,2.989273329563396e-8,1.2368217086864155e-8,8.641375508928647e-10,9.077109657330264e-10,3.027958723189917e-10,3.89642339403153e-10,0
25987,9.783564347374176e-10,1.4408044053869027e-8,2.985639616134795e-8,1.2365843862317378e-8,8.650643184366907e-10,9.071698687122852e-10,3.027958723189917e-10,3.8930981536854156e-10,0
25988,9.773452884661107e-10,1.4408355803701832e-8,2.982005902706194e-8,1.2363470637770601e-8,8.659910859805168e-10,9.066287716915438e-10,3.027958723189917e-10,3.8897729133393013e-10,0
25989,9.763341421948037e-10,1.4408667553534638e-8,2.978372189277593e-8,1.2361097413223824e-8,8.669178535243429e-10,9.060876746708025e-10,3.027958723189917e-10,3.886447672993187e-10,0
25990,9.753229959234968e-10,1.4408979303367444e-8,2.9747384758489918e-8,1.2358724188677049e-8,8.67844621068169e-10,9.055465776500612e-10,3.027958723189917e-10,3.883122432647072e-10,0
25991,9.73058146840726e-10,1.4404178775479774e-8,2.9649191171607622e-8,1.2362299839224977e-8,8.571585895350587e-10,8.816174180835691e-10,3.0109915712058057e-10,3.8631729666529967e-10,0
25992,9.728155903005689e-10,1.4399378247592106e-8,2.9765679721450278e-8,1.2299710082639341e-8,8.545233465678481e-10,8.808002775227355e-10,2.95561565619722e-10,3.8432235006589207e-10,0
25993,9.70550741217798e-10,1.4393123120227755e-8,2.9787410712054914e-8,1.2228231683527707e-8,8.463051128685155e-10,8.517032211105932e-10,2.9219378882869067e-10,3.8398982603128064e-10,0
25994,9.682858921350273e-10,1.4386867992863404e-8,2.980914170265956e-8,1.2156753284416071e-8,8.38086879169183e-10,8.226061646984509e-10,2.8882601203765933e-10,3.836573019966692e-10,0
25995,9.660210430522564e-10,1.4380612865499053e-8,2.98308726932642e-8,1.2085274885304437e-8,8.298686454698505e-10,7.935091082863086e-10,2.85458235246628e-10,3.8332477796205777e-10,0
25996,9.637561939694855e-10,1.4374357738134702e-8,2.985260368386883e-8,1.2013796486192803e-8,8.216504117705179e-10,7.644120518741663e-10,2.8209045845559666e-10,3.8299225392744634e-10,0
25997,9.614913448867146e-10,1.4368102610770351e-8,2.987433467447347e-8,1.1942318087081168e-8,8.134321780711854e-10,7.353149954620239e-10,2.787226816645653e-10,3.8265972989283486e-10,0
25998,9.592264958039439e-10,1.4361847483406e-8,2.989606566507811e-8,1.1870839687969534e-8,8.052139443718528e-10,7.062179390498816e-10,2.75354904873534e-10,3.8232720585822343e-10,0
25999,9.56961646721173e-10,1.4355592356041647e-8,2.991779665568275e-8,1.17993612888579e-8,7.969957106725202e-10,6.771208826377393e-10,2.7198712808250264e-10,3.81994681823612e-10,0
26000,9.54696797638402e-10,1.4349337228677296e-8,2.993952764628739e-8,1.1727882889746266e-8,7.887774769731877e-10,6.480238262255969e-10,2.686193512914713e-10,3.8166215778900057e-10,0
26001,9.524319485556312e-10,1.4343082101312945e-8,2.996125863689203e-8,1.1656404490634632e-8,7.805592432738552e-10,6.189267698134546e-10,2.6525157450043996e-10,3.8132963375438914e-10,0
26002,9.511509656703813e-10,1.4337928396793943e-8,2.9897068704343836e-8,1.1607189170238424e-8,7.721028257505018e-10,5.896916916312662e-10,2.6155984683320094e-10,3.8099710971977765e-10,0
26003,9.498699827851315e-10,1.4332774692274941e-8,2.9832878771795643e-8,1.1557973849842216e-8,7.636464082271484e-10,5.604566134490778e-10,2.5786811916596186e-10,3.806645856851662e-10,0
26004,9.485889998998816e-10,1.432762098775594e-8,2.9768688839247447e-8,1.1508758529446008e-8,7.551899907037951e-10,5.312215352668893e-10,2.5417639149872284e-10,3.803320616505548e-10,0
26005,9.485889998998816e-10,1.432674822806993e-8,2.980652638265857e-8,1.1503284299260658e-8,7.474481246525042e-10,5.302663729360097e-10,2.533280338995173e-10,3.7833711505114724e-10,0
26006,9.485889998998816e-10,1.432587546838392e-8,2.9844363926069677e-8,1.1497810069075307e-8,7.397062586012133e-10,5.293112106051301e-10,2.5247967630031173e-10,3.7634216845173964e-10,0
26007,9.485889998998816e-10,1.4325002708697912e-8,2.988220146948079e-8,1.1492335838889955e-8,7.319643925499223e-10,5.283560482742504e-10,2.516313187011062e-10,3.743472218523321e-10,0
26008,9.485889998998816e-10,1.4324129949011902e-8,2.992003901289191e-8,1.1486861608704605e-8,7.242225264986314e-10,5.274008859433708e-10,2.507829611019006e-10,3.723522752529245e-10,0
26009,9.485889998998816e-10,1.4323257189325892e-8,2.9957876556303026e-8,1.1481387378519254e-8,7.164806604473406e-10,5.264457236124911e-10,2.4993460350269507e-10,3.7035732865351695e-10,0
26010,9.478476902425176e-10,1.4331777652193349e-8,2.995338916150599e-8,1.1459003758764568e-8,7.116122211872811e-10,5.254905612816115e-10,2.490862459034895e-10,3.6869490608872083e-10,0
26011,9.471063805851536e-10,1.4340298115060805e-8,2.994890176670895e-8,1.1436620139009884e-8,7.067437819272217e-10,5.24535398950732e-10,2.4823788830428396e-10,3.6703248352392466e-10,0
26012,9.463650709277896e-10,1.4348818577928262e-8,2.994441437191192e-8,1.1414236519255198e-8,7.018753426671623e-10,5.235802366198523e-10,2.473895307050784e-10,3.6537006095912854e-10,0
26013,9.456237612704256e-10,1.435733904079572e-8,2.993992697711488e-8,1.1391852899500513e-8,6.970069034071029e-10,5.226250742889727e-10,2.4654117310587284e-10,3.6370763839433243e-10,0
26014,9.369296818115359e-10,1.4101769378487465e-8,2.991513024127908e-8,1.1369469279745829e-8,7.004498220061292e-10,5.110690647861434e-10,2.428494454386338e-10,3.632089511465458e-10,0
26015,9.28235602352646e-10,1.3846199716179207e-8,2.989033350544327e-8,1.1347085659991143e-8,7.038927406051556e-10,4.995130552833141e-10,2.391577177713948e-10,3.6271026389875917e-10,0
26016,9.195415228937563e-10,1.3590630053870952e-8,2.986553676960746e-8,1.1324702040236459e-8,7.073356592041819e-10,4.879570457804848e-10,2.3546599010415573e-10,3.6221157665097254e-10,0
26017,9.128697359774803e-10,1.3340982939156773e-8,2.984309011281749e-8,1.1305978449757184e-8,7.094497635850202e-10,4.765390580477017e-10,2.3209821331312441e-10,3.6254416655500434e-10,0
26018,9.061979490612044e-10,1.3091335824442592e-8,2.982064345602752e-8,1.1287254859277909e-8,7.115638679658586e-10,4.651210703149185e-10,2.2873043652209307e-10,3.6287675645903613e-10,0
26019,8.995261621449284e-10,1.2841688709728413e-8,2.979819679923755e-8,1.1268531268798634e-8,7.136779723466969e-10,4.5370308258213534e-10,2.253626597310617e-10,3.63209346363068e-10,0
26020,8.928543752286524e-10,1.2592041595014233e-8,2.9775750142447583e-8,1.1249807678319361e-8,7.157920767275353e-10,4.4228509484935216e-10,2.2199488294003037e-10,3.6354193626709977e-10,0
26021,8.861825883123765e-10,1.2342394480300054e-8,2.9753303485657612e-8,1.1231084087840086e-8,7.179061811083736e-10,4.30867107116569e-10,2.1862710614899903e-10,3.6387452617113157e-10,0
26022,8.795108013961005e-10,1.2092747365585874e-8,2.9730856828867645e-8,1.1212360497360811e-8,7.20020285489212e-10,4.1944911938378585e-10,2.152593293579677e-10,3.6420711607516336e-10,0
26023,8.728390144798246e-10,1.1843100250871695e-8,2.9708410172077674e-8,1.1193636906881536e-8,7.221343898700503e-10,4.0803113165100267e-10,2.1189155256693635e-10,3.6453970597919515e-10,0
26024,8.661672275635486e-10,1.1593453136157514e-8,2.9685963515287706e-8,1.1174913316402262e-8,7.242484942508887e-10,3.966131439182195e-10,2.0852377577590501e-10,3.6487229588322695e-10,0
26025,8.594954406472726e-10,1.1343806021443335e-8,2.9663516858497735e-8,1.1156189725922988e-8,7.26362598631727e-10,3.851951561854363e-10,2.0515599898487367e-10,3.6520488578725874e-10,0
26026,8.528236537309967e-10,1.1094158906729155e-8,2.9641070201707767e-8,1.1137466135443714e-8,7.284767030125654e-10,3.737771684526532e-10,2.0178822219384233e-10,3.655374756912906e-10,0
26027,8.461518668147207e-10,1.0844511792014974e-8,2.9618623544917796e-8,1.1118742544964439e-8,7.305908073934037e-10,3.6235918071987e-10,1.98420445402811e-10,3.658700655953224e-10,0
26028,8.474055696261847e-10,1.0860347145217194e-8,2.958143259093757e-8,1.1087248773956844e-8,7.203775612252432e-10,3.5841149968574847e-10,1.985695940380194e-10,3.667013427471408e-10,0
26029,8.494142221319056e-10,1.0876764338210086e-8,2.9527278497940993e-8,1.106255220017501e-8,7.16863903935629e-10,3.5669253075701273e-10,1.988935449142271e-10,3.667013427471408e-10,0
26030,8.514228746376264e-10,1.0893181531202978e-8,2.9473124404944418e-8,1.1037855626393179e-8,7.133502466460147e-10,3.5497356182827704e-10,1.992174957904348e-10,3.667013427471408e-10,0
26031,8.534315271433473e-10,1.0909598724195871e-8,2.9418970311947842e-8,1.1013159052611346e-8,7.098365893564006e-10,3.532545928995413e-10,1.995414466666425e-10,3.667013427471408e-10,0
26032,8.554401796490682e-10,1.0926015917188763e-8,2.9364816218951267e-8,1.0988462478829514e-8,7.063229320667864e-10,3.5153562397080555e-10,1.9986539754285018e-10,3.667013427471408e-10,0
26033,8.574079120441102e-10,1.0940105751018963e-8,2.9326336235882746e-8,1.0963585093488793e-8,7.003862478817251e-10,3.4967863327202373e-10,1.9986539754285018e-10,3.6553754156071095e-10,0
26034,8.574079120441102e-10,1.0944906278906631e-8,2.927218214288617e-8,1.0926359421257157e-8,6.947584862112726e-10,3.476412768996615e-10,2.0101205241247256e-10,3.652049516566791e-10,0
26035,8.574079120441102e-10,1.0949706806794299e-8,2.9218028049889595e-8,1.0889133749025521e-8,6.8913072454082e-10,3.456039205272992e-10,2.0215870728209494e-10,3.648723617526473e-10,0
26036,8.574079120441102e-10,1.0954507334681969e-8,2.916387395689302e-8,1.0851908076793885e-8,6.835029628703674e-10,3.4356656415493697e-10,2.0330536215171732e-10,3.645397718486155e-10,0
26037,8.571517154670603e-10,1.0954507334681969e-8,2.9106300435346095e-8,1.081819778459055e-8,6.775662786853062e-10,3.4152920778257466e-10,2.0415371975092288e-10,3.642071819445837e-10,0
26038,8.568955188900103e-10,1.0954507334681969e-8,2.9048726913799167e-8,1.0784487492387214e-8,6.716295945002449e-10,3.394918514102124e-10,2.0500207735012843e-10,3.6387459204055193e-10,0
26039,8.566393223129603e-10,1.0954507334681969e-8,2.8991153392252243e-8,1.0750777200183879e-8,6.656929103151837e-10,3.3745449503785016e-10,2.05850434949334e-10,3.6354200213652014e-10,0
26040,8.563831257359103e-10,1.0954507334681969e-8,2.8933579870705316e-8,1.0717066907980543e-8,6.597562261301224e-10,3.354171386654879e-10,2.0669879254853955e-10,3.6320941223248834e-10,0
26041,8.561269291588604e-10,1.0954507334681969e-8,2.887600634915839e-8,1.0683356615777208e-8,6.538195419450612e-10,3.333797822931256e-10,2.075471501477451e-10,3.628768223284565e-10,0
26042,8.558707325818104e-10,1.0954507334681969e-8,2.8818432827611464e-8,1.064964632357387e-8,6.478828577599999e-10,3.3134242592076334e-10,2.0839550774695063e-10,3.625442324244247e-10,0
26043,8.556145360047604e-10,1.0954507334681969e-8,2.8760859306064536e-8,1.0615936031370535e-8,6.419461735749387e-10,3.293050695484011e-10,2.0924386534615619e-10,3.622116425203929e-10,0
26044,8.553583394277104e-10,1.0954507334681969e-8,2.870328578451761e-8,1.05822257391672e-8,6.360094893898774e-10,3.2726771317603884e-10,2.1009222294536174e-10,3.618790526163611e-10,0
26045,8.551021428506605e-10,1.0954507334681969e-8,2.8645712262970684e-8,1.0548515446963864e-8,6.300728052048162e-10,3.2523035680367653e-10,2.109405805445673e-10,3.615464627123293e-10,0
26046,8.548459462736105e-10,1.0954507334681969e-8,2.858813874142376e-8,1.0514805154760529e-8,6.241361210197549e-10,3.231930004313143e-10,2.1178893814377285e-10,3.612138728082975e-10,0
26047,8.538348000023036e-10,1.0941976250015797e-8,2.8422486396272252e-8,1.0516812221333283e-8,6.239462904171566e-10,3.173036408913423e-10,2.0677575336591216e-10,3.618788550081e-10,0
26048,8.528236537309967e-10,1.0929445165349625e-8,2.8256834051120747e-8,1.0518819287906037e-8,6.237564598145584e-10,3.1141428135137024e-10,2.0176256858805145e-10,3.625438372079026e-10,0
26049,8.525810971908396e-10,1.0925579886960374e-8,2.8255764701616233e-8,1.0505803490442952e-8,6.234475372999497e-10,3.1141428135137024e-10,2.0146427131763463e-10,3.630425244556892e-10,0
26050,8.523385406506827e-10,1.0921714608571122e-8,2.825469535211172e-8,1.0492787692979867e-8,6.23138614785341e-10,3.1141428135137024e-10,2.0116597404721783e-10,3.635412117034758e-10,0
26051,8.520959841105256e-10,1.091784933018187e-8,2.825362600260721e-8,1.0479771895516782e-8,6.228296922707322e-10,3.1141428135137024e-10,2.00867676776801e-10,3.640398989512624e-10,0
26052,8.518534275703686e-10,1.091398405179262e-8,2.8252556653102695e-8,1.0466756098053697e-8,6.225207697561235e-10,3.1141428135137024e-10,2.0056937950638417e-10,3.6453858619904903e-10,0
26053,8.516108710302116e-10,1.0910118773403369e-8,2.8251487303598184e-8,1.0453740300590612e-8,6.222118472415148e-10,3.1141428135137024e-10,2.0027108223596735e-10,3.6503727344683566e-10,0
26054,8.513683144900546e-10,1.0906253495014116e-8,2.8250417954093672e-8,1.0440724503127527e-8,6.219029247269062e-10,3.1141428135137024e-10,1.9997278496555052e-10,3.655359606946223e-10,0
26055,8.511257579498975e-10,1.0902388216624865e-8,2.8249348604589157e-8,1.0427708705664442e-8,6.215940022122975e-10,3.1141428135137024e-10,1.996744876951337e-10,3.660346479424089e-10,0
26056,8.508832014097406e-10,1.0898522938235614e-8,2.8248279255084646e-8,1.0414692908201357e-8,6.212850796976888e-10,3.1141428135137024e-10,1.993761904247169e-10,3.6653333519019554e-10,0
26057,8.506406448695836e-10,1.0894657659846363e-8,2.8247209905580134e-8,1.0401677110738273e-8,6.209761571830801e-10,3.1141428135137024e-10,1.9907789315430007e-10,3.6703202243798217e-10,0
26058,8.503980883294265e-10,1.089079238145711e-8,2.824614055607562e-8,1.0388661313275188e-8,6.206672346684714e-10,3.1141428135137024e-10,1.9877959588388324e-10,3.675307096857688e-10,0
26059,8.501555317892696e-10,1.0886927103067859e-8,2.8245071206571108e-8,1.0375645515812103e-8,6.203583121538626e-10,3.1141428135137024e-10,1.984812986134664e-10,3.6802939693355543e-10,0
26060,8.499129752491125e-10,1.0883061824678608e-8,2.8244001857066597e-8,1.0362629718349018e-8,6.200493896392539e-10,3.1141428135137024e-10,1.9818300134304959e-10,3.6852808418134205e-10,0
26061,8.506679249433694e-10,1.0883061824678608e-8,2.8305993696656114e-8,1.0345257737974254e-8,6.160110114801756e-10,3.117326687949968e-10,1.9818300134304959e-10,3.6952565628517635e-10,0
26062,8.516517911408905e-10,1.0883997074177025e-8,2.8303856380904916e-8,1.0312195382991484e-8,6.139452603207598e-10,3.1159464702495067e-10,1.9903135894225514e-10,3.701906384849789e-10,0
26063,8.526356573384115e-10,1.0884932323675442e-8,2.830171906515372e-8,1.0279133028008713e-8,6.11879509161344e-10,3.114566252549046e-10,1.998797165414607e-10,3.708556206847814e-10,0
26064,8.536195235359324e-10,1.088586757317386e-8,2.829958174940252e-8,1.0246070673025942e-8,6.098137580019282e-10,3.113186034848585e-10,2.0072807414066625e-10,3.7152060288458395e-10,0
26065,8.546033897334535e-10,1.0886802822672276e-8,2.8297444433651323e-8,1.0213008318043171e-8,6.077480068425123e-10,3.1118058171481236e-10,2.015764317398718e-10,3.7218558508438645e-10,0
26066,8.555872559309745e-10,1.0887738072170693e-8,2.8295307117900125e-8,1.01799459630604e-8,6.056822556830965e-10,3.110425599447663e-10,2.0242478933907736e-10,3.72850567284189e-10,0
26067,8.565984022022815e-10,1.0886574392589347e-8,2.8372333394275954e-8,1.0147406469402687e-8,6.036165045236807e-10,3.110425599447663e-10,2.0242478933907736e-10,3.7301686223620487e-10,0
26068,8.573669919334313e-10,1.0886574392589347e-8,2.8445438722468568e-8,9.998592694059872e-9,5.949962241499864e-10,3.1050146292402495e-10,2.0224998709807808e-10,3.7251817498841824e-10,0
26069,8.581355816645812e-10,1.088998257773633e-8,2.852816404642831e-8,9.960056108891749e-9,5.949962241499864e-10,3.1063948469407103e-10,2.020751848570788e-10,3.7268446994043416e-10,0
26070,8.589041713957312e-10,1.0893390762883312e-8,2.8610889370388054e-8,9.921519523723628e-9,5.949962241499864e-10,3.1077750646411717e-10,2.0190038261607952e-10,3.7285076489245003e-10,0
26071,8.596727611268811e-10,1.0896798948030296e-8,2.8693614694347795e-8,9.882982938555506e-9,5.949962241499864e-10,3.1091552823416325e-10,2.0172558037508023e-10,3.7301705984446596e-10,0
26072,8.604413508580309e-10,1.0900207133177278e-8,2.877634001830754e-8,9.844446353387385e-9,5.949962241499864e-10,3.110535500042094e-10,2.0155077813408093e-10,3.7318335479648183e-10,0
26073,8.612099405891809e-10,1.090361531832426e-8,2.885906534226728e-8,9.805909768219262e-9,5.949962241499864e-10,3.1119157177425547e-10,2.0137597589308164e-10,3.7334964974849775e-10,0
26074,8.619785303203308e-10,1.0907023503471244e-8,2.8941790666227026e-8,9.767373183051141e-9,5.949962241499864e-10,3.1132959354430156e-10,2.0120117365208236e-10,3.7351594470051367e-10,0
26075,8.627471200514807e-10,1.0910431688618226e-8,2.902451599018677e-8,9.72883659788302e-9,5.949962241499864e-10,3.114676153143477e-10,2.0102637141108308e-10,3.7368223965252955e-10,0
26076,8.635157097826306e-10,1.0913839873765209e-8,2.9107241314146512e-8,9.690300012714897e-9,5.949962241499864e-10,3.116056370843938e-10,2.008515691700838e-10,3.7384853460454547e-10,0
26077,8.642842995137805e-10,1.0917248058912191e-8,2.9189966638106257e-8,9.651763427546775e-9,5.949962241499864e-10,3.1174365885443986e-10,2.0067676692908451e-10,3.7401482955656134e-10,0
26078,8.650528892449304e-10,1.0920656244059175e-8,2.9272691962065998e-8,9.613226842378654e-9,5.949962241499864e-10,3.11881680624486e-10,2.0050196468808523e-10,3.7418112450857726e-10,0
26079,8.658214789760804e-10,1.0924064429206157e-8,2.9355417286025743e-8,9.574690257210531e-9,5.949962241499864e-10,3.120197023945321e-10,2.0032716244708592e-10,3.7434741946059313e-10,0
26080,8.665900687072302e-10,1.092747261435314e-8,2.9438142609985484e-8,9.53615367204241e-9,5.949962241499864e-10,3.121577241645782e-10,2.0015236020608664e-10,3.7451371441260906e-10,0
26081,8.663475121670732e-10,1.0930880799500124e-8,2.9444912390331743e-8,9.514952904937273e-9,5.961128222964107e-10,3.1197735849099774e-10,2.0030150884129507e-10,3.7451371441260906e-10,0
26082,8.661049556269162e-10,1.0934288984647106e-8,2.9451682170678e-8,9.493752137832139e-9,5.972294204428351e-10,3.117969928174173e-10,2.0045065747650347e-10,3.7451371441260906e-10,0
26083,8.658623990867592e-10,1.0937697169794088e-8,2.9458451951024257e-8,9.472551370727002e-9,5.983460185892595e-10,3.116166271438369e-10,2.005998061117119e-10,3.7451371441260906e-10,0
26084,8.656198425466021e-10,1.094110535494107e-8,2.9465221731370516e-8,9.451350603621867e-9,5.994626167356838e-10,3.1143626147025646e-10,2.007489547469203e-10,3.7451371441260906e-10,0
26085,8.646359763490812e-10,1.0943806953748977e-8,2.931345433068374e-8,9.45880779217212e-9,6.005792148821082e-10,3.055469019302844e-10,1.9905223954850918e-10,3.746799434952046e-10,0
26086,8.636521101515602e-10,1.0946508552556881e-8,2.9161686929996965e-8,9.466264980722372e-9,6.016958130285325e-10,2.996575423903124e-10,1.9735552435009807e-10,3.748461725778001e-10,0
26087,8.626682439540391e-10,1.0949210151364788e-8,2.900991952931019e-8,9.473722169272626e-9,6.02812411174957e-10,2.937681828503404e-10,1.9565880915168696e-10,3.750124016603957e-10,0
26088,8.616843777565181e-10,1.0951911750172692e-8,2.8858152128623414e-8,9.48117935782288e-9,6.039290093213814e-10,2.8787882331036834e-10,1.9396209395327585e-10,3.7517863074299124e-10,0
26089,8.607005115589972e-10,1.0954613348980599e-8,2.870638472793664e-8,9.488636546373133e-9,6.050456074678057e-10,2.8198946377039635e-10,1.9226537875486474e-10,3.7534485982558675e-10,0
26090,8.597166453614761e-10,1.0957314947788503e-8,2.8554617327249866e-8,9.496093734923385e-9,6.061622056142301e-10,2.761001042304243e-10,1.9056866355645366e-10,3.755110889081823e-10,0
26091,8.597166453614761e-10,1.0957314947788503e-8,2.8398003315415563e-8,9.490740045777292e-9,6.063520362168283e-10,2.7134627269491233e-10,1.8854799748183484e-10,3.755110889081823e-10,0
26092,8.597166453614761e-10,1.0957314947788503e-8,2.824138930358126e-8,9.4853863566312e-9,6.065418668194267e-10,2.665924411594004e-10,1.8652733140721604e-10,3.755110889081823e-10,0
26093,8.597166453614761e-10,1.0957314947788503e-8,2.8084775291746957e-8,9.480032667485107e-9,6.06731697422025e-10,2.6183860962388843e-10,1.8450666533259723e-10,3.755110889081823e-10,0
26094,8.597166453614761e-10,1.0957314947788503e-8,2.7928161279912654e-8,9.474678978339014e-9,6.069215280246232e-10,2.570847780883765e-10,1.8248599925797843e-10,3.755110889081823e-10,0
26095,8.597166453614761e-10,1.0957314947788503e-8,2.777154726807835e-8,9.469325289192921e-9,6.071113586272215e-10,2.5233094655286453e-10,1.8046533318335961e-10,3.755110889081823e-10,0
26096,8.597166453614761e-10,1.0957314947788503e-8,2.761493325624405e-8,9.463971600046829e-9,6.073011892298198e-10,2.475771150173526e-10,1.7844466710874082e-10,3.755110889081823e-10,0
26097,8.597166453614761e-10,1.0957314947788503e-8,2.7458319244409748e-8,9.458617910900736e-9,6.074910198324181e-10,2.4282328348184063e-10,1.76424001034122e-10,3.755110889081823e-10,0
26098,8.597166453614761e-10,1.0957314947788503e-8,2.7301705232575445e-8,9.453264221754644e-9,6.076808504350163e-10,2.380694519463287e-10,1.744033349595032e-10,3.755110889081823e-10,0
26099,8.597166453614761e-10,1.0957314947788503e-8,2.7145091220741142e-8,9.447910532608551e-9,6.078706810376147e-10,2.333156204108167e-10,1.723826688848844e-10,3.755110889081823e-10,0
26100,8.597166453614761e-10,1.0957314947788503e-8,2.698847720890684e-8,9.442556843462458e-9,6.08060511640213e-10,2.2856178887530477e-10,1.703620028102656e-10,3.755110889081823e-10,0
26101,8.597166453614761e-10,1.0957314947788503e-8,2.6831863197072536e-8,9.437203154316366e-9,6.082503422428112e-10,2.2380795733979282e-10,1.683413367356468e-10,3.755110889081823e-10,0
26102,8.597166453614761e-10,1.0957314947788503e-8,2.6675249185238233e-8,9.431849465170273e-9,6.084401728454095e-10,2.1905412580428087e-10,1.6632067066102798e-10,3.755110889081823e-10,0
26103,8.597166453614761e-10,1.0957314947788503e-8,2.651863517340393e-8,9.42649577602418e-9,6.086300034480078e-10,2.1430029426876892e-10,1.643000045864092e-10,3.755110889081823e-10,0
26104,8.597166453614761e-10,1.0957314947788503e-8,2.6362021161569627e-8,9.421142086878088e-9,6.088198340506061e-10,2.0954646273325697e-10,1.6227933851179037e-10,3.755110889081823e-10,0
26105,8.607005115589972e-10,1.0957314947788503e-8,2.6362021161569627e-8,9.425667027244728e-9,6.0789306650678e-10,2.0954646273325697e-10,1.621045362707911e-10,3.755110889081823e-10,0
26106,8.616843777565181e-10,1.0957314947788503e-8,2.6362021161569627e-8,9.430191967611368e-9,6.069662989629539e-10,2.0954646273325697e-10,1.619297340297918e-10,3.755110889081823e-10,0
26107,8.616843777565181e-10,1.0957314947788503e-8,2.6298390759346118e-8,9.155837055979503e-9,5.916723974629704e-10,2.0696800934015338e-10,1.5990906795517301e-10,3.7185365387455823e-10,0
26108,8.616843777565181e-10,1.0957314947788503e-8,2.6234760357122613e-8,8.881482144347638e-9,5.763784959629869e-10,2.043895559470498e-10,1.578884018805542e-10,3.681962188409342e-10,0
26109,8.616843777565181e-10,1.0957314947788503e-8,2.6171129954899104e-8,8.607127232715772e-9,5.610845944630033e-10,2.018111025539462e-10,1.558677358059354e-10,3.645387838073101e-10,0
26110,8.616843777565181e-10,1.0957314947788503e-8,2.6107499552675595e-8,8.332772321083905e-9,5.457906929630199e-10,1.9923264916084262e-10,1.5384706973131658e-10,3.6088134877368604e-10,0
26111,8.616843777565181e-10,1.0957314947788503e-8,2.6043869150452086e-8,8.05841740945204e-9,5.304967914630364e-10,1.9665419576773904e-10,1.518264036566978e-10,3.57223913740062e-10,0
26112,8.616843777565181e-10,1.0957314947788503e-8,2.5980238748228577e-8,7.784062497820174e-9,5.152028899630528e-10,1.9407574237463545e-10,1.4980573758207897e-10,3.5356647870643793e-10,0
26113,8.616843777565181e-10,1.0956608361449426e-8,2.591824690863906e-8,7.50465978449661e-9,4.997191578604711e-10,1.9068014842069836e-10,1.4778507150746018e-10,3.5074025495521196e-10,0
26114,8.617116578303041e-10,1.0955901775110348e-8,2.5861028453669144e-8,7.243320670327828e-9,4.845443482724979e-10,1.8728455446676125e-10,1.4593920767384064e-10,3.470828199215879e-10,0
26115,8.6173893790409e-10,1.0955195188771272e-8,2.5803809998699228e-8,6.981981556159047e-9,4.693695386845249e-10,1.8388896051282413e-10,1.4409334384022113e-10,3.4342538488796385e-10,0
26116,8.617662179778759e-10,1.0954488602432194e-8,2.574659154372931e-8,6.720642441990267e-9,4.5419472909655177e-10,1.8049336655888702e-10,1.4224748000660162e-10,3.397679498543398e-10,0
26117,8.617934980516617e-10,1.0953782016093116e-8,2.5689373088759394e-8,6.459303327821485e-9,4.3901991950857867e-10,1.7709777260494993e-10,1.404016161729821e-10,3.361105148207157e-10,0
26118,8.618207781254477e-10,1.0953075429754039e-8,2.5632154633789478e-8,6.197964213652704e-9,4.2384510992060557e-10,1.737021786510128e-10,1.3855575233936257e-10,3.3245307978709167e-10,0
26119,8.618480581992336e-10,1.0952368843414961e-8,2.5574936178819563e-8,5.936625099483924e-9,4.0867030033263247e-10,1.703065846970757e-10,1.3670988850574306e-10,3.287956447534676e-10,0
26120,8.618480581992336e-10,1.0951662257075883e-8,2.5460217428830647e-8,5.953216547494938e-9,4.0867030033263247e-10,1.6817355045820165e-10,1.3573803587711996e-10,3.2846312071885615e-10,0
26121,8.618480581992336e-10,1.0950955670736807e-8,2.534549867884173e-8,5.969807995505952e-9,4.0867030033263247e-10,1.6604051621932763e-10,1.3476618324849689e-10,3.281305966842447e-10,0
26122,8.618480581992336e-10,1.095024908439773e-8,2.5230779928852815e-8,5.9863994435169676e-9,4.0867030033263247e-10,1.6390748198045358e-10,1.3379433061987379e-10,3.277980726496333e-10,0
26123,8.618480581992336e-10,1.0949542498058652e-8,2.51160611788639e-8,6.002990891527982e-9,4.0867030033263247e-10,1.6177444774157956e-10,1.3282247799125069e-10,3.274655486150218e-10,0
26124,8.618480581992336e-10,1.0948835911719574e-8,2.5001342428874983e-8,6.019582339538996e-9,4.0867030033263247e-10,1.5964141350270554e-10,1.3185062536262761e-10,3.271330245804104e-10,0
26125,8.670372258007815e-10,1.098229403044738e-8,2.5012671447288372e-8,6.056868282290262e-9,4.169816581917182e-10,1.592273481925672e-10,1.3155232809221079e-10,3.27631711828197e-10,0
26126,8.722263934023296e-10,1.1015752149175187e-8,2.5024000465701765e-8,6.0941542250415276e-9,4.2529301605080396e-10,1.588132828824289e-10,1.3125403082179396e-10,3.2813039907598363e-10,0
26127,8.774155610038775e-10,1.1049210267902993e-8,2.5035329484115154e-8,6.1314401677927924e-09,4.336043739098897e-10,1.583992175722906e-10,1.3095573355137713e-10,3.2862908632377026e-10,0
26128,8.833596782996824e-10,1.1070137301964627e-8,2.5161377252517463e-8,6.084682450670843e-9,4.3980162738813714e-10,1.583992175722906e-10,1.318040911505827e-10,3.2929406852357276e-10,0
26129,8.893037955954874e-10,1.1091064336026262e-8,2.5287425020919768e-8,6.037924733548892e-9,4.459988808663845e-10,1.583992175722906e-10,1.3265244874978824e-10,3.299590507233753e-10,0
26130,8.952479128912922e-10,1.1111991370087896e-8,2.5413472789322077e-8,5.991167016426942e-9,4.5219613434463193e-10,1.583992175722906e-10,1.335008063489938e-10,3.306240329231778e-10,0
26131,9.011920301870972e-10,1.1132918404149532e-8,2.5539520557724382e-8,5.944409299304992e-9,4.5839338782287935e-10,1.583992175722906e-10,1.3434916394819935e-10,3.3128901512298036e-10,0
26132,9.071361474829022e-10,1.1153845438211166e-8,2.566556832612669e-8,5.8976515821830415e-9,4.645906413011268e-10,1.583992175722906e-10,1.351975215474049e-10,3.3195399732278286e-10,0
26133,9.13080264778707e-10,1.1174772472272801e-8,2.5791616094529e-8,5.850893865061091e-9,4.707878947793742e-10,1.583992175722906e-10,1.3604587914661046e-10,3.326189795225854e-10,0
26134,9.19024382074512e-10,1.1195699506334435e-8,2.5917663862931305e-8,5.804136147939141e-9,4.769851482576216e-10,1.583992175722906e-10,1.3689423674581602e-10,3.332839617223879e-10,0
26135,9.249684993703169e-10,1.121662654039607e-8,2.6043711631333614e-8,5.757378430817191e-9,4.831824017358689e-10,1.583992175722906e-10,1.3774259434502158e-10,3.3394894392219046e-10,0
26136,9.309126166661218e-10,1.1237553574457704e-8,2.616975939973592e-8,5.71062071369524e-9,4.893796552141164e-10,1.583992175722906e-10,1.3859095194422713e-10,3.3461392612199296e-10,0
26137,9.368567339619268e-10,1.1258480608519338e-8,2.6295807168138228e-8,5.663862996573291e-9,4.955769086923638e-10,1.583992175722906e-10,1.3943930954343269e-10,3.352789083217955e-10,0
26138,9.428008512577316e-10,1.1279407642580974e-8,2.6421854936540536e-8,5.61710527945134e-9,5.017741621706112e-10,1.583992175722906e-10,1.4028766714263824e-10,3.35943890521598e-10,0
26139,9.487449685535365e-10,1.1300334676642608e-8,2.6547902704942842e-8,5.5703475623293904e-9,5.079714156488586e-10,1.583992175722906e-10,1.411360247418438e-10,3.3660887272140056e-10,0
26140,9.546890858493415e-10,1.1321261710704243e-8,2.667395047334515e-8,5.52358984520744e-9,5.14168669127106e-10,1.583992175722906e-10,1.4198438234104935e-10,3.3727385492120306e-10,0
26141,9.566977383550625e-10,1.1325147819030964e-8,2.6795072871040692e-8,5.448632228379282e-9,5.14168669127106e-10,1.5749738920438838e-10,1.4230833321725703e-10,3.396014572940628e-10,0
26142,9.567386584657412e-10,1.1323381236645065e-8,2.6924388081906188e-8,5.297397012073987e-9,5.164018654199548e-10,1.5845255153526802e-10,1.4263228409346474e-10,3.420952887495181e-10,0
26143,9.567386584657412e-10,1.1318996375201138e-8,2.7013092910241105e-8,5.290096526874769e-9,5.185159698007931e-10,1.5958807953972808e-10,1.4263228409346474e-10,3.420952887495181e-10,0
26144,9.567386584657412e-10,1.1314611513757209e-8,2.710179773857602e-8,5.282796041675552e-9,5.206300741816315e-10,1.6072360754418815e-10,1.4263228409346474e-10,3.420952887495181e-10,0
26145,9.567386584657412e-10,1.1310226652313282e-8,2.7190502566910938e-8,5.2754955564763346e-9,5.227441785624698e-10,1.6185913554864822e-10,1.4263228409346474e-10,3.420952887495181e-10,0
26146,9.567386584657412e-10,1.1305841790869353e-8,2.7279207395245854e-8,5.2681950712771175e-9,5.248582829433082e-10,1.629946635531083e-10,1.4263228409346474e-10,3.420952887495181e-10,0
26147,9.567386584657412e-10,1.1301456929425426e-8,2.736791222358077e-8,5.2608945860779e-9,5.269723873241465e-10,1.6413019155756837e-10,1.4263228409346474e-10,3.420952887495181e-10,0
26148,9.567386584657412e-10,1.12970720679815e-8,2.7456617051915688e-8,5.253594100878683e-9,5.290864917049848e-10,1.6526571956202844e-10,1.4263228409346474e-10,3.420952887495181e-10,0
26149,9.567386584657412e-10,1.1292687206537571e-8,2.7545321880250607e-8,5.246293615679465e-9,5.312005960858232e-10,1.664012475664885e-10,1.4263228409346474e-10,3.420952887495181e-10,0
26150,9.567386584657412e-10,1.1288302345093644e-8,2.7634026708585524e-8,5.238993130480248e-9,5.333147004666615e-10,1.6753677557094857e-10,1.4263228409346474e-10,3.420952887495181e-10,0
26151,9.567386584657412e-10,1.1283917483649715e-8,2.772273153692044e-8,5.231692645281031e-9,5.354288048474999e-10,1.6867230357540864e-10,1.4263228409346474e-10,3.420952887495181e-10,0
26152,9.567386584657412e-10,1.1279532622205788e-8,2.7811436365255357e-8,5.224392160081814e-9,5.375429092283382e-10,1.698078315798687e-10,1.4263228409346474e-10,3.420952887495181e-10,0
26153,9.567386584657412e-10,1.1275147760761861e-8,2.7900141193590274e-8,5.217091674882597e-9,5.396570136091766e-10,1.7094335958432877e-10,1.4263228409346474e-10,3.420952887495181e-10,0
26154,9.567386584657412e-10,1.1270762899317933e-8,2.798884602192519e-8,5.209791189683379e-9,5.417711179900149e-10,1.7207888758878884e-10,1.4263228409346474e-10,3.420952887495181e-10,0
26155,9.567386584657412e-10,1.1266378037874006e-8,2.8077550850260107e-8,5.202490704484162e-9,5.438852223708533e-10,1.7321441559324893e-10,1.4263228409346474e-10,3.420952887495181e-10,0
26156,9.567386584657412e-10,1.1244973313709043e-8,2.8053614850407656e-8,5.189679826787817e-9,5.446928980026689e-10,1.7353280303687547e-10,1.4263228409346474e-10,3.4392407213575043e-10,0
26157,9.567386584657412e-10,1.1223568589544081e-8,2.80296788505552e-8,5.1768689490914705e-9,5.455005736344846e-10,1.73851190480502e-10,1.4263228409346474e-10,3.4575285552198283e-10,0
26158,9.554576755804914e-10,1.12101647451919e-8,2.7991491773598387e-8,5.172890978257741e-9,5.489434922335109e-10,1.7403155615408243e-10,1.431566908164626e-10,3.4409023534892563e-10,0
26159,9.541766926952415e-10,1.119676090083972e-8,2.7953304696641572e-8,5.168913007424011e-9,5.523864108325373e-10,1.742119218276629e-10,1.4368109753946046e-10,3.424276151758684e-10,0
26160,9.528957098099917e-10,1.1183357056487538e-8,2.7915117619684758e-8,5.164935036590281e-9,5.558293294315636e-10,1.7439228750124331e-10,1.442055042624583e-10,3.407649950028112e-10,0
26161,9.516147269247418e-10,1.1169953212135357e-8,2.7876930542727943e-8,5.160957065756551e-9,5.592722480305899e-10,1.7457265317482377e-10,1.4472991098545616e-10,3.39102374829754e-10,0
26162,9.503337440394921e-10,1.1156549367783177e-8,2.783874346577113e-8,5.15697909492282e-9,5.627151666296163e-10,1.747530188484042e-10,1.4525431770845403e-10,3.374397546566968e-10,0
26163,9.490527611542423e-10,1.1143145523430995e-8,2.7800556388814314e-8,5.15300112408909e-9,5.661580852286426e-10,1.7493338452198465e-10,1.4577872443145188e-10,3.357771344836396e-10,0
26164,9.478126983796711e-10,1.1143145523430995e-8,2.749388814871298e-8,5.1490231532553605e-09,5.69601003827669e-10,1.7307639382320282e-10,1.4577872443145188e-10,3.3644211668344215e-10,0
26165,9.465726356051002e-10,1.1143145523430995e-8,2.7187219908611648e-8,5.1450451824216306e-9,5.730439224266953e-10,1.71219403124421e-10,1.4577872443145188e-10,3.3710709888324464e-10,0
26166,9.435391967911794e-10,1.1107214702131034e-8,2.7183015737121523e-8,5.106725571124174e-9,5.759173492179268e-10,1.7108138135437488e-10,1.4662708203065743e-10,3.379383101656427e-10,0
26167,9.405057579772587e-10,1.1071283880831072e-8,2.71788115656314e-8,5.068405959826717e-9,5.787907760091582e-10,1.7094335958432877e-10,1.4747543962986299e-10,3.3876952144804076e-10,0
26168,9.37472319163338e-10,1.1035353059531111e-8,2.7174607394141276e-8,5.03008634852926e-9,5.816642028003897e-10,1.708053378142827e-10,1.4832379722906854e-10,3.396007327304388e-10,0
26169,9.344388803494171e-10,1.099942223823115e-8,2.717040322265115e-8,4.991766737231803e-9,5.845376295916213e-10,1.7066731604423658e-10,1.491721548282741e-10,3.404319440128369e-10,0
