"time" "channel1" "channel2" "channel3" "channel4" "channel5" "channel6" "channel7" "channel8"
"1" 21193 1.2181137620975e-08 2.28163800089785e-09 4.02441278272509e-09 4.7661740016459e-08 6.85571503886414e-08 2.55534310516876e-09 6.73486175771839e-10 3.22174252188848e-09
"2" 21194 1.22412718666115e-08 2.27672429312403e-09 4.02620414911852e-09 4.75961714749612e-08 6.84977713955448e-08 2.57495006044201e-09 6.7372056887711e-10 3.22315853030499e-09
"3" 21195 1.23014061122481e-08 2.27181058535021e-09 4.02799551551195e-09 4.75306029334635e-08 6.84383924024481e-08 2.59455701571526e-09 6.73954961982381e-10 3.2245745387215e-09
"4" 21196 1.23615403578846e-08 2.26689687757639e-09 4.02978688190538e-09 4.74650343919657e-08 6.83790134093514e-08 2.6141639709885e-09 6.74189355087653e-10 3.22599054713802e-09
"5" 21197 1.24216746035211e-08 2.26198316980258e-09 4.03157824829881e-09 4.73994658504679e-08 6.83196344162548e-08 2.63377092626175e-09 6.74423748192924e-10 3.22740655555453e-09
"6" 21198 1.24818088491577e-08 2.25706946202876e-09 4.03336961469224e-09 4.73338973089702e-08 6.82602554231581e-08 2.653377881535e-09 6.74658141298195e-10 3.22882256397104e-09
"7" 21199 1.25003832435298e-08 2.2539846004807e-09 4.02829062255376e-09 4.71390919713333e-08 6.81844804279893e-08 2.6612892975273e-09 6.73865061262387e-10 3.23088522668927e-09
"8" 21200 1.25424162140804e-08 2.25296857479972e-09 4.03155752415623e-09 4.71526671750832e-08 6.80685770991612e-08 2.67903850809773e-09 6.73071981226579e-10 3.2271658027492e-09
"9" 21201 1.2584449184631e-08 2.25195254911875e-09 4.03482442575869e-09 4.71662423788332e-08 6.79526737703331e-08 2.69678771866817e-09 6.72278901190772e-10 3.22344637880914e-09
"10" 21202 1.25675518431637e-08 2.25365201360656e-09 4.03421348753249e-09 4.71887389359035e-08 6.7905135097209e-08 2.70105227913785e-09 6.72218967377442e-10 3.22378463005612e-09
"11" 21203 1.25506545016964e-08 2.25535147809438e-09 4.0336025493063e-09 4.72112354929739e-08 6.7857596424085e-08 2.70531683960753e-09 6.72159033564113e-10 3.22412288130311e-09
"12" 21204 1.25530623689337e-08 2.27386064738273e-09 4.0329916110801e-09 4.72093528860837e-08 6.77421604229762e-08 2.70531683960753e-09 6.71131560423034e-10 3.22040345736305e-09
"13" 21205 1.2555470236171e-08 2.29236981667107e-09 4.0323806728539e-09 4.72074702791935e-08 6.76267244218674e-08 2.70531683960753e-09 6.70104087281955e-10 3.21668403342298e-09
"14" 21206 1.25578781034082e-08 2.31087898595942e-09 4.0317697346277e-09 4.72055876723032e-08 6.75112884207586e-08 2.70531683960753e-09 6.69076614140876e-10 3.21296460948292e-09
"15" 21207 1.25602859706455e-08 2.32938815524777e-09 4.0311587964015e-09 4.7203705065413e-08 6.73958524196498e-08 2.70531683960753e-09 6.68049140999798e-10 3.20924518554285e-09
"16" 21208 1.25626938378828e-08 2.34789732453611e-09 4.0305478581753e-09 4.72018224585228e-08 6.7280416418541e-08 2.70531683960753e-09 6.67021667858719e-10 3.20552576160279e-09
"17" 21209 1.25651017051201e-08 2.36640649382446e-09 4.02993691994911e-09 4.71999398516325e-08 6.71649804174322e-08 2.70531683960753e-09 6.6599419471764e-10 3.20180633766272e-09
"18" 21210 1.25675095723573e-08 2.38491566311281e-09 4.02932598172291e-09 4.71980572447423e-08 6.70495444163234e-08 2.70531683960753e-09 6.64966721576561e-10 3.19808691372266e-09
"19" 21211 1.25699174395946e-08 2.40342483240115e-09 4.02871504349671e-09 4.71961746378521e-08 6.69341084152146e-08 2.70531683960753e-09 6.63939248435483e-10 3.19436748978259e-09
"20" 21212 1.25723253068319e-08 2.4219340016895e-09 4.02810410527051e-09 4.71942920309618e-08 6.68186724141058e-08 2.70531683960753e-09 6.62911775294404e-10 3.19064806584253e-09
"21" 21213 1.25916305155365e-08 2.44145919665883e-09 4.0273102451115e-09 4.7138881304149e-08 6.67913626410021e-08 2.70639213769303e-09 6.62911775294404e-10 3.17676322949584e-09
"22" 21214 1.26109357242411e-08 2.46098439162815e-09 4.02651638495248e-09 4.70834705773362e-08 6.67640528678984e-08 2.70746743577853e-09 6.62911775294404e-10 3.16287839314916e-09
"23" 21215 1.26302409329456e-08 2.48050958659748e-09 4.02572252479347e-09 4.70280598505234e-08 6.67367430947947e-08 2.70854273386403e-09 6.62911775294404e-10 3.14899355680247e-09
"24" 21216 1.26671143042794e-08 2.51010218675576e-09 4.05002851828504e-09 4.69885565566651e-08 6.67095275978846e-08 2.70776028724672e-09 6.65111213961838e-10 3.13510872045578e-09
"25" 21217 1.27039876756133e-08 2.53969478691404e-09 4.0743345117766e-09 4.69490532628069e-08 6.66823121009746e-08 2.70697784062941e-09 6.67310652629272e-10 3.1212238841091e-09
"26" 21218 1.27408610469471e-08 2.56928738707232e-09 4.09864050526817e-09 4.69095499689486e-08 6.66550966040645e-08 2.70619539401209e-09 6.69510091296707e-10 3.10733904776241e-09
"27" 21219 1.27777344182809e-08 2.5988799872306e-09 4.12294649875974e-09 4.68700466750904e-08 6.66278811071544e-08 2.70541294739478e-09 6.71709529964141e-10 3.09345421141572e-09
"28" 21220 1.27925939337786e-08 2.62355887961506e-09 4.14595987897509e-09 4.67756663943664e-08 6.66253244907726e-08 2.69651318313614e-09 6.73908968631575e-10 3.09487021983224e-09
"29" 21221 1.28074534492763e-08 2.64823777199952e-09 4.16897325919043e-09 4.66812861136425e-08 6.66227678743908e-08 2.6876134188775e-09 6.76108407299009e-10 3.09628622824875e-09
"30" 21222 1.2822312964774e-08 2.67291666438398e-09 4.19198663940578e-09 4.65869058329186e-08 6.6620211258009e-08 2.67871365461886e-09 6.78307845966444e-10 3.09770223666526e-09
"31" 21223 1.28371724802717e-08 2.69759555676845e-09 4.21500001962112e-09 4.64925255521946e-08 6.66176546416273e-08 2.66981389036023e-09 6.80507284633878e-10 3.09911824508177e-09
"32" 21224 1.28371724802717e-08 2.69759555676845e-09 4.25416858126642e-09 4.66884301936648e-08 6.66159698298884e-08 2.67686506788413e-09 6.81474823961627e-10 3.09911824508177e-09
"33" 21225 1.28371724802717e-08 2.69759555676845e-09 4.29333714291171e-09 4.6884334835135e-08 6.66142850181495e-08 2.68391624540803e-09 6.82442363289376e-10 3.09911824508177e-09
"34" 21226 1.28371724802717e-08 2.69759555676845e-09 4.332505704557e-09 4.70802394766052e-08 6.66126002064106e-08 2.69096742293194e-09 6.83409902617125e-10 3.09911824508177e-09
"35" 21227 1.28371724802717e-08 2.69759555676845e-09 4.3716742662023e-09 4.72761441180755e-08 6.66109153946717e-08 2.69801860045584e-09 6.84377441944874e-10 3.09911824508177e-09
"36" 21228 1.28371724802717e-08 2.69759555676845e-09 4.41084282784759e-09 4.74720487595457e-08 6.66092305829328e-08 2.70506977797975e-09 6.85344981272624e-10 3.09911824508177e-09
"37" 21229 1.28371724802717e-08 2.69759555676845e-09 4.45001138949288e-09 4.76679534010159e-08 6.66075457711939e-08 2.71212095550365e-09 6.86312520600373e-10 3.09911824508177e-09
"38" 21230 1.28371724802717e-08 2.69759555676845e-09 4.48917995113818e-09 4.78638580424861e-08 6.66058609594551e-08 2.71917213302756e-09 6.87280059928122e-10 3.09911824508177e-09
"39" 21231 1.28371724802717e-08 2.69759555676845e-09 4.52834851278347e-09 4.80597626839563e-08 6.66041761477162e-08 2.72622331055146e-09 6.88247599255871e-10 3.09911824508177e-09
"40" 21232 1.28371724802717e-08 2.69759555676845e-09 4.56751707442877e-09 4.82556673254265e-08 6.66024913359773e-08 2.73327448807536e-09 6.8921513858362e-10 3.09911824508177e-09
"41" 21233 1.28371724802717e-08 2.69759555676845e-09 4.60668563607406e-09 4.84515719668967e-08 6.66008065242384e-08 2.74032566559927e-09 6.90182677911370e-10 3.09911824508177e-09
"42" 21234 1.28371724802717e-08 2.69759555676845e-09 4.64585419771935e-09 4.8647476608367e-08 6.65991217124995e-08 2.74737684312317e-09 6.91150217239119e-10 3.09911824508177e-09
"43" 21235 1.28371724802717e-08 2.69759555676845e-09 4.68502275936464e-09 4.88433812498372e-08 6.65974369007606e-08 2.75442802064708e-09 6.92117756566868e-10 3.09911824508177e-09
"44" 21236 1.28652659973715e-08 2.67393243567696e-09 4.71786972827648e-09 4.91199856346892e-08 6.658817651607e-08 2.76959651581231e-09 6.92057822753538e-10 3.08806542556811e-09
"45" 21237 1.2842908005446e-08 2.66349565910874e-09 4.72657290148698e-09 4.95392860778586e-08 6.66765379342628e-08 2.76874543531199e-09 6.92790968976016e-10 3.09449416652811e-09
"46" 21238 1.28560217493598e-08 2.66179619462092e-09 4.73498096765568e-09 4.96006083324248e-08 6.6333128173446e-08 2.76510773775744e-09 6.8970854955278e-10 3.10298557020634e-09
"47" 21239 1.2854138540418e-08 2.66216556600019e-09 4.74069162216293e-09 4.92426301438217e-08 6.58683135871093e-08 2.7769405448044e-09 6.8970854955278e-10 3.10270236852304e-09
"48" 21240 1.28522553314762e-08 2.66253493737945e-09 4.74640227667019e-09 4.88846519552186e-08 6.54034990007726e-08 2.78877335185135e-09 6.8970854955278e-10 3.10241916683974e-09
"49" 21241 1.28503721225343e-08 2.66290430875872e-09 4.75211293117745e-09 4.85266737666155e-08 6.49386844144359e-08 2.80060615889831e-09 6.8970854955278e-10 3.10213596515644e-09
"50" 21242 1.28484889135925e-08 2.66327368013798e-09 4.75782358568471e-09 4.81686955780124e-08 6.44738698280992e-08 2.81243896594526e-09 6.8970854955278e-10 3.10185276347313e-09
"51" 21243 1.28466057046506e-08 2.66364305151724e-09 4.76353424019197e-09 4.78107173894094e-08 6.40090552417625e-08 2.82427177299222e-09 6.8970854955278e-10 3.10156956178983e-09
"52" 21244 1.28447224957088e-08 2.66401242289651e-09 4.76924489469923e-09 4.74527392008063e-08 6.35442406554258e-08 2.83610458003917e-09 6.8970854955278e-10 3.10128636010653e-09
"53" 21245 1.2842839286767e-08 2.66438179427577e-09 4.77495554920649e-09 4.70947610122032e-08 6.30794260690891e-08 2.84793738708613e-09 6.8970854955278e-10 3.10100315842323e-09
"54" 21246 1.28409560778251e-08 2.66475116565503e-09 4.78066620371375e-09 4.67367828236001e-08 6.26146114827524e-08 2.85977019413308e-09 6.8970854955278e-10 3.10071995673993e-09
"55" 21247 1.28390728688833e-08 2.6651205370343e-09 4.78637685822101e-09 4.6378804634997e-08 6.21497968964157e-08 2.87160300118004e-09 6.8970854955278e-10 3.10043675505662e-09
"56" 21248 1.28371896599414e-08 2.66548990841356e-09 4.79208751272827e-09 4.60208264463939e-08 6.1684982310079e-08 2.88343580822699e-09 6.8970854955278e-10 3.10015355337332e-09
"57" 21249 1.28353064509996e-08 2.66585927979283e-09 4.79779816723553e-09 4.56628482577908e-08 6.12201677237423e-08 2.89526861527394e-09 6.8970854955278e-10 3.09987035169002e-09
"58" 21250 1.28334232420578e-08 2.66622865117209e-09 4.80350882174279e-09 4.53048700691877e-08 6.07553531374056e-08 2.9071014223209e-09 6.8970854955278e-10 3.09958715000672e-09
"59" 21251 1.28315400331159e-08 2.66659802255135e-09 4.80921947625005e-09 4.49468918805846e-08 6.02905385510689e-08 2.91893422936785e-09 6.8970854955278e-10 3.09930394832341e-09
"60" 21252 1.28296568241741e-08 2.66696739393062e-09 4.81493013075731e-09 4.45889136919815e-08 5.98257239647322e-08 2.93076703641481e-09 6.8970854955278e-10 3.09902074664011e-09
"61" 21253 1.28277736152322e-08 2.66733676530988e-09 4.82064078526457e-09 4.42309355033784e-08 5.93609093783955e-08 2.94259984346176e-09 6.8970854955278e-10 3.09873754495681e-09
"62" 21254 1.28258904062904e-08 2.66770613668914e-09 4.82635143977182e-09 4.38729573147753e-08 5.88960947920588e-08 2.95443265050872e-09 6.8970854955278e-10 3.09845434327351e-09
"63" 21255 1.28240071973486e-08 2.66807550806841e-09 4.83206209427908e-09 4.35149791261722e-08 5.84312802057221e-08 2.96626545755567e-09 6.8970854955278e-10 3.0981711415902e-09
"64" 21256 1.28221239884067e-08 2.66844487944767e-09 4.83777274878634e-09 4.31570009375691e-08 5.79664656193853e-08 2.97809826460263e-09 6.8970854955278e-10 3.0978879399069e-09
"65" 21257 1.28202407794649e-08 2.66881425082694e-09 4.8434834032936e-09 4.2799022748966e-08 5.75016510330487e-08 2.98993107164958e-09 6.8970854955278e-10 3.0976047382236e-09
"66" 21258 1.28134043986905e-08 2.67208379806463e-09 4.8434834032936e-09 4.27366856813016e-08 5.73215971044881e-08 3.00326929601624e-09 6.93524115198494e-10 3.09653958173979e-09
"67" 21259 1.27872628092115e-08 2.62673430329192e-09 4.79997113259153e-09 4.26176593666435e-08 5.73215971044881e-08 3.00272022495219e-09 6.91414577251055e-10 3.09013604215121e-09
"68" 21260 1.27611212197325e-08 2.59353956902181e-09 4.79319223502603e-09 4.25532675477277e-08 5.72794504394597e-08 3.01108007611485e-09 6.85519440564565e-10 3.08607836696415e-09
"69" 21261 1.27351086134502e-08 2.54492052701141e-09 4.74578140035271e-09 4.24334650019991e-08 5.722820051673e-08 2.99897273353587e-09 6.79624303878076e-10 3.07989037880947e-09
"70" 21262 1.2709096007168e-08 2.49630148500101e-09 4.69837056567939e-09 4.23136624562706e-08 5.71769505940004e-08 2.98686539095689e-09 6.73729167191586e-10 3.0737023906548e-09
"71" 21263 1.26830834008858e-08 2.44768244299061e-09 4.65095973100606e-09 4.2193859910542e-08 5.71257006712708e-08 2.97475804837791e-09 6.67834030505097e-10 3.06751440250012e-09
"72" 21264 1.26570707946035e-08 2.39906340098022e-09 4.60354889633274e-09 4.20740573648134e-08 5.70744507485411e-08 2.96265070579893e-09 6.61938893818607e-10 3.06132641434544e-09
"73" 21265 1.26310581883213e-08 2.35044435896982e-09 4.55613806165942e-09 4.19542548190849e-08 5.70232008258115e-08 2.95054336321995e-09 6.56043757132118e-10 3.05513842619077e-09
"74" 21266 1.2605045582039e-08 2.30182531695942e-09 4.5087272269861e-09 4.18344522733563e-08 5.69719509030818e-08 2.93843602064097e-09 6.50148620445629e-10 3.04895043803609e-09
"75" 21267 1.25790329757568e-08 2.25320627494902e-09 4.46131639231278e-09 4.17146497276277e-08 5.69207009803522e-08 2.92632867806199e-09 6.44253483759139e-10 3.04276244988141e-09
"76" 21268 1.25530203694745e-08 2.20458723293863e-09 4.41390555763945e-09 4.15948471818991e-08 5.68694510576225e-08 2.91422133548301e-09 6.3835834707265e-10 3.03657446172674e-09
"77" 21269 1.25270077631923e-08 2.15596819092823e-09 4.36649472296613e-09 4.14750446361705e-08 5.68182011348929e-08 2.90211399290403e-09 6.3246321038616e-10 3.03038647357206e-09
"78" 21270 1.250099515691e-08 2.10734914891783e-09 4.31908388829281e-09 4.1355242090442e-08 5.67669512121632e-08 2.89000665032505e-09 6.26568073699671e-10 3.02419848541738e-09
"79" 21271 1.24749825506278e-08 2.05873010690743e-09 4.27167305361949e-09 4.12354395447134e-08 5.67157012894336e-08 2.87789930774607e-09 6.20672937013181e-10 3.0180104972627e-09
"80" 21272 1.24732283248827e-08 2.05873010690743e-09 4.24410872292153e-09 4.08766851250398e-08 5.62221120960394e-08 2.87284314269099e-09 6.17007205900791e-10 3.0180104972627e-09
"81" 21273 1.24739506850539e-08 2.06163028276586e-09 4.22633653263489e-09 4.05892453291404e-08 5.57411488575649e-08 2.87611935489434e-09 6.13077114776465e-10 3.01872480181382e-09
"82" 21274 1.2474673045225e-08 2.06453045862428e-09 4.20856434234826e-09 4.0301805533241e-08 5.52601856190903e-08 2.87939556709769e-09 6.09147023652138e-10 3.01943910636493e-09
"83" 21275 1.24753954053962e-08 2.06743063448271e-09 4.19079215206162e-09 4.00143657373416e-08 5.47792223806157e-08 2.88267177930104e-09 6.05216932527812e-10 3.02015341091604e-09
"84" 21276 1.24761177655674e-08 2.07033081034114e-09 4.17301996177499e-09 3.97269259414422e-08 5.42982591421411e-08 2.88594799150439e-09 6.01286841403486e-10 3.02086771546715e-09
"85" 21277 1.24768401257386e-08 2.07323098619956e-09 4.15524777148835e-09 3.94394861455428e-08 5.38172959036665e-08 2.88922420370774e-09 5.9735675027916e-10 3.02158202001826e-09
"86" 21278 1.24775624859098e-08 2.07613116205799e-09 4.13747558120172e-09 3.91520463496433e-08 5.33363326651919e-08 2.89250041591108e-09 5.93426659154833e-10 3.02229632456937e-09
"87" 21279 1.23568211466977e-08 2.0492540520685e-09 4.11869732028459e-09 3.9113073259739e-08 5.32563831459471e-08 2.89889725661561e-09 5.93426659154833e-10 3.01404567369647e-09
"88" 21280 1.22336032215693e-08 2.01877480796719e-09 4.08892576664633e-09 3.90741001698346e-08 5.31729109294839e-08 2.89283442735804e-09 5.94454132295912e-10 3.01126870642713e-09
"89" 21281 1.2110385296441e-08 1.98829556386587e-09 4.05915421300807e-09 3.90351270799302e-08 5.30894387130207e-08 2.88677159810046e-09 5.95481605436991e-10 3.0084917391578e-09
"90" 21282 1.19871673713126e-08 1.95781631976456e-09 4.02938265936981e-09 3.89961539900259e-08 5.30059664965576e-08 2.88070876884289e-09 5.9650907857807e-10 3.00571477188846e-09
"91" 21283 1.18639494461843e-08 1.92733707566324e-09 3.99961110573155e-09 3.89571809001215e-08 5.29224942800944e-08 2.87464593958532e-09 5.97536551719148e-10 3.00293780461912e-09
"92" 21284 1.17407315210559e-08 1.89685783156193e-09 3.96983955209329e-09 3.89182078102171e-08 5.28390220636313e-08 2.86858311032775e-09 5.98564024860227e-10 3.00016083734978e-09
"93" 21285 1.16175135959276e-08 1.86637858746061e-09 3.94006799845502e-09 3.88792347203128e-08 5.27555498471681e-08 2.86252028107018e-09 5.99591498001306e-10 2.99738387008045e-09
"94" 21286 1.14942956707992e-08 1.8358993433593e-09 3.91029644481676e-09 3.88402616304084e-08 5.26720776307049e-08 2.85645745181261e-09 6.00618971142385e-10 2.99460690281111e-09
"95" 21287 1.13710777456709e-08 1.80542009925798e-09 3.8805248911785e-09 3.8801288540504e-08 5.25886054142418e-08 2.85039462255504e-09 6.01646444283463e-10 2.99182993554177e-09
"96" 21288 1.12478598205425e-08 1.77494085515667e-09 3.85075333754024e-09 3.87623154505997e-08 5.25051331977786e-08 2.84433179329747e-09 6.02673917424542e-10 2.98905296827244e-09
"97" 21289 1.11246418954142e-08 1.74446161105536e-09 3.82098178390198e-09 3.87233423606953e-08 5.24216609813155e-08 2.8382689640399e-09 6.03701390565621e-10 2.9862760010031e-09
"98" 21290 1.10014239702858e-08 1.71398236695404e-09 3.79121023026372e-09 3.86843692707909e-08 5.23381887648523e-08 2.83220613478232e-09 6.047288637067e-10 2.98349903373376e-09
"99" 21291 1.08782060451575e-08 1.68350312285273e-09 3.76143867662546e-09 3.86453961808866e-08 5.22547165483891e-08 2.82614330552475e-09 6.05756336847778e-10 2.98072206646442e-09
"100" 21292 1.07549881200291e-08 1.65302387875141e-09 3.73166712298719e-09 3.86064230909822e-08 5.2171244331926e-08 2.82008047626718e-09 6.06783809988857e-10 2.97794509919509e-09
"101" 21293 1.06317701949007e-08 1.6225446346501e-09 3.70189556934893e-09 3.85674500010778e-08 5.20877721154628e-08 2.81401764700961e-09 6.07811283129936e-10 2.97516813192575e-09
"102" 21294 1.05913196533977e-08 1.61894250053827e-09 3.70250650757513e-09 3.85387294514709e-08 5.20933212505478e-08 2.80155797704752e-09 6.07871216943265e-10 2.97550638317274e-09
"103" 21295 1.05508691118947e-08 1.62383768886552e-09 3.70821716208239e-09 3.84583633888316e-08 5.22510884158235e-08 2.79322559978909e-09 6.07871216943265e-10 2.96944109483114e-09
"104" 21296 1.05497598021333e-08 1.63015531314615e-09 3.70232358564232e-09 3.83217470935332e-08 5.19858622466583e-08 2.79713783287566e-09 6.07811283129936e-10 2.96922554339724e-09
"105" 21297 1.05485215091752e-08 1.63423768092862e-09 3.72110184655944e-09 3.82007572172429e-08 5.15628689122176e-08 2.79720646675867e-09 6.07751349316606e-10 2.97007514844715e-09
"106" 21298 1.0547283216217e-08 1.63832004871109e-09 3.73988010747656e-09 3.80797673409527e-08 5.11398755777768e-08 2.79727510064167e-09 6.07691415503277e-10 2.97092475349705e-09
"107" 21299 1.05460449232589e-08 1.64240241649356e-09 3.75865836839369e-09 3.79587774646624e-08 5.0716882243336e-08 2.79734373452468e-09 6.07631481689947e-10 2.97177435854696e-09
"108" 21300 1.05448066303007e-08 1.64648478427603e-09 3.77743662931081e-09 3.78377875883721e-08 5.02938889088953e-08 2.79741236840769e-09 6.07571547876618e-10 2.97262396359687e-09
"109" 21301 1.05435683373426e-08 1.6505671520585e-09 3.79621489022794e-09 3.77167977120819e-08 4.98708955744545e-08 2.79748100229069e-09 6.07511614063288e-10 2.97347356864678e-09
"110" 21302 1.05423300443845e-08 1.65464951984098e-09 3.81499315114506e-09 3.75958078357916e-08 4.94479022400137e-08 2.7975496361737e-09 6.07451680249958e-10 2.97432317369668e-09
"111" 21303 1.05410917514263e-08 1.65873188762345e-09 3.83377141206219e-09 3.74748179595013e-08 4.9024908905573e-08 2.79761827005671e-09 6.07391746436629e-10 2.97517277874659e-09
"112" 21304 1.05398534584682e-08 1.66281425540592e-09 3.85254967297931e-09 3.73538280832111e-08 4.86019155711322e-08 2.79768690393971e-09 6.07331812623299e-10 2.9760223837965e-09
"113" 21305 1.053861516551e-08 1.66689662318839e-09 3.87132793389644e-09 3.72328382069208e-08 4.81789222366914e-08 2.79775553782272e-09 6.0727187880997e-10 2.9768719888464e-09
"114" 21306 1.05373768725519e-08 1.67097899097086e-09 3.89010619481356e-09 3.71118483306305e-08 4.77559289022506e-08 2.79782417170573e-09 6.0721194499664e-10 2.97772159389631e-09
"115" 21307 1.05361385795937e-08 1.67506135875334e-09 3.90888445573069e-09 3.69908584543403e-08 4.73329355678099e-08 2.79789280558873e-09 6.07152011183311e-10 2.97857119894622e-09
"116" 21308 1.05349002866356e-08 1.67914372653581e-09 3.92766271664781e-09 3.686986857805e-08 4.69099422333691e-08 2.79796143947174e-09 6.07092077369981e-10 2.97942080399613e-09
"117" 21309 1.05336619936775e-08 1.68322609431828e-09 3.94644097756494e-09 3.67488787017597e-08 4.64869488989283e-08 2.79803007335474e-09 6.07032143556651e-10 2.98027040904603e-09
"118" 21310 1.05324237007193e-08 1.68730846210075e-09 3.96521923848206e-09 3.66278888254695e-08 4.60639555644876e-08 2.79809870723775e-09 6.06972209743322e-10 2.98112001409594e-09
"119" 21311 1.05311854077612e-08 1.69139082988322e-09 3.98399749939919e-09 3.65068989491792e-08 4.56409622300468e-08 2.79816734112076e-09 6.06912275929992e-10 2.98196961914585e-09
"120" 21312 1.0529947114803e-08 1.69547319766569e-09 4.00277576031631e-09 3.63859090728889e-08 4.5217968895606e-08 2.79823597500376e-09 6.06852342116663e-10 2.98281922419575e-09
"121" 21313 1.05287088218449e-08 1.69955556544817e-09 4.02155402123343e-09 3.62649191965987e-08 4.47949755611653e-08 2.79830460888677e-09 6.06792408303333e-10 2.98366882924566e-09
"122" 21314 1.05274705288868e-08 1.70363793323064e-09 4.04033228215056e-09 3.61439293203084e-08 4.43719822267245e-08 2.79837324276978e-09 6.06732474490004e-10 2.98451843429557e-09
"123" 21315 1.05262322359286e-08 1.70772030101311e-09 4.05911054306768e-09 3.60229394440181e-08 4.39489888922837e-08 2.79844187665278e-09 6.06672540676674e-10 2.98536803934548e-09
"124" 21316 1.05249939429705e-08 1.71180266879558e-09 4.07788880398481e-09 3.59019495677279e-08 4.3525995557843e-08 2.79851051053579e-09 6.06612606863344e-10 2.98621764439538e-09
"125" 21317 1.052462417305e-08 1.71717809079348e-09 4.08317144219869e-09 3.59336449560719e-08 4.35282419734948e-08 2.79644686418396e-09 6.06612606863344e-10 2.98699959919589e-09
"126" 21318 1.05202300188524e-08 1.71357595668165e-09 4.08827115847975e-09 3.6552889196452e-08 4.49862108769358e-08 2.80457333979336e-09 6.02682515739018e-10 2.98372387880935e-09
"127" 21319 1.06023350354771e-08 1.72536134580499e-09 4.09382817959285e-09 3.65268416287786e-08 4.45532070015042e-08 2.80306792247366e-09 5.98752424614692e-10 2.98325032706356e-09
"128" 21320 1.06844400521017e-08 1.73714673492832e-09 4.09938520070595e-09 3.65007940611053e-08 4.41202031260726e-08 2.80156250515396e-09 5.94822333490365e-10 2.98277677531778e-09
"129" 21321 1.07665450687264e-08 1.74893212405166e-09 4.10494222181905e-09 3.64747464934319e-08 4.3687199250641e-08 2.80005708783426e-09 5.90892242366039e-10 2.98230322357199e-09
"130" 21322 1.08486500853511e-08 1.76071751317499e-09 4.11049924293215e-09 3.64486989257586e-08 4.32541953752093e-08 2.79855167051455e-09 5.86962151241713e-10 2.98182967182621e-09
"131" 21323 1.09307551019758e-08 1.77250290229833e-09 4.11605626404526e-09 3.64226513580852e-08 4.28211914997777e-08 2.79704625319485e-09 5.83032060117387e-10 2.98135612008043e-09
"132" 21324 1.10128601186005e-08 1.78428829142166e-09 4.12161328515836e-09 3.63966037904118e-08 4.23881876243461e-08 2.79554083587515e-09 5.7910196899306e-10 2.98088256833464e-09
"133" 21325 1.10949651352251e-08 1.796073680545e-09 4.12717030627146e-09 3.63705562227385e-08 4.19551837489145e-08 2.79403541855545e-09 5.75171877868734e-10 2.98040901658886e-09
"134" 21326 1.11770701518498e-08 1.80785906966834e-09 4.13272732738456e-09 3.63445086550651e-08 4.15221798734828e-08 2.79253000123575e-09 5.71241786744408e-10 2.97993546484307e-09
"135" 21327 1.12591751684745e-08 1.81964445879167e-09 4.13828434849766e-09 3.63184610873918e-08 4.10891759980512e-08 2.79102458391604e-09 5.67311695620082e-10 2.97946191309729e-09
"136" 21328 1.13412801850992e-08 1.83142984791501e-09 4.14384136961077e-09 3.62924135197184e-08 4.06561721226196e-08 2.78951916659634e-09 5.63381604495755e-10 2.9789883613515e-09
"137" 21329 1.14233852017239e-08 1.84321523703834e-09 4.14939839072387e-09 3.62663659520451e-08 4.0223168247188e-08 2.78801374927664e-09 5.59451513371429e-10 2.97851480960572e-09
"138" 21330 1.14185094740788e-08 1.88215476468561e-09 4.16481828907212e-09 3.68826876473817e-08 4.01615316792858e-08 2.84855046217154e-09 5.64409077636834e-10 2.96840444676279e-09
"139" 21331 1.13955324713478e-08 1.92109429233288e-09 4.17876265221133e-09 3.75431244281897e-08 4.0578061489447e-08 2.90416827777738e-09 5.6924677427558e-10 2.96197570580278e-09
"140" 21332 1.13725554686167e-08 1.96003381998015e-09 4.19270701535054e-09 3.82035612089977e-08 4.09945912996083e-08 2.95978609338322e-09 5.74084470914326e-10 2.95554696484278e-09
"141" 21333 1.13495784658857e-08 1.99897334762742e-09 4.20665137848976e-09 3.88639979898057e-08 4.14111211097695e-08 3.01540390898906e-09 5.78922167553072e-10 2.94911822388277e-09
"142" 21334 1.13266014631547e-08 2.03791287527469e-09 4.22059574162897e-09 3.95244347706138e-08 4.18276509199308e-08 3.0710217245949e-09 5.83759864191818e-10 2.94268948292277e-09
"143" 21335 1.13036244604237e-08 2.07685240292196e-09 4.23454010476818e-09 4.01848715514218e-08 4.2244180730092e-08 3.12663954020074e-09 5.88597560830563e-10 2.93626074196276e-09
"144" 21336 1.12806474576926e-08 2.11579193056923e-09 4.24848446790739e-09 4.08453083322298e-08 4.26607105402533e-08 3.18225735580658e-09 5.93435257469309e-10 2.92983200100276e-09
"145" 21337 1.12576704549616e-08 2.1547314582165e-09 4.2624288310466e-09 4.15057451130378e-08 4.30772403504146e-08 3.23787517141242e-09 5.98272954108055e-10 2.92340326004275e-09
"146" 21338 1.13241851417561e-08 2.1547314582165e-09 4.25470243992793e-09 4.15051268823556e-08 4.31123730464042e-08 3.25011978175741e-09 5.99066034143863e-10 2.92860634264873e-09
"147" 21339 1.13906998285507e-08 2.1547314582165e-09 4.24697604880926e-09 4.15045086516733e-08 4.31475057423938e-08 3.2623643921024e-09 5.99859114179671e-10 2.9338094252547e-09
"148" 21340 1.14572145153452e-08 2.1547314582165e-09 4.23924965769059e-09 4.1503890420991e-08 4.31826384383835e-08 3.2746090024474e-09 6.00652194215478e-10 2.93901250786068e-09
"149" 21341 1.15237292021397e-08 2.1547314582165e-09 4.23152326657192e-09 4.15032721903088e-08 4.32177711343731e-08 3.28685361279239e-09 6.01445274251286e-10 2.94421559046665e-09
"150" 21342 1.15902438889342e-08 2.1547314582165e-09 4.22379687545325e-09 4.15026539596265e-08 4.32529038303627e-08 3.29909822313738e-09 6.02238354287093e-10 2.94941867307263e-09
"151" 21343 1.16567585757287e-08 2.1547314582165e-09 4.21607048433458e-09 4.15020357289442e-08 4.32880365263524e-08 3.31134283348238e-09 6.03031434322901e-10 2.9546217556786e-09
"152" 21344 1.17232732625233e-08 2.1547314582165e-09 4.20834409321591e-09 4.1501417498262e-08 4.3323169222342e-08 3.32358744382737e-09 6.03824514358709e-10 2.95982483828458e-09
"153" 21345 1.17897879493178e-08 2.1547314582165e-09 4.20061770209724e-09 4.15007992675797e-08 4.33583019183316e-08 3.33583205417236e-09 6.04617594394516e-10 2.96502792089055e-09
"154" 21346 1.18563026361123e-08 2.1547314582165e-09 4.19289131097857e-09 4.15001810368975e-08 4.33934346143212e-08 3.34807666451736e-09 6.05410674430324e-10 2.97023100349652e-09
"155" 21347 1.19228173229068e-08 2.1547314582165e-09 4.1851649198599e-09 4.14995628062152e-08 4.34285673103109e-08 3.36032127486235e-09 6.06203754466132e-10 2.9754340861025e-09
"156" 21348 1.19893320097014e-08 2.1547314582165e-09 4.17743852874123e-09 4.14989445755329e-08 4.34637000063005e-08 3.37256588520734e-09 6.06996834501939e-10 2.98063716870847e-09
"157" 21349 1.20558466964959e-08 2.1547314582165e-09 4.16971213762256e-09 4.14983263448507e-08 4.34988327022901e-08 3.38481049555234e-09 6.07789914537747e-10 2.98584025131445e-09
"158" 21350 1.21223613832904e-08 2.1547314582165e-09 4.16198574650389e-09 4.14977081141684e-08 4.35339653982798e-08 3.39705510589733e-09 6.08582994573555e-10 2.99104333392042e-09
"159" 21351 1.21888760700849e-08 2.1547314582165e-09 4.15425935538522e-09 4.14970898834861e-08 4.35690980942694e-08 3.40929971624232e-09 6.09376074609362e-10 2.9962464165264e-09
"160" 21352 1.22553907568795e-08 2.1547314582165e-09 4.14653296426655e-09 4.14964716528039e-08 4.3604230790259e-08 3.42154432658732e-09 6.1016915464517e-10 3.00144949913237e-09
"161" 21353 1.2269011979419e-08 2.1556366216061e-09 4.15144975861479e-09 4.14004862431429e-08 4.32563606241293e-08 3.43259468701696e-09 6.10932267774313e-10 2.96080974383328e-09
"162" 21354 1.22826332019586e-08 2.1565417849957e-09 4.15636655296304e-09 4.1304500833482e-08 4.29084904579995e-08 3.4436450474466e-09 6.11695380903456e-10 2.92016998853419e-09
"163" 21355 1.21536110329769e-08 2.1565417849957e-09 4.15080953184994e-09 4.1299854055039e-08 4.28587682200193e-08 3.44748864665016e-09 6.11959740915392e-10 2.92309485698803e-09
"164" 21356 1.20245888639953e-08 2.1565417849957e-09 4.14525251073684e-09 4.12952072765959e-08 4.28090459820392e-08 3.45133224585372e-09 6.12224100927328e-10 2.92601972544187e-09
"165" 21357 1.18955666950137e-08 2.1565417849957e-09 4.13969548962373e-09 4.12905604981528e-08 4.2759323744059e-08 3.45517584505728e-09 6.12488460939263e-10 2.92894459389572e-09
"166" 21358 1.1766544526032e-08 2.1565417849957e-09 4.13413846851063e-09 4.12859137197098e-08 4.27096015060789e-08 3.45901944426085e-09 6.12752820951199e-10 2.93186946234956e-09
"167" 21359 1.16375223570504e-08 2.1565417849957e-09 4.12858144739753e-09 4.12812669412667e-08 4.26598792680987e-08 3.46286304346441e-09 6.13017180963135e-10 2.93479433080341e-09
"168" 21360 1.15085001880687e-08 2.1565417849957e-09 4.12302442628443e-09 4.12766201628237e-08 4.26101570301186e-08 3.46670664266797e-09 6.13281540975071e-10 2.93771919925725e-09
"169" 21361 1.13794780190871e-08 2.1565417849957e-09 4.11746740517133e-09 4.12719733843806e-08 4.25604347921385e-08 3.47055024187153e-09 6.13545900987007e-10 2.94064406771109e-09
"170" 21362 1.12504558501055e-08 2.1565417849957e-09 4.11191038405822e-09 4.12673266059376e-08 4.25107125541583e-08 3.47439384107510e-09 6.13810260998943e-10 2.94356893616494e-09
"171" 21363 1.11214336811238e-08 2.1565417849957e-09 4.10635336294512e-09 4.12626798274945e-08 4.24609903161782e-08 3.47823744027866e-09 6.14074621010879e-10 2.94649380461878e-09
"172" 21364 1.09924115121422e-08 2.1565417849957e-09 4.10079634183202e-09 4.12580330490514e-08 4.2411268078198e-08 3.48208103948222e-09 6.14338981022815e-10 2.94941867307263e-09
"173" 21365 1.08633893431605e-08 2.1565417849957e-09 4.09523932071892e-09 4.12533862706084e-08 4.23615458402179e-08 3.48592463868578e-09 6.1460334103475e-10 2.95234354152647e-09
"174" 21366 1.07343671741789e-08 2.1565417849957e-09 4.08968229960582e-09 4.12487394921653e-08 4.23118236022377e-08 3.48976823788934e-09 6.14867701046686e-10 2.95526840998032e-09
"175" 21367 1.06053450051973e-08 2.1565417849957e-09 4.08412527849271e-09 4.12440927137223e-08 4.22621013642576e-08 3.4936118370929e-09 6.15132061058622e-10 2.95819327843416e-09
"176" 21368 1.04763228362156e-08 2.1565417849957e-09 4.07856825737961e-09 4.12394459352792e-08 4.22123791262774e-08 3.49745543629647e-09 6.15396421070558e-10 2.961118146888e-09
"177" 21369 1.0347300667234e-08 2.1565417849957e-09 4.07301123626651e-09 4.12347991568361e-08 4.21626568882973e-08 3.50129903550003e-09 6.15660781082494e-10 2.96404301534185e-09
"178" 21370 1.02182784982523e-08 2.1565417849957e-09 4.06745421515341e-09 4.12301523783931e-08 4.21129346503171e-08 3.50514263470359e-09 6.1592514109443e-10 2.96696788379569e-09
"179" 21371 1.00892563292707e-08 2.1565417849957e-09 4.06189719404031e-09 4.122550559995e-08 4.2063212412337e-08 3.50898623390715e-09 6.16189501106366e-10 2.96989275224954e-09
"180" 21372 9.96023416028906e-09 2.1565417849957e-09 4.05634017292721e-09 4.1220858821507e-08 4.20134901743569e-08 3.51282983311072e-09 6.16453861118302e-10 2.97281762070338e-09
"181" 21373 9.85481673035239e-09 2.16415246349174e-09 4.0585802797566e-09 4.12030161148661e-08 4.19637679363767e-08 3.51639889678225e-09 6.1874320050573e-10 2.9806623700799e-09
"182" 21374 9.72690387113215e-09 2.16516848917272e-09 4.06401655136463e-09 4.12149299868898e-08 4.19185973272472e-08 3.51825664148507e-09 6.21032539893159e-10 2.97994806552878e-09
"183" 21375 9.59899101191191e-09 2.1661845148537e-09 4.06945282297267e-09 4.12268438589134e-08 4.18734267181177e-08 3.52011438618788e-09 6.23321879280587e-10 2.97923376097767e-09
"184" 21376 9.59672085337985e-09 2.1679948416329e-09 4.05067456205554e-09 4.12387577309371e-08 4.17665445305436e-08 3.5219721308907e-09 6.2534685865608e-10 2.97923376097767e-09
"185" 21377 9.59445069484779e-09 2.16629537714508e-09 4.06257390004469e-09 4.12744431442188e-08 4.16984393845203e-08 3.52389850947652e-09 6.25436759376075e-10 2.97923376097767e-09
"186" 21378 9.59218053631573e-09 2.16459591265726e-09 4.07447323803383e-09 4.13101285575005e-08 4.16303342384969e-08 3.52582488806234e-09 6.25526660096069e-10 2.97923376097767e-09
"187" 21379 9.58991037778368e-09 2.16289644816945e-09 4.08637257602297e-09 4.13458139707823e-08 4.15622290924735e-08 3.52775126664816e-09 6.25616560816063e-10 2.97923376097767e-09
"188" 21380 9.58764021925162e-09 2.16119698368163e-09 4.09827191401211e-09 4.1381499384064e-08 4.14941239464501e-08 3.52967764523398e-09 6.25706461536058e-10 2.97923376097767e-09
"189" 21381 9.58537006071956e-09 2.15949751919381e-09 4.11017125200126e-09 4.14171847973457e-08 4.14260188004268e-08 3.5316040238198e-09 6.25796362256052e-10 2.97923376097767e-09
"190" 21382 9.5830999021875e-09 2.157798054706e-09 4.1220705899904e-09 4.14528702106274e-08 4.13579136544034e-08 3.53353040240563e-09 6.25886262976046e-10 2.97923376097767e-09
"191" 21383 9.58082974365544e-09 2.15609859021818e-09 4.13396992797954e-09 4.14885556239091e-08 4.128980850838e-08 3.53545678099145e-09 6.25976163696041e-10 2.97923376097767e-09
"192" 21384 9.57855958512338e-09 2.15439912573036e-09 4.14586926596868e-09 4.15242410371909e-08 4.12217033623566e-08 3.53738315957727e-09 6.26066064416035e-10 2.97923376097767e-09
"193" 21385 9.57628942659132e-09 2.15269966124255e-09 4.15776860395783e-09 4.15599264504726e-08 4.11535982163333e-08 3.53930953816309e-09 6.26155965136029e-10 2.97923376097767e-09
"194" 21386 9.57538654421414e-09 2.14918986997553e-09 4.16702054296678e-09 4.16341247233646e-08 4.10960611619649e-08 3.5393781720461e-09 6.24220886480531e-10 2.97923376097767e-09
"195" 21387 9.57448366183696e-09 2.14568007870852e-09 4.17627248197573e-09 4.17083229962566e-08 4.10385241075965e-08 3.5394468059291e-09 6.22285807825033e-10 2.97923376097767e-09
"196" 21388 9.57358077945979e-09 2.14217028744151e-09 4.18552442098468e-09 4.17825212691486e-08 4.09809870532281e-08 3.53951543981211e-09 6.20350729169534e-10 2.97923376097767e-09
"197" 21389 9.53247659646459e-09 2.13829112479523e-09 4.19457271391823e-09 4.18466285381247e-08 4.0981521284992e-08 3.53102747885151e-09 6.20380696076199e-10 2.973045772823e-09
"198" 21390 9.49137241346939e-09 2.13441196214896e-09 4.20362100685178e-09 4.19107358071007e-08 4.09820555167559e-08 3.52253951789091e-09 6.20410662982864e-10 2.96685778466832e-09
"199" 21391 9.4502682304742e-09 2.13053279950268e-09 4.21266929978533e-09 4.19748430760768e-08 4.09825897485198e-08 3.51405155693031e-09 6.20440629889529e-10 2.96066979651364e-09
"200" 21392 9.409164047479e-09 2.1266536368564e-09 4.22171759271888e-09 4.20389503450528e-08 4.09831239802837e-08 3.50556359596971e-09 6.20470596796194e-10 2.95448180835896e-09
"201" 21393 9.3680598644838e-09 2.12277447421013e-09 4.23076588565243e-09 4.21030576140289e-08 4.09836582120477e-08 3.49707563500911e-09 6.20500563702858e-10 2.94829382020429e-09
"202" 21394 9.32695568148861e-09 2.11889531156385e-09 4.23981417858598e-09 4.21671648830049e-08 4.09841924438116e-08 3.48858767404851e-09 6.20530530609523e-10 2.94210583204961e-09
"203" 21395 9.34862567258248e-09 2.11919085954486e-09 4.23772770515075e-09 4.21682185920286e-08 4.09548288606921e-08 3.48858767404851e-09 6.20794890621459e-10 2.95221619489255e-09
"204" 21396 9.37029566367636e-09 2.11948640752587e-09 4.23564123171551e-09 4.21692723010523e-08 4.09254652775727e-08 3.48858767404851e-09 6.21059250633395e-10 2.96232655773548e-09
"205" 21397 9.39196565477024e-09 2.11978195550689e-09 4.23355475828027e-09 4.21703260100761e-08 4.08961016944532e-08 3.48858767404851e-09 6.21323610645331e-10 2.97243692057842e-09
"206" 21398 9.41363564586411e-09 2.1200775034879e-09 4.23146828484504e-09 4.21713797190998e-08 4.08667381113338e-08 3.48858767404851e-09 6.21587970657267e-10 2.98254728342135e-09
"207" 21399 9.43530563695799e-09 2.12037305146891e-09 4.2293818114098e-09 4.21724334281235e-08 4.08373745282143e-08 3.48858767404851e-09 6.21852330669203e-10 2.99265764626429e-09
"208" 21400 9.45697562805186e-09 2.12066859944992e-09 4.22729533797457e-09 4.21734871371472e-08 4.08080109450948e-08 3.48858767404851e-09 6.22116690681138e-10 3.00276800910722e-09
"209" 21401 9.47864561914574e-09 2.12096414743093e-09 4.22520886453933e-09 4.21745408461709e-08 4.07786473619754e-08 3.48858767404851e-09 6.22381050693074e-10 3.01287837195016e-09
"210" 21402 9.50031561023962e-09 2.12125969541194e-09 4.22312239110409e-09 4.21755945551946e-08 4.07492837788559e-08 3.48858767404851e-09 6.2264541070501e-10 3.02298873479309e-09
"211" 21403 9.52198560133349e-09 2.12155524339295e-09 4.22103591766886e-09 4.21766482642183e-08 4.07199201957365e-08 3.48858767404851e-09 6.22909770716946e-10 3.03309909763603e-09
"212" 21404 9.54365559242737e-09 2.12185079137397e-09 4.21894944423362e-09 4.2177701973242e-08 4.0690556612617e-08 3.48858767404851e-09 6.23174130728882e-10 3.04320946047896e-09
"213" 21405 9.56532558352124e-09 2.12214633935498e-09 4.21686297079839e-09 4.21787556822657e-08 4.06611930294976e-08 3.48858767404851e-09 6.23438490740818e-10 3.0533198233219e-09
"214" 21406 9.58699557461512e-09 2.12244188733599e-09 4.21477649736315e-09 4.21798093912895e-08 4.06318294463781e-08 3.48858767404851e-09 6.23702850752754e-10 3.06343018616483e-09
"215" 21407 9.60866556570900e-09 2.122737435317e-09 4.21269002392791e-09 4.21808631003132e-08 4.06024658632586e-08 3.48858767404851e-09 6.2396721076469e-10 3.07354054900777e-09
"216" 21408 9.63033555680287e-09 2.12303298329801e-09 4.21060355049268e-09 4.21819168093369e-08 4.05731022801392e-08 3.48858767404851e-09 6.24231570776625e-10 3.0836509118507e-09
"217" 21409 9.6259929416145e-09 2.13862371166937e-09 4.23789349829141e-09 4.24206965389207e-08 4.04280087081763e-08 3.48074489193921e-09 6.24495930788561e-10 3.0836509118507e-09
"218" 21410 9.62165032642613e-09 2.15421444004073e-09 4.26518344609014e-09 4.26594762685046e-08 4.02829151362135e-08 3.47290210982991e-09 6.24760290800497e-10 3.0836509118507e-09
"219" 21411 9.62700762751867e-09 2.18399172588864e-09 4.32243643385603e-09 4.27010449215939e-08 3.96114839518567e-08 3.47290210982991e-09 6.2396721076469e-10 3.09582393741186e-09
"220" 21412 9.6323649286112e-09 2.21376901173656e-09 4.37968942162192e-09 4.27426135746832e-08 3.89400527675e-08 3.47290210982991e-09 6.23174130728882e-10 3.10799696297302e-09
"221" 21413 9.66373483598599e-09 2.24206855767941e-09 4.4399971005188e-09 4.26158143413408e-08 3.89537076540518e-08 3.47789879897006e-09 6.21209085166719e-10 3.12045319021749e-09
"222" 21414 9.69510474336077e-09 2.27036810362227e-09 4.50030477941568e-09 4.24890151079984e-08 3.89673625406037e-08 3.48289548811022e-09 6.19244039604556e-10 3.13290941746195e-09
"223" 21415 9.72647465073556e-09 2.29866764956512e-09 4.56061245831256e-09 4.2362215874656e-08 3.89810174271555e-08 3.48789217725037e-09 6.17278994042393e-10 3.14536564470641e-09
"224" 21416 9.75784455811034e-09 2.32696719550797e-09 4.62092013720943e-09 4.22354166413136e-08 3.89946723137074e-08 3.49288886639052e-09 6.15313948480229e-10 3.15782187195088e-09
"225" 21417 9.78921446548513e-09 2.35526674145083e-09 4.68122781610631e-09 4.21086174079712e-08 3.90083272002592e-08 3.49788555553067e-09 6.13348902918066e-10 3.17027809919534e-09
"226" 21418 9.82058437285991e-09 2.38356628739368e-09 4.74153549500319e-09 4.19818181746288e-08 3.90219820868111e-08 3.50288224467082e-09 6.11383857355903e-10 3.1827343264398e-09
"227" 21419 9.85195428023469e-09 2.41186583333654e-09 4.80184317390007e-09 4.18550189412864e-08 3.90356369733629e-08 3.50787893381097e-09 6.0941881179374e-10 3.19519055368427e-09
"228" 21420 9.88332418760948e-09 2.44016537927939e-09 4.86215085279695e-09 4.1728219707944e-08 3.90492918599148e-08 3.51287562295112e-09 6.07453766231577e-10 3.20764678092873e-09
"229" 21421 9.91469409498426e-09 2.46846492522225e-09 4.92245853169383e-09 4.16014204746016e-08 3.90629467464667e-08 3.51787231209127e-09 6.05488720669414e-10 3.22010300817319e-09
"230" 21422 9.94606400235905e-09 2.4967644711651e-09 4.98276621059071e-09 4.14746212412592e-08 3.90766016330185e-08 3.52286900123142e-09 6.03523675107251e-10 3.23255923541766e-09
"231" 21423 9.97743390973383e-09 2.52506401710796e-09 5.04307388948758e-09 4.13478220079168e-08 3.90902565195704e-08 3.52786569037157e-09 6.01558629545087e-10 3.24501546266212e-09
"232" 21424 1.00088038171086e-08 2.55336356305081e-09 5.10338156838446e-09 4.12210227745744e-08 3.91039114061222e-08 3.53286237951172e-09 5.99593583982924e-10 3.25747168990658e-09
"233" 21425 1.00401737244834e-08 2.58166310899367e-09 5.16368924728134e-09 4.1094223541232e-08 3.91175662926741e-08 3.53785906865187e-09 5.97628538420761e-10 3.26992791715105e-09
"234" 21426 1.00715436318582e-08 2.60996265493652e-09 5.22399692617822e-09 4.09674243078896e-08 3.91312211792259e-08 3.54285575779202e-09 5.95663492858598e-10 3.28238414439551e-09
"235" 21427 1.0102913539233e-08 2.63826220087938e-09 5.2843046050751e-09 4.08406250745472e-08 3.91448760657778e-08 3.54785244693218e-09 5.93698447296435e-10 3.29484037163997e-09
"236" 21428 1.01342834466078e-08 2.66656174682223e-09 5.34461228397198e-09 4.07138258412048e-08 3.91585309523296e-08 3.55284913607233e-09 5.91733401734272e-10 3.30729659888444e-09
"237" 21429 1.01656533539825e-08 2.69486129276509e-09 5.40491996286886e-09 4.05870266078624e-08 3.91721858388815e-08 3.55784582521248e-09 5.89768356172109e-10 3.3197528261289e-09
"238" 21430 1.01970232613573e-08 2.72316083870794e-09 5.46522764176574e-09 4.046022737452e-08 3.91858407254333e-08 3.56284251435263e-09 5.87803310609945e-10 3.33220905337336e-09
"239" 21431 1.01972640480811e-08 2.72098114054948e-09 5.45298318405354e-09 4.0307103095551e-08 3.91959729147669e-08 3.58228472795562e-09 5.87803310609945e-10 3.33633437880981e-09
"240" 21432 1.02101972697889e-08 2.72240357650285e-09 5.46023154619759e-09 4.03613897665779e-08 3.92722861949484e-08 3.58534588054187e-09 5.85603871942511e-10 3.34018910324867e-09
"241" 21433 1.02231304914968e-08 2.72382601245622e-09 5.46747990834164e-09 4.04156764376048e-08 3.93485994751299e-08 3.58840703312812e-09 5.83404433275077e-10 3.34404382768753e-09
"242" 21434 1.02361926964014e-08 2.72654150262501e-09 5.48080476885858e-09 4.05589801186246e-08 3.91610956752091e-08 3.57629969054913e-09 5.83140073263141e-10 3.33871804526848e-09
"243" 21435 1.0249254901306e-08 2.72925699279381e-09 5.49412962937551e-09 4.07022837996444e-08 3.89735918752883e-08 3.56419234797015e-09 5.82875713251205e-10 3.33339226284942e-09
"244" 21436 1.01331659540323e-08 2.73276678406082e-09 5.51362244923175e-09 4.06213769250715e-08 3.89821021036787e-08 3.53776759072627e-09 5.81848240110126e-10 3.2478647270017e-09
"245" 21437 1.00170770067585e-08 2.73627657532783e-09 5.53311526908799e-09 4.05404700504986e-08 3.89906123320691e-08 3.51134283348238e-09 5.80820766969048e-10 3.16233719115398e-09
"246" 21438 9.90098805948476e-09 2.73978636659485e-09 5.55260808894423e-09 4.04595631759258e-08 3.89991225604595e-08 3.48491807623849e-09 5.79793293827969e-10 3.07680965530625e-09
"247" 21439 9.784899112211e-09 2.74329615786186e-09 5.57210090880047e-09 4.03786563013529e-08 3.90076327888499e-08 3.4584933189946e-09 5.7876582068689e-10 2.99128211945853e-09
"248" 21440 9.66881016493723e-09 2.74680594912887e-09 5.59159372865671e-09 4.029774942678e-08 3.90161430172403e-08 3.43206856175071e-09 5.77738347545811e-10 2.90575458361081e-09
"249" 21441 9.55272121766347e-09 2.75031574039588e-09 5.61108654851295e-09 4.02168425522071e-08 3.90246532456307e-08 3.40564380450682e-09 5.76710874404733e-10 2.82022704776309e-09
"250" 21442 9.43663227038971e-09 2.75382553166290e-09 5.63057936836918e-09 4.01359356776342e-08 3.90331634740211e-08 3.37921904726293e-09 5.75683401263654e-10 2.73469951191537e-09
"251" 21443 9.32054332311595e-09 2.75733532292991e-09 5.65007218822542e-09 4.00550288030613e-08 3.90416737024115e-08 3.35279429001904e-09 5.74655928122575e-10 2.64917197606765e-09
"252" 21444 9.20445437584219e-09 2.76084511419692e-09 5.66956500808166e-09 3.99741219284884e-08 3.90501839308019e-08 3.32636953277515e-09 5.73628454981496e-10 2.56364444021993e-09
"253" 21445 9.08673991467286e-09 2.76575882197074e-09 5.67146855958408e-09 3.96291392357761e-08 3.86335760574423e-08 3.3130313084085e-09 5.67733318295007e-10 2.40908137662861e-09
"254" 21446 9.05179283712887e-09 2.76965650406358e-09 5.67119417668486e-09 3.87492546193903e-08 3.76699019179585e-08 3.29487029454002e-09 5.63947719555957e-10 2.38142180306261e-09
"255" 21447 9.01684575958488e-09 2.77355418615642e-09 5.67091979378563e-09 3.78693700030044e-08 3.67062277784747e-08 3.27670928067155e-09 5.60162120816908e-10 2.35376222949661e-09
"256" 21448 8.98189868204088e-09 2.77745186824926e-09 5.67064541088641e-09 3.69894853866185e-08 3.57425536389909e-08 3.25854826680308e-09 5.56376522077858e-10 2.32610265593061e-09
"257" 21449 8.94695160449689e-09 2.7813495503421e-09 5.67037102798718e-09 3.61096007702327e-08 3.4778879499507e-08 3.24038725293461e-09 5.52590923338809e-10 2.29844308236461e-09
"258" 21450 8.9120045269529e-09 2.78524723243494e-09 5.67009664508796e-09 3.52297161538468e-08 3.38152053600232e-08 3.22222623906614e-09 5.48805324599759e-10 2.27078350879861e-09
"259" 21451 8.87705744940891e-09 2.78914491452778e-09 5.66982226218873e-09 3.4349831537461e-08 3.28515312205394e-08 3.20406522519767e-09 5.4501972586071e-10 2.24312393523261e-09
"260" 21452 8.84211037186491e-09 2.79304259662062e-09 5.66954787928951e-09 3.34699469210751e-08 3.18878570810556e-08 3.1859042113292e-09 5.4123412712166e-10 2.21546436166661e-09
"261" 21453 8.80413641627818e-09 2.80019130650458e-09 5.74878745249767e-09 3.25748186972265e-08 3.08513061889126e-08 3.1663247299602e-09 5.38211641511753e-10 2.19206541403585e-09
"262" 21454 8.80661300219446e-09 2.80074536357348e-09 5.82660150317803e-09 3.25558134119766e-08 3.01387917492136e-08 3.16618746219418e-09 5.35189155901847e-10 2.19825340219053e-09
"263" 21455 8.80908958811074e-09 2.80129942064237e-09 5.9044155538584e-09 3.25368081267267e-08 2.94262773095146e-08 3.16605019442817e-09 5.3216667029194e-10 2.20444139034521e-09
"264" 21456 8.81156617402703e-09 2.80185347771127e-09 5.98222960453876e-09 3.25178028414768e-08 2.87137628698157e-08 3.16591292666216e-09 5.29144184682033e-10 2.21062937849988e-09
"265" 21457 8.81404275994331e-09 2.80240753478017e-09 6.06004365521913e-09 3.24987975562268e-08 2.80012484301167e-08 3.16577565889614e-09 5.26121699072127e-10 2.21681736665456e-09
"266" 21458 8.81651934585959e-09 2.80296159184906e-09 6.13785770589949e-09 3.24797922709769e-08 2.72887339904177e-08 3.16563839113013e-09 5.2309921346222e-10 2.22300535480924e-09
"267" 21459 8.81899593177587e-09 2.80351564891796e-09 6.21567175657986e-09 3.2460786985727e-08 2.65762195507187e-08 3.16550112336412e-09 5.20076727852313e-10 2.22919334296392e-09
"268" 21460 8.82147251769216e-09 2.80406970598685e-09 6.29348580726023e-09 3.2441781700477e-08 2.58637051110198e-08 3.16536385559811e-09 5.17054242242407e-10 2.23538133111859e-09
"269" 21461 8.82394910360844e-09 2.80462376305575e-09 6.37129985794059e-09 3.24227764152271e-08 2.51511906713208e-08 3.16522658783209e-09 5.140317566325e-10 2.24156931927327e-09
"270" 21462 8.82642568952472e-09 2.80517782012464e-09 6.44911390862096e-09 3.24037711299772e-08 2.44386762316218e-08 3.16508932006608e-09 5.11009271022593e-10 2.24775730742795e-09
"271" 21463 8.82890227544101e-09 2.80573187719354e-09 6.52692795930132e-09 3.23847658447272e-08 2.37261617919228e-08 3.16495205230007e-09 5.07986785412687e-10 2.25394529558262e-09
"272" 21464 8.83137886135729e-09 2.80628593426244e-09 6.60474200998169e-09 3.23657605594773e-08 2.30136473522238e-08 3.16481478453405e-09 5.0496429980278e-10 2.2601332837373e-09
"273" 21465 8.83385544727357e-09 2.80683999133133e-09 6.68255606066205e-09 3.23467552742274e-08 2.23011329125249e-08 3.16467751676804e-09 5.01941814192873e-10 2.26632127189198e-09
"274" 21466 8.83633203318986e-09 2.80739404840023e-09 6.76037011134242e-09 3.23277499889775e-08 2.15886184728259e-08 3.16454024900203e-09 4.98919328582967e-10 2.27250926004666e-09
"275" 21467 8.85748609149677e-09 2.8010764241196e-09 6.75656300833758e-09 3.231694956476e-08 2.08747963261626e-08 3.16368916850171e-09 4.95103762937252e-10 2.29218878373734e-09
"276" 21468 8.86906921671952e-09 2.80135345265405e-09 6.70832542961615e-09 3.21567865393608e-08 2.05453485999716e-08 3.1551325736581e-09 4.95073796030587e-10 2.31186830742803e-09
"277" 21469 8.86500174759438e-09 2.80135345265405e-09 6.67568210677971e-09 3.20126960192908e-08 2.02826749939394e-08 3.15242374845497e-09 4.9709877540608e-10 2.32363543149281e-09
"278" 21470 8.84935115324649e-09 2.79965398816624e-09 6.6825731894542e-09 3.20340370697386e-08 2.03461778200629e-08 3.15242374845497e-09 4.99388114793509e-10 2.32643760013357e-09
"279" 21471 8.8337005588986e-09 2.79795452367842e-09 6.68946427212869e-09 3.20553781201864e-08 2.04096806461864e-08 3.15242374845497e-09 5.01677454180937e-10 2.32923976877433e-09
"280" 21472 8.81804996455072e-09 2.7962550591906e-09 6.69635535480318e-09 3.20767191706341e-08 2.04731834723099e-08 3.15242374845497e-09 5.03966793568366e-10 2.33204193741509e-09
"281" 21473 8.80239937020283e-09 2.79455559470279e-09 6.70324643747767e-09 3.20980602210819e-08 2.05366862984334e-08 3.15242374845497e-09 5.06256132955795e-10 2.33484410605585e-09
"282" 21474 8.78674877585494e-09 2.79285613021497e-09 6.71013752015216e-09 3.21194012715297e-08 2.06001891245569e-08 3.15242374845497e-09 5.08545472343223e-10 2.33764627469661e-09
"283" 21475 8.77109818150705e-09 2.79115666572715e-09 6.71702860282665e-09 3.21407423219775e-08 2.06636919506804e-08 3.15242374845497e-09 5.10834811730652e-10 2.34044844333737e-09
"284" 21476 8.75544758715916e-09 2.78945720123934e-09 6.72391968550114e-09 3.21620833724252e-08 2.07271947768039e-08 3.15242374845497e-09 5.1312415111808e-10 2.34325061197813e-09
"285" 21477 8.73979699281127e-09 2.78775773675152e-09 6.73081076817563e-09 3.2183424422873e-08 2.07906976029275e-08 3.15242374845497e-09 5.15413490505509e-10 2.34605278061889e-09
"286" 21478 8.72414639846338e-09 2.7860582722637e-09 6.73770185085012e-09 3.22047654733208e-08 2.0854200429051e-08 3.15242374845497e-09 5.17702829892938e-10 2.34885494925965e-09
"287" 21479 8.70849580411550e-09 2.78435880777589e-09 6.74459293352461e-09 3.22261065237685e-08 2.09177032551745e-08 3.15242374845497e-09 5.19992169280366e-10 2.35165711790041e-09
"288" 21480 8.69284520976761e-09 2.78265934328807e-09 6.7514840161991e-09 3.22474475742163e-08 2.0981206081298e-08 3.15242374845497e-09 5.22281508667795e-10 2.35445928654117e-09
"289" 21481 8.67719461541972e-09 2.78095987880025e-09 6.75837509887359e-09 3.22687886246641e-08 2.10447089074215e-08 3.15242374845497e-09 5.24570848055223e-10 2.35726145518193e-09
"290" 21482 8.66154402107183e-09 2.77926041431244e-09 6.76526618154808e-09 3.22901296751118e-08 2.1108211733545e-08 3.15242374845497e-09 5.26860187442652e-10 2.36006362382269e-09
"291" 21483 8.64589342672394e-09 2.77756094982462e-09 6.77215726422257e-09 3.23114707255596e-08 2.11717145596685e-08 3.15242374845497e-09 5.29149526830081e-10 2.36286579246345e-09
"292" 21484 8.63024283237605e-09 2.7758614853368e-09 6.77904834689706e-09 3.23328117760074e-08 2.1235217385792e-08 3.15242374845497e-09 5.31438866217509e-10 2.36566796110421e-09
"293" 21485 8.61459223802816e-09 2.77416202084899e-09 6.78593942957154e-09 3.23541528264551e-08 2.12987202119155e-08 3.15242374845497e-09 5.33728205604938e-10 2.36847012974497e-09
"294" 21486 8.59894164368028e-09 2.77246255636117e-09 6.79283051224603e-09 3.23754938769029e-08 2.13622230380391e-08 3.15242374845497e-09 5.36017544992366e-10 2.37127229838573e-09
"295" 21487 8.58329104933239e-09 2.77076309187336e-09 6.79972159492052e-09 3.23968349273507e-08 2.14257258641626e-08 3.15242374845497e-09 5.38306884379795e-10 2.37407446702649e-09
"296" 21488 8.5676404549845e-09 2.76906362738554e-09 6.80661267759501e-09 3.24181759777985e-08 2.14892286902861e-08 3.15242374845497e-09 5.40596223767224e-10 2.37687663566725e-09
"297" 21489 8.56021069723565e-09 2.77026433875615e-09 6.821300888212e-09 3.23708470984599e-08 2.13246989591547e-08 3.15848657771254e-09 5.40596223767224e-10 2.38279402282433e-09
"298" 21490 8.52646755331029e-09 2.76483335841856e-09 6.77975074608966e-09 3.21032870804865e-08 2.14814919370961e-08 3.22997301514339e-09 5.47464241929509e-10 2.37745563971956e-09
"299" 21491 8.48664474812122e-09 2.75384227039344e-09 6.74690377717783e-09 3.17516449168962e-08 2.13209917627979e-08 3.23915647290214e-09 5.514242999605e-10 2.37517742556743e-09
"300" 21492 8.44682194293215e-09 2.74285118236833e-09 6.71405680826599e-09 3.14000027533059e-08 2.11604915884998e-08 3.24833993066088e-09 5.55384357991492e-10 2.3728992114153e-09
"301" 21493 8.40699913774307e-09 2.73186009434321e-09 6.68120983935415e-09 3.10483605897156e-08 2.09999914142016e-08 3.25752338841963e-09 5.59344416022483e-10 2.37062099726317e-09
"302" 21494 8.367176332554e-09 2.72086900631809e-09 6.64836287044232e-09 3.06967184261253e-08 2.08394912399034e-08 3.26670684617837e-09 5.63304474053474e-10 2.36834278311104e-09
"303" 21495 8.32735352736492e-09 2.70987791829297e-09 6.61551590153048e-09 3.03450762625349e-08 2.06789910656052e-08 3.27589030393712e-09 5.67264532084465e-10 2.36606456895891e-09
"304" 21496 8.28753072217585e-09 2.69888683026786e-09 6.58266893261865e-09 2.99934340989446e-08 2.0518490891307e-08 3.28507376169586e-09 5.71224590115456e-10 2.36378635480678e-09
"305" 21497 8.24770791698677e-09 2.68789574224274e-09 6.54982196370681e-09 2.96417919353543e-08 2.03579907170089e-08 3.29425721945461e-09 5.75184648146447e-10 2.36150814065465e-09
"306" 21498 8.2078851117977e-09 2.67690465421762e-09 6.51697499479498e-09 2.9290149771764e-08 2.01974905427107e-08 3.30344067721335e-09 5.79144706177438e-10 2.35922992650252e-09
"307" 21499 8.16806230660863e-09 2.6659135661925e-09 6.48412802588314e-09 2.89385076081737e-08 2.00369903684125e-08 3.3126241349721e-09 5.83104764208429e-10 2.35695171235039e-09
"308" 21500 8.12823950141955e-09 2.65492247816739e-09 6.4512810569713e-09 2.85868654445834e-08 1.98764901941143e-08 3.32180759273084e-09 5.8706482223942e-10 2.35467349819826e-09
"309" 21501 8.08841669623048e-09 2.64393139014227e-09 6.41843408805947e-09 2.82352232809931e-08 1.97159900198161e-08 3.33099105048959e-09 5.91024880270411e-10 2.35239528404613e-09
"310" 21502 8.06543969349945e-09 2.64454100555086e-09 6.42693361519457e-09 2.82352232809931e-08 1.9715518638848e-08 3.33924563589693e-09 5.96949983863565e-10 2.35545545299877e-09
"311" 21503 8.04246269076843e-09 2.64515062095944e-09 6.43543314232967e-09 2.82352232809931e-08 1.97150472578798e-08 3.34750022130426e-09 6.0287508745672e-10 2.35851562195141e-09
"312" 21504 8.0194856880374e-09 2.64576023636803e-09 6.44393266946477e-09 2.82352232809931e-08 1.97145758769116e-08 3.3557548067116e-09 6.08800191049874e-10 2.36157579090405e-09
"313" 21505 7.99650868530638e-09 2.64636985177662e-09 6.45243219659988e-09 2.82352232809931e-08 1.97141044959435e-08 3.36400939211894e-09 6.14725294643028e-10 2.36463595985669e-09
"314" 21506 7.97353168257535e-09 2.6469794671852e-09 6.46093172373498e-09 2.82352232809931e-08 1.97136331149753e-08 3.37226397752628e-09 6.20650398236182e-10 2.36769612880933e-09
"315" 21507 7.95055467984433e-09 2.64758908259379e-09 6.46943125087008e-09 2.82352232809931e-08 1.97131617340072e-08 3.38051856293361e-09 6.26575501829337e-10 2.37075629776197e-09
"316" 21508 7.9275776771133e-09 2.64819869800238e-09 6.47793077800518e-09 2.82352232809931e-08 1.9712690353039e-08 3.38877314834095e-09 6.32500605422491e-10 2.37381646671461e-09
"317" 21509 7.90460067438228e-09 2.64880831341096e-09 6.48643030514028e-09 2.82352232809931e-08 1.97122189720708e-08 3.39702773374829e-09 6.38425709015645e-10 2.37687663566725e-09
"318" 21510 7.98137429509265e-09 2.67858559925888e-09 6.48500478261249e-09 2.8221542743651e-08 1.97016508804158e-08 3.39277233124669e-09 6.38191315910374e-10 2.39076147201393e-09
"319" 21511 7.92696712046911e-09 2.68638096344456e-09 6.48720344115671e-09 2.82908658909495e-08 1.96976294300803e-08 3.38260052522161e-09 6.38984395946181e-10 2.39481914720099e-09
"320" 21512 7.87255994584557e-09 2.69417632763023e-09 6.48940209970094e-09 2.83601890382481e-08 1.96936079797448e-08 3.37242871919653e-09 6.39777475981989e-10 2.39887682238804e-09
"321" 21513 7.81815277122202e-09 2.70197169181591e-09 6.49160075824517e-09 2.84295121855466e-08 1.96895865294092e-08 3.36225691317145e-09 6.40570556017797e-10 2.40293449757509e-09
"322" 21514 7.76374559659848e-09 2.70976705600159e-09 6.4937994167894e-09 2.84988353328452e-08 1.96855650790737e-08 3.35208510714638e-09 6.41363636053604e-10 2.40699217276215e-09
"323" 21515 7.70933842197494e-09 2.71756242018727e-09 6.49599807533362e-09 2.85681584801437e-08 1.96815436287382e-08 3.3419133011213e-09 6.42156716089412e-10 2.4110498479492e-09
"324" 21516 7.6549312473514e-09 2.72535778437295e-09 6.49819673387785e-09 2.86374816274422e-08 1.96775221784026e-08 3.33174149509622e-09 6.4294979612522e-10 2.41510752313625e-09
"325" 21517 7.60052407272786e-09 2.73315314855863e-09 6.50039539242208e-09 2.87068047747408e-08 1.96735007280671e-08 3.32156968907114e-09 6.43742876161027e-10 2.41916519832331e-09
"326" 21518 7.54611689810432e-09 2.74094851274431e-09 6.50259405096631e-09 2.87761279220393e-08 1.96694792777316e-08 3.31139788304606e-09 6.44535956196835e-10 2.42322287351036e-09
"327" 21519 7.49170972348077e-09 2.74874387692999e-09 6.50479270951053e-09 2.88454510693379e-08 1.9665457827396e-08 3.30122607702098e-09 6.45329036232643e-10 2.42728054869741e-09
"328" 21520 7.43730254885723e-09 2.75653924111567e-09 6.50699136805476e-09 2.89147742166364e-08 1.96614363770605e-08 3.29105427099591e-09 6.4612211626845e-10 2.43133822388447e-09
"329" 21521 7.38289537423369e-09 2.76433460530135e-09 6.50919002659899e-09 2.89840973639349e-08 1.9657414926725e-08 3.28088246497083e-09 6.46915196304258e-10 2.43539589907152e-09
"330" 21522 7.35944525221649e-09 2.76553531667196e-09 6.51184598997526e-09 2.90743119393669e-08 1.96533934763894e-08 3.27710749965027e-09 6.46945163210923e-10 2.4333332363533e-09
"331" 21523 7.33599513019928e-09 2.76673602804257e-09 6.51450195335152e-09 2.91645265147988e-08 1.96493720260539e-08 3.27333253432972e-09 6.46975130117588e-10 2.43127057363507e-09
"332" 21524 7.27820848728228e-09 2.76821376794763e-09 6.53608981103907e-09 2.91651447454811e-08 1.96359959148341e-08 3.26095065621871e-09 6.46975130117588e-10 2.42985456521856e-09
"333" 21525 7.2633405176233e-09 2.76950682216306e-09 6.54515882811521e-09 2.91832122632791e-08 1.93277431695e-08 3.26458835377325e-09 6.45010084555424e-10 2.43050121952027e-09
"334" 21526 7.24847254796433e-09 2.77079987637848e-09 6.55422784519134e-09 2.92012797810772e-08 1.90194904241659e-08 3.2682260513278e-09 6.43045038993261e-10 2.43114787382199e-09
"335" 21527 7.21710264058955e-09 2.76937744042511e-09 6.56772346789459e-09 2.90887969957253e-08 1.900664854471e-08 3.27114993614803e-09 6.39229473347547e-10 2.41962150256254e-09
"336" 21528 7.18573273321476e-09 2.76795500447174e-09 6.58121909059784e-09 2.89763142103734e-08 1.89938066652541e-08 3.27407382096827e-09 6.35413907701833e-10 2.40809513130309e-09
"337" 21529 7.15436282583998e-09 2.76653256851837e-09 6.59471471330108e-09 2.88638314250215e-08 1.89809647857983e-08 3.2769977057885e-09 6.31598342056118e-10 2.39656876004365e-09
"338" 21530 7.12299291846519e-09 2.76511013256501e-09 6.60821033600433e-09 2.87513486396696e-08 1.89681229063424e-08 3.27992159060874e-09 6.27782776410404e-10 2.3850423887842e-09
"339" 21531 7.09162301109041e-09 2.76368769661164e-09 6.62170595870758e-09 2.86388658543177e-08 1.89552810268865e-08 3.28284547542897e-09 6.2396721076469e-10 2.37351601752475e-09
"340" 21532 7.06025310371562e-09 2.76226526065827e-09 6.63520158141083e-09 2.85263830689658e-08 1.89424391474306e-08 3.28576936024921e-09 6.20151645118975e-10 2.3619896462653e-09
"341" 21533 7.02888319634084e-09 2.7608428247049e-09 6.64869720411407e-09 2.84139002836139e-08 1.89295972679748e-08 3.28869324506944e-09 6.16336079473261e-10 2.35046327500586e-09
"342" 21534 6.99751328896605e-09 2.75942038875153e-09 6.66219282681732e-09 2.8301417498262e-08 1.89167553885189e-08 3.29161712988968e-09 6.12520513827547e-10 2.33893690374641e-09
"343" 21535 6.96614338159127e-09 2.75799795279816e-09 6.67568844952057e-09 2.81889347129101e-08 1.8903913509063e-08 3.29454101470992e-09 6.08704948181832e-10 2.32741053248696e-09
"344" 21536 6.93477347421649e-09 2.75657551684479e-09 6.68918407222381e-09 2.80764519275582e-08 1.88910716296072e-08 3.29746489953015e-09 6.04889382536118e-10 2.31588416122752e-09
"345" 21537 6.9034035668417e-09 2.75515308089143e-09 6.70267969492706e-09 2.79639691422063e-08 1.88782297501513e-08 3.30038878435039e-09 6.01073816890404e-10 2.30435778996807e-09
"346" 21538 6.87203365946692e-09 2.75373064493806e-09 6.71617531763031e-09 2.78514863568544e-08 1.88653878706954e-08 3.30331266917062e-09 5.97258251244689e-10 2.29283141870862e-09
"347" 21539 6.84066375209213e-09 2.75230820898469e-09 6.72967094033356e-09 2.77390035715025e-08 1.88525459912395e-08 3.30623655399086e-09 5.93442685598975e-10 2.28130504744918e-09
"348" 21540 6.80929384471735e-09 2.75088577303132e-09 6.7431665630368e-09 2.76265207861506e-08 1.88397041117837e-08 3.30916043881109e-09 5.89627119953261e-10 2.26977867618973e-09
"349" 21541 6.77792393734256e-09 2.74946333707795e-09 6.75666218574005e-09 2.75140380007987e-08 1.88268622323278e-08 3.31208432363133e-09 5.85811554307546e-10 2.25825230493028e-09
"350" 21542 6.74655402996778e-09 2.74804090112458e-09 6.7701578084433e-09 2.74015552154468e-08 1.88140203528719e-08 3.31500820845156e-09 5.81995988661832e-10 2.24672593367083e-09
"351" 21543 6.71518412259299e-09 2.74661846517121e-09 6.78365343114655e-09 2.72890724300949e-08 1.88011784734161e-08 3.3179320932718e-09 5.78180423016118e-10 2.23519956241139e-09
"352" 21544 6.68381421521821e-09 2.74519602921784e-09 6.79714905384979e-09 2.7176589644743e-08 1.87883365939602e-08 3.32085597809203e-09 5.74364857370403e-10 2.22367319115194e-09
"353" 21545 6.66057052058523e-09 2.74519602921784e-09 6.79125547740972e-09 2.72161774293364e-08 1.88747425315797e-08 3.32206854394355e-09 5.70579258631354e-10 2.21214681989249e-09
"354" 21546 6.6482650351913e-09 2.75027590323473e-09 6.8176686684791e-09 2.69439564889471e-08 1.89190018041708e-08 3.3240543984443e-09 5.62479341129383e-10 2.21207916964310e-09
"355" 21547 6.64455015631687e-09 2.75535577725162e-09 6.84408185954849e-09 2.68949627418889e-08 1.88563788891878e-08 3.32789799764786e-09 5.62479341129383e-10 2.21207916964310e-09
"356" 21548 6.64083527744245e-09 2.7604356512685e-09 6.87049505061788e-09 2.68459689948308e-08 1.87937559742049e-08 3.33174159685142e-09 5.62479341129383e-10 2.21207916964310e-09
"357" 21549 6.63712039856802e-09 2.76551552528539e-09 6.89690824168727e-09 2.67969752477727e-08 1.87311330592219e-08 3.33558519605498e-09 5.62479341129383e-10 2.21207916964310e-09
"358" 21550 6.6334055196936e-09 2.77059539930227e-09 6.92332143275665e-09 2.67479815007146e-08 1.8668510144239e-08 3.33942879525854e-09 5.62479341129383e-10 2.21207916964310e-09
"359" 21551 6.62969064081917e-09 2.77567527331916e-09 6.94973462382604e-09 2.66989877536565e-08 1.86058872292561e-08 3.34327239446211e-09 5.62479341129383e-10 2.21207916964310e-09
"360" 21552 6.62597576194475e-09 2.78075514733605e-09 6.97614781489543e-09 2.66499940065984e-08 1.85432643142731e-08 3.34711599366567e-09 5.62479341129383e-10 2.21207916964310e-09
"361" 21553 6.62226088307032e-09 2.78583502135293e-09 7.00256100596481e-09 2.66010002595403e-08 1.84806413992902e-08 3.35095959286923e-09 5.62479341129383e-10 2.21207916964310e-09
"362" 21554 6.6185460041959e-09 2.79091489536982e-09 7.0289741970342e-09 2.65520065124822e-08 1.84180184843073e-08 3.35480319207279e-09 5.62479341129383e-10 2.21207916964310e-09
"363" 21555 6.61483112532148e-09 2.7959947693867e-09 7.05538738810359e-09 2.65030127654241e-08 1.83553955693243e-08 3.35864679127635e-09 5.62479341129383e-10 2.21207916964310e-09
"364" 21556 6.61111624644705e-09 2.80107464340359e-09 7.08180057917297e-09 2.6454019018366e-08 1.82927726543414e-08 3.36249039047992e-09 5.62479341129383e-10 2.21207916964310e-09
"365" 21557 6.60740136757263e-09 2.80615451742047e-09 7.10821377024236e-09 2.64050252713079e-08 1.82301497393585e-08 3.36633398968348e-09 5.62479341129383e-10 2.21207916964310e-09
"366" 21558 6.6036864886982e-09 2.81123439143736e-09 7.13462696131175e-09 2.63560315242497e-08 1.81675268243755e-08 3.37017758888704e-09 5.62479341129383e-10 2.21207916964310e-09
"367" 21559 6.58532724721878e-09 2.81958381269194e-09 7.16104015238114e-09 2.62469240691465e-08 1.81861611356018e-08 3.36512142383196e-09 5.59516789332806e-10 2.20816939564055e-09
"368" 21560 6.56696800573936e-09 2.82793323394651e-09 7.18745334345052e-09 2.61378166140432e-08 1.8204795446828e-08 3.36006525877689e-09 5.56554237536229e-10 2.204259621638e-09
"369" 21561 6.54860876425993e-09 2.83628265520109e-09 7.21386653451991e-09 2.60287091589399e-08 1.82234297580543e-08 3.35500909372181e-09 5.53591685739651e-10 2.20034984763545e-09
"370" 21562 6.53024952278051e-09 2.84463207645566e-09 7.2402797255893e-09 2.59196017038367e-08 1.82420640692805e-08 3.34995292866674e-09 5.50629133943074e-10 2.19644007363291e-09
"371" 21563 6.51189028130109e-09 2.85298149771024e-09 7.26669291665868e-09 2.58104942487334e-08 1.82606983805068e-08 3.34489676361166e-09 5.47666582146497e-10 2.19253029963036e-09
"372" 21564 6.49353103982167e-09 2.85237188230165e-09 7.25637273459149e-09 2.57373567568515e-08 1.82274035699966e-08 3.33599699935302e-09 5.4470403034992e-10 2.18947013067772e-09
"373" 21565 6.47517179834225e-09 2.85176226689306e-09 7.2460525525243e-09 2.56642192649697e-08 1.81941087594864e-08 3.32709723509438e-09 5.41741478553343e-10 2.18640996172508e-09
"374" 21566 6.54836824888341e-09 2.85115265148448e-09 7.2650880675485e-09 2.58092966832944e-08 1.87488874593076e-08 3.34846582728320e-09 5.38838860570096e-10 2.18442754994197e-09
"375" 21567 6.62156469942457e-09 2.85054303607589e-09 7.2841235825727e-09 2.59543741016191e-08 1.93036661591288e-08 3.36983441947201e-09 5.35936242586848e-10 2.18244513815885e-09
"376" 21568 6.70704073018144e-09 2.85054303607589e-09 7.31710346073611e-09 2.6159565227989e-08 1.98584448589501e-08 3.38792679945747e-09 5.36963715727927e-10 2.1726053763135e-09
"377" 21569 6.7925167609383e-09 2.85054303607589e-09 7.35008333889952e-09 2.63647563543588e-08 2.04132235587713e-08 3.40601917944294e-09 5.37991188869006e-10 2.16276561446816e-09
"378" 21570 6.87799279169517e-09 2.85054303607589e-09 7.38306321706293e-09 2.65699474807287e-08 2.09680022585925e-08 3.4241115594284e-09 5.39018662010084e-10 2.15292585262282e-09
"379" 21571 6.96346882245204e-09 2.85054303607589e-09 7.41604309522634e-09 2.67751386070986e-08 2.15227809584137e-08 3.44220393941386e-09 5.40046135151163e-10 2.14308609077747e-09
"380" 21572 7.0489448532089e-09 2.85054303607589e-09 7.44902297338975e-09 2.69803297334684e-08 2.2077559658235e-08 3.46029631939933e-09 5.41073608292242e-10 2.13324632893213e-09
"381" 21573 7.13442088396577e-09 2.85054303607589e-09 7.48200285155316e-09 2.71855208598383e-08 2.26323383580562e-08 3.47838869938479e-09 5.42101081433321e-10 2.12340656708678e-09
"382" 21574 7.21989691472264e-09 2.85054303607589e-09 7.51498272971657e-09 2.73907119862082e-08 2.31871170578774e-08 3.49648107937026e-09 5.43128554574399e-10 2.11356680524144e-09
"383" 21575 7.3053729454795e-09 2.85054303607589e-09 7.54796260787998e-09 2.75959031125781e-08 2.37418957576986e-08 3.51457345935572e-09 5.44156027715478e-10 2.1037270433961e-09
"384" 21576 7.39084897623637e-09 2.85054303607589e-09 7.58094248604339e-09 2.78010942389479e-08 2.42966744575199e-08 3.53266583934119e-09 5.45183500856557e-10 2.09388728155075e-09
"385" 21577 7.47632500699323e-09 2.85054303607589e-09 7.6139223642068e-09 2.80062853653178e-08 2.48514531573411e-08 3.55075821932665e-09 5.46210973997636e-10 2.08404751970541e-09
"386" 21578 7.5618010377501e-09 2.85054303607589e-09 7.64690224237021e-09 2.82114764916877e-08 2.54062318571623e-08 3.56885059931211e-09 5.47238447138714e-10 2.07420775786006e-09
"387" 21579 7.64727706850697e-09 2.85054303607589e-09 7.67988212053362e-09 2.84166676180575e-08 2.59610105569835e-08 3.58694297929758e-09 5.48265920279793e-10 2.06436799601472e-09
"388" 21580 7.64890231105533e-09 2.84788310424679e-09 7.67153622679268e-09 2.8374888297784e-08 2.59630369948502e-08 3.52777894406281e-09 5.46210973997636e-10 2.06465119769802e-09
"389" 21581 7.65052755360369e-09 2.84742139002271e-09 7.66248793385913e-09 2.83352690623539e-08 2.603679365865e-08 3.46555375624178e-09 5.44185994622143e-10 2.06465119769802e-09
"390" 21582 7.58826931230157e-09 2.85233509779653e-09 7.65851863306405e-09 2.83216938586039e-08 2.61136685427444e-08 3.44672924758585e-09 5.44215961528808e-10 2.06230533329649e-09
"391" 21583 7.52601107099946e-09 2.85724880557034e-09 7.65454933226898e-09 2.8308118654854e-08 2.61905434268389e-08 3.42790473892992e-09 5.44245928435472e-10 2.05995946889497e-09
"392" 21584 7.46375282969735e-09 2.86216251334416e-09 7.65058003147391e-09 2.8294543451104e-08 2.62674183109334e-08 3.40908023027398e-09 5.44275895342137e-10 2.05761360449344e-09
"393" 21585 7.40149458839523e-09 2.86707622111798e-09 7.64661073067884e-09 2.82809682473541e-08 2.63442931950278e-08 3.39025572161805e-09 5.44305862248802e-10 2.05526774009191e-09
"394" 21586 7.33923634709312e-09 2.8719899288918e-09 7.64264142988376e-09 2.82673930436041e-08 2.64211680791223e-08 3.37143121296212e-09 5.44335829155467e-10 2.05292187569038e-09
"395" 21587 7.276978105791e-09 2.87690363666561e-09 7.63867212908869e-09 2.82538178398542e-08 2.64980429632168e-08 3.35260670430618e-09 5.44365796062132e-10 2.05057601128885e-09
"396" 21588 7.21471986448889e-09 2.88181734443943e-09 7.63470282829362e-09 2.82402426361042e-08 2.65749178473112e-08 3.33378219565025e-09 5.44395762968796e-10 2.04823014688733e-09
"397" 21589 7.15246162318678e-09 2.88673105221325e-09 7.63073352749855e-09 2.82266674323543e-08 2.66517927314057e-08 3.31495768699432e-09 5.44425729875461e-10 2.0458842824858e-09
"398" 21590 7.09020338188466e-09 2.89164475998707e-09 7.62676422670347e-09 2.82130922286043e-08 2.67286676155002e-08 3.29613317833838e-09 5.44455696782126e-10 2.04353841808427e-09
"399" 21591 7.02794514058255e-09 2.89655846776088e-09 7.6227949259084e-09 2.81995170248544e-08 2.68055424995946e-08 3.27730866968245e-09 5.44485663688791e-10 2.04119255368274e-09
"400" 21592 6.96568689928044e-09 2.9014721755347e-09 7.61882562511333e-09 2.81859418211044e-08 2.68824173836891e-08 3.25848416102652e-09 5.44515630595455e-10 2.03884668928121e-09
"401" 21593 6.90342865797832e-09 2.90638588330852e-09 7.61485632431825e-09 2.81723666173545e-08 2.69592922677836e-08 3.23965965237058e-09 5.4454559750212e-10 2.03650082487968e-09
"402" 21594 6.84117041667621e-09 2.91129959108234e-09 7.61088702352318e-09 2.81587914136045e-08 2.7036167151878e-08 3.22083514371465e-09 5.44575564408785e-10 2.03415496047816e-09
"403" 21595 6.77891217537409e-09 2.91621329885615e-09 7.60691772272811e-09 2.81452162098546e-08 2.71130420359725e-08 3.20201063505872e-09 5.4460553131545e-10 2.03180909607663e-09
"404" 21596 6.71665393407198e-09 2.92112700662997e-09 7.60294842193304e-09 2.81316410061046e-08 2.7189916920067e-08 3.18318612640278e-09 5.44635498222115e-10 2.0294632316751e-09
"405" 21597 6.65439569276987e-09 2.92604071440379e-09 7.59897912113796e-09 2.81180658023547e-08 2.72667918041614e-08 3.16436161774685e-09 5.44665465128779e-10 2.02711736727357e-09
"406" 21598 6.59213745146775e-09 2.93095442217761e-09 7.59500982034289e-09 2.81044905986047e-08 2.73436666882559e-08 3.14553710909092e-09 5.44695432035444e-10 2.02477150287204e-09
"407" 21599 6.52987921016564e-09 2.93586812995142e-09 7.59104051954782e-09 2.80909153948548e-08 2.74205415723504e-08 3.12671260043498e-09 5.44725398942109e-10 2.02242563847052e-09
"408" 21600 6.46762096886353e-09 2.94078183772524e-09 7.58707121875275e-09 2.80773401911048e-08 2.74974164564448e-08 3.10788809177905e-09 5.44755365848774e-10 2.02007977406899e-09
"409" 21601 6.40536272756141e-09 2.94569554549906e-09 7.58310191795767e-09 2.80637649873549e-08 2.75742913405393e-08 3.08906358312312e-09 5.44785332755439e-10 2.01773390966746e-09
"410" 21602 6.34406763315421e-09 2.94490124440084e-09 7.57983501635521e-09 2.80489710022066e-08 2.7581615510308e-08 3.07023907446718e-09 5.45578412791246e-10 2.01538804526593e-09
"411" 21603 6.3372312523798e-09 2.94109590515282e-09 7.58164710689122e-09 2.81148732244469e-08 2.7862711556279e-08 3.06796036849825e-09 5.45578412791246e-10 2.01538804526593e-09
"412" 21604 6.33039487160540e-09 2.93729056590479e-09 7.58345919742723e-09 2.81807754466872e-08 2.81438076022499e-08 3.06568166252931e-09 5.45578412791246e-10 2.01538804526593e-09
"413" 21605 6.30425328212641e-09 2.91667552185624e-09 7.58527128796324e-09 2.82710568328881e-08 2.84928009762056e-08 3.06766751703006e-09 5.46545952118995e-10 2.01944572045299e-09
"414" 21606 6.27811169264742e-09 2.89606047780768e-09 7.58708337849925e-09 2.8361338219089e-08 2.88417943501613e-08 3.06965337153081e-09 5.47513491446745e-10 2.02350339564004e-09
"415" 21607 6.25197010316843e-09 2.87544543375913e-09 7.58889546903527e-09 2.845161960529e-08 2.91907877241171e-08 3.07163922603156e-09 5.48481030774494e-10 2.02756107082709e-09
"416" 21608 6.22582851368945e-09 2.85483038971057e-09 7.59070755957128e-09 2.85419009914909e-08 2.95397810980728e-08 3.0736250805323e-09 5.49448570102243e-10 2.03161874601415e-09
"417" 21609 6.19968692421046e-09 2.83421534566202e-09 7.59251965010729e-09 2.86321823776918e-08 2.98887744720285e-08 3.07561093503305e-09 5.50416109429992e-10 2.0356764212012e-09
"418" 21610 6.17354533473147e-09 2.81360030161346e-09 7.5943317406433e-09 2.87224637638927e-08 3.02377678459842e-08 3.0775967895338e-09 5.51383648757741e-10 2.03973409638825e-09
"419" 21611 6.14740374525249e-09 2.79298525756491e-09 7.59614383117931e-09 2.88127451500937e-08 3.05867612199399e-08 3.07958264403454e-09 5.5235118808549e-10 2.04379177157531e-09
"420" 21612 6.1212621557735e-09 2.77237021351636e-09 7.59795592171532e-09 2.89030265362946e-08 3.09357545938956e-08 3.08156849853529e-09 5.5331872741324e-10 2.04784944676236e-09
"421" 21613 6.09512056629451e-09 2.7517551694678e-09 7.59976801225133e-09 2.89933079224955e-08 3.12847479678513e-08 3.08355435303604e-09 5.54286266740989e-10 2.05190712194941e-09
"422" 21614 6.06897897681552e-09 2.73114012541925e-09 7.60158010278735e-09 2.90835893086964e-08 3.1633741341807e-08 3.08554020753678e-09 5.55253806068738e-10 2.05596479713647e-09
"423" 21615 6.04283738733654e-09 2.71052508137069e-09 7.60339219332336e-09 2.91738706948974e-08 3.19827347157627e-08 3.08752606203753e-09 5.56221345396487e-10 2.06002247232352e-09
"424" 21616 6.01669579785755e-09 2.68991003732214e-09 7.60520428385937e-09 2.92641520810983e-08 3.23317280897184e-08 3.08951191653828e-09 5.57188884724236e-10 2.06408014751058e-09
"425" 21617 5.97298604574933e-09 2.65922758808463e-09 7.5819165207448e-09 2.93385260343447e-08 3.26806271874805e-08 3.09335551574184e-09 5.55956985384551e-10 2.06813782269763e-09
"426" 21618 5.92927629364111e-09 2.62854513884712e-09 7.55862875763023e-09 2.9412899987591e-08 3.30295262852425e-08 3.0971991149454e-09 5.54725086044866e-10 2.07219549788468e-09
"427" 21619 5.88556654153289e-09 2.59786268960961e-09 7.53534099451566e-09 2.94872739408374e-08 3.33784253830046e-08 3.10104271414896e-09 5.53493186705181e-10 2.07625317307174e-09
"428" 21620 5.84185678942467e-09 2.5671802403721e-09 7.51205323140109e-09 2.95616478940838e-08 3.37273244807667e-08 3.10488631335253e-09 5.52261287365496e-10 2.08031084825879e-09
"429" 21621 5.79890375682714e-09 2.53649779113459e-09 7.4868619167841e-09 2.95542719309178e-08 3.37296611193633e-08 3.11100861852502e-09 5.51029388025811e-10 2.08403027219885e-09
"430" 21622 5.75595072422961e-09 2.50581534189708e-09 7.46167060216711e-09 2.95468959677518e-08 3.373199775796e-08 3.11713092369752e-09 5.49797488686126e-10 2.08774969613892e-09
"431" 21623 5.71299769163207e-09 2.47513289265957e-09 7.43647928755012e-09 2.95395200045859e-08 3.37343343965566e-08 3.12325322887002e-09 5.48565589346441e-10 2.09146912007898e-09
"432" 21624 5.670526232482e-09 2.44683334671671e-09 7.41709008840679e-09 2.95236125716313e-08 3.3734240120363e-08 3.29065584850679e-09 5.58690486223905e-10 2.08933880711136e-09
"433" 21625 5.64291428882962e-09 2.44321269315832e-09 7.38154570783352e-09 2.92174202164826e-08 3.37332740395265e-08 3.44210752636101e-09 5.70047282441053e-10 2.08862450256025e-09
"434" 21626 5.61530234517724e-09 2.43959203959993e-09 7.34600132726025e-09 2.89112278613339e-08 3.37323079586899e-08 3.59355920421524e-09 5.81404078658202e-10 2.08791019800914e-09
"435" 21627 5.58769040152486e-09 2.43597138604154e-09 7.31045694668698e-09 2.86050355061851e-08 3.37313418778534e-08 3.74501088206947e-09 5.9276087487535e-10 2.08719589345803e-09
"436" 21628 5.56007845787248e-09 2.43235073248314e-09 7.27491256611371e-09 2.82988431510364e-08 3.37303757970169e-08 3.89646255992369e-09 6.04117671092499e-10 2.08648158890692e-09
"437" 21629 5.5324665142201e-09 2.42873007892475e-09 7.23936818554044e-09 2.79926507958877e-08 3.37294097161803e-08 4.04791423777792e-09 6.15474467309648e-10 2.0857672843558e-09
"438" 21630 5.50485457056772e-09 2.42510942536636e-09 7.20382380496717e-09 2.7686458440739e-08 3.37284436353438e-08 4.19936591563215e-09 6.26831263526796e-10 2.08505297980469e-09
"439" 21631 5.47724262691534e-09 2.42148877180797e-09 7.1682794243939e-09 2.73802660855903e-08 3.37274775545072e-08 4.35081759348638e-09 6.38188059743945e-10 2.08433867525358e-09
"440" 21632 5.44963068326296e-09 2.41786811824958e-09 7.13273504382063e-09 2.70740737304416e-08 3.37265114736707e-08 4.5022692713406e-09 6.49544855961094e-10 2.08362437070247e-09
"441" 21633 5.42201873961058e-09 2.41424746469118e-09 7.09719066324736e-09 2.67678813752929e-08 3.37255453928342e-08 4.65372094919483e-09 6.60901652178242e-10 2.08291006615136e-09
"442" 21634 5.3944067959582e-09 2.41062681113279e-09 7.06164628267409e-09 2.64616890201441e-08 3.37245793119976e-08 4.80517262704906e-09 6.72258448395391e-10 2.08219576160025e-09
"443" 21635 5.36679485230583e-09 2.4070061575744e-09 7.02610190210082e-09 2.61554966649954e-08 3.37236132311611e-08 4.95662430490328e-09 6.8361524461254e-10 2.08148145704913e-09
"444" 21636 5.34619981163385e-09 2.40190776411095e-09 6.9856407271793e-09 2.58788922801433e-08 3.37328736158517e-08 4.94145580973805e-09 6.8264770528479e-10 2.08055160106412e-09
"445" 21637 5.31858786798147e-09 2.3959042072579e-09 6.95334252406592e-09 2.55812313947832e-08 3.38268318075227e-08 4.92756851430735e-09 6.8264770528479e-10 2.0799049467624e-09
"446" 21638 5.3048292080839e-09 2.39379833249769e-09 6.95389128986437e-09 2.5169686190332e-08 3.37479781239548e-08 4.92970079454219e-09 6.8264770528479e-10 2.07141354308417e-09
"447" 21639 5.29107054818633e-09 2.39169245773749e-09 6.95444005566282e-09 2.47581409858808e-08 3.36691244403868e-08 4.93183307477703e-09 6.8264770528479e-10 2.06292213940594e-09
"448" 21640 5.29230884114447e-09 2.3875177471102e-09 6.9576862331227e-09 2.47658962245989e-08 3.37116755823388e-08 4.91849485041037e-09 6.79565285861554e-10 2.06320534108925e-09
"449" 21641 5.29354713410261e-09 2.38334303648291e-09 6.96093241058258e-09 2.4773651463317e-08 3.37542267242908e-08 4.90515662604371e-09 6.76482866438318e-10 2.06348854277255e-09
"450" 21642 5.32801263819915e-09 2.37937153099182e-09 6.97052090491851e-09 2.48539015843845e-08 3.37235473277093e-08 4.88947106182512e-09 6.74722247074761e-10 2.06348854277255e-09
"451" 21643 5.36247814229568e-09 2.37540002550073e-09 6.98010939925443e-09 2.4934151705452e-08 3.36928679311278e-08 4.87378549760652e-09 6.72961627711204e-10 2.06348854277255e-09
"452" 21644 5.39694364639222e-09 2.37142852000963e-09 6.98969789359035e-09 2.50144018265195e-08 3.36621885345464e-08 4.85809993338792e-09 6.71201008347647e-10 2.06348854277255e-09
"453" 21645 5.43140915048876e-09 2.36745701451854e-09 6.99928638792628e-09 2.5094651947587e-08 3.36315091379649e-08 4.84241436916932e-09 6.69440388984091e-10 2.06348854277255e-09
"454" 21646 5.46587465458530e-09 2.36348550902745e-09 7.0088748822622e-09 2.51749020686545e-08 3.36008297413834e-08 4.82672880495073e-09 6.67679769620534e-10 2.06348854277255e-09
"455" 21647 5.50034015868183e-09 2.35951400353636e-09 7.01846337659813e-09 2.5255152189722e-08 3.35701503448019e-08 4.81104324073213e-09 6.65919150256977e-10 2.06348854277255e-09
"456" 21648 5.53480566277837e-09 2.35554249804527e-09 7.02805187093405e-09 2.53354023107895e-08 3.35394709482204e-08 4.79535767651353e-09 6.6415853089342e-10 2.06348854277255e-09
"457" 21649 5.56927116687491e-09 2.35157099255417e-09 7.03764036526997e-09 2.5415652431857e-08 3.35087915516389e-08 4.77967211229493e-09 6.62397911529863e-10 2.06348854277255e-09
"458" 21650 5.60373667097144e-09 2.34759948706308e-09 7.0472288596059e-09 2.54959025529244e-08 3.34781121550575e-08 4.76398654807634e-09 6.60637292166306e-10 2.06348854277255e-09
"459" 21651 5.63820217506798e-09 2.34362798157199e-09 7.05681735394182e-09 2.55761526739919e-08 3.3447432758476e-08 4.74830098385774e-09 6.5887667280275e-10 2.06348854277255e-09
"460" 21652 5.67266767916452e-09 2.3396564760809e-09 7.06640584827775e-09 2.56564027950594e-08 3.34167533618945e-08 4.73261541963914e-09 6.57116053439193e-10 2.06348854277255e-09
"461" 21653 5.70713318326106e-09 2.3356849705898e-09 7.07599434261367e-09 2.57366529161269e-08 3.3386073965313e-08 4.71692985542054e-09 6.55355434075636e-10 2.06348854277255e-09
"462" 21654 5.74159868735759e-09 2.33171346509871e-09 7.08558283694959e-09 2.58169030371944e-08 3.33553945687315e-08 4.70124429120195e-09 6.53594814712079e-10 2.06348854277255e-09
"463" 21655 5.77606419145413e-09 2.32774195960762e-09 7.09517133128552e-09 2.58971531582619e-08 3.332471517215e-08 4.68555872698335e-09 6.51834195348522e-10 2.06348854277255e-09
"464" 21656 5.77794740039597e-09 2.32465709805956e-09 7.09786874294695e-09 2.59118347378316e-08 3.32795445630205e-08 4.67093930288217e-09 6.49983675264971e-10 2.07594477001701e-09
"465" 21657 5.80408898987496e-09 2.3215722365115e-09 7.09295194859871e-09 2.59195899765497e-08 3.3271682108239e-08 4.65938103136724e-09 6.45933716513986e-10 2.07594477001701e-09
"466" 21658 5.83023057935394e-09 2.31848737496345e-09 7.08803515425046e-09 2.59273452152679e-08 3.32638196534576e-08 4.64782275985231e-09 6.41883757763e-10 2.07594477001701e-09
"467" 21659 5.85637216883293e-09 2.31540251341539e-09 7.08311835990222e-09 2.5935100453986e-08 3.32559571986761e-08 4.63626448833738e-09 6.37833799012015e-10 2.07594477001701e-09
"468" 21660 5.88251375831192e-09 2.31231765186733e-09 7.07820156555397e-09 2.59428556927041e-08 3.32480947438946e-08 4.62470621682246e-09 6.33783840261029e-10 2.07594477001701e-09
"469" 21661 5.9086553477909e-09 2.29707802981667e-09 7.03655139806915e-09 2.58959764356799e-08 3.32823789541416e-08 4.60423902308081e-09 6.33519480249094e-10 2.07359890561548e-09
"470" 21662 5.93466795407315e-09 2.29726271550631e-09 7.03553316769216e-09 2.59045079054685e-08 3.33257664220897e-08 4.60423902308081e-09 6.33255120237158e-10 2.07338335418158e-09
"471" 21663 5.9606805603554e-09 2.29744740119594e-09 7.03451493731516e-09 2.59130393752571e-08 3.33691538900379e-08 4.60423902308081e-09 6.32990760225222e-10 2.07316780274767e-09
"472" 21664 5.98669316663765e-09 2.29763208688557e-09 7.03349670693816e-09 2.59215708450456e-08 3.34125413579861e-08 4.60423902308081e-09 6.32726400213286e-10 2.07295225131377e-09
"473" 21665 6.01270577291990e-09 2.2978167725752e-09 7.03247847656116e-09 2.59301023148342e-08 3.34559288259342e-08 4.60423902308081e-09 6.3246204020135e-10 2.07273669987987e-09
"474" 21666 6.03871837920214e-09 2.29800145826483e-09 7.03146024618417e-09 2.59386337846228e-08 3.34993162938824e-08 4.60423902308081e-09 6.32197680189414e-10 2.07252114844596e-09
"475" 21667 6.06473098548439e-09 2.29818614395447e-09 7.03044201580717e-09 2.59471652544114e-08 3.35427037618306e-08 4.60423902308081e-09 6.31933320177478e-10 2.07230559701206e-09
"476" 21668 6.09074359176664e-09 2.2983708296441e-09 7.02942378543017e-09 2.59556967242e-08 3.35860912297788e-08 4.60423902308081e-09 6.31668960165542e-10 2.07209004557815e-09
"477" 21669 6.11675619804888e-09 2.29855551533373e-09 7.02840555505318e-09 2.59642281939886e-08 3.36294786977269e-08 4.60423902308081e-09 6.31404600153606e-10 2.07187449414425e-09
"478" 21670 6.14276880433113e-09 2.29874020102336e-09 7.02738732467618e-09 2.59727596637772e-08 3.36728661656751e-08 4.60423902308081e-09 6.3114024014167e-10 2.07165894271034e-09
"479" 21671 6.16878141061338e-09 2.29892488671299e-09 7.02636909429918e-09 2.59812911335657e-08 3.37162536336233e-08 4.60423902308081e-09 6.30875880129735e-10 2.07144339127644e-09
"480" 21672 6.19479401689563e-09 2.29910957240262e-09 7.02535086392218e-09 2.59898226033543e-08 3.37596411015714e-08 4.60423902308081e-09 6.30611520117799e-10 2.07122783984253e-09
"481" 21673 6.22080662317787e-09 2.29929425809226e-09 7.02433263354519e-09 2.59983540731429e-08 3.38030285695196e-08 4.60423902308081e-09 6.30347160105863e-10 2.07101228840863e-09
"482" 21674 6.24434264354384e-09 2.29657876792346e-09 7.01352226275687e-09 2.59355709191574e-08 3.38337900825482e-08 4.59590664582238e-09 6.30347160105863e-10 2.07008243242361e-09
"483" 21675 6.2678786639098e-09 2.29386327775467e-09 7.00271189196855e-09 2.58727877651718e-08 3.38645515955768e-08 4.58757426856396e-09 6.30347160105863e-10 2.0691525764386e-09
"484" 21676 6.29141468427577e-09 2.29114778758587e-09 6.99190152118023e-09 2.58100046111863e-08 3.38953131086054e-08 4.57924189130553e-09 6.30347160105863e-10 2.06822272045358e-09
"485" 21677 6.29004740812089e-09 2.2933460051909e-09 6.99190152118023e-09 2.62007181262866e-08 3.38810966181406e-08 4.56706591484355e-09 6.30611520117799e-10 2.06963872887009e-09
"486" 21678 6.288680131966e-09 2.29554422279592e-09 6.99190152118023e-09 2.65914316413869e-08 3.38668801276758e-08 4.55488993838156e-09 6.30875880129735e-10 2.0710547372866e-09
"487" 21679 6.29054616123809e-09 2.2926440469375e-09 6.98646524957219e-09 2.65200608148235e-08 3.38542541727562e-08 4.54271396191957e-09 6.3703537682816e-10 2.07652842089017e-09
"488" 21680 6.29241219051018e-09 2.28974387107907e-09 6.98102897796416e-09 2.64486899882601e-08 3.38416282178367e-08 4.53053798545759e-09 6.43194873526585e-10 2.08200210449373e-09
"489" 21681 6.29675480569855e-09 2.29044582933247e-09 6.98658599907726e-09 2.63773191616966e-08 3.38325249601354e-08 4.53082167895769e-09 6.48326897083932e-10 2.08200210449373e-09
"490" 21682 6.30109742088692e-09 2.29114778758587e-09 6.99214302019036e-09 2.63059483351332e-08 3.38234217024342e-08 4.5311053724578e-09 6.53458920641278e-10 2.08200210449373e-09
"491" 21683 6.30544003607530e-09 2.29184974583928e-09 6.99770004130346e-09 2.62345775085698e-08 3.3814318444733e-08 4.5313890659579e-09 6.58590944198625e-10 2.08200210449373e-09
"492" 21684 6.30978265126367e-09 2.29255170409268e-09 7.00325706241656e-09 2.61632066820063e-08 3.38052151870317e-08 4.53167275945801e-09 6.63722967755971e-10 2.08200210449373e-09
"493" 21685 6.31412526645204e-09 2.29325366234608e-09 7.00881408352967e-09 2.60918358554429e-08 3.37961119293305e-08 4.53195645295812e-09 6.68854991313318e-10 2.08200210449373e-09
"494" 21686 6.31846788164041e-09 2.29395562059948e-09 7.01437110464277e-09 2.60204650288795e-08 3.37870086716293e-08 4.53224014645823e-09 6.73987014870665e-10 2.08200210449373e-09
"495" 21687 6.32281049682878e-09 2.29465757885289e-09 7.01992812575587e-09 2.5949094202316e-08 3.3777905413928e-08 4.53252383995833e-09 6.79119038428011e-10 2.08200210449373e-09
"496" 21688 6.32715311201715e-09 2.29535953710629e-09 7.02548514686897e-09 2.58777233757526e-08 3.37688021562268e-08 4.53280753345844e-09 6.84251061985358e-10 2.08200210449373e-09
"497" 21689 6.33149572720552e-09 2.29606149535969e-09 7.03104216798207e-09 2.58063525491892e-08 3.37596988985256e-08 4.53309122695854e-09 6.89383085542704e-10 2.08200210449373e-09
"498" 21690 6.33583834239389e-09 2.29676345361309e-09 7.03659918909517e-09 2.57349817226257e-08 3.37505956408243e-08 4.53337492045865e-09 6.94515109100051e-10 2.08200210449373e-09
"499" 21691 6.35482532018726e-09 2.29866612323711e-09 7.03598825086898e-09 2.56674920514146e-08 3.37501871106519e-08 4.5453541532397e-09 6.93751995970908e-10 2.08166385324675e-09
"500" 21692 6.37597937849418e-09 2.30492818917804e-09 7.05067646148596e-09 2.56592907263753e-08 3.37914224391419e-08 4.55141698249727e-09 6.929589159351e-10 2.0840349190197e-09
"501" 21693 6.3971334368011e-09 2.31119025511897e-09 7.06536467210295e-09 2.56510894013361e-08 3.38326577676318e-08 4.55747981175484e-09 6.92165835899293e-10 2.08640598479265e-09
"502" 21694 6.41828749510801e-09 2.3174523210599e-09 7.08005288271993e-09 2.56428880762968e-08 3.38738930961218e-08 4.56354264101241e-09 6.91372755863485e-10 2.0887770505656e-09
"503" 21695 6.43944155341493e-09 2.32371438700083e-09 7.09474109333692e-09 2.56346867512575e-08 3.39151284246117e-08 4.56960547026999e-09 6.90579675827677e-10 2.09114811633855e-09
"504" 21696 6.46059561172185e-09 2.32147913050268e-09 7.10432958767284e-09 2.56781309392506e-08 3.38041457229111e-08 4.57154100682389e-09 6.89846529605199e-10 2.09992272170008e-09
"505" 21697 6.48174967002877e-09 2.31924387400453e-09 7.11391808200876e-09 2.57215751272437e-08 3.36931630212104e-08 4.57347654337779e-09 6.89113383382721e-10 2.10869732706161e-09
"506" 21698 6.48187865322551e-09 2.31695331355469e-09 7.0957800478565e-09 2.56869434229857e-08 3.36896088985942e-08 4.57319284987768e-09 6.88380237160243e-10 2.1076321705778e-09
"507" 21699 6.48200763642225e-09 2.31466275310485e-09 7.07764201370423e-09 2.56523117187277e-08 3.3686054775978e-08 4.57290915637758e-09 6.87647090937765e-10 2.10656701409399e-09
"508" 21700 6.48213661961899e-09 2.31237219265501e-09 7.05950397955196e-09 2.56176800144697e-08 3.36825006533618e-08 4.57262546287747e-09 6.86913944715287e-10 2.10550185761018e-09
"509" 21701 6.48226560281573e-09 2.31008163220517e-09 7.04136594539969e-09 2.55830483102117e-08 3.36789465307456e-08 4.57234176937736e-09 6.86180798492809e-10 2.10443670112637e-09
"510" 21702 6.48239458601246e-09 2.30779107175533e-09 7.02322791124743e-09 2.55484166059537e-08 3.36753924081294e-08 4.57205807587726e-09 6.85447652270331e-10 2.10337154464255e-09
"511" 21703 6.4825235692092e-09 2.3055005113055e-09 7.00508987709516e-09 2.55137849016957e-08 3.36718382855132e-08 4.57177438237715e-09 6.84714506047853e-10 2.10230638815874e-09
"512" 21704 6.48265255240595e-09 2.30320995085566e-09 6.98695184294289e-09 2.54791531974376e-08 3.3668284162897e-08 4.57149068887704e-09 6.83981359825375e-10 2.10124123167493e-09
"513" 21705 6.48278153560268e-09 2.30091939040582e-09 6.96881380879062e-09 2.54445214931796e-08 3.36647300402808e-08 4.57120699537694e-09 6.83248213602897e-10 2.10017607519112e-09
"514" 21706 6.48291051879942e-09 2.29862882995598e-09 6.95067577463836e-09 2.54098897889216e-08 3.36611759176646e-08 4.57092330187683e-09 6.82515067380418e-10 2.09911091870731e-09
"515" 21707 6.48303950199616e-09 2.29633826950614e-09 6.93253774048609e-09 2.53752580846636e-08 3.36576217950484e-08 4.57063960837672e-09 6.8178192115794e-10 2.0980457622235e-09
"516" 21708 6.4831684851929e-09 2.2940477090563e-09 6.91439970633382e-09 2.53406263804056e-08 3.36540676724322e-08 4.57035591487662e-09 6.81048774935462e-10 2.09698060573968e-09
"517" 21709 6.48329746838964e-09 2.29175714860646e-09 6.89626167218155e-09 2.53059946761476e-08 3.3650513549816e-08 4.57007222137651e-09 6.80315628712984e-10 2.09591544925587e-09
"518" 21710 6.48342645158638e-09 2.28946658815662e-09 6.87812363802928e-09 2.52713629718896e-08 3.36469594271998e-08 4.5697885278764e-09 6.79582482490506e-10 2.09485029277206e-09
"519" 21711 6.48355543478312e-09 2.28717602770678e-09 6.85998560387702e-09 2.52367312676316e-08 3.36434053045836e-08 4.5695048343763e-09 6.78849336268028e-10 2.09378513628825e-09
"520" 21712 6.48368441797986e-09 2.28488546725694e-09 6.84184756972475e-09 2.52020995633736e-08 3.36398511819674e-08 4.56922114087619e-09 6.7811619004555e-10 2.09271997980444e-09
"521" 21713 6.50741814022157e-09 2.29401092455117e-09 6.8122589380193e-09 2.51785492972795e-08 3.36352681277189e-08 4.56915250699318e-09 6.81198609468786e-10 2.09772011166222e-09
"522" 21714 6.52434138686711e-09 2.30387512460393e-09 6.78267030631386e-09 2.51854862461108e-08 3.36626954959164e-08 4.5699349536105e-09 6.81198609468786e-10 2.09693815686171e-09
"523" 21715 6.54126463351264e-09 2.31373932465669e-09 6.75308167460841e-09 2.51924231949421e-08 3.3690122864114e-08 4.57071740022781e-09 6.81198609468786e-10 2.0961562020612e-09
"524" 21716 6.55818788015817e-09 2.32360352470945e-09 6.72349304290297e-09 2.51993601437734e-08 3.37175502323115e-08 4.57149984684512e-09 6.81198609468786e-10 2.09537424726069e-09
"525" 21717 6.57511112680371e-09 2.33346772476221e-09 6.69390441119752e-09 2.52062970926047e-08 3.37449776005091e-08 4.57228229346244e-09 6.81198609468786e-10 2.09459229246018e-09
"526" 21718 6.59203437344924e-09 2.34333192481497e-09 6.66431577949208e-09 2.5213234041436e-08 3.37724049687066e-08 4.57306474007975e-09 6.81198609468786e-10 2.09381033765967e-09
"527" 21719 6.60771932713663e-09 2.35945819080867e-09 6.65939898514383e-09 2.45799685109849e-08 3.18546252230963e-08 4.56215164741612e-09 6.82166148796535e-10 2.08491303248505e-09
"528" 21720 6.53690511000172e-09 2.36019693356719e-09 6.65402488596355e-09 2.45919947885871e-08 3.18278182563587e-08 4.5608704476816e-09 6.83133688124285e-10 2.07321355866968e-09
"529" 21721 6.46609089286681e-09 2.36093567632572e-09 6.64865078678326e-09 2.46040210661894e-08 3.1801011289621e-08 4.55958924794708e-09 6.84101227452034e-10 2.0615140848543e-09
"530" 21722 6.39527667573189e-09 2.36167441908425e-09 6.64327668760298e-09 2.46160473437916e-08 3.17742043228833e-08 4.55830804821256e-09 6.85068766779783e-10 2.04981461103893e-09
"531" 21723 6.32446245859698e-09 2.36241316184278e-09 6.63790258842269e-09 2.46280736213939e-08 3.17473973561457e-08 4.55702684847804e-09 6.86036306107532e-10 2.03811513722355e-09
"532" 21724 6.25364824146206e-09 2.3631519046013e-09 6.63252848924241e-09 2.46400998989962e-08 3.1720590389408e-08 4.55574564874352e-09 6.87003845435281e-10 2.02641566340817e-09
"533" 21725 6.18283402432715e-09 2.36389064735983e-09 6.62715439006212e-09 2.46521261765984e-08 3.16937834226703e-08 4.554464449009e-09 6.8797138476303e-10 2.0147161895928e-09
"534" 21726 6.11201980719223e-09 2.36462939011836e-09 6.62178029088184e-09 2.46641524542007e-08 3.16669764559327e-08 4.55318324927448e-09 6.8893892409078e-10 2.00301671577742e-09
"535" 21727 6.04120559005732e-09 2.36536813287689e-09 6.61640619170155e-09 2.4676178731803e-08 3.1640169489195e-08 4.55190204953996e-09 6.89906463418529e-10 1.99131724196204e-09
"536" 21728 5.9703913729224e-09 2.36610687563541e-09 6.61103209252126e-09 2.46882050094052e-08 3.16133625224573e-08 4.55062084980544e-09 6.90874002746278e-10 1.97961776814667e-09
"537" 21729 5.89957715578749e-09 2.36684561839394e-09 6.60565799334098e-09 2.47002312870075e-08 3.15865555557197e-08 4.54933965007092e-09 6.91841542074027e-10 1.96791829433129e-09
"538" 21730 5.82876293865258e-09 2.36758436115247e-09 6.60028389416069e-09 2.47122575646098e-08 3.1559748588982e-08 4.54805845033640e-09 6.92809081401776e-10 1.95621882051591e-09
"539" 21731 5.84492946578742e-09 2.34116896538706e-09 6.58504691774526e-09 2.4081914579202e-08 3.11615743147149e-08 4.48473512038727e-09 6.84888965339794e-10 1.95415615779769e-09
"540" 21732 5.86109599292227e-09 2.31475356962166e-09 6.56980994132982e-09 2.34515715937943e-08 3.07634000404479e-08 4.42141179043815e-09 6.76968849277812e-10 1.95209349507946e-09
"541" 21733 5.87726252005712e-09 2.28833817385625e-09 6.55457296491439e-09 2.28212286083866e-08 3.03652257661808e-08 4.35808846048902e-09 6.6904873321583e-10 1.95003083236124e-09
"542" 21734 5.89342904719197e-09 2.26192277809084e-09 6.53933598849896e-09 2.21908856229789e-08 2.99670514919137e-08 4.2947651305399e-09 6.61128617153848e-10 1.94796816964301e-09
"543" 21735 5.89618077917148e-09 2.21947345917656e-09 6.52391609015071e-09 2.15268416287786e-08 2.95966583717185e-08 4.2423548932544e-09 6.54530301151545e-10 1.95168759358308e-09
"544" 21736 5.89893251115099e-09 2.17702414026228e-09 6.50849619180246e-09 2.08627976345783e-08 2.92262652515233e-08 4.1899446559689e-09 6.47931985149242e-10 1.95540701752314e-09
"545" 21737 5.90643098757885e-09 2.1540632318122e-09 6.54759401662392e-09 2.0359253882513e-08 2.88092640603939e-08 4.129407943074e-09 6.4133366914694e-10 1.95691587756047e-09
"546" 21738 5.91392946400671e-09 2.13110232336211e-09 6.58669184144539e-09 1.98557101304477e-08 2.83922628692645e-08 4.0688712301791e-09 6.34735353144637e-10 1.9584247375978e-09
"547" 21739 5.85216152166053e-09 2.1470809425593e-09 6.63794266301265e-09 1.99951538720746e-08 2.8360181489525e-08 4.06026431738865e-09 6.35997219390987e-10 1.93247697481733e-09
"548" 21740 5.79039357931434e-09 2.16305956175649e-09 6.6891934845799e-09 2.01345976137016e-08 2.83281001097855e-08 4.0516574045982e-09 6.37259085637337e-10 1.90652921203686e-09
"549" 21741 5.72862563696816e-09 2.17903818095367e-09 6.74044430614715e-09 2.02740413553285e-08 2.82960187300461e-08 4.04305049180775e-09 6.38520951883686e-10 1.88058144925638e-09
"550" 21742 5.66685769462198e-09 2.19501680015086e-09 6.7916951277144e-09 2.04134850969554e-08 2.82639373503066e-08 4.03444357901729e-09 6.39782818130036e-10 1.85463368647591e-09
"551" 21743 5.6050897522758e-09 2.21099541934805e-09 6.84294594928165e-09 2.05529288385823e-08 2.82318559705671e-08 4.02583666622684e-09 6.41044684376386e-10 1.82868592369543e-09
"552" 21744 5.54332180992962e-09 2.22697403854524e-09 6.89419677084891e-09 2.06923725802093e-08 2.81997745908277e-08 4.01722975343639e-09 6.42306550622736e-10 1.80273816091496e-09
"553" 21745 5.48155386758344e-09 2.24295265774242e-09 6.94544759241616e-09 2.08318163218362e-08 2.81676932110882e-08 4.00862284064594e-09 6.43568416869086e-10 1.77679039813448e-09
"554" 21746 5.41978592523726e-09 2.25893127693961e-09 6.99669841398341e-09 2.09712600634631e-08 2.81356118313487e-08 4.00001592785549e-09 6.44830283115436e-10 1.75084263535401e-09
"555" 21747 5.35051950646322e-09 2.25532914282778e-09 6.99490704758998e-09 2.09435547000567e-08 2.80912187506685e-08 3.9877713175105e-09 6.46092149361786e-10 1.72489487257353e-09
"556" 21748 5.28125308768918e-09 2.25172700871595e-09 6.99311568119655e-09 2.09158493366503e-08 2.80468256699882e-08 3.9755267071655e-09 6.47354015608135e-10 1.69894710979306e-09
"557" 21749 5.21198666891514e-09 2.24812487460412e-09 6.99132431480313e-09 2.08881439732439e-08 2.80024325893079e-08 3.96328209682051e-09 6.48615881854485e-10 1.67299934701259e-09
"558" 21750 5.1427202501411e-09 2.2445227404923e-09 6.9895329484097e-09 2.08604386098375e-08 2.79580395086277e-08 3.95103748647552e-09 6.49877748100835e-10 1.64705158423211e-09
"559" 21751 5.07345383136706e-09 2.24092060638047e-09 6.98774158201627e-09 2.08327332464311e-08 2.79136464279474e-08 3.93879287613053e-09 6.51139614347185e-10 1.62110382145164e-09
"560" 21752 5.00418741259303e-09 2.23731847226864e-09 6.98595021562284e-09 2.08050278830247e-08 2.78692533472672e-08 3.92654826578553e-09 6.52401480593535e-10 1.59515605867116e-09
"561" 21753 4.94722647921292e-09 2.24276771766479e-09 6.98198091482777e-09 2.0856466264866e-08 2.80698342168315e-08 3.92654826578553e-09 6.52341546780205e-10 1.56769943585336e-09
"562" 21754 4.92293373933627e-09 2.25111713891936e-09 6.9761787993541e-09 2.08374574436228e-08 2.83146510400867e-08 3.92702870296658e-09 6.52281612966876e-10 1.56898014377107e-09
"563" 21755 4.89864099945962e-09 2.25946656017394e-09 6.97037668388043e-09 2.08184486223797e-08 2.85594678633419e-08 3.92750914014762e-09 6.52221679153546e-10 1.57026085168879e-09
"564" 21756 4.9115742211675e-09 2.26763129573888e-09 6.96967428468783e-09 2.0874533782664e-08 2.88027570018476e-08 3.93584151740605e-09 6.52924858469359e-10 1.56875199165146e-09
"565" 21757 4.92450744287537e-09 2.27579603130383e-09 6.96897188549522e-09 2.09306189429484e-08 2.90460461403533e-08 3.94417389466447e-09 6.53628037785173e-10 1.56724313161412e-09
"566" 21758 4.93744066458325e-09 2.28396076686877e-09 6.96826948630261e-09 2.09867041032328e-08 2.9289335278859e-08 3.9525062719229e-09 6.54331217100986e-10 1.56573427157679e-09
"567" 21759 4.95037388629113e-09 2.29212550243371e-09 6.96756708711001e-09 2.10427892635171e-08 2.95326244173647e-08 3.96083864918132e-09 6.55034396416799e-10 1.56422541153946e-09
"568" 21760 4.96330710799901e-09 2.30029023799866e-09 6.9668646879174e-09 2.10988744238015e-08 2.97759135558704e-08 3.96917102643975e-09 6.55737575732613e-10 1.56271655150213e-09
"569" 21761 4.97624032970689e-09 2.3084549735636e-09 6.96616228872479e-09 2.11549595840859e-08 3.00192026943761e-08 3.97750340369817e-09 6.56440755048426e-10 1.56120769146479e-09
"570" 21762 4.98917355141476e-09 2.31661970912854e-09 6.96545988953219e-09 2.12110447443702e-08 3.02624918328818e-08 3.9858357809566e-09 6.57143934364239e-10 1.55969883142746e-09
"571" 21763 5.00210677312264e-09 2.32478444469349e-09 6.96475749033958e-09 2.12671299046546e-08 3.05057809713875e-08 3.99416815821502e-09 6.57847113680053e-10 1.55818997139013e-09
"572" 21764 5.01503999483052e-09 2.33294918025843e-09 6.96405509114698e-09 2.1323215064939e-08 3.07490701098932e-08 4.00250053547345e-09 6.58550292995866e-10 1.5566811113528e-09
"573" 21765 5.0279732165384e-09 2.34111391582338e-09 6.96335269195437e-09 2.13793002252233e-08 3.09923592483989e-08 4.01083291273187e-09 6.59253472311679e-10 1.55517225131547e-09
"574" 21766 5.04090643824628e-09 2.34927865138832e-09 6.96265029276176e-09 2.14353853855077e-08 3.12356483869046e-08 4.0191652899903e-09 6.59956651627492e-10 1.55366339127813e-09
"575" 21767 5.05383965995415e-09 2.35744338695326e-09 6.96194789356916e-09 2.14914705457921e-08 3.14789375254103e-08 4.02749766724872e-09 6.60659830943306e-10 1.5521545312408e-09
"576" 21768 5.06677288166203e-09 2.36560812251821e-09 6.96124549437655e-09 2.15475557060765e-08 3.1722226663916e-08 4.03583004450715e-09 6.61363010259119e-10 1.55064567120347e-09
"577" 21769 5.07970610336991e-09 2.37377285808315e-09 6.96054309518394e-09 2.16036408663608e-08 3.19655158024218e-08 4.04416242176557e-09 6.62066189574932e-10 1.54913681116614e-09
"578" 21770 5.08218268928619e-09 2.37377285808315e-09 6.96054309518394e-09 2.17477313864308e-08 3.2330779476858e-08 4.04416242176557e-09 6.70689484952728e-10 1.64570921266265e-09
"579" 21771 5.13261701864183e-09 2.37297855698493e-09 6.96174424749376e-09 2.18330779082557e-08 3.2403436251732e-08 4.04609795831947e-09 6.74475083691777e-10 1.658085188972e-09
"580" 21772 5.18305134799747e-09 2.37218425588671e-09 6.96294539980357e-09 2.19184244300806e-08 3.2476093026606e-08 4.04803349487338e-09 6.78260682430827e-10 1.67046116528136e-09
"581" 21773 5.23348567735311e-09 2.37138995478849e-09 6.96414655211338e-09 2.20037709519056e-08 3.254874980148e-08 4.04996903142728e-09 6.82046281169876e-10 1.68283714159071e-09
"582" 21774 5.26031526766377e-09 2.36298497519423e-09 6.9575505764807e-09 2.21023134019283e-08 3.2621406576354e-08 4.05217910351321e-09 6.83806900533433e-10 1.69029323697739e-09
"583" 21775 5.30964028725801e-09 2.36117464841503e-09 6.94775843606938e-09 2.21710992732865e-08 3.26895117223774e-08 4.05610049456786e-09 6.8556751989699e-10 1.7063083862917e-09
"584" 21776 5.35896530685224e-09 2.35936432163584e-09 6.93796629565805e-09 2.22398851446447e-08 3.27576168684008e-08 4.0600218856225e-09 6.87328139260547e-10 1.72232353560601e-09
"585" 21777 5.40829032644648e-09 2.35755399485664e-09 6.92817415524673e-09 2.23086710160029e-08 3.28257220144241e-08 4.06394327667715e-09 6.89088758624104e-10 1.73833868492032e-09
"586" 21778 5.45761534604072e-09 2.35574366807744e-09 6.91838201483541e-09 2.23774568873611e-08 3.28938271604475e-08 4.0678646677318e-09 6.90849377987661e-10 1.75435383423463e-09
"587" 21779 5.50694036563495e-09 2.35393334129825e-09 6.90858987442408e-09 2.24462427587193e-08 3.29619323064709e-08 4.07178605878645e-09 6.92609997351217e-10 1.77036898354894e-09
"588" 21780 5.55626538522919e-09 2.35212301451905e-09 6.89879773401276e-09 2.25150286300774e-08 3.30300374524943e-08 4.0757074498411e-09 6.94370616714774e-10 1.78638413286325e-09
"589" 21781 5.60559040482342e-09 2.35031268773986e-09 6.88900559360144e-09 2.25838145014356e-08 3.30981425985176e-08 4.07962884089575e-09 6.96131236078331e-10 1.80239928217756e-09
"590" 21782 5.65491542441766e-09 2.34850236096066e-09 6.87921345319011e-09 2.26526003727938e-08 3.3166247744541e-08 4.0835502319504e-09 6.97891855441888e-10 1.81841443149187e-09
"591" 21783 5.70424044401189e-09 2.34669203418146e-09 6.86942131277879e-09 2.2721386244152e-08 3.32343528905644e-08 4.08747162300505e-09 6.99652474805445e-10 1.83442958080618e-09
"592" 21784 5.75356546360613e-09 2.34488170740227e-09 6.85962917236747e-09 2.27901721155102e-08 3.33024580365878e-08 4.0913930140597e-09 7.01413094169001e-10 1.85044473012049e-09
"593" 21785 5.80289048320037e-09 2.34307138062307e-09 6.84983703195614e-09 2.28589579868684e-08 3.33705631826111e-08 4.09531440511435e-09 7.03173713532558e-10 1.8664598794348e-09
"594" 21786 5.8522155027946e-09 2.34126105384388e-09 6.84004489154482e-09 2.29277438582266e-08 3.34386683286345e-08 4.099235796169e-09 7.04934332896115e-10 1.88247502874911e-09
"595" 21787 5.90017324623396e-09 2.34126105384388e-09 6.83290015011369e-09 2.29580168699745e-08 3.34962053830029e-08 4.10501493192646e-09 7.08719931635165e-10 1.89849017806342e-09
"596" 21788 5.94813098967331e-09 2.34126105384388e-09 6.82575540868256e-09 2.29882898817224e-08 3.35537424373713e-08 4.11079406768393e-09 7.12505530374214e-10 1.91450532737773e-09
"597" 21789 5.99608873311267e-09 2.34126105384388e-09 6.81861066725143e-09 2.30185628934703e-08 3.36112794917397e-08 4.11657320344139e-09 7.16291129113264e-10 1.93052047669204e-09
"598" 21790 6.04404647655202e-09 2.34126105384388e-09 6.8114659258203e-09 2.30488359052182e-08 3.36688165461081e-08 4.12235233919886e-09 7.20076727852313e-10 1.94653562600635e-09
"599" 21791 6.09200421999138e-09 2.34126105384388e-09 6.80432118438917e-09 2.30791089169661e-08 3.37263536004765e-08 4.12813147495632e-09 7.23862326591363e-10 1.96255077532066e-09
"600" 21792 6.10851461186846e-09 2.35022009050704e-09 6.97809947964867e-09 2.31935411199772e-08 3.37849905437706e-08 4.13197507415988e-09 7.23862326591363e-10 1.96618994832562e-09
"601" 21793 6.14037454685198e-09 2.35082970591562e-09 6.98945861623544e-09 2.31171265594524e-08 3.38125790922064e-08 4.13403872051172e-09 7.27528057703753e-10 1.96811731054505e-09
"602" 21794 6.17223448183549e-09 2.35143932132421e-09 7.00081775282221e-09 2.30407119989276e-08 3.38401676406422e-08 4.13610236686355e-09 7.31193788816144e-10 1.97004467276448e-09
"603" 21795 6.204094416819e-09 2.3520489367328e-09 7.01217688940898e-09 2.29642974384028e-08 3.38677561890779e-08 4.13816601321539e-09 7.34859519928534e-10 1.97197203498391e-09
"604" 21796 6.21241833143655e-09 2.35265855214138e-09 7.03249285796289e-09 2.29671213487381e-08 3.37119688238686e-08 4.13174169860662e-09 7.38525251040924e-10 1.96165872139278e-09
"605" 21797 6.2207422460541e-09 2.35326816754997e-09 7.0528088265168e-09 2.29699452590735e-08 3.35561814586593e-08 4.12531738399786e-09 7.42190982153315e-10 1.95134540780165e-09
"606" 21798 6.22906616067166e-09 2.35387778295856e-09 7.07312479507071e-09 2.29727691694088e-08 3.34003940934499e-08 4.11889306938909e-09 7.45856713265705e-10 1.94103209421052e-09
"607" 21799 6.2373900752892e-09 2.35448739836714e-09 7.09344076362463e-09 2.29755930797442e-08 3.32446067282406e-08 4.11246875478033e-09 7.49522444378096e-10 1.93071878061939e-09
"608" 21800 6.24571398990676e-09 2.35509701377573e-09 7.11375673217854e-09 2.29784169900795e-08 3.30888193630313e-08 4.10604444017156e-09 7.53188175490486e-10 1.92040546702827e-09
"609" 21801 6.2540379045243e-09 2.35570662918432e-09 7.13407270073245e-09 2.29812409004149e-08 3.29330319978219e-08 4.09962012556279e-09 7.56853906602877e-10 1.91009215343714e-09
"610" 21802 6.26236181914186e-09 2.3563162445929e-09 7.15438866928636e-09 2.29840648107502e-08 3.27772446326126e-08 4.09319581095403e-09 7.60519637715267e-10 1.89977883984601e-09
"611" 21803 6.27068573375941e-09 2.35692586000149e-09 7.17470463784027e-09 2.29868887210856e-08 3.26214572674033e-08 4.08677149634526e-09 7.64185368827657e-10 1.88946552625488e-09
"612" 21804 6.2453008637911e-09 2.35873618678069e-09 7.17549849799929e-09 2.30574271137893e-08 3.24801965933887e-08 4.07828353538466e-09 7.63921008815721e-10 1.88086402344928e-09
"613" 21805 6.2199159938228e-09 2.36054651355988e-09 7.1762923581583e-09 2.3127965506493e-08 3.23389359193741e-08 4.06979557442406e-09 7.63656648803785e-10 1.87226252064368e-09
"614" 21806 6.1945311238545e-09 2.36235684033908e-09 7.17708621831732e-09 2.31985038991966e-08 3.21976752453595e-08 4.06130761346347e-09 7.6339228879185e-10 1.86366101783807e-09
"615" 21807 6.1691462538862e-09 2.36416716711827e-09 7.17788007847633e-09 2.32690422919003e-08 3.20564145713449e-08 4.05281965250287e-09 7.63127928779914e-10 1.85505951503247e-09
"616" 21808 6.1437613839179e-09 2.36597749389747e-09 7.17867393863535e-09 2.3339580684604e-08 3.19151538973304e-08 4.04433169154227e-09 7.62863568767978e-10 1.84645801222687e-09
"617" 21809 6.1183765139496e-09 2.36778782067667e-09 7.17946779879436e-09 2.34101190773077e-08 3.17738932233158e-08 4.03584373058167e-09 7.62599208756042e-10 1.83785650942126e-09
"618" 21810 6.14198125299457e-09 2.37198105075052e-09 7.14979627051858e-09 2.32429314494512e-08 3.20782938050503e-08 4.04689409101131e-09 7.8266920107098e-10 1.87721555680264e-09
"619" 21811 6.16558599203954e-09 2.37617428082437e-09 7.12012474224281e-09 2.30757438215947e-08 3.23826943867847e-08 4.05794445144095e-09 8.02739193385919e-10 1.91657460418402e-09
"620" 21812 6.15782082370973e-09 2.36527579003207e-09 7.04727749859193e-09 2.31048259667877e-08 3.27587623436565e-08 4.06386085496443e-09 8.22839152607522e-10 1.94582328872246e-09
"621" 21813 6.15005565537992e-09 2.35437729923977e-09 6.97443025494105e-09 2.31339081119807e-08 3.31348303005282e-08 4.0697772584879e-09 8.42939111829125e-10 1.9750719732609e-09
"622" 21814 6.1422904870501e-09 2.34347880844747e-09 6.90158301129017e-09 2.31629902571736e-08 3.35108982574e-08 4.07569366201138e-09 8.63039071050729e-10 2.00432065779934e-09
"623" 21815 6.13452531872029e-09 2.33258031765517e-09 6.82873576763929e-09 2.31920724023666e-08 3.38869662142717e-08 4.08161006553486e-09 8.83139030272332e-10 2.03356934233778e-09
"624" 21816 6.12676015039048e-09 2.32168182686287e-09 6.75588852398842e-09 2.32211545475596e-08 3.42630341711434e-08 4.08752646905834e-09 9.03238989493935e-10 2.06281802687622e-09
"625" 21817 6.11899498206067e-09 2.31078333607057e-09 6.68304128033754e-09 2.32502366927525e-08 3.46391021280152e-08 4.09344287258181e-09 9.23338948715538e-10 2.09206671141466e-09
"626" 21818 6.11122981373085e-09 2.29988484527828e-09 6.61019403668666e-09 2.32793188379455e-08 3.50151700848869e-08 4.09935927610529e-09 9.43438907937142e-10 2.12131539595311e-09
"627" 21819 6.10346464540104e-09 2.28898635448598e-09 6.53734679303578e-09 2.33084009831385e-08 3.53912380417586e-08 4.10527567962877e-09 9.63538867158745e-10 2.15056408049155e-09
"628" 21820 6.09569947707123e-09 2.27808786369368e-09 6.4644995493849e-09 2.33374831283315e-08 3.57673059986304e-08 4.11119208315224e-09 9.83638826380348e-10 2.17981276502999e-09
"629" 21821 6.08793430874141e-09 2.26718937290138e-09 6.39165230573402e-09 2.33665652735244e-08 3.61433739555021e-08 4.11710848667572e-09 1.00373878560195e-09 2.20906144956843e-09
"630" 21822 6.0801691404116e-09 2.25629088210908e-09 6.31880506208315e-09 2.33956474187174e-08 3.65194419123738e-08 4.1230248901992e-09 1.02383874482355e-09 2.23831013410687e-09
"631" 21823 6.07240397208179e-09 2.24539239131678e-09 6.24595781843227e-09 2.34247295639104e-08 3.68955098692456e-08 4.12894129372268e-09 1.04393870404516e-09 2.26755881864531e-09
"632" 21824 6.06463880375197e-09 2.23449390052448e-09 6.17311057478139e-09 2.34538117091033e-08 3.72715778261173e-08 4.13485769724615e-09 1.06403866326676e-09 2.29680750318375e-09
"633" 21825 6.05687363542216e-09 2.22359540973218e-09 6.10026333113051e-09 2.34828938542963e-08 3.76476457829891e-08 4.14077410076963e-09 1.08413862248836e-09 2.3260561877222e-09
"634" 21826 6.04910846709235e-09 2.21269691893988e-09 6.02741608747963e-09 2.35119759994893e-08 3.80237137398608e-08 4.14669050429311e-09 1.10423858170997e-09 2.35530487226064e-09
"635" 21827 6.02208117490594e-09 2.18201446970237e-09 5.97016309971374e-09 2.3499949721887e-08 3.80168214191647e-08 4.14062767503554e-09 1.10497172793245e-09 2.34891393335777e-09
"636" 21828 5.9913390038451e-09 2.15133202046486e-09 5.92698738433864e-09 2.34820964072665e-08 3.80055031712095e-08 4.16436192301245e-09 1.10497172793245e-09 2.36173361322064e-09
"637" 21829 5.96059683278426e-09 2.12064957122735e-09 5.88381166896354e-09 2.34642430926459e-08 3.79941849232543e-08 4.18809617098937e-09 1.10497172793245e-09 2.37455329308352e-09
"638" 21830 5.92985466172342e-09 2.08996712198984e-09 5.84063595358844e-09 2.34463897780254e-08 3.79828666752991e-08 4.21183041896628e-09 1.10497172793245e-09 2.38737297294639e-09
"639" 21831 5.89911249066258e-09 2.05928467275233e-09 5.79746023821334e-09 2.34285364634048e-08 3.79715484273439e-08 4.2355646669432e-09 1.10497172793245e-09 2.40019265280927e-09
"640" 21832 5.8994994402528e-09 2.05908146761614e-09 5.82683665944731e-09 2.34370081944109e-08 3.7963752876607e-08 4.24485339045728e-09 1.10300668237028e-09 2.42134323448015e-09
"641" 21833 5.88719395485887e-09 2.05527612836811e-09 5.83672026082504e-09 2.3238068975421e-08 3.78897762350221e-08 4.27052317498809e-09 1.10324107547555e-09 2.44276441714863e-09
"642" 21834 5.87488846946494e-09 2.05147078912009e-09 5.84660386220278e-09 2.30391297564312e-08 3.78157995934373e-08 4.29619295951891e-09 1.10347546858082e-09 2.46418559981711e-09
"643" 21835 5.86258298407101e-09 2.04766544987206e-09 5.85648746358051e-09 2.28401905374414e-08 3.77418229518524e-08 4.32186274404973e-09 1.1037098616861e-09 2.48560678248558e-09
"644" 21836 5.85027749867708e-09 2.04386011062404e-09 5.86637106495824e-09 2.26412513184515e-08 3.76678463102675e-08 4.34753252858055e-09 1.10394425479137e-09 2.50702796515406e-09
"645" 21837 5.83797201328315e-09 2.04005477137602e-09 5.87625466633597e-09 2.24423120994617e-08 3.75938696686827e-08 4.37320231311137e-09 1.10417864789664e-09 2.52844914782254e-09
"646" 21838 5.82566652788922e-09 2.03624943212799e-09 5.8861382677137e-09 2.22433728804719e-08 3.75198930270978e-08 4.39887209764219e-09 1.10441304100191e-09 2.54987033049102e-09
"647" 21839 5.81336104249528e-09 2.03244409287997e-09 5.89602186909143e-09 2.20444336614821e-08 3.7445916385513e-08 4.424541882173e-09 1.10464743410718e-09 2.5712915131595e-09
"648" 21840 5.80105555710135e-09 2.02863875363194e-09 5.90590547046916e-09 2.18454944424922e-08 3.73719397439281e-08 4.45021166670382e-09 1.10488182721245e-09 2.59271269582797e-09
"649" 21841 5.78875007170742e-09 2.02483341438392e-09 5.9157890718469e-09 2.16465552235024e-08 3.72979631023433e-08 4.47588145123464e-09 1.10511622031772e-09 2.61413387849645e-09
"650" 21842 5.77644458631349e-09 2.0210280751359e-09 5.92567267322463e-09 2.14476160045126e-08 3.72239864607584e-08 4.50155123576546e-09 1.10535061342299e-09 2.63555506116493e-09
"651" 21843 5.76413910091956e-09 2.01722273588787e-09 5.93555627460236e-09 2.12486767855228e-08 3.71500098191735e-08 4.52722102029628e-09 1.10558500652826e-09 2.65697624383341e-09
"652" 21844 5.75183361552563e-09 2.01341739663985e-09 5.94543987598009e-09 2.10497375665329e-08 3.70760331775887e-08 4.55289080482709e-09 1.10581939963354e-09 2.67839742650188e-09
"653" 21845 5.7395281301317e-09 2.00961205739182e-09 5.95532347735782e-09 2.08507983475431e-08 3.70020565360038e-08 4.57856058935791e-09 1.10605379273881e-09 2.69981860917036e-09
"654" 21846 5.73465240248661e-09 2.00360850053878e-09 5.98288780805578e-09 2.08592700785492e-08 3.69291797833447e-08 4.60601032674046e-09 1.10602382583214e-09 2.72295160262436e-09
"655" 21847 5.73585633610525e-09 2.00407021476286e-09 5.98495355734843e-09 2.08630317563364e-08 3.68548381967318e-08 4.60472912700594e-09 1.10968955694453e-09 2.72493401440748e-09
"656" 21848 5.73706026972389e-09 2.00453192898694e-09 5.98701930664109e-09 2.08667934341236e-08 3.67804966101189e-08 4.60344792727142e-09 1.11335528805692e-09 2.7269164261906e-09
"657" 21849 5.75516154480983e-09 2.00453192898694e-09 6.01458363733904e-09 2.1231006223243e-08 3.69063354693956e-08 4.61356025738157e-09 1.11309092804499e-09 2.7545759997566e-09
"658" 21850 5.77326281989578e-09 2.00453192898694e-09 6.042147968037e-09 2.15952190123624e-08 3.70321743286723e-08 4.62367258749172e-09 1.11282656803305e-09 2.7822355733226e-09
"659" 21851 5.79136409498172e-09 2.00453192898694e-09 6.06971229873496e-09 2.19594318014818e-08 3.71580131879491e-08 4.63378491760187e-09 1.11256220802111e-09 2.8098951468886e-09
"660" 21852 5.80946537006766e-09 2.00453192898694e-09 6.09727662943292e-09 2.23236445906012e-08 3.72838520472258e-08 4.64389724771203e-09 1.11229784800918e-09 2.8375547204546e-09
"661" 21853 5.8275666451536e-09 2.00453192898694e-09 6.12484096013088e-09 2.26878573797206e-08 3.74096909065025e-08 4.65400957782218e-09 1.11203348799724e-09 2.8652142940206e-09
"662" 21854 5.84869479828229e-09 2.00128090119581e-09 6.07289133472145e-09 2.30673137763026e-08 3.76084065184383e-08 4.66554037543287e-09 1.11100601485616e-09 2.88861324165135e-09
"663" 21855 5.86982295141098e-09 1.99802987340468e-09 6.02094170931202e-09 2.34467701728847e-08 3.78071221303742e-08 4.67707117304355e-09 1.10997854171509e-09 2.9120121892821e-09
"664" 21856 5.89095110453967e-09 1.99477884561356e-09 5.9689920839026e-09 2.38262265694668e-08 3.800583774231e-08 4.68860197065424e-09 1.10895106857401e-09 2.93541113691286e-09
"665" 21857 5.91207925766836e-09 1.99152781782243e-09 5.91704245849317e-09 2.42056829660489e-08 3.82045533542459e-08 4.70013276826492e-09 1.10792359543293e-09 2.95881008454361e-09
"666" 21858 5.93320741079705e-09 1.98827679003131e-09 5.86509283308374e-09 2.45851393626309e-08 3.84032689661817e-08 4.71166356587561e-09 1.10689612229185e-09 2.98220903217436e-09
"667" 21859 5.95433556392574e-09 1.98502576224018e-09 5.81314320767432e-09 2.4964595759213e-08 3.86019845781176e-08 4.7231943634863e-09 1.10586864915077e-09 3.00560797980512e-09
"668" 21860 5.97546371705442e-09 1.98177473444905e-09 5.76119358226489e-09 2.53440521557951e-08 3.88007001900534e-08 4.73472516109698e-09 1.10484117600969e-09 3.02900692743587e-09
"669" 21861 5.97849059509717e-09 1.9844164012196e-09 5.69147176656883e-09 2.55241476259164e-08 3.88836858131459e-08 4.75003092402822e-09 1.10404809597388e-09 3.02900692743587e-09
"670" 21862 5.97849059509717e-09 1.97536502171162e-09 5.64052821178989e-09 2.57042430960377e-08 3.89336280289112e-08 4.75322934438049e-09 1.10302062283281e-09 3.0236685443311e-09
