"time" "channel1" "channel2" "channel3" "channel4" "channel5" "channel6" "channel7" "channel8"
"1898" 55443 2.27948769431078e-09 2.06888832861319e-09 3.86215994292823e-09 3.05062905802718e-08 2.80804098084518e-07 7.54537664337696e-08 3.81222446224075e-08 6.21849867117301e-08
"1899" 55444 2.28939403797591e-09 2.05699207719848e-09 3.87469950768223e-09 3.06946400422285e-08 2.81298994984876e-07 7.58379069699127e-08 3.81530421058996e-08 6.19196294988254e-08
"1900" 55445 2.29930038164104e-09 2.04509582578376e-09 3.88723907243623e-09 3.08829895041851e-08 2.81793891885235e-07 7.62220475060558e-08 3.81838395893917e-08 6.16542722859207e-08
"1901" 55446 2.3384869963549e-09 2.04574222569747e-09 3.92369806267358e-09 3.09400053599349e-08 2.81947044570864e-07 7.65864529771276e-08 3.83827414981412e-08 6.14229655854849e-08
"1902" 55447 2.37767361106875e-09 2.04638862561118e-09 3.96015705291093e-09 3.09970212156847e-08 2.82100197256493e-07 7.69508584481995e-08 3.85816434068907e-08 6.11916588850491e-08
"1903" 55448 2.4168602257826e-09 2.04703502552489e-09 3.99661604314828e-09 3.10540370714345e-08 2.82253349942123e-07 7.73152639192714e-08 3.87805453156402e-08 6.09603521846132e-08
"1904" 55449 2.45604684049646e-09 2.04768142543861e-09 4.03307503338563e-09 3.11110529271843e-08 2.82406502627752e-07 7.76796693903433e-08 3.89794472243897e-08 6.07290454841774e-08
"1905" 55450 2.49523345521031e-09 2.04832782535232e-09 4.06953402362299e-09 3.11680687829341e-08 2.82559655313381e-07 7.80440748614152e-08 3.91783491331392e-08 6.04977387837416e-08
"1906" 55451 2.53442006992416e-09 2.04897422526603e-09 4.10599301386034e-09 3.12250846386839e-08 2.8271280799901e-07 7.84084803324871e-08 3.93772510418887e-08 6.02664320833058e-08
"1907" 55452 2.57360668463802e-09 2.04962062517974e-09 4.14245200409769e-09 3.12821004944337e-08 2.8286596068464e-07 7.8772885803559e-08 3.95761529506382e-08 6.00351253828699e-08
"1908" 55453 2.61279329935187e-09 2.05026702509345e-09 4.17891099433504e-09 3.13391163501835e-08 2.83019113370269e-07 7.91372912746309e-08 3.97750548593877e-08 5.98038186824341e-08
"1909" 55454 2.65197991406572e-09 2.05091342500716e-09 4.21536998457239e-09 3.13961322059333e-08 2.83172266055898e-07 7.95016967457027e-08 3.99739567681372e-08 5.95725119819983e-08
"1910" 55455 2.69116652877957e-09 2.05155982492088e-09 4.25182897480974e-09 3.14531480616831e-08 2.83325418741527e-07 7.98661022167746e-08 4.01728586768867e-08 5.93412052815625e-08
"1911" 55456 2.73035314349343e-09 2.05220622483459e-09 4.2882879650471e-09 3.15101639174329e-08 2.83478571427157e-07 8.02305076878465e-08 4.03717605856362e-08 5.91098985811266e-08
"1912" 55457 2.76953975820728e-09 2.0528526247483e-09 4.32474695528445e-09 3.15671797731827e-08 2.83631724112786e-07 8.05949131589184e-08 4.05706624943857e-08 5.88785918806908e-08
"1913" 55458 2.80872637292113e-09 2.05349902466201e-09 4.3612059455218e-09 3.16241956289324e-08 2.83784876798415e-07 8.09593186299903e-08 4.07695644031352e-08 5.8647285180255e-08
"1914" 55459 2.84791298763499e-09 2.05414542457572e-09 4.39766493575915e-09 3.16812114846822e-08 2.83938029484044e-07 8.13237241010622e-08 4.09684663118847e-08 5.84159784798191e-08
"1915" 55460 2.88709960234884e-09 2.05479182448943e-09 4.4341239259965e-09 3.1738227340432e-08 2.84091182169674e-07 8.16881295721341e-08 4.11673682206342e-08 5.81846717793833e-08
"1916" 55461 2.92940771896267e-09 2.05543822440314e-09 4.42903277411152e-09 3.15453572764814e-08 2.8405104673011e-07 8.17620823012467e-08 4.13903301466363e-08 5.76284360468404e-08
"1917" 55462 2.91261345551388e-09 2.05035835038626e-09 4.42903277411152e-09 3.14708253228469e-08 2.83706435698269e-07 8.16210495928005e-08 4.13823800636676e-08 5.77317535462165e-08
"1918" 55463 2.92984620756215e-09 2.06214373950960e-09 4.44161378715068e-09 3.14858441191524e-08 2.83538309259969e-07 8.15373918087693e-08 4.13779265946675e-08 5.78626125661664e-08
"1919" 55464 2.94707895961042e-09 2.07392912863293e-09 4.45419480018985e-09 3.15008629154579e-08 2.8337018282167e-07 8.14537340247381e-08 4.13734731256673e-08 5.79934715861163e-08
"1920" 55465 2.96431171165868e-09 2.08571451775627e-09 4.46677581322902e-09 3.15158817117634e-08 2.83202056383371e-07 8.13700762407069e-08 4.13690196566672e-08 5.81243306060661e-08
"1921" 55466 2.98154446370695e-09 2.0974999068796e-09 4.47935682626818e-09 3.15309005080689e-08 2.83033929945072e-07 8.12864184566757e-08 4.1364566187667e-08 5.8255189626016e-08
"1922" 55467 2.99877721575522e-09 2.10928529600294e-09 4.49193783930735e-09 3.15459193043744e-08 2.82865803506773e-07 8.12027606726445e-08 4.13601127186669e-08 5.83860486459659e-08
"1923" 55468 3.01600996780349e-09 2.12107068512627e-09 4.50451885234651e-09 3.15609381006799e-08 2.82697677068474e-07 8.11191028886133e-08 4.13556592496667e-08 5.85169076659158e-08
"1924" 55469 3.03324271985176e-09 2.13285607424961e-09 4.51709986538568e-09 3.15759568969854e-08 2.82529550630174e-07 8.10354451045821e-08 4.13512057806666e-08 5.86477666858656e-08
"1925" 55470 3.05047547190003e-09 2.14464146337294e-09 4.52968087842484e-09 3.15909756932909e-08 2.82361424191875e-07 8.09517873205509e-08 4.13467523116664e-08 5.87786257058155e-08
"1926" 55471 3.0677082239483e-09 2.15642685249628e-09 4.54226189146401e-09 3.16059944895964e-08 2.82193297753576e-07 8.08681295365197e-08 4.13422988426663e-08 5.89094847257654e-08
"1927" 55472 3.08494097599656e-09 2.16821224161962e-09 4.55484290450318e-09 3.16210132859019e-08 2.82025171315277e-07 8.07844717524885e-08 4.13378453736661e-08 5.90403437457152e-08
"1928" 55473 3.09435702070576e-09 2.16747349886109e-09 4.54864565662522e-09 3.15423368429347e-08 2.80142829412544e-07 8.06270762989618e-08 4.13330922355993e-08 5.91595032918497e-08
"1929" 55474 3.11086741258285e-09 2.1770606703794e-09 4.55753175176853e-09 3.15573556392402e-08 2.77208980078587e-07 8.06270762989618e-08 4.13286387665992e-08 5.8849324608869e-08
"1930" 55475 3.12737780445994e-09 2.18664784189771e-09 4.56641784691185e-09 3.15723744355458e-08 2.7427513074463e-07 8.06270762989618e-08 4.1324185297599e-08 5.85391459258883e-08
"1931" 55476 3.14388819633702e-09 2.19623501341603e-09 4.57530394205517e-09 3.15873932318513e-08 2.71341281410673e-07 8.06270762989618e-08 4.13197318285989e-08 5.82289672429075e-08
"1932" 55477 3.16039858821411e-09 2.20582218493434e-09 4.58419003719849e-09 3.16024120281568e-08 2.68407432076716e-07 8.06270762989618e-08 4.13152783595987e-08 5.79187885599268e-08
"1933" 55478 3.17690898009119e-09 2.21540935645265e-09 4.5930761323418e-09 3.16174308244623e-08 2.65473582742759e-07 8.06270762989618e-08 4.13108248905986e-08 5.7608609876946e-08
"1934" 55479 3.19341937196828e-09 2.22499652797096e-09 4.60196222748512e-09 3.16324496207678e-08 2.62539733408802e-07 8.06270762989618e-08 4.13063714215984e-08 5.72984311939653e-08
"1935" 55480 3.20992976384537e-09 2.23458369948927e-09 4.61084832262844e-09 3.16474684170733e-08 2.59605884074845e-07 8.06270762989618e-08 4.13019179525983e-08 5.69882525109846e-08
"1936" 55481 3.22644015572245e-09 2.24417087100759e-09 4.61973441777176e-09 3.16624872133788e-08 2.56672034740888e-07 8.06270762989618e-08 4.12974644835981e-08 5.66780738280038e-08
"1937" 55482 3.24295054759954e-09 2.25558688875166e-09 4.64312580159924e-09 3.17246171498522e-08 2.56339766835385e-07 8.06628492556347e-08 4.13089111805353e-08 5.67728999237017e-08
"1938" 55483 3.24900430368503e-09 2.26471234604589e-09 4.6583542136186e-09 3.17642505292552e-08 2.54634109237736e-07 8.07052890604377e-08 4.13041580424685e-08 5.68979768569933e-08
"1939" 55484 3.24277847955482e-09 2.26471234604589e-09 4.65327522148012e-09 3.17398713652946e-08 2.52833904472353e-07 8.06792166305769e-08 4.13601382592223e-08 5.69043677958962e-08
"1940" 55485 3.23655265542461e-09 2.26471234604589e-09 4.64819622934165e-09 3.17154922013339e-08 2.51033699706971e-07 8.06531442007161e-08 4.14161184759761e-08 5.6910758734799e-08
"1941" 55486 3.22912289767576e-09 2.26425063182181e-09 4.66861581860847e-09 3.19633339777627e-08 2.49657513154412e-07 8.05968034144079e-08 4.14813406088516e-08 5.6913468051819e-08
"1942" 55487 3.22169313992691e-09 2.26378891759773e-09 4.6890354078753e-09 3.22111757541914e-08 2.48281326601854e-07 8.05404626280997e-08 4.15465627417271e-08 5.69161773688389e-08
"1943" 55488 3.21426338217806e-09 2.26332720337365e-09 4.70945499714213e-09 3.24590175306201e-08 2.46905140049295e-07 8.04841218417915e-08 4.16117848746027e-08 5.69188866858588e-08
"1944" 55489 3.20683362442921e-09 2.26286548914957e-09 4.72987458640896e-09 3.27068593070489e-08 2.45528953496737e-07 8.04277810554832e-08 4.16770070074782e-08 5.69215960028788e-08
"1945" 55490 3.19940386668036e-09 2.26240377492549e-09 4.75029417567578e-09 3.29547010834776e-08 2.44152766944179e-07 8.0371440269175e-08 4.17422291403537e-08 5.69243053198987e-08
"1946" 55491 3.19197410893151e-09 2.26194206070141e-09 4.77071376494261e-09 3.32025428599063e-08 2.4277658039162e-07 8.03150994828668e-08 4.18074512732292e-08 5.69270146369187e-08
"1947" 55492 3.18454435118266e-09 2.26148034647733e-09 4.79113335420944e-09 3.34503846363351e-08 2.41400393839062e-07 8.02587586965585e-08 4.18726734061047e-08 5.69297239539386e-08
"1948" 55493 3.17711459343381e-09 2.26101863225325e-09 4.81155294347627e-09 3.36982264127638e-08 2.40024207286504e-07 8.02024179102503e-08 4.19378955389802e-08 5.69324332709585e-08
"1949" 55494 3.16968483568496e-09 2.26055691802917e-09 4.83197253274309e-09 3.39460681891925e-08 2.38648020733945e-07 8.01460771239421e-08 4.20031176718557e-08 5.69351425879785e-08
"1950" 55495 3.16225507793611e-09 2.26009520380509e-09 4.85239212200992e-09 3.41939099656212e-08 2.37271834181387e-07 8.00897363376339e-08 4.20683398047312e-08 5.69378519049984e-08
"1951" 55496 3.15482532018726e-09 2.25963348958101e-09 4.87281171127675e-09 3.444175174205e-08 2.35895647628828e-07 8.00333955513256e-08 4.21335619376067e-08 5.69405612220184e-08
"1952" 55497 3.16008799742256e-09 2.26454719735483e-09 4.90037604197471e-09 3.46329463303014e-08 2.3593897629923e-07 7.96158842444149e-08 4.22229040215481e-08 5.69432705390383e-08
"1953" 55498 3.16535067465787e-09 2.26946090512865e-09 4.92794037267267e-09 3.48241409185528e-08 2.35982304969631e-07 7.91983729375042e-08 4.23122461054895e-08 5.69459798560582e-08
"1954" 55499 3.16472293834392e-09 2.26299563405152e-09 4.92730014590781e-09 3.48332976910101e-08 2.33832954757145e-07 7.90731675891491e-08 4.23278519445082e-08 5.69109789330538e-08
"1955" 55500 3.16409520202997e-09 2.2565303629744e-09 4.92665991914295e-09 3.48424544634674e-08 2.31683604544659e-07 7.89479622407939e-08 4.23434577835269e-08 5.68759780100493e-08
"1956" 55501 3.16346746571602e-09 2.25006509189727e-09 4.92601969237809e-09 3.48516112359247e-08 2.29534254332173e-07 7.88227568924388e-08 4.23590636225456e-08 5.68409770870448e-08
"1957" 55502 3.16283972940208e-09 2.24359982082014e-09 4.92537946561324e-09 3.4860768008382e-08 2.27384904119687e-07 7.86975515440837e-08 4.23746694615643e-08 5.68059761640404e-08
"1958" 55503 3.16221199308813e-09 2.23713454974301e-09 4.92473923884838e-09 3.48699247808393e-08 2.25235553907201e-07 7.85723461957286e-08 4.2390275300583e-08 5.67709752410359e-08
"1959" 55504 3.16829165435185e-09 2.23713454974301e-09 4.92473923884838e-09 3.48550183901124e-08 2.23097737867206e-07 7.84975240701795e-08 4.24058811396017e-08 5.66598932432184e-08
"1960" 55505 3.16753493484117e-09 2.23936980624116e-09 4.91820543564345e-09 3.4792681322448e-08 2.20987938171471e-07 7.84140080820207e-08 4.24096967052474e-08 5.65009687482061e-08
"1961" 55506 3.16677821533048e-09 2.24160506273932e-09 4.91167163243851e-09 3.47303442547836e-08 2.18878138475736e-07 7.8330492093862e-08 4.24135122708931e-08 5.63420442531939e-08
"1962" 55507 3.16602149581979e-09 2.24384031923747e-09 4.90513782923358e-09 3.46680071871192e-08 2.16768338780001e-07 7.82469761057032e-08 4.24173278365388e-08 5.61831197581816e-08
"1963" 55508 3.16526477630911e-09 2.24607557573562e-09 4.89860402602865e-09 3.46056701194548e-08 2.14658539084266e-07 7.81634601175445e-08 4.24211434021845e-08 5.60241952631694e-08
"1964" 55509 3.16450805679842e-09 2.24831083223377e-09 4.89207022282372e-09 3.45433330517903e-08 2.12548739388531e-07 7.80799441293857e-08 4.24249589678303e-08 5.58652707681571e-08
"1965" 55510 3.16375133728773e-09 2.25054608873192e-09 4.88553641961878e-09 3.44809959841259e-08 2.10438939692796e-07 7.7996428141227e-08 4.2428774533476e-08 5.57063462731448e-08
"1966" 55511 3.16299461777705e-09 2.25278134523007e-09 4.87900261641385e-09 3.44186589164615e-08 2.08329139997061e-07 7.79129121530682e-08 4.24325900991217e-08 5.55474217781326e-08
"1967" 55512 3.16223789826636e-09 2.25501660172822e-09 4.87246881320892e-09 3.43563218487971e-08 2.06219340301326e-07 7.78293961649095e-08 4.24364056647674e-08 5.53884972831203e-08
"1968" 55513 3.16148117875567e-09 2.25725185822637e-09 4.86593501000399e-09 3.42939847811327e-08 2.04109540605591e-07 7.77458801767508e-08 4.24402212304131e-08 5.52295727881081e-08
"1969" 55514 3.16072445924499e-09 2.25948711472452e-09 4.85940120679905e-09 3.42316477134683e-08 2.01999740909856e-07 7.7662364188592e-08 4.24440367960588e-08 5.50706482930958e-08
"1970" 55515 3.1599677397343e-09 2.26172237122267e-09 4.85286740359412e-09 3.41693106458039e-08 1.99889941214121e-07 7.75788482004332e-08 4.24478523617045e-08 5.49117237980836e-08
"1971" 55516 3.15921102022361e-09 2.26395762772082e-09 4.84633360038919e-09 3.41069735781395e-08 1.97780141518386e-07 7.74953322122745e-08 4.24516679273503e-08 5.47527993030713e-08
"1972" 55517 3.15845430071293e-09 2.26619288421897e-09 4.83979979718425e-09 3.40446365104751e-08 1.95670341822651e-07 7.74118162241158e-08 4.2455483492996e-08 5.4593874808059e-08
"1973" 55518 3.15769758120224e-09 2.26842814071712e-09 4.83326599397932e-09 3.39822994428107e-08 1.93560542126916e-07 7.7328300235957e-08 4.24592990586417e-08 5.44349503130468e-08
"1974" 55519 3.15694086169156e-09 2.27066339721527e-09 4.82673219077439e-09 3.39199623751462e-08 1.91450742431181e-07 7.72447842477983e-08 4.24631146242874e-08 5.42760258180345e-08
"1975" 55520 3.15505765274972e-09 2.27916071965436e-09 4.82856500545298e-09 3.39186873909586e-08 1.91220212055091e-07 7.72736799265856e-08 4.23860968758909e-08 5.42826575097427e-08
"1976" 55521 3.15505765274972e-09 2.27995502075258e-09 4.829358865612e-09 3.38869920026145e-08 1.91300951262532e-07 7.72433657802977e-08 4.23699623168483e-08 5.43532224520742e-08
"1977" 55522 3.15568538906366e-09 2.27986267790776e-09 4.829358865612e-09 3.38575129019032e-08 1.91683608445275e-07 7.71965424631952e-08 4.23562069979132e-08 5.43610672014508e-08
"1978" 55523 3.15631312537761e-09 2.27977033506294e-09 4.829358865612e-09 3.3828033801192e-08 1.92066265628018e-07 7.71497191460927e-08 4.2342451678978e-08 5.43689119508273e-08
"1979" 55524 3.15694086169156e-09 2.27967799221813e-09 4.829358865612e-09 3.37985547004807e-08 1.9244892281076e-07 7.71028958289901e-08 4.23286963600429e-08 5.43767567002038e-08
"1980" 55525 3.1575685980055e-09 2.27958564937331e-09 4.829358865612e-09 3.37690755997694e-08 1.92831579993503e-07 7.70560725118876e-08 4.23149410411077e-08 5.43846014495803e-08
"1981" 55526 3.15819633431945e-09 2.2794933065285e-09 4.829358865612e-09 3.37395964990581e-08 1.93214237176246e-07 7.70092491947851e-08 4.23011857221726e-08 5.43924461989568e-08
"1982" 55527 3.1588240706334e-09 2.27940096368368e-09 4.829358865612e-09 3.37101173983468e-08 1.93596894358989e-07 7.69624258776825e-08 4.22874304032375e-08 5.44002909483333e-08
"1983" 55528 3.15945180694734e-09 2.27930862083886e-09 4.829358865612e-09 3.36806382976356e-08 1.93979551541731e-07 7.691560256058e-08 4.22736750843023e-08 5.44081356977098e-08
"1984" 55529 3.16007954326129e-09 2.27921627799405e-09 4.829358865612e-09 3.36511591969243e-08 1.94362208724474e-07 7.68687792434775e-08 4.22599197653672e-08 5.44159804470864e-08
"1985" 55530 3.16070727957524e-09 2.27912393514923e-09 4.829358865612e-09 3.3621680096213e-08 1.94744865907217e-07 7.6821955926375e-08 4.2246164446432e-08 5.44238251964629e-08
"1986" 55531 3.16133501588918e-09 2.27903159230442e-09 4.829358865612e-09 3.35922009955017e-08 1.9512752308996e-07 7.67751326092724e-08 4.22324091274969e-08 5.44316699458394e-08
"1987" 55532 3.16209173539987e-09 2.27832963405101e-09 4.82945032657841e-09 3.35959662092822e-08 1.94799912248655e-07 7.64772168864912e-08 4.22087087131243e-08 5.44199406238318e-08
"1988" 55533 3.13911473266884e-09 2.27472749993918e-09 4.82593833061538e-09 3.35295125671286e-08 1.94276881408943e-07 7.627725804647e-08 4.21899305539623e-08 5.37033597410392e-08
"1989" 55534 3.11613772993782e-09 2.27112536582736e-09 4.82242633465234e-09 3.3463058924975e-08 1.93753850569231e-07 7.60772992064488e-08 4.21711523948004e-08 5.29867788582467e-08
"1990" 55535 3.09316072720679e-09 2.26752323171553e-09 4.81891433868931e-09 3.33966052828215e-08 1.9323081972952e-07 7.58773403664275e-08 4.21523742356385e-08 5.22701979754542e-08
"1991" 55536 3.07018372447577e-09 2.2639210976037e-09 4.81540234272628e-09 3.33301516406679e-08 1.92707788889808e-07 7.56773815264063e-08 4.21335960764766e-08 5.15536170926617e-08
"1992" 55537 3.04720672174474e-09 2.26031896349187e-09 4.81189034676325e-09 3.32636979985143e-08 1.92184758050096e-07 7.54774226863851e-08 4.21148179173146e-08 5.08370362098692e-08
"1993" 55538 3.02422971901372e-09 2.25671682938004e-09 4.80837835080022e-09 3.31972443563607e-08 1.91661727210384e-07 7.52774638463638e-08 4.20960397581527e-08 5.01204553270767e-08
"1994" 55539 3.0012527162827e-09 2.25311469526821e-09 4.80486635483718e-09 3.31307907142071e-08 1.91138696370672e-07 7.50775050063426e-08 4.20772615989908e-08 4.94038744442842e-08
"1995" 55540 2.97827571355167e-09 2.24951256115639e-09 4.80135435887415e-09 3.30643370720535e-08 1.9061566553096e-07 7.48775461663213e-08 4.20584834398289e-08 4.86872935614917e-08
"1996" 55541 2.95529871082065e-09 2.24591042704456e-09 4.79784236291112e-09 3.29978834298999e-08 1.90092634691248e-07 7.46775873263001e-08 4.2039705280667e-08 4.79707126786992e-08
"1997" 55542 2.95605543033133e-09 2.24193892155347e-09 4.79723142468492e-09 3.30039773368918e-08 1.90412071876448e-07 7.46565619035263e-08 4.20460146118987e-08 4.78790601581253e-08
"1998" 55543 2.95729372328947e-09 2.25409368205606e-09 4.79662048645872e-09 3.30039773368918e-08 1.90712089115475e-07 7.46513593127372e-08 4.2046249005004e-08 4.78600398894221e-08
"1999" 55544 2.95853201624762e-09 2.26624844255866e-09 4.79600954823252e-09 3.30039773368918e-08 1.91012106354502e-07 7.4646156721948e-08 4.20464833981092e-08 4.78410196207188e-08
"2000" 55545 2.9592887357583e-09 2.26417960669158e-09 4.80110926451359e-09 3.30605085834973e-08 1.91655791863434e-07 7.48250901391954e-08 4.22713718044524e-08 4.77415223507685e-08
"2001" 55546 2.96004545526899e-09 2.2621107708245e-09 4.80620898079465e-09 3.31170398301028e-08 1.92299477372365e-07 7.50040235564429e-08 4.24962602107955e-08 4.76420250808181e-08
"2002" 55547 2.96080217477967e-09 2.26004193495742e-09 4.81130869707571e-09 3.31735710767083e-08 1.92943162881297e-07 7.51829569736904e-08 4.27211486171386e-08 4.75425278108677e-08
"2003" 55548 2.96155889429036e-09 2.25797309909034e-09 4.81640841335677e-09 3.32301023233138e-08 1.93586848390229e-07 7.53618903909378e-08 4.29460370234817e-08 4.74430305409174e-08
"2004" 55549 2.96231561380105e-09 2.25590426322326e-09 4.82150812963783e-09 3.32866335699193e-08 1.9423053389916e-07 7.55408238081853e-08 4.31709254298248e-08 4.7343533270967e-08
"2005" 55550 2.96307233331173e-09 2.25383542735618e-09 4.82660784591889e-09 3.33431648165249e-08 1.94874219408092e-07 7.57197572254327e-08 4.33958138361679e-08 4.72440360010167e-08
"2006" 55551 2.96382905282242e-09 2.2517665914891e-09 4.83170756219995e-09 3.33996960631304e-08 1.95517904917023e-07 7.58986906426802e-08 4.3620702242511e-08 4.71445387310663e-08
"2007" 55552 2.96458577233311e-09 2.24969775562202e-09 4.83680727848101e-09 3.34562273097359e-08 1.96161590425955e-07 7.60776240599276e-08 4.38455906488542e-08 4.70450414611159e-08
"2008" 55553 2.96534249184379e-09 2.24762891975494e-09 4.84190699476207e-09 3.35127585563414e-08 1.96805275934887e-07 7.62565574771751e-08 4.40704790551973e-08 4.69455441911656e-08
"2009" 55554 2.96609921135448e-09 2.24556008388786e-09 4.84700671104313e-09 3.35692898029469e-08 1.97448961443818e-07 7.64354908944225e-08 4.42953674615404e-08 4.68460469212152e-08
"2010" 55555 2.96685593086517e-09 2.24349124802078e-09 4.8521064273242e-09 3.36258210495524e-08 1.9809264695275e-07 7.661442431167e-08 4.45202558678835e-08 4.67465496512649e-08
"2011" 55556 2.95791273409494e-09 2.24469195939139e-09 4.85781708183146e-09 3.36467792884548e-08 1.97186191560407e-07 7.67032115245009e-08 4.47203564528996e-08 4.66260371001424e-08
"2012" 55557 2.95958951565256e-09 2.2791429633718e-09 4.87311623067464e-09 3.3613534973963e-08 1.95568153331147e-07 7.68375316967318e-08 4.49057288375047e-08 4.65939769533215e-08
"2013" 55558 2.96126629721018e-09 2.31359396735221e-09 4.88841537951782e-09 3.35802906594713e-08 1.93950115101888e-07 7.69718518689626e-08 4.50911012221099e-08 4.65619168065007e-08
"2014" 55559 2.94650140556971e-09 2.33969555007804e-09 4.89475769639386e-09 3.35269311479166e-08 1.92943084919854e-07 7.55053119044803e-08 4.45200556136481e-08 4.6378611765353e-08
"2015" 55560 2.93173651392925e-09 2.36579713280388e-09 4.9011000132699e-09 3.34735716363619e-08 1.9193605473782e-07 7.40387719399979e-08 4.39490100051864e-08 4.61953067242053e-08
"2016" 55561 2.91697162228879e-09 2.39189871552971e-09 4.90744233014594e-09 3.34202121248072e-08 1.90929024555786e-07 7.25722319755156e-08 4.33779643967246e-08 4.60120016830576e-08
"2017" 55562 2.89119980273027e-09 2.40325917493409e-09 4.90744233014594e-09 3.3389180561955e-08 1.90016918646259e-07 7.08767093824268e-08 4.26056462377204e-08 4.57484948884813e-08
"2018" 55563 2.86542798317175e-09 2.41461963433847e-09 4.90744233014594e-09 3.33581489991029e-08 1.89104812736733e-07 6.91811867893379e-08 4.18333280787162e-08 4.54849880939049e-08
"2019" 55564 2.83965616361323e-09 2.42598009374285e-09 4.90744233014594e-09 3.33271174362507e-08 1.88192706827206e-07 6.74856641962491e-08 4.1061009919712e-08 4.52214812993286e-08
"2020" 55565 2.81388434405471e-09 2.43734055314723e-09 4.90744233014594e-09 3.32960858733985e-08 1.87280600917679e-07 6.57901416031602e-08 4.02886917607078e-08 4.49579745047522e-08
"2021" 55566 2.78811252449619e-09 2.44870101255161e-09 4.90744233014594e-09 3.32650543105463e-08 1.86368495008153e-07 6.40946190100714e-08 3.95163736017036e-08 4.46944677101759e-08
"2022" 55567 2.76234070493767e-09 2.460061471956e-09 4.90744233014594e-09 3.32340227476941e-08 1.85456389098626e-07 6.23990964169826e-08 3.87440554426994e-08 4.44309609155995e-08
"2023" 55568 2.73656888537915e-09 2.47142193136038e-09 4.90744233014594e-09 3.32029911848419e-08 1.845442831891e-07 6.07035738238937e-08 3.79717372836952e-08 4.41674541210232e-08
"2024" 55569 2.71079706582063e-09 2.48278239076476e-09 4.90744233014594e-09 3.31719596219897e-08 1.83632177279573e-07 5.90080512308049e-08 3.7199419124691e-08 4.39039473264468e-08
"2025" 55570 2.68502524626211e-09 2.49414285016914e-09 4.90744233014594e-09 3.31409280591375e-08 1.82720071370047e-07 5.73125286377161e-08 3.64271009656868e-08 4.36404405318705e-08
"2026" 55571 2.65925342670359e-09 2.50550330957352e-09 4.90744233014594e-09 3.31098964962853e-08 1.8180796546052e-07 5.56170060446272e-08 3.56547828066826e-08 4.33769337372942e-08
"2027" 55572 2.63348160714507e-09 2.5168637689779e-09 4.90744233014594e-09 3.30788649334331e-08 1.80895859550993e-07 5.39214834515384e-08 3.48824646476784e-08 4.31134269427178e-08
"2028" 55573 2.60770978758655e-09 2.52822422838228e-09 4.90744233014594e-09 3.30478333705809e-08 1.79983753641467e-07 5.22259608584495e-08 3.41101464886742e-08 4.28499201481415e-08
"2029" 55574 2.58193796802803e-09 2.53958468778666e-09 4.90744233014594e-09 3.30168018077287e-08 1.7907164773194e-07 5.05304382653607e-08 3.333782832967e-08 4.25864133535651e-08
"2030" 55575 2.55616614846951e-09 2.55094514719104e-09 4.90744233014594e-09 3.29857702448765e-08 1.78159541822414e-07 4.88349156722719e-08 3.25655101706658e-08 4.23229065589888e-08
"2031" 55576 2.53039432891099e-09 2.56230560659543e-09 4.90744233014594e-09 3.29547386820243e-08 1.77247435912887e-07 4.7139393079183e-08 3.17931920116616e-08 4.20593997644124e-08
"2032" 55577 2.50191386222094e-09 2.57911531139596e-09 4.91458707157708e-09 3.29237071191721e-08 1.77297001023878e-07 4.71644588448413e-08 3.18010521939102e-08 4.19970854729538e-08
"2033" 55578 2.47343339553088e-09 2.5976244806843e-09 4.91513583737552e-09 3.2948142485922e-08 1.75853251663558e-07 4.71886735299993e-08 3.17848523589063e-08 4.1409170293715e-08
"2034" 55579 2.47343339553088e-09 2.60067255772724e-09 4.91184821163047e-09 3.30664523082922e-08 1.76798243853422e-07 4.69871361106689e-08 3.18642386631141e-08 4.13537834963336e-08
"2035" 55580 2.47419011504157e-09 2.59193524564683e-09 4.90577171325758e-09 3.30773686740815e-08 1.77211965644019e-07 4.67766302931969e-08 3.18503335096457e-08 4.13180762226429e-08
"2036" 55581 2.47494683455226e-09 2.58319793356643e-09 4.89969521488469e-09 3.30882850398707e-08 1.77625687434615e-07 4.65661244757248e-08 3.18364283561772e-08 4.12823689489522e-08
"2037" 55582 2.47570355406294e-09 2.57446062148603e-09 4.8936187165118e-09 3.309920140566e-08 1.78039409225211e-07 4.63556186582528e-08 3.18225232027087e-08 4.12466616752615e-08
"2038" 55583 2.47646027357363e-09 2.56572330940562e-09 4.88754221813891e-09 3.31101177714493e-08 1.78453131015808e-07 4.61451128407808e-08 3.18086180492403e-08 4.12109544015708e-08
"2039" 55584 2.47721699308432e-09 2.55698599732522e-09 4.88146571976601e-09 3.31210341372385e-08 1.78866852806404e-07 4.59346070233087e-08 3.17947128957718e-08 4.117524712788e-08
"2040" 55585 2.477973712595e-09 2.54824868524482e-09 4.87538922139312e-09 3.31319505030278e-08 1.79280574597001e-07 4.57241012058367e-08 3.17808077423033e-08 4.11395398541893e-08
"2041" 55586 2.47873043210569e-09 2.53951137316442e-09 4.86931272302023e-09 3.3142866868817e-08 1.79694296387597e-07 4.55135953883647e-08 3.17669025888349e-08 4.11038325804986e-08
"2042" 55587 2.47948715161638e-09 2.53077406108401e-09 4.86323622464734e-09 3.31537832346063e-08 1.80108018178194e-07 4.53030895708926e-08 3.17529974353664e-08 4.10681253068079e-08
"2043" 55588 2.48024387112706e-09 2.52203674900361e-09 4.85715972627445e-09 3.31646996003955e-08 1.8052173996879e-07 4.50925837534206e-08 3.17390922818979e-08 4.10324180331172e-08
"2044" 55589 2.48100059063775e-09 2.51329943692321e-09 4.85108322790156e-09 3.31756159661848e-08 1.80935461759387e-07 4.48820779359486e-08 3.17251871284295e-08 4.09967107594265e-08
"2045" 55590 2.48175731014843e-09 2.51293006554394e-09 4.85516471380562e-09 3.32088602806765e-08 1.81400315877619e-07 4.48801515573628e-08 3.16210569102638e-08 4.09610034857358e-08
"2046" 55591 2.47804243127401e-09 2.51435250149731e-09 4.85237584117778e-09 3.30633965148132e-08 1.80768701825599e-07 4.43278809027741e-08 3.15914859839633e-08 4.09445824349251e-08
"2047" 55592 2.47432755239958e-09 2.51577493745068e-09 4.84958696854993e-09 3.29179327489499e-08 1.80137087773579e-07 4.37756102481854e-08 3.15619150576628e-08 4.09281613841144e-08
"2048" 55593 2.47061267352516e-09 2.51719737340405e-09 4.84679809592209e-09 3.27724689830866e-08 1.79505473721558e-07 4.32233395935968e-08 3.15323441313623e-08 4.09117403333037e-08
"2049" 55594 2.46689779465074e-09 2.51861980935742e-09 4.84400922329425e-09 3.26270052172233e-08 1.78873859669538e-07 4.26710689390081e-08 3.15027732050618e-08 4.0895319282493e-08
"2050" 55595 2.46318291577631e-09 2.52004224531079e-09 4.84122035066641e-09 3.248154145136e-08 1.78242245617518e-07 4.21187982844195e-08 3.14732022787613e-08 4.08788982316823e-08
"2051" 55596 2.45946803690189e-09 2.52146468126415e-09 4.83843147803856e-09 3.23360776854966e-08 1.77610631565498e-07 4.15665276298308e-08 3.14436313524608e-08 4.08624771808716e-08
"2052" 55597 2.45575315802746e-09 2.52288711721752e-09 4.83564260541072e-09 3.21906139196333e-08 1.76979017513478e-07 4.10142569752421e-08 3.14140604261604e-08 4.08460561300609e-08
"2053" 55598 2.45203827915304e-09 2.52430955317089e-09 4.83285373278288e-09 3.204515015377e-08 1.76347403461458e-07 4.04619863206535e-08 3.13844894998599e-08 4.08296350792502e-08
"2054" 55599 2.45155670570558e-09 2.52791168728272e-09 4.83061362595349e-09 3.19901642973189e-08 1.76326916052349e-07 4.00237424424371e-08 3.13655615061646e-08 4.08132140284395e-08
"2055" 55600 2.45068818266791e-09 2.53009138544118e-09 4.82837351912409e-09 3.19242620750786e-08 1.76196545830466e-07 3.96057918583241e-08 3.13414415550987e-08 4.07792437669058e-08
"2056" 55601 2.44981965963023e-09 2.53227108359964e-09 4.8261334122947e-09 3.18583598528383e-08 1.76066175608583e-07 3.91878412742111e-08 3.13173216040328e-08 4.0745273505372e-08
"2057" 55602 2.44858136667209e-09 2.53853314954057e-09 4.8238933054653e-09 3.1776609936426e-08 1.75523297026874e-07 3.87698906900981e-08 3.13083140810164e-08 4.07209400549354e-08
"2058" 55603 2.44734307371395e-09 2.5447952154815e-09 4.82165319863591e-09 3.16948600200136e-08 1.74980418445165e-07 3.83519401059851e-08 3.1299306558e-08 4.06966066044988e-08
"2059" 55604 2.44610478075581e-09 2.55105728142244e-09 4.81941309180652e-09 3.16131101036013e-08 1.74437539863457e-07 3.79339895218721e-08 3.12902990349836e-08 4.06722731540622e-08
"2060" 55605 2.44486648779767e-09 2.55731934736337e-09 4.81717298497712e-09 3.15313601871889e-08 1.73894661281748e-07 3.75160389377591e-08 3.12812915119672e-08 4.06479397036256e-08
"2061" 55606 2.44362819483952e-09 2.5635814133043e-09 4.81493287814773e-09 3.14496102707766e-08 1.73351782700039e-07 3.70980883536461e-08 3.12722839889508e-08 4.06236062531889e-08
"2062" 55607 2.44238990188138e-09 2.56984347924523e-09 4.81269277131834e-09 3.13678603543643e-08 1.7280890411833e-07 3.6680137769533e-08 3.12632764659344e-08 4.05992728027523e-08
"2063" 55608 2.44115160892324e-09 2.57610554518616e-09 4.81045266448894e-09 3.12861104379519e-08 1.72266025536621e-07 3.626218718542e-08 3.1254268942918e-08 4.05749393523157e-08
"2064" 55609 2.4399133159651e-09 2.58236761112709e-09 4.80821255765955e-09 3.12043605215396e-08 1.71723146954912e-07 3.5844236601307e-08 3.12452614199016e-08 4.05506059018791e-08
"2065" 55610 2.43867502300696e-09 2.58862967706802e-09 4.80597245083016e-09 3.11226106051272e-08 1.71180268373203e-07 3.5426286017194e-08 3.12362538968853e-08 4.05262724514425e-08
"2066" 55611 2.43743673004882e-09 2.59489174300896e-09 4.80373234400076e-09 3.10408606887149e-08 1.70637389791494e-07 3.5008335433081e-08 3.12272463738689e-08 4.05019390010059e-08
"2067" 55612 2.43619843709068e-09 2.60115380894989e-09 4.80149223717137e-09 3.09591107723026e-08 1.70094511209786e-07 3.4590384848968e-08 3.12182388508525e-08 4.04776055505693e-08
"2068" 55613 2.43496014413253e-09 2.60741587489082e-09 4.79925213034198e-09 3.08773608558902e-08 1.69551632628077e-07 3.4172434264855e-08 3.12092313278361e-08 4.04532721001327e-08
"2069" 55614 2.44620785877432e-09 2.61312388376286e-09 4.80505424581564e-09 3.08396839661329e-08 1.69955598333521e-07 3.41058438806706e-08 3.12987371867734e-08 4.04383599093593e-08
"2070" 55615 2.4574555734161e-09 2.61883189263489e-09 4.81085636128931e-09 3.08020070763756e-08 1.70359564038966e-07 3.40392534964862e-08 3.13882430457106e-08 4.04234477185859e-08
"2071" 55616 2.45383531839892e-09 2.62483544948794e-09 4.8126891759679e-09 3.07861629181968e-08 1.71150695971452e-07 3.40089942980068e-08 3.14528958073595e-08 4.0106338234484e-08
"2072" 55617 2.45021506338173e-09 2.63083900634099e-09 4.8145219906465e-09 3.0770318760018e-08 1.71941827903939e-07 3.39787350995275e-08 3.15175485690084e-08 3.9789228750382e-08
"2073" 55618 2.44659480836454e-09 2.63684256319403e-09 4.81635480532509e-09 3.07544746018392e-08 1.72732959836425e-07 3.39484759010481e-08 3.15822013306572e-08 3.947211926628e-08
"2074" 55619 2.44297455334735e-09 2.64284612004708e-09 4.81818762000369e-09 3.07386304436604e-08 1.73524091768912e-07 3.39182167025687e-08 3.16468540923061e-08 3.9155009782178e-08
"2075" 55620 2.43935429833016e-09 2.64884967690013e-09 4.82002043468228e-09 3.07227862854816e-08 1.74315223701398e-07 3.38879575040893e-08 3.1711506853955e-08 3.88379002980761e-08
"2076" 55621 2.43573404331297e-09 2.65485323375318e-09 4.82185324936088e-09 3.07069421273028e-08 1.75106355633885e-07 3.385769830561e-08 3.17761596156039e-08 3.85207908139741e-08
"2077" 55622 2.43211378829578e-09 2.66085679060622e-09 4.82368606403947e-09 3.0691097969124e-08 1.75897487566371e-07 3.38274391071306e-08 3.18408123772527e-08 3.82036813298721e-08
"2078" 55623 2.41748660536054e-09 2.66732206168335e-09 4.82041916243701e-09 3.06775263013673e-08 1.75946298467813e-07 3.37921832195111e-08 3.18880494310021e-08 3.84178069190241e-08
"2079" 55624 2.40285942242529e-09 2.67378733276048e-09 4.81715226083454e-09 3.06639546336106e-08 1.75995109369254e-07 3.37569273318916e-08 3.19352864847515e-08 3.86319325081761e-08
"2080" 55625 2.38823223949005e-09 2.6802526038376e-09 4.81388535923208e-09 3.06503829658538e-08 1.76043920270696e-07 3.3721671444272e-08 3.19825235385009e-08 3.88460580973281e-08
"2081" 55626 2.3736050565548e-09 2.68671787491473e-09 4.81061845762961e-09 3.06368112980971e-08 1.76092731172138e-07 3.36864155566525e-08 3.20297605922503e-08 3.90601836864801e-08
"2082" 55627 2.35897787361955e-09 2.69318314599186e-09 4.80735155602714e-09 3.06232396303404e-08 1.7614154207358e-07 3.3651159669033e-08 3.20769976459997e-08 3.92743092756322e-08
"2083" 55628 2.34435069068431e-09 2.69964841706899e-09 4.80408465442468e-09 3.06096679625837e-08 1.76190352975021e-07 3.36159037814135e-08 3.21242346997491e-08 3.94884348647842e-08
"2084" 55629 2.32972350774906e-09 2.70611368814611e-09 4.80081775282221e-09 3.0596096294827e-08 1.76239163876463e-07 3.3580647893794e-08 3.21714717534984e-08 3.97025604539362e-08
"2085" 55630 2.31509632481382e-09 2.71257895922324e-09 4.79755085121974e-09 3.05825246270702e-08 1.76287974777905e-07 3.35453920061744e-08 3.22187088072478e-08 3.99166860430882e-08
"2086" 55631 2.30046914187857e-09 2.71904423030037e-09 4.79428394961728e-09 3.05689529593135e-08 1.76336785679346e-07 3.35101361185549e-08 3.22659458609972e-08 4.01308116322402e-08
"2087" 55632 2.28584195894333e-09 2.72550950137750e-09 4.79101704801481e-09 3.05553812915568e-08 1.76385596580788e-07 3.34748802309354e-08 3.23131829147466e-08 4.03449372213922e-08
"2088" 55633 2.27121477600808e-09 2.73197477245462e-09 4.78775014641234e-09 3.05418096238001e-08 1.7643440748223e-07 3.34396243433159e-08 3.2360419968496e-08 4.05590628105442e-08
"2089" 55634 2.26897897681552e-09 2.71304067344732e-09 4.78756722447953e-09 3.05471308357147e-08 1.76447810965599e-07 3.34404754238162e-08 3.24286945538881e-08 4.11317872441472e-08
"2090" 55635 2.25435179388028e-09 2.69972198607924e-09 4.76399291871923e-09 3.02810073383104e-08 1.76350868361722e-07 3.28198160145e-08 3.24107094747619e-08 4.13827529137232e-08
"2091" 55636 2.23972461094503e-09 2.68640329871115e-09 4.74041861295892e-09 3.00148838409062e-08 1.76253925757845e-07 3.21991566051839e-08 3.23927243956358e-08 4.16337185832991e-08
"2092" 55637 2.22509742800979e-09 2.67308461134307e-09 4.71684430719862e-09 2.97487603435019e-08 1.76156983153969e-07 3.15784971958677e-08 3.23747393165097e-08 4.1884684252875e-08
"2093" 55638 2.21457207353919e-09 2.65540652765807e-09 4.69617105917515e-09 2.95327931717648e-08 1.78093032265777e-07 3.14380547184644e-08 3.27237006375771e-08 4.17071626381625e-08
"2094" 55639 2.20404671906858e-09 2.63772844397306e-09 4.67549781115168e-09 2.93168260000277e-08 1.80029081377586e-07 3.12976122410611e-08 3.30726619586446e-08 4.15296410234499e-08
"2095" 55640 2.18941953613334e-09 2.62005036028806e-09 4.65702322167244e-09 2.9069546251492e-08 1.80372592520501e-07 3.08070176014742e-08 3.29912399907651e-08 4.13080938339243e-08
"2096" 55641 2.17479235319809e-09 2.60237227660305e-09 4.6385486321932e-09 2.88222665029562e-08 1.80716103663416e-07 3.03164229618873e-08 3.29098180228857e-08 4.10865466443987e-08
"2097" 55642 2.16016517026285e-09 2.58469419291805e-09 4.62007404271396e-09 2.85749867544204e-08 1.81059614806332e-07 2.98258283223004e-08 3.28283960550062e-08 4.08649994548731e-08
"2098" 55643 2.1455379873276e-09 2.56701610923305e-09 4.60159945323472e-09 2.83277070058847e-08 1.81403125949247e-07 2.93352336827135e-08 3.27469740871268e-08 4.06434522653475e-08
"2099" 55644 2.13091080439235e-09 2.54933802554804e-09 4.58312486375547e-09 2.80804272573489e-08 1.81746637092162e-07 2.88446390431266e-08 3.26655521192473e-08 4.04219050758219e-08
"2100" 55645 2.11628362145711e-09 2.53165994186304e-09 4.56465027427623e-09 2.78331475088131e-08 1.82090148235077e-07 2.83540444035397e-08 3.25841301513679e-08 4.02003578862963e-08
"2101" 55646 2.11541509841943e-09 2.53138291332859e-09 4.57036092878349e-09 2.78562060937765e-08 1.82174810563411e-07 2.84496768922455e-08 3.25771775746337e-08 4.02845543114835e-08
"2102" 55647 2.11454657538176e-09 2.5334887880888e-09 4.57607158329075e-09 2.78803710545596e-08 1.82606840251509e-07 2.85805241085921e-08 3.24757755151593e-08 4.02650273357981e-08
"2103" 55648 2.11367805234409e-09 2.53559466284901e-09 4.58178223779801e-09 2.79045360153427e-08 1.83038869939606e-07 2.87113713249386e-08 3.23743734556849e-08 4.02455003601128e-08
"2104" 55649 2.11280952930641e-09 2.53770053760921e-09 4.58749289230527e-09 2.79287009761259e-08 1.83470899627703e-07 2.88422185412852e-08 3.22729713962105e-08 4.02259733844275e-08
"2105" 55650 2.11194100626874e-09 2.53980641236942e-09 4.59320354681253e-09 2.7952865936909e-08 1.83902929315801e-07 2.89730657576318e-08 3.21715693367361e-08 4.02064464087421e-08
"2106" 55651 2.11107248323106e-09 2.54191228712963e-09 4.59891420131979e-09 2.79770308976921e-08 1.84334959003898e-07 2.91039129739783e-08 3.20701672772617e-08 4.01869194330568e-08
"2107" 55652 2.11020396019339e-09 2.54401816188984e-09 4.60462485582705e-09 2.80011958584752e-08 1.84766988691996e-07 2.92347601903249e-08 3.19687652177873e-08 4.01673924573714e-08
"2108" 55653 2.10933543715571e-09 2.54612403665004e-09 4.61033551033431e-09 2.80253608192583e-08 1.85199018380093e-07 2.93656074066715e-08 3.18673631583129e-08 4.01478654816861e-08
"2109" 55654 2.10846691411804e-09 2.54822991141025e-09 4.61604616484157e-09 2.80495257800415e-08 1.8563104806819e-07 2.9496454623018e-08 3.17659610988386e-08 4.01283385060008e-08
"2110" 55655 2.10870770084177e-09 2.54943062278086e-09 4.61787897952016e-09 2.80725843650048e-08 1.86109214446254e-07 2.96273018393646e-08 3.17725594148409e-08 4.0097623410303e-08
"2111" 55656 2.10647190164921e-09 2.54736178691378e-09 4.62358963402742e-09 2.78433406834304e-08 1.84465008917368e-07 2.95757106805687e-08 3.17611127179037e-08 3.99725968797542e-08
"2112" 55657 2.10423610245666e-09 2.5452929510467e-09 4.62930028853468e-09 2.7614097001856e-08 1.82820803388482e-07 2.95241195217729e-08 3.17496660209666e-08 3.98475703492055e-08
"2113" 55658 2.1020003032641e-09 2.54322411517962e-09 4.63501094304194e-09 2.73848533202816e-08 1.81176597859596e-07 2.9472528362977e-08 3.17382193240294e-08 3.97225438186568e-08
"2114" 55659 2.10386633253619e-09 2.54322411517962e-09 4.64725540075413e-09 2.72504709925822e-08 1.79580638575583e-07 2.98660170985491e-08 3.17536153947015e-08 3.94980200181577e-08
"2115" 55660 2.10573236180828e-09 2.54322411517962e-09 4.65949985846632e-09 2.71160886648828e-08 1.7798467929157e-07 3.02595058341211e-08 3.17690114653735e-08 3.92734962176586e-08
"2116" 55661 2.10312679269525e-09 2.54285474380036e-09 4.66337769829499e-09 2.68862829554154e-08 1.77938762579389e-07 3.0096674414252e-08 3.17607916802449e-08 3.93044865611748e-08
"2117" 55662 2.10052122358223e-09 2.54248537242109e-09 4.66725553812365e-09 2.66564772459481e-08 1.77892845867208e-07 2.99338429943828e-08 3.17525718951162e-08 3.9335476904691e-08
"2118" 55663 2.09791565446921e-09 2.54211600104183e-09 4.67113337795232e-09 2.64266715364807e-08 1.77846929155028e-07 2.97710115745136e-08 3.17443521099876e-08 3.93664672482073e-08
"2119" 55664 2.09531008535619e-09 2.54174662966257e-09 4.67501121778098e-09 2.61968658270134e-08 1.77801012442847e-07 2.96081801546444e-08 3.1736132324859e-08 3.93974575917235e-08
"2120" 55665 2.09270451624316e-09 2.5413772582833e-09 4.67888905760965e-09 2.5967060117546e-08 1.77755095730666e-07 2.94453487347753e-08 3.17279125397303e-08 3.94284479352397e-08
"2121" 55666 2.09009894713014e-09 2.54100788690404e-09 4.68276689743831e-09 2.57372544080786e-08 1.77709179018485e-07 2.92825173149061e-08 3.17196927546017e-08 3.9459438278756e-08
"2122" 55667 2.08749337801712e-09 2.54063851552478e-09 4.68664473726698e-09 2.55074486986113e-08 1.77663262306304e-07 2.91196858950369e-08 3.17114729694731e-08 3.94904286222722e-08
"2123" 55668 2.07611668017859e-09 2.54063851552478e-09 4.68871048655963e-09 2.53068233959425e-08 1.79721361965178e-07 2.91372292039583e-08 3.17077473045474e-08 3.96912702734572e-08
"2124" 55669 2.07535996066791e-09 2.54206095147814e-09 4.66220583452383e-09 2.5259887936129e-08 1.79811699130188e-07 2.91366114990112e-08 3.13012741983198e-08 3.98570466584324e-08
"2125" 55670 2.07460324115722e-09 2.54348338743151e-09 4.63570118248804e-09 2.52129524763155e-08 1.79902036295198e-07 2.91359937940642e-08 3.08948010920922e-08 4.00228230434076e-08
"2126" 55671 2.07384652164653e-09 2.54490582338488e-09 4.60919653045224e-09 2.5166017016502e-08 1.79992373460209e-07 2.91353760891171e-08 3.04883279858646e-08 4.01885994283828e-08
"2127" 55672 2.07308980213585e-09 2.54632825933825e-09 4.58269187841645e-09 2.51190815566885e-08 1.80082710625219e-07 2.91347583841701e-08 3.0081854879637e-08 4.0354375813358e-08
"2128" 55673 2.07233308262516e-09 2.54775069529162e-09 4.55618722638065e-09 2.50721460968749e-08 1.80173047790229e-07 2.9134140679223e-08 2.96753817734094e-08 4.05201521983332e-08
"2129" 55674 2.07157636311448e-09 2.54917313124499e-09 4.52968257434486e-09 2.50252106370614e-08 1.80263384955239e-07 2.9133522974276e-08 2.92689086671818e-08 4.06859285833084e-08
"2130" 55675 2.07081964360379e-09 2.55059556719836e-09 4.50317792230906e-09 2.49782751772479e-08 1.8035372212025e-07 2.91329052693289e-08 2.88624355609542e-08 4.08517049682836e-08
"2131" 55676 2.0700629240931e-09 2.55201800315172e-09 4.47667327027327e-09 2.49313397174344e-08 1.8044405928526e-07 2.91322875643818e-08 2.84559624547266e-08 4.10174813532588e-08
"2132" 55677 2.06930620458242e-09 2.55344043910509e-09 4.45016861823747e-09 2.48844042576208e-08 1.8053439645027e-07 2.91316698594348e-08 2.8049489348499e-08 4.1183257738234e-08
"2133" 55678 2.06854948507173e-09 2.55486287505846e-09 4.42366396620168e-09 2.48374687978073e-08 1.8062473361528e-07 2.91310521544877e-08 2.76430162422714e-08 4.13490341232092e-08
"2134" 55679 2.06779276556104e-09 2.55628531101183e-09 4.39715931416588e-09 2.47905333379938e-08 1.8071507078029e-07 2.91304344495407e-08 2.72365431360438e-08 4.15148105081844e-08
"2135" 55680 2.06703604605036e-09 2.5577077469652e-09 4.37065466213009e-09 2.47435978781803e-08 1.80805407945301e-07 2.91298167445936e-08 2.68300700298162e-08 4.16805868931596e-08
"2136" 55681 2.06627932653967e-09 2.55913018291857e-09 4.34415001009429e-09 2.46966624183668e-08 1.80895745110311e-07 2.91291990396466e-08 2.64235969235886e-08 4.18463632781348e-08
"2137" 55682 2.06552260702898e-09 2.55704282760492e-09 4.32979835480428e-09 2.47242589121878e-08 1.79056719718233e-07 2.92654089585909e-08 2.6068609913912e-08 4.1755978864793e-08
"2138" 55683 2.06552260702898e-09 2.57025065268163e-09 4.31890868279606e-09 2.46951767669948e-08 1.78438099618817e-07 2.98666261543041e-08 2.5670356592813e-08 4.16655944514512e-08
"2139" 55684 2.06552260702898e-09 2.58345847775833e-09 4.30801901078784e-09 2.46660946218019e-08 1.778194795194e-07 3.04678433500172e-08 2.5272103271714e-08 4.15752100381093e-08
"2140" 55685 2.06552260702898e-09 2.59666630283504e-09 4.29712933877962e-09 2.46370124766089e-08 1.77200859419984e-07 3.10690605457304e-08 2.48738499506151e-08 4.14848256247675e-08
"2141" 55686 2.06552260702898e-09 2.60987412791174e-09 4.2862396667714e-09 2.46079303314159e-08 1.76582239320567e-07 3.16702777414435e-08 2.44755966295161e-08 4.13944412114256e-08
"2142" 55687 2.06552260702898e-09 2.62308195298844e-09 4.27534999476318e-09 2.4578848186223e-08 1.75963619221151e-07 3.22714949371567e-08 2.40773433084171e-08 4.13040567980838e-08
"2143" 55688 2.06552260702898e-09 2.63628977806515e-09 4.26446032275495e-09 2.454976604103e-08 1.75344999121734e-07 3.28727121328698e-08 2.36790899873182e-08 4.1213672384742e-08
"2144" 55689 2.06552260702898e-09 2.64949760314185e-09 4.25357065074673e-09 2.4520683895837e-08 1.74726379022318e-07 3.3473929328583e-08 2.32808366662192e-08 4.11232879714001e-08
"2145" 55690 2.0659095566192e-09 2.65638780393794e-09 4.24887822661647e-09 2.45590914218552e-08 1.74835511678792e-07 3.40230016645746e-08 2.32452860446603e-08 4.01316646291302e-08
"2146" 55691 2.06629650620942e-09 2.66959562901464e-09 4.25941421450557e-09 2.45927924306478e-08 1.76027817510154e-07 3.46444435205081e-08 2.32567327415974e-08 4.01073484262001e-08
"2147" 55692 2.06581493276197e-09 2.68308048262579e-09 4.27920214140361e-09 2.46191174762744e-08 1.76981393938358e-07 3.5262041777238e-08 2.32768027339123e-08 4.00984511210255e-08
"2148" 55693 2.06533335931451e-09 2.69656533623694e-09 4.29899006830166e-09 2.4645442521901e-08 1.77934970366562e-07 3.58796400339679e-08 2.32968727262273e-08 4.00895538158509e-08
"2149" 55694 2.06485178586706e-09 2.7100501898481e-09 4.31877799519971e-09 2.46717675675276e-08 1.78888546794766e-07 3.64972382906978e-08 2.33169427185422e-08 4.00806565106762e-08
"2150" 55695 2.0643702124196e-09 2.72353504345925e-09 4.33856592209775e-09 2.46980926131542e-08 1.79842123222971e-07 3.71148365474276e-08 2.33370127108572e-08 4.00717592055016e-08
"2151" 55696 2.07812887231717e-09 2.72560387932633e-09 4.3409475025748e-09 2.46828490056915e-08 1.79421309400137e-07 3.72551737590757e-08 2.33528283182225e-08 4.0064721612297e-08
"2152" 55697 2.09188753221474e-09 2.72767271519341e-09 4.34332908305184e-09 2.46676053982288e-08 1.79000495577304e-07 3.73955109707237e-08 2.33686439255879e-08 4.00576840190925e-08
"2153" 55698 2.10564619211232e-09 2.72974155106049e-09 4.34571066352888e-09 2.46523617907661e-08 1.7857968175447e-07 3.75358481823717e-08 2.33844595329532e-08 4.00506464258879e-08
"2154" 55699 2.11940485200989e-09 2.73181038692757e-09 4.34809224400593e-09 2.46371181833034e-08 1.78158867931637e-07 3.76761853940197e-08 2.34002751403185e-08 4.00436088326833e-08
"2155" 55700 2.13316351190746e-09 2.73387922279465e-09 4.35047382448297e-09 2.46218745758407e-08 1.77738054108803e-07 3.78165226056677e-08 2.34160907476839e-08 4.00365712394787e-08
"2156" 55701 2.14692217180503e-09 2.73594805866173e-09 4.35285540496001e-09 2.4606630968378e-08 1.7731724028597e-07 3.79568598173158e-08 2.34319063550492e-08 4.00295336462741e-08
"2157" 55702 2.1606808317026e-09 2.73801689452881e-09 4.35523698543706e-09 2.45913873609153e-08 1.76896426463136e-07 3.80971970289638e-08 2.34477219624146e-08 4.00224960530695e-08
"2158" 55703 2.17443949160017e-09 2.74008573039589e-09 4.3576185659141e-09 2.45761437534527e-08 1.76475612640303e-07 3.82375342406118e-08 2.34635375697799e-08 4.0015458459865e-08
"2159" 55704 2.18819815149775e-09 2.7498761070504e-09 4.42891097313604e-09 2.46705240341766e-08 1.76707218585825e-07 3.82639589978557e-08 2.35729336195922e-08 4.008646710575e-08
"2160" 55705 2.20195681139532e-09 2.75966648370491e-09 4.50020338035798e-09 2.47649043149005e-08 1.76938824531348e-07 3.82903837550996e-08 2.36823296694044e-08 4.0157475751635e-08
"2161" 55706 2.21571547129289e-09 2.76945686035941e-09 4.57149578757992e-09 2.48592845956245e-08 1.7717043047687e-07 3.83168085123435e-08 2.37917257192166e-08 4.022848439752e-08
"2162" 55707 2.22947413119046e-09 2.77924723701392e-09 4.64278819480186e-09 2.49536648763484e-08 1.77402036422392e-07 3.83432332695874e-08 2.39011217690288e-08 4.02994930434051e-08
"2163" 55708 2.24323279108803e-09 2.78903761366843e-09 4.7140806020238e-09 2.50480451570724e-08 1.77633642367915e-07 3.83696580268313e-08 2.40105178188411e-08 4.03705016892901e-08
"2164" 55709 2.2569914509856e-09 2.79882799032294e-09 4.78537300924574e-09 2.51424254377963e-08 1.77865248313437e-07 3.83960827840751e-08 2.41199138686533e-08 4.04415103351751e-08
"2165" 55710 2.27010519489948e-09 2.80981907834805e-09 4.85575937119967e-09 2.48747848381834e-08 1.77024785459555e-07 3.82011664230345e-08 2.39575087521983e-08 4.03905572662849e-08
"2166" 55711 2.28497316455845e-09 2.82151212462657e-09 4.92287883155114e-09 2.46961152806515e-08 1.76616746612133e-07 3.79774550191001e-08 2.40669347689172e-08 4.04707464190279e-08
"2167" 55712 2.29736454830114e-09 2.82415379139712e-09 4.98999829190261e-09 2.48056267632596e-08 1.76997727089634e-07 3.79881164202743e-08 2.41405051528624e-08 4.05015842145388e-08
"2168" 55713 2.30975593204383e-09 2.82679545816766e-09 5.05711775225408e-09 2.49151382458676e-08 1.77378707567136e-07 3.79987778214486e-08 2.42140755368077e-08 4.05324220100496e-08
"2169" 55714 2.32214731578652e-09 2.8294371249382e-09 5.12423721260554e-09 2.50246497284757e-08 1.77759688044637e-07 3.80094392226228e-08 2.4287645920753e-08 4.05632598055605e-08
"2170" 55715 2.33453869952921e-09 2.83207879170874e-09 5.19135667295701e-09 2.51341612110837e-08 1.78140668522139e-07 3.8020100623797e-08 2.43612163046982e-08 4.05940976010714e-08
"2171" 55716 2.3469300832719e-09 2.83472045847928e-09 5.25847613330848e-09 2.52436726936917e-08 1.78521648999641e-07 3.80307620249712e-08 2.44347866886435e-08 4.06249353965823e-08
"2172" 55717 2.35116089493328e-09 2.83472045847928e-09 5.25430318643801e-09 2.52487128916599e-08 1.78246003759312e-07 3.80463697973387e-08 2.44147766301419e-08 4.05765138953352e-08
"2173" 55718 2.35539170659467e-09 2.83472045847928e-09 5.25013023956753e-09 2.5253753089628e-08 1.77970358518984e-07 3.80619775697062e-08 2.43947665716403e-08 4.05280923940882e-08
"2174" 55719 2.35315590740211e-09 2.83472045847928e-09 5.25520923170601e-09 2.53242914823317e-08 1.77696739716522e-07 3.80666814073781e-08 2.43648360424598e-08 4.04790242385394e-08
"2175" 55720 2.36025025457e-09 2.82576142181612e-09 5.25103628483554e-09 2.53235152512612e-08 1.79418310776122e-07 3.85992764728106e-08 2.47283478484798e-08 4.05301000072427e-08
"2176" 55721 2.36734460173788e-09 2.81680238515296e-09 5.24686333796507e-09 2.53227390201908e-08 1.81139881835722e-07 3.9131871538243e-08 2.50918596544998e-08 4.0581175775946e-08
"2177" 55722 2.37443894890577e-09 2.8078433484898e-09 5.2426903910946e-09 2.53219627891203e-08 1.82861452895321e-07 3.96644666036754e-08 2.54553714605198e-08 4.06322515446493e-08
"2178" 55723 2.38153329607365e-09 2.79888431182663e-09 5.23851744422412e-09 2.53211865580499e-08 1.84583023954921e-07 4.01970616691078e-08 2.58188832665398e-08 4.06833273133526e-08
"2179" 55724 2.38862764324154e-09 2.78992527516347e-09 5.23434449735365e-09 2.53204103269794e-08 1.86304595014521e-07 4.07296567345402e-08 2.61823950725598e-08 4.0734403082056e-08
"2180" 55725 2.39819857632571e-09 2.78811494838428e-09 5.23434449735365e-09 2.51894139375083e-08 1.87166633006691e-07 4.12810763086285e-08 2.65729294476289e-08 4.08287649196497e-08
"2181" 55726 2.40776950940988e-09 2.78630462160508e-09 5.23434449735365e-09 2.50584175480372e-08 1.88028670998861e-07 4.18324958827169e-08 2.69634638226981e-08 4.09231267572435e-08
"2182" 55727 2.41396097420059e-09 2.77470391817138e-09 5.20986414632534e-09 2.49481298343587e-08 1.9000684445739e-07 4.23494831757818e-08 2.72727560313278e-08 4.09341716228923e-08
"2183" 55728 2.42015243899129e-09 2.76310321473767e-09 5.18538379529704e-09 2.48378421206802e-08 1.9198501791592e-07 4.28664704688467e-08 2.75820482399575e-08 4.09452164885411e-08
"2184" 55729 2.426343903782e-09 2.75150251130397e-09 5.16090344426873e-09 2.47275544070017e-08 1.93963191374449e-07 4.33834577619116e-08 2.78913404485872e-08 4.09562613541899e-08
"2185" 55730 2.43253536857271e-09 2.73990180787027e-09 5.13642309324042e-09 2.46172666933232e-08 1.95941364832979e-07 4.39004450549765e-08 2.82006326572169e-08 4.09673062198387e-08
"2186" 55731 2.43872683336342e-09 2.72830110443656e-09 5.11194274221211e-09 2.45069789796447e-08 1.97919538291508e-07 4.44174323480414e-08 2.85099248658466e-08 4.09783510854875e-08
"2187" 55732 2.43558815179368e-09 2.71660805815804e-09 5.08855135838462e-09 2.44005162185292e-08 1.97920135374068e-07 4.44182559546375e-08 2.84396798927443e-08 4.09135682298143e-08
"2188" 55733 2.43244947022395e-09 2.70491501187952e-09 5.06515997455714e-09 2.42940534574137e-08 1.97920732456628e-07 4.44190795612335e-08 2.8369434919642e-08 4.0848785374141e-08
"2189" 55734 2.42931078865422e-09 2.693221965601e-09 5.04176859072965e-09 2.41875906962982e-08 1.97921329539187e-07 4.44199031678296e-08 2.82991899465398e-08 4.07840025184678e-08
"2190" 55735 2.42617210708448e-09 2.68152891932248e-09 5.01837720690216e-09 2.40811279351827e-08 1.97921926621747e-07 4.44207267744257e-08 2.82289449734375e-08 4.07192196627946e-08
"2191" 55736 2.42303342551475e-09 2.66983587304396e-09 4.99498582307468e-09 2.39746651740672e-08 1.97922523704307e-07 4.44215503810218e-08 2.81587000003352e-08 4.06544368071214e-08
"2192" 55737 2.41989474394502e-09 2.65814282676544e-09 4.97159443924719e-09 2.38682024129517e-08 1.97923120786866e-07 4.44223739876178e-08 2.80884550272329e-08 4.05896539514481e-08
"2193" 55738 2.42776299029334e-09 2.64654212333174e-09 4.94711408821888e-09 2.37822938632338e-08 1.97903857967683e-07 4.44031102017596e-08 2.80003448426312e-08 4.06314139127947e-08
"2194" 55739 2.43563123664166e-09 2.63494141989804e-09 4.92263373719058e-09 2.36963853135159e-08 1.97884595148499e-07 4.43838464159014e-08 2.79122346580294e-08 4.06731738741413e-08
"2195" 55740 2.44349948298999e-09 2.62334071646433e-09 4.89815338616227e-09 2.3610476763798e-08 1.97865332329315e-07 4.43645826300432e-08 2.78241244734277e-08 4.07149338354879e-08
"2196" 55741 2.45136772933831e-09 2.61174001303063e-09 4.87367303513396e-09 2.35245682140801e-08 1.97846069510131e-07 4.4345318844185e-08 2.77360142888259e-08 4.07566937968345e-08
"2197" 55742 2.45923597568664e-09 2.60013930959692e-09 4.84919268410565e-09 2.34386596643622e-08 1.97826806690947e-07 4.43260550583268e-08 2.76479041042242e-08 4.07984537581811e-08
"2198" 55743 2.46710422203496e-09 2.58853860616322e-09 4.82471233307734e-09 2.33527511146444e-08 1.97807543871764e-07 4.43067912724686e-08 2.75597939196225e-08 4.08402137195277e-08
"2199" 55744 2.47497246838328e-09 2.57693790272952e-09 4.80023198204903e-09 2.32668425649265e-08 1.9778828105258e-07 4.42875274866103e-08 2.74716837350207e-08 4.08819736808743e-08
"2200" 55745 2.48284071473161e-09 2.56533719929581e-09 4.77575163102072e-09 2.31809340152086e-08 1.97769018233396e-07 4.42682637007521e-08 2.7383573550419e-08 4.09237336422209e-08
"2201" 55746 2.49070896107993e-09 2.55373649586211e-09 4.75127127999242e-09 2.30950254654907e-08 1.97749755414212e-07 4.42489999148939e-08 2.72954633658172e-08 4.09654936035675e-08
"2202" 55747 2.49857720742825e-09 2.5421357924284e-09 4.72679092896411e-09 2.30091169157728e-08 1.97730492595028e-07 4.42297361290357e-08 2.72073531812155e-08 4.10072535649141e-08
"2203" 55748 2.50995390526678e-09 2.54004843711476e-09 4.72261798209364e-09 2.29136935340048e-08 1.96848712296209e-07 4.41015062599667e-08 2.72093182267777e-08 4.11227062877942e-08
"2204" 55749 2.5213306031053e-09 2.53796108180112e-09 4.71844503522316e-09 2.28182701522369e-08 1.95966931997389e-07 4.39732763908976e-08 2.72112832723398e-08 4.12381590106743e-08
"2205" 55750 2.53270730094383e-09 2.53735146639253e-09 4.71824138914776e-09 2.28405981009394e-08 1.95601448345168e-07 4.39834481969227e-08 2.70931140926165e-08 4.13651759068711e-08
"2206" 55751 2.54408399878235e-09 2.53674185098394e-09 4.71803774307236e-09 2.28629260496419e-08 1.95235964692947e-07 4.39936200029478e-08 2.69749449128931e-08 4.14921928030678e-08
"2207" 55752 2.55546069662088e-09 2.53613223557536e-09 4.71783409699697e-09 2.28852539983444e-08 1.94870481040725e-07 4.40037918089729e-08 2.68567757331698e-08 4.16192096992645e-08
"2208" 55753 2.55621741613156e-09 2.53613223557536e-09 4.71973764849939e-09 2.28893002260713e-08 1.94578974030089e-07 4.4142193484067e-08 2.67366415078843e-08 4.16783835708354e-08
"2209" 55754 2.55697413564225e-09 2.53613223557536e-09 4.72164120000181e-09 2.28933464537983e-08 1.94287467019452e-07 4.42805951591611e-08 2.66165072825988e-08 4.17375574424062e-08
"2210" 55755 2.55710311883899e-09 2.53613223557536e-09 4.72173266096821e-09 2.28912390357508e-08 1.94306886965625e-07 4.4304329407138e-08 2.65052061210377e-08 4.17372868414086e-08
"2211" 55756 2.55723210203573e-09 2.53613223557536e-09 4.72182412193462e-09 2.28891316177034e-08 1.94326306911799e-07 4.43280636551149e-08 2.63939049594767e-08 4.1737016240411e-08
"2212" 55757 2.55736108523247e-09 2.53613223557536e-09 4.72191558290103e-09 2.2887024199656e-08 1.94345726857972e-07 4.43517979030918e-08 2.62826037979156e-08 4.17367456394134e-08
"2213" 55758 2.55749006842921e-09 2.53613223557536e-09 4.72200704386744e-09 2.28849167816086e-08 1.94365146804145e-07 4.43755321510688e-08 2.61713026363545e-08 4.17364750384159e-08
"2214" 55759 2.55761905162595e-09 2.53613223557536e-09 4.72209850483385e-09 2.28828093635612e-08 1.94384566750318e-07 4.43992663990457e-08 2.60600014747935e-08 4.17362044374183e-08
"2215" 55760 2.55774803482269e-09 2.53613223557536e-09 4.72218996580025e-09 2.28807019455137e-08 1.94403986696491e-07 4.44230006470226e-08 2.59487003132324e-08 4.17359338364207e-08
"2216" 55761 2.55787701801943e-09 2.53613223557536e-09 4.72228142676666e-09 2.28785945274663e-08 1.94423406642664e-07 4.44467348949995e-08 2.58373991516714e-08 4.17356632354231e-08
"2217" 55762 2.55800600121617e-09 2.53613223557536e-09 4.72237288773307e-09 2.28764871094189e-08 1.94442826588838e-07 4.44704691429764e-08 2.57260979901103e-08 4.17353926344255e-08
"2218" 55763 2.55813498441291e-09 2.53613223557536e-09 4.72246434869948e-09 2.28743796913715e-08 1.94462246535011e-07 4.44942033909533e-08 2.56147968285493e-08 4.17351220334279e-08
"2219" 55764 2.55826396760965e-09 2.53613223557536e-09 4.72255580966589e-09 2.2872272273324e-08 1.94481666481184e-07 4.45179376389302e-08 2.55034956669882e-08 4.17348514324303e-08
"2220" 55765 2.55839295080639e-09 2.53613223557536e-09 4.72264727063230e-09 2.28701648552766e-08 1.94501086427357e-07 4.45416718869072e-08 2.53921945054271e-08 4.17345808314327e-08
"2221" 55766 2.55852193400313e-09 2.53613223557536e-09 4.7227387315987e-09 2.28680574372292e-08 1.9452050637353e-07 4.45654061348841e-08 2.52808933438661e-08 4.17343102304351e-08
"2222" 55767 2.55865091719987e-09 2.53613223557536e-09 4.72283019256511e-09 2.28659500191818e-08 1.94539926319704e-07 4.4589140382861e-08 2.5169592182305e-08 4.17340396294375e-08
"2223" 55768 2.54185665375107e-09 2.53057212788783e-09 4.71666223322581e-09 2.28570251298681e-08 1.91886297173826e-07 4.46189374600955e-08 2.51776321659937e-08 4.16885429966443e-08
"2224" 55769 2.52506239030228e-09 2.5250120202003e-09 4.71049427388651e-09 2.28481002405545e-08 1.89232668027948e-07 4.464873453733e-08 2.51856721496823e-08 4.16430463638511e-08
"2225" 55770 2.5121291685944e-09 2.51337453226147e-09 4.67433039069097e-09 2.24892896180916e-08 1.89079840755451e-07 4.46359408559209e-08 2.51944752465001e-08 4.14641922987012e-08
"2226" 55771 2.49919594688652e-09 2.50173704432264e-09 4.63816650749542e-09 2.21304789956288e-08 1.88927013482954e-07 4.46231471745119e-08 2.52032783433179e-08 4.12853382335512e-08
"2227" 55772 2.48626272517864e-09 2.49009955638381e-09 4.60200262429988e-09 2.17716683731659e-08 1.88774186210458e-07 4.46103534931028e-08 2.52120814401357e-08 4.11064841684013e-08
"2228" 55773 2.47332950347077e-09 2.47846206844498e-09 4.56583874110434e-09 2.14128577507031e-08 1.88621358937961e-07 4.45975598116938e-08 2.52208845369535e-08 4.09276301032513e-08
"2229" 55774 2.46039628176289e-09 2.46682458050615e-09 4.52967485790879e-09 2.10540471282402e-08 1.88468531665464e-07 4.45847661302847e-08 2.52296876337712e-08 4.07487760381013e-08
"2230" 55775 2.45084252834847e-09 2.45638780393794e-09 4.50511520566058e-09 2.07763190607046e-08 1.88562241506608e-07 4.45578609358598e-08 2.56093093740752e-08 4.06077721602954e-08
"2231" 55776 2.44128877493405e-09 2.44595102736972e-09 4.48055555341237e-09 2.0498590993169e-08 1.88655951347752e-07 4.45309557414349e-08 2.59889311143791e-08 4.04667682824895e-08
"2232" 55777 2.43792648631034e-09 2.45402342008984e-09 4.46470763877074e-09 2.01595056842372e-08 1.88148617044861e-07 4.45008246527534e-08 2.60983271641913e-08 4.04407654701454e-08
"2233" 55778 2.43456419768664e-09 2.46209581280997e-09 4.44885972412911e-09 1.98204203753055e-08 1.8764128274197e-07 4.4470693564072e-08 2.62077232140036e-08 4.04147626578012e-08
"2234" 55779 2.43120190906293e-09 2.4701682055301e-09 4.43301180948748e-09 1.94813350663737e-08 1.8713394843908e-07 4.44405624753906e-08 2.63171192638158e-08 4.0388759845457e-08
"2235" 55780 2.42783962043922e-09 2.47824059825023e-09 4.41716389484584e-09 1.9142249757442e-08 1.86626614136189e-07 4.44104313867091e-08 2.6426515313628e-08 4.03627570331129e-08
"2236" 55781 2.42447733181551e-09 2.48631299097035e-09 4.40131598020421e-09 1.88031644485102e-08 1.86119279833298e-07 4.43803002980277e-08 2.65359113634402e-08 4.03367542207687e-08
"2237" 55782 2.4211150431918e-09 2.49438538369048e-09 4.38546806556258e-09 1.84640791395785e-08 1.85611945530407e-07 4.43501692093462e-08 2.66453074132525e-08 4.03107514084246e-08
"2238" 55783 2.42893175053087e-09 2.50310417632432e-09 4.39417980316916e-09 1.84829720192498e-08 1.85559356475315e-07 4.43565660500508e-08 2.67549678230766e-08 4.04633320602328e-08
"2239" 55784 2.43863166681178e-09 2.52262937129365e-09 4.39846493514862e-09 1.83586032767177e-08 1.85578906176329e-07 4.42378948101662e-08 2.67543385180366e-08 4.05093526475146e-08
"2240" 55785 2.44833158309268e-09 2.54215456626297e-09 4.40275006712808e-09 1.82342345341855e-08 1.85598455877342e-07 4.41192235702816e-08 2.67537092129967e-08 4.05553732347964e-08
"2241" 55786 2.45803149937359e-09 2.56167976123230e-09 4.40703519910755e-09 1.81098657916534e-08 1.85618005578356e-07 4.4000552330397e-08 2.67530799079567e-08 4.06013938220783e-08
"2242" 55787 2.4677314156545e-09 2.58120495620162e-09 4.41132033108701e-09 1.79854970491213e-08 1.8563755527937e-07 4.38818810905125e-08 2.67524506029168e-08 4.06474144093601e-08
"2243" 55788 2.46810118557497e-09 2.58428981774968e-09 4.40145745385186e-09 1.78968699226602e-08 1.86014094617209e-07 4.38834596698216e-08 2.6929930752385e-08 4.07454737765666e-08
"2244" 55789 2.46847095549544e-09 2.58340317380664e-09 4.38603755550361e-09 1.77613635391749e-08 1.86018587448513e-07 4.37544701981779e-08 2.68236909962719e-08 4.06841397438358e-08
"2245" 55790 2.4688407254159e-09 2.58251652986361e-09 4.37061765715536e-09 1.76258571556895e-08 1.86023080279817e-07 4.36254807265341e-08 2.67174512401587e-08 4.06228057111051e-08
"2246" 55791 2.46921049533637e-09 2.58162988592057e-09 4.35519775880711e-09 1.74903507722042e-08 1.8602757311112e-07 4.34964912548903e-08 2.66112114840456e-08 4.05614716783743e-08
"2247" 55792 2.46958026525684e-09 2.58074324197754e-09 4.33977786045886e-09 1.73548443887189e-08 1.86032065942424e-07 4.33675017832466e-08 2.65049717279324e-08 4.05001376456436e-08
"2248" 55793 2.4699500351773e-09 2.57985659803451e-09 4.32435796211061e-09 1.72193380052335e-08 1.86036558773728e-07 4.32385123116028e-08 2.63987319718193e-08 4.04388036129128e-08
"2249" 55794 2.47183324411914e-09 2.5825720882033e-09 4.30823566456975e-09 1.70813975949447e-08 1.86391195558962e-07 4.31379334517037e-08 2.63187816385329e-08 4.04271923438974e-08
"2250" 55795 2.48875649076468e-09 2.58565694975136e-09 4.29401691853132e-09 1.69927704684836e-08 1.86378012053379e-07 4.30273108955775e-08 2.62890202264963e-08 4.03808885549323e-08
"2251" 55796 2.50567973741021e-09 2.58874181129942e-09 4.27979817249288e-09 1.69041433420225e-08 1.86364828547795e-07 4.29166883394512e-08 2.62592588144597e-08 4.03345847659672e-08
"2252" 55797 2.52260298405575e-09 2.59182667284747e-09 4.26557942645444e-09 1.68155162155614e-08 1.86351645042211e-07 4.28060657833249e-08 2.62294974024232e-08 4.0288280977002e-08
"2253" 55798 2.53952623070128e-09 2.59491153439553e-09 4.25136068041601e-09 1.67268890891002e-08 1.86338461536627e-07 4.26954432271987e-08 2.61997359903866e-08 4.02419771880369e-08
"2254" 55799 2.55644947734681e-09 2.59799639594359e-09 4.23714193437757e-09 1.66382619626391e-08 1.86325278031044e-07 4.25848206710724e-08 2.616997457835e-08 4.01956733990717e-08
"2255" 55800 2.57337272399235e-09 2.60108125749165e-09 4.22292318833913e-09 1.6549634836178e-08 1.8631209452546e-07 4.24741981149462e-08 2.61402131663134e-08 4.01493696101066e-08
"2256" 55801 2.59029597063788e-09 2.6041661190397e-09 4.2087044423007e-09 1.64610077097169e-08 1.86298911019876e-07 4.23635755588199e-08 2.61104517542769e-08 4.01030658211415e-08
"2257" 55802 2.60721921728342e-09 2.60725098058776e-09 4.19448569626226e-09 1.63723805832558e-08 1.86285727514293e-07 4.22529530026936e-08 2.60806903422403e-08 4.00567620321763e-08
"2258" 55803 2.62414246392895e-09 2.61033584213582e-09 4.18026695022382e-09 1.62837534567947e-08 1.86272544008709e-07 4.21423304465674e-08 2.60509289302037e-08 4.00104582432112e-08
"2259" 55804 2.64106571057448e-09 2.61342070368388e-09 4.16604820418539e-09 1.61951263303336e-08 1.86259360503125e-07 4.20317078904411e-08 2.60211675181672e-08 3.9964154454246e-08
"2260" 55805 2.65610574827818e-09 2.61669025092157e-09 4.16214964021414e-09 1.62255958652928e-08 1.85831784114436e-07 4.20276217577162e-08 2.60856158536174e-08 3.99570412569272e-08
"2261" 55806 2.67265922500324e-09 2.6184820582542e-09 4.16405319171656e-09 1.6256627428145e-08 1.85765018100775e-07 4.20481301114366e-08 2.6150303924321e-08 4.00094401824262e-08
"2262" 55807 2.68921270172831e-09 2.62027386558683e-09 4.16595674321898e-09 1.62876589909972e-08 1.85698252087114e-07 4.2068638465157e-08 2.62149919950246e-08 4.00618391079252e-08
"2263" 55808 2.70576617845338e-09 2.62206567291947e-09 4.1678602947214e-09 1.63186905538494e-08 1.85631486073453e-07 4.20891468188775e-08 2.62796800657282e-08 4.01142380334242e-08
"2264" 55809 2.72231965517844e-09 2.6238574802521e-09 4.16976384622382e-09 1.63497221167016e-08 1.85564720059792e-07 4.21096551725979e-08 2.63443681364318e-08 4.01666369589232e-08
"2265" 55810 2.73164980153888e-09 2.6238574802521e-09 4.18588614376467e-09 1.63260067782328e-08 1.85508086235464e-07 4.22189095791704e-08 2.63285279043078e-08 4.01799301905318e-08
"2266" 55811 2.73953522755696e-09 2.62177012493845e-09 4.18658854295728e-09 1.63054525668352e-08 1.85567665940694e-07 4.22388002279438e-08 2.63149770115713e-08 4.0169012671517e-08
"2267" 55812 2.74742065357504e-09 2.61968276962481e-09 4.18729094214989e-09 1.62848983554376e-08 1.85627245645925e-07 4.22586908767171e-08 2.63014261188347e-08 4.01580951525021e-08
"2268" 55813 2.75530607959311e-09 2.61759541431117e-09 4.18799334134249e-09 1.626434414404e-08 1.85686825351155e-07 4.22785815254905e-08 2.62878752260982e-08 4.01471776334872e-08
"2269" 55814 2.76319150561119e-09 2.61550805899752e-09 4.1886957405351e-09 1.62437899326424e-08 1.85746405056386e-07 4.22984721742639e-08 2.62743243333616e-08 4.01362601144724e-08
"2270" 55815 2.77107693162926e-09 2.61342070368388e-09 4.18939813972771e-09 1.62232357212448e-08 1.85805984761616e-07 4.23183628230372e-08 2.62607734406251e-08 4.01253425954575e-08
"2271" 55816 2.77896235764734e-09 2.61133334837023e-09 4.19010053892031e-09 1.62026815098471e-08 1.85865564466847e-07 4.23382534718106e-08 2.62472225478886e-08 4.01144250764426e-08
"2272" 55817 2.78684778366541e-09 2.60924599305659e-09 4.19080293811292e-09 1.61821272984495e-08 1.85925144172077e-07 4.23581441205839e-08 2.6233671655152e-08 4.01035075574278e-08
"2273" 55818 2.79473320968349e-09 2.60715863774295e-09 4.19150533730553e-09 1.61615730870519e-08 1.85984723877307e-07 4.23780347693573e-08 2.62201207624155e-08 4.00925900384129e-08
"2274" 55819 2.80261863570156e-09 2.6050712824293e-09 4.19220773649813e-09 1.61410188756543e-08 1.86044303582538e-07 4.23979254181306e-08 2.6206569869679e-08 4.0081672519398e-08
"2275" 55820 2.81050406171964e-09 2.60298392711566e-09 4.19291013569074e-09 1.61204646642567e-08 1.86103883287768e-07 4.2417816066904e-08 2.61930189769424e-08 4.00707550003832e-08
"2276" 55821 2.81838948773772e-09 2.60089657180201e-09 4.19361253488334e-09 1.60999104528591e-08 1.86163462992999e-07 4.24377067156773e-08 2.61794680842059e-08 4.00598374813683e-08
"2277" 55822 2.82627491375579e-09 2.59880921648837e-09 4.19431493407595e-09 1.60793562414614e-08 1.86223042698229e-07 4.24575973644507e-08 2.61659171914694e-08 4.00489199623534e-08
"2278" 55823 2.83416033977387e-09 2.59672186117473e-09 4.19501733326856e-09 1.60588020300638e-08 1.8628262240346e-07 4.2477488013224e-08 2.61523662987328e-08 4.00380024433386e-08
"2279" 55824 2.84204576579194e-09 2.59463450586108e-09 4.19571973246116e-09 1.60382478186662e-08 1.8634220210869e-07 4.24973786619974e-08 2.61388154059963e-08 4.00270849243237e-08
"2280" 55825 2.84993119181002e-09 2.59254715054744e-09 4.19642213165377e-09 1.60176936072686e-08 1.86401781813921e-07 4.25172693107707e-08 2.61252645132598e-08 4.00161674053088e-08
"2281" 55826 2.85781661782809e-09 2.58414217095317e-09 4.19132241537271e-09 1.57153262046829e-08 1.83487258149943e-07 4.18118310294975e-08 2.60065259623098e-08 3.96558474564306e-08
"2282" 55827 2.86570204384617e-09 2.57573719135891e-09 4.18622269909165e-09 1.54129588020972e-08 1.80572734485966e-07 4.11063927482242e-08 2.58877874113598e-08 3.92955275075524e-08
"2283" 55828 2.87135167067169e-09 2.57603273933992e-09 4.18502154678183e-09 1.54046450714793e-08 1.80623866813601e-07 4.11063927482242e-08 2.57585011706726e-08 3.87204054670283e-08
"2284" 55829 2.87700129749721e-09 2.57632828732093e-09 4.18382039447202e-09 1.53963313408614e-08 1.80674999141237e-07 4.11063927482242e-08 2.56292149299855e-08 3.81452834265041e-08
"2285" 55830 2.88265092432273e-09 2.57662383530194e-09 4.18261924216221e-09 1.53880176102436e-08 1.80726131468873e-07 4.11063927482242e-08 2.54999286892983e-08 3.75701613859799e-08
"2286" 55831 2.88830055114825e-09 2.57691938328295e-09 4.18141808985239e-09 1.53797038796257e-08 1.80777263796509e-07 4.11063927482242e-08 2.53706424486111e-08 3.69950393454557e-08
"2287" 55832 2.88830055114825e-09 2.57800923236218e-09 4.18856283128352e-09 1.5369616411703e-08 1.80889168993902e-07 4.10925649287085e-08 2.52400943416776e-08 3.64493987884105e-08
"2288" 55833 2.88830055114825e-09 2.57909908144141e-09 4.19570757271466e-09 1.53595289437802e-08 1.81001074191294e-07 4.10787371091927e-08 2.51095462347441e-08 3.59037582313652e-08
"2289" 55834 2.88920343352543e-09 2.58000424483101e-09 4.19450642040484e-09 1.537176942456e-08 1.81588279950232e-07 4.11314996738613e-08 2.50199205081801e-08 3.53630753572997e-08
"2290" 55835 2.89010631590261e-09 2.58090940822061e-09 4.19330526809503e-09 1.53840099053398e-08 1.82175485709169e-07 4.11842622385299e-08 2.49302947816162e-08 3.48223924832342e-08
"2291" 55836 2.89100919827978e-09 2.58181457161021e-09 4.19210411578522e-09 1.53962503861195e-08 1.82762691468106e-07 4.12370248031985e-08 2.48406690550523e-08 3.42817096091688e-08
"2292" 55837 2.89191208065696e-09 2.5827197349998e-09 4.1909029634754e-09 1.54084908668993e-08 1.83349897227044e-07 4.12897873678671e-08 2.47510433284883e-08 3.37410267351033e-08
"2293" 55838 2.89281496303414e-09 2.5836248983894e-09 4.18970181116559e-09 1.5420731347679e-08 1.83937102985981e-07 4.13425499325357e-08 2.46614176019244e-08 3.32003438610378e-08
"2294" 55839 2.89371784541132e-09 2.584530061779e-09 4.18850065885578e-09 1.54329718284588e-08 1.84524308744918e-07 4.13953124972043e-08 2.45717918753605e-08 3.26596609869723e-08
"2295" 55840 2.89462072778849e-09 2.5854352251686e-09 4.18729950654596e-09 1.54452123092385e-08 1.85111514503856e-07 4.14480750618729e-08 2.44821661487965e-08 3.21189781129069e-08
"2296" 55841 2.87684613777504e-09 2.5863403885582e-09 4.17566598705997e-09 1.52751445682574e-08 1.8525684021335e-07 4.11203531038892e-08 2.44682310284214e-08 3.20978653332931e-08
"2297" 55842 2.85907154776158e-09 2.58724555194779e-09 4.16403246757397e-09 1.51050768272763e-08 1.85402165922845e-07 4.07926311459054e-08 2.44542959080463e-08 3.20767525536793e-08
"2298" 55843 2.84129695774813e-09 2.58815071533739e-09 4.15239894808798e-09 1.49350090862952e-08 1.85547491632339e-07 4.04649091879217e-08 2.44403607876711e-08 3.20556397740656e-08
"2299" 55844 2.82352236773467e-09 2.58905587872699e-09 4.14076542860199e-09 1.47649413453141e-08 1.85692817341834e-07 4.01371872299379e-08 2.4426425667296e-08 3.20345269944518e-08
"2300" 55845 2.82597304847272e-09 2.59505943558004e-09 4.1527062148763e-09 1.45765918833574e-08 1.85178060539732e-07 3.97785105766767e-08 2.4376850024642e-08 3.20978639935163e-08
"2301" 55846 2.82842372921078e-09 2.60106299243309e-09 4.1646470011506e-09 1.43882424214008e-08 1.8466330373763e-07 3.94198339234154e-08 2.43272743819879e-08 3.21612009925807e-08
"2302" 55847 2.80159413890011e-09 2.59452389795771e-09 4.15266836194156e-09 1.4331226565651e-08 1.84490291150257e-07 3.90808923352253e-08 2.41095943140765e-08 3.21904874791763e-08
"2303" 55848 2.77476454858945e-09 2.58798480348233e-09 4.14068972273252e-09 1.42742107099012e-08 1.84317278562884e-07 3.87419507470352e-08 2.38919142461651e-08 3.22197739657719e-08
"2304" 55849 2.74793495827878e-09 2.58144570900695e-09 4.12871108352348e-09 1.42171948541514e-08 1.84144265975512e-07 3.84030091588451e-08 2.36742341782536e-08 3.22490604523675e-08
"2305" 55850 2.72110536796811e-09 2.57490661453157e-09 4.11673244431443e-09 1.41601789984016e-08 1.83971253388139e-07 3.80640675706551e-08 2.34565541103422e-08 3.2278346938963e-08
"2306" 55851 2.69427577765745e-09 2.56836752005619e-09 4.10475380510539e-09 1.41031631426518e-08 1.83798240800766e-07 3.7725125982465e-08 2.32388740424308e-08 3.23076334255586e-08
"2307" 55852 2.66744618734678e-09 2.56182842558081e-09 4.09277516589635e-09 1.4046147286902e-08 1.83625228213393e-07 3.73861843942749e-08 2.30211939745194e-08 3.23369199121542e-08
"2308" 55853 2.64061659703611e-09 2.55528933110543e-09 4.0807965266873e-09 1.39891314311522e-08 1.83452215626021e-07 3.70472428060848e-08 2.2803513906608e-08 3.23662063987498e-08
"2309" 55854 2.59356173597394e-09 2.54875023663005e-09 4.04524358171796e-09 1.39562243333963e-08 1.83664106637043e-07 3.67021011208711e-08 2.26218639307621e-08 3.22875214592233e-08
"2310" 55855 2.54650687491176e-09 2.54221114215467e-09 4.00969063674861e-09 1.39233172356403e-08 1.83875997648064e-07 3.63569594356574e-08 2.24402139549162e-08 3.22088365196968e-08
"2311" 55856 2.49945201384958e-09 2.53567204767929e-09 3.97413769177926e-09 1.38904101378843e-08 1.84087888659086e-07 3.60118177504438e-08 2.22585639790704e-08 3.21301515801704e-08
"2312" 55857 2.45239715278741e-09 2.52913295320391e-09 3.93858474680992e-09 1.38575030401283e-08 1.84299779670108e-07 3.56666760652301e-08 2.20769140032245e-08 3.20514666406439e-08
"2313" 55858 2.40534229172523e-09 2.52259385872853e-09 3.90303180184057e-09 1.38245959423724e-08 1.8451167068113e-07 3.53215343800164e-08 2.18952640273787e-08 3.19727817011175e-08
"2314" 55859 2.35828743066305e-09 2.51605476425315e-09 3.86747885687123e-09 1.37916888446164e-08 1.84723561692152e-07 3.49763926948028e-08 2.17136140515328e-08 3.1894096761591e-08
"2315" 55860 2.31123256960088e-09 2.50951566977777e-09 3.83192591190188e-09 1.37587817468604e-08 1.84935452703174e-07 3.46312510095891e-08 2.15319640756869e-08 3.18154118220645e-08
"2316" 55861 2.2641777085387e-09 2.50297657530239e-09 3.79637296693254e-09 1.37258746491045e-08 1.85147343714196e-07 3.42861093243754e-08 2.13503140998411e-08 3.17367268825381e-08
"2317" 55862 2.21712284747652e-09 2.49643748082701e-09 3.76082002196319e-09 1.36929675513485e-08 1.85359234725217e-07 3.39409676391617e-08 2.11686641239952e-08 3.16580419430116e-08
"2318" 55863 2.22050231576998e-09 2.49826632705277e-09 3.75526300085009e-09 1.36987945883668e-08 1.85376234915754e-07 3.3960780496084e-08 2.11988889800943e-08 3.15023255181365e-08
"2319" 55864 2.20489480627008e-09 2.48867915553446e-09 3.73168869508979e-09 1.36649882459821e-08 1.85601124933221e-07 3.38972146326135e-08 2.12208940510647e-08 3.1383165972002e-08
"2320" 55865 2.18928729677017e-09 2.47909198401615e-09 3.70811438932948e-09 1.36311819035974e-08 1.85826014950688e-07 3.38336487691431e-08 2.12428991220352e-08 3.12640064258675e-08
"2321" 55866 2.17367978727026e-09 2.46950481249784e-09 3.68454008356918e-09 1.35973755612127e-08 1.86050904968155e-07 3.37700829056726e-08 2.12649041930056e-08 3.1144846879733e-08
"2322" 55867 2.15807227777035e-09 2.45991764097953e-09 3.66096577780888e-09 1.35635692188279e-08 1.86275794985623e-07 3.37065170422021e-08 2.1286909263976e-08 3.10256873335985e-08
"2323" 55868 2.14246476827045e-09 2.45033046946121e-09 3.63739147204857e-09 1.35297628764432e-08 1.8650068500309e-07 3.36429511787317e-08 2.13089143349465e-08 3.0906527787464e-08
"2324" 55869 2.12523201622218e-09 2.43503528907086e-09 3.61311476709567e-09 1.34906915249332e-08 1.86878402293054e-07 3.35449530342378e-08 2.13788896058888e-08 3.08051880530502e-08
"2325" 55870 2.10611605523207e-09 2.42155043545971e-09 3.58954046133536e-09 1.342745521264e-08 1.86722814639385e-07 3.34469548897438e-08 2.13676227103916e-08 3.07634280917036e-08
"2326" 55871 2.08700009424196e-09 2.40806558184856e-09 3.56596615557506e-09 1.33642189003469e-08 1.86567226985717e-07 3.33489567452499e-08 2.13563558148945e-08 3.0721668130357e-08
"2327" 55872 2.06788413325185e-09 2.39458072823741e-09 3.54239184981476e-09 1.33009825880537e-08 1.86411639332049e-07 3.3250958600756e-08 2.13450889193973e-08 3.06799081690104e-08
"2328" 55873 2.04876817226174e-09 2.38109587462626e-09 3.51881754405446e-09 1.32377462757606e-08 1.8625605167838e-07 3.31529604562621e-08 2.13338220239002e-08 3.06381482076638e-08
"2329" 55874 2.02965221127163e-09 2.3676110210151e-09 3.49524323829415e-09 1.31745099634674e-08 1.86100464024712e-07 3.30549623117682e-08 2.1322555128403e-08 3.05963882463172e-08
"2330" 55875 2.01053625028152e-09 2.35412616740395e-09 3.47166893253385e-09 1.31112736511743e-08 1.85944876371043e-07 3.29569641672743e-08 2.13112882329059e-08 3.05546282849707e-08
"2331" 55876 1.99142028929142e-09 2.3406413137928e-09 3.44809462677355e-09 1.30480373388811e-08 1.85789288717375e-07 3.28589660227804e-08 2.13000213374087e-08 3.05128683236241e-08
"2332" 55877 1.97230432830131e-09 2.32715646018165e-09 3.42452032101325e-09 1.2984801026588e-08 1.85633701063707e-07 3.27609678782865e-08 2.12887544419115e-08 3.04711083622775e-08
"2333" 55878 1.9531883673112e-09 2.3136716065705e-09 3.40094601525294e-09 1.29215647142948e-08 1.85478113410038e-07 3.26629697337925e-08 2.12774875464144e-08 3.04293484009309e-08
"2334" 55879 1.93407240632109e-09 2.30018675295934e-09 3.37737170949264e-09 1.28583284020016e-08 1.8532252575637e-07 3.25649715892986e-08 2.12662206509172e-08 3.03875884395843e-08
"2335" 55880 1.91495644533098e-09 2.28670189934819e-09 3.35379740373234e-09 1.27950920897085e-08 1.85166938102702e-07 3.24669734448047e-08 2.12549537554201e-08 3.03458284782377e-08
"2336" 55881 1.89584048434087e-09 2.27321704573704e-09 3.33022309797204e-09 1.27318557774153e-08 1.85011350449033e-07 3.23689753003108e-08 2.12436868599229e-08 3.03040685168911e-08
"2337" 55882 1.87672452335076e-09 2.25973219212589e-09 3.30664879221173e-09 1.26686194651222e-08 1.84855762795365e-07 3.22709771558169e-08 2.12324199644258e-08 3.02623085555445e-08
"2338" 55883 1.85760856236066e-09 2.24624733851473e-09 3.28307448645143e-09 1.2605383152829e-08 1.84700175141696e-07 3.2172979011323e-08 2.12211530689286e-08 3.02205485941979e-08
"2339" 55884 1.83849260137055e-09 2.23276248490358e-09 3.25950018069113e-09 1.25421468405359e-08 1.84544587488028e-07 3.20749808668291e-08 2.12098861734315e-08 3.01787886328513e-08
"2340" 55885 1.83165622059614e-09 2.22840308858666e-09 3.25623327908866e-09 1.25429230716063e-08 1.84483547002093e-07 3.20454949569989e-08 2.11378859231137e-08 3.02557146658935e-08
"2341" 55886 1.82481983982173e-09 2.22404369226974e-09 3.25296637748620e-09 1.25436993026768e-08 1.84422506516157e-07 3.20160090471688e-08 2.10658856727959e-08 3.03326406989356e-08
"2342" 55887 1.81918739266597e-09 2.2201460101769e-09 3.22420089447842e-09 1.22722545933579e-08 1.83937447817398e-07 3.20167914937861e-08 2.09846435063564e-08 3.04132483538606e-08
"2343" 55888 1.8135549455102e-09 2.21624832808406e-09 3.19543541147065e-09 1.2000809884039e-08 1.83452389118638e-07 3.20175739404034e-08 2.0903401339917e-08 3.04938560087857e-08
"2344" 55889 1.80792249835443e-09 2.21235064599122e-09 3.16666992846288e-09 1.17293651747201e-08 1.82967330419879e-07 3.20183563870207e-08 2.08221591734775e-08 3.05744636637107e-08
"2345" 55890 1.80229005119866e-09 2.20845296389838e-09 3.13790444545511e-09 1.14579204654012e-08 1.82482271721119e-07 3.20191388336381e-08 2.07409170070381e-08 3.06550713186358e-08
"2346" 55891 1.79702737396336e-09 2.20244940704534e-09 3.10823291717933e-09 1.123469327207e-08 1.82285578493801e-07 3.20903415775688e-08 2.06528967231563e-08 3.06715726203816e-08
"2347" 55892 1.79176469672806e-09 2.19644585019229e-09 3.07856138890355e-09 1.10114660787388e-08 1.82088885266483e-07 3.21615443214996e-08 2.05648764392746e-08 3.06880739221274e-08
"2348" 55893 1.7958321658532e-09 2.19461700396653e-09 3.05814179963672e-09 1.07392451383494e-08 1.8177074768175e-07 3.21615443214996e-08 2.04993546373324e-08 3.07519441693221e-08
"2349" 55894 1.79989963497834e-09 2.19278815774077e-09 3.0377222103699e-09 1.04670241979601e-08 1.81452610097016e-07 3.21615443214996e-08 2.04338328353903e-08 3.08158144165169e-08
"2350" 55895 1.80396710410348e-09 2.19095931151501e-09 3.01730262110307e-09 1.01948032575707e-08 1.81134472512283e-07 3.21615443214996e-08 2.03683110334481e-08 3.08796846637117e-08
"2351" 55896 1.80803457322862e-09 2.18913046528925e-09 2.99688303183624e-09 9.92258231718139e-09 1.80816334927549e-07 3.21615443214996e-08 2.0302789231506e-08 3.09435549109064e-08
"2352" 55897 1.81210204235376e-09 2.18730161906349e-09 2.97646344256941e-09 9.65036137679204e-09 1.80498197342816e-07 3.21615443214996e-08 2.02372674295638e-08 3.10074251581012e-08
"2353" 55898 1.8161695114789e-09 2.18547277283773e-09 2.95604385330259e-09 9.3781404364027e-09 1.80180059758082e-07 3.21615443214996e-08 2.01717456276217e-08 3.10712954052959e-08
"2354" 55899 1.82023698060404e-09 2.18364392661197e-09 2.93562426403576e-09 9.10591949601335e-09 1.79861922173349e-07 3.21615443214996e-08 2.01062238256795e-08 3.11351656524907e-08
"2355" 55900 1.82980791368821e-09 2.18781863723926e-09 2.93297686505557e-09 9.03364942482118e-09 1.80008390356321e-07 3.21320309377652e-08 2.01151714148826e-08 3.10751123276777e-08
"2356" 55901 1.83937884677238e-09 2.19199334786655e-09 2.93032946607538e-09 8.961379353629e-09 1.80154858539292e-07 3.21025175540308e-08 2.01241190040856e-08 3.10150590028646e-08
"2357" 55902 1.84894977985655e-09 2.19616805849383e-09 2.92768206709518e-09 8.88910928243682e-09 1.80301326722264e-07 3.20730041702964e-08 2.01330665932887e-08 3.09550056780516e-08
"2358" 55903 1.85852071294072e-09 2.20034276912112e-09 2.92503466811499e-09 8.81683921124464e-09 1.80447794905236e-07 3.2043490786562e-08 2.01420141824918e-08 3.08949523532386e-08
"2359" 55904 1.86522811051838e-09 2.20680804019825e-09 2.91422429732667e-09 8.75038556909106e-09 1.80420049229811e-07 3.20630519519949e-08 2.01420141824918e-08 3.07643970895226e-08
"2360" 55905 1.86522811051838e-09 2.20680804019825e-09 2.90277369977349e-09 8.7079950901217e-09 1.80380769381894e-07 3.20322298946217e-08 2.01420141824918e-08 3.07099229006196e-08
"2361" 55906 1.87206449129279e-09 2.2045727837001e-09 2.89785690542525e-09 8.71303528808983e-09 1.80313473189718e-07 3.20101016998582e-08 2.01538044558647e-08 3.07032912089114e-08
"2362" 55907 1.87890087206719e-09 2.20233752720195e-09 2.892940111077e-09 8.71807548605797e-09 1.80246176997542e-07 3.19879735050947e-08 2.01655947292377e-08 3.06966595172032e-08
"2363" 55908 1.8857372528416e-09 2.2001022707038e-09 2.88802331672876e-09 8.7231156840261e-09 1.80178880805365e-07 3.19658453103312e-08 2.01773850026107e-08 3.0690027825495e-08
"2364" 55909 1.89257363361601e-09 2.19786701420565e-09 2.88310652238051e-09 8.72815588199424e-09 1.80111584613189e-07 3.19437171155676e-08 2.01891752759837e-08 3.06833961337869e-08
"2365" 55910 1.89941001439041e-09 2.19563175770750e-09 2.87818972803227e-09 8.73319607996237e-09 1.80044288421013e-07 3.19215889208041e-08 2.02009655493566e-08 3.06767644420787e-08
"2366" 55911 1.90624639516482e-09 2.19339650120934e-09 2.87327293368402e-09 8.73823627793051e-09 1.79976992228837e-07 3.18994607260406e-08 2.02127558227296e-08 3.06701327503705e-08
"2367" 55912 1.91308277593923e-09 2.19116124471119e-09 2.86835613933578e-09 8.74327647589864e-09 1.79909696036661e-07 3.18773325312771e-08 2.02245460961026e-08 3.06635010586623e-08
"2368" 55913 1.91432106889737e-09 2.1866354277632e-09 2.86473195826376e-09 8.76744143668176e-09 1.80155482994001e-07 3.18096988510178e-08 2.02695837111846e-08 3.07031307070412e-08
"2369" 55914 1.9312443155429e-09 2.18031780348258e-09 2.8590213037565e-09 8.88646775133988e-09 1.81033245895734e-07 3.19209344822295e-08 2.03373488591633e-08 3.11356770062936e-08
"2370" 55915 1.94816756218843e-09 2.17400017920196e-09 2.85331064924924e-09 9.005494065998e-09 1.81911008797467e-07 3.20321701134412e-08 2.04051140071421e-08 3.1568223305546e-08
"2371" 55916 1.96509080883397e-09 2.16768255492134e-09 2.84759999474198e-09 9.12452038065611e-09 1.82788771699199e-07 3.21434057446529e-08 2.04728791551209e-08 3.20007696047984e-08
"2372" 55917 1.9820140554795e-09 2.16136493064071e-09 2.84188934023472e-09 9.24354669531423e-09 1.83666534600932e-07 3.22546413758646e-08 2.05406443030996e-08 3.24333159040507e-08
"2373" 55918 1.99893730212504e-09 2.15504730636009e-09 2.83617868572746e-09 9.36257300997235e-09 1.84544297502665e-07 3.23658770070762e-08 2.06084094510784e-08 3.28658622033031e-08
"2374" 55919 2.01586054877057e-09 2.14872968207947e-09 2.8304680312202e-09 9.48159932463046e-09 1.85422060404397e-07 3.24771126382879e-08 2.06761745990572e-08 3.32984085025555e-08
"2375" 55920 2.0327837954161e-09 2.14241205779885e-09 2.82475737671294e-09 9.60062563928858e-09 1.8629982330613e-07 3.25883482694996e-08 2.0743939747036e-08 3.37309548018079e-08
"2376" 55921 2.04970704206164e-09 2.13609443351822e-09 2.81904672220568e-09 9.71965195394669e-09 1.87177586207863e-07 3.26995839007113e-08 2.08117048950147e-08 3.41635011010603e-08
"2377" 55922 2.06650130551043e-09 2.13738748773365e-09 2.81825286204667e-09 9.83585435826946e-09 1.88036792861568e-07 3.28570251440784e-08 2.08795899106202e-08 3.45333272073576e-08
"2378" 55923 2.08266783264528e-09 2.13956718589211e-09 2.81825286204667e-09 9.94984047495944e-09 1.8859408153997e-07 3.30309755582603e-08 2.09450956861182e-08 3.496587350661e-08
"2379" 55924 2.09883435978013e-09 2.14174688405057e-09 2.81825286204667e-09 1.00638265916494e-08 1.89151370218373e-07 3.32049259724421e-08 2.10106014616162e-08 3.53984198058624e-08
"2380" 55925 2.11500088691497e-09 2.14392658220903e-09 2.81825286204667e-09 1.01778127083394e-08 1.89708658896775e-07 3.33788763866239e-08 2.10761072371142e-08 3.58309661051148e-08
"2381" 55926 2.13116741404982e-09 2.14610628036749e-09 2.81825286204667e-09 1.02917988250294e-08 1.90265947575178e-07 3.35528268008057e-08 2.11416130126122e-08 3.62635124043672e-08
"2382" 55927 2.14733394118467e-09 2.14828597852595e-09 2.81825286204667e-09 1.04057849417194e-08 1.90823236253581e-07 3.37267772149876e-08 2.12071187881102e-08 3.66960587036195e-08
"2383" 55928 2.14733394118467e-09 2.14828597852595e-09 2.82666092821536e-09 1.04020197279389e-08 1.9045759547437e-07 3.37342401958095e-08 2.13323850369531e-08 3.66997403255025e-08
"2384" 55929 2.14846043061582e-09 2.14898793677935e-09 2.8287474016506e-09 1.04593165976352e-08 1.9008401012393e-07 3.38581780305046e-08 2.13322352024197e-08 3.67108607952655e-08
"2385" 55930 2.15217530949025e-09 2.16939977569171e-09 2.87797032685993e-09 1.04731692793384e-08 1.89699326503321e-07 3.38978037443491e-08 2.14581906901159e-08 3.67446705549291e-08
"2386" 55931 2.15589018836467e-09 2.18981161460407e-09 2.92719325206926e-09 1.04870219610416e-08 1.89314642882711e-07 3.39374294581937e-08 2.1584146177812e-08 3.67784803145926e-08
"2387" 55932 2.1596050672391e-09 2.21022345351643e-09 2.9764161772786e-09 1.05008746427448e-08 1.88929959262102e-07 3.39770551720382e-08 2.17101016655082e-08 3.68122900742562e-08
"2388" 55933 2.16331994611352e-09 2.23063529242879e-09 3.02563910248793e-09 1.0514727324448e-08 1.88545275641493e-07 3.40166808858827e-08 2.18360571532043e-08 3.68460998339197e-08
"2389" 55934 2.16703482498795e-09 2.25104713134115e-09 3.07486202769726e-09 1.05285800061512e-08 1.88160592020883e-07 3.40563065997273e-08 2.19620126409005e-08 3.68799095935832e-08
"2390" 55935 2.17074970386237e-09 2.2714589702535e-09 3.1240849529066e-09 1.05424326878544e-08 1.87775908400274e-07 3.40959323135718e-08 2.20879681285966e-08 3.69137193532468e-08
"2391" 55936 2.1744645827368e-09 2.29187080916586e-09 3.17330787811593e-09 1.05562853695576e-08 1.87391224779664e-07 3.41355580274163e-08 2.22139236162927e-08 3.69475291129103e-08
"2392" 55937 2.17817946161122e-09 2.31228264807822e-09 3.22253080332527e-09 1.05701380512608e-08 1.87006541159055e-07 3.41751837412609e-08 2.23398791039889e-08 3.69813388725739e-08
"2393" 55938 2.18189434048564e-09 2.33269448699058e-09 3.2717537285346e-09 1.0583990732964e-08 1.86621857538445e-07 3.42148094551054e-08 2.2465834591685e-08 3.70151486322374e-08
"2394" 55939 2.18560921936007e-09 2.35310632590294e-09 3.32097665374393e-09 1.05978434146672e-08 1.86237173917836e-07 3.42544351689499e-08 2.25917900793812e-08 3.7048958391901e-08
"2395" 55940 2.18932409823449e-09 2.3735181648153e-09 3.37019957895327e-09 1.06116960963704e-08 1.85852490297226e-07 3.42940608827945e-08 2.27177455670773e-08 3.70827681515645e-08
"2396" 55941 2.19303897710892e-09 2.39393000372766e-09 3.4194225041626e-09 1.06255487780736e-08 1.85467806676617e-07 3.4333686596639e-08 2.28437010547735e-08 3.7116577911228e-08
"2397" 55942 2.19675385598334e-09 2.41434184264002e-09 3.46864542937193e-09 1.06394014597768e-08 1.85083123056007e-07 3.43733123104835e-08 2.29696565424696e-08 3.71503876708916e-08
"2398" 55943 2.20046873485777e-09 2.43475368155238e-09 3.51786835458127e-09 1.065325414148e-08 1.84698439435398e-07 3.44129380243281e-08 2.30956120301657e-08 3.71841974305551e-08
"2399" 55944 2.20370204028474e-09 2.43903925447104e-09 3.5670912797906e-09 1.06732007301751e-08 1.84333175760962e-07 3.4436740906188e-08 2.32276424559884e-08 3.71453749383481e-08
"2400" 55945 2.20693534571171e-09 2.44332482738971e-09 3.61631420499994e-09 1.06931473188701e-08 1.83967912086525e-07 3.44605437880479e-08 2.3359672881811e-08 3.71065524461411e-08
"2401" 55946 2.21065022458613e-09 2.46183399667806e-09 3.65982647570201e-09 1.06565626609596e-08 1.83258980142184e-07 3.43002106618712e-08 2.32670492943958e-08 3.71482069551811e-08
"2402" 55947 2.21436510346056e-09 2.4803431659664e-09 3.70333874640409e-09 1.06199780030492e-08 1.82550048197843e-07 3.41398775356945e-08 2.31744257069805e-08 3.71898614642212e-08
"2403" 55948 2.21373736714661e-09 2.4791424545958e-09 3.69823903012302e-09 1.05675491869599e-08 1.81976408103106e-07 3.39375530398852e-08 2.29616518678357e-08 3.71910745218895e-08
"2404" 55949 2.21310963083266e-09 2.47794174322519e-09 3.69313931384196e-09 1.05151203708707e-08 1.81402768008369e-07 3.37352285440758e-08 2.27488780286908e-08 3.71922875795578e-08
"2405" 55950 2.21359120428012e-09 2.47603907360117e-09 3.68822251949372e-09 1.04626915547814e-08 1.80864963127528e-07 3.35897893775323e-08 2.25262789617351e-08 3.73341868183356e-08
"2406" 55951 2.21407277772757e-09 2.47413640397716e-09 3.68330572514547e-09 1.04102627386921e-08 1.80327158246687e-07 3.34443502109888e-08 2.23036798947794e-08 3.74760860571135e-08
"2407" 55952 2.21455435117503e-09 2.47223373435315e-09 3.67838893079723e-09 1.03578339226029e-08 1.79789353365846e-07 3.32989110444453e-08 2.20810808278237e-08 3.76179852958913e-08
"2408" 55953 2.21503592462248e-09 2.47033106472914e-09 3.67347213644898e-09 1.03054051065136e-08 1.79251548485005e-07 3.31534718779018e-08 2.18584817608681e-08 3.77598845346691e-08
"2409" 55954 2.21551749806994e-09 2.46842839510513e-09 3.66855534210074e-09 1.02529762904244e-08 1.78713743604164e-07 3.30080327113583e-08 2.16358826939124e-08 3.79017837734469e-08
"2410" 55955 2.21599907151739e-09 2.46652572548111e-09 3.66363854775249e-09 1.02005474743351e-08 1.78175938723323e-07 3.28625935448148e-08 2.14132836269567e-08 3.80436830122247e-08
"2411" 55956 2.21648064496485e-09 2.4646230558571e-09 3.65872175340425e-09 1.01481186582458e-08 1.77638133842483e-07 3.27171543782713e-08 2.1190684560001e-08 3.81855822510026e-08
"2412" 55957 2.2169622184123e-09 2.46272038623309e-09 3.653804959056e-09 1.00956898421566e-08 1.77100328961642e-07 3.25717152117278e-08 2.09680854930453e-08 3.83274814897804e-08
"2413" 55958 2.20682381353192e-09 2.42756742399928e-09 3.63929967037184e-09 1.00974635794614e-08 1.77274106917717e-07 3.23807430857844e-08 2.07602146265006e-08 3.83809283242566e-08
"2414" 55959 2.19668540865154e-09 2.39241446176547e-09 3.62479438168767e-09 1.00992373167663e-08 1.77447884873793e-07 3.2189770959841e-08 2.05523437599558e-08 3.84343751587329e-08
"2415" 55960 2.18654700377116e-09 2.35726149953166e-09 3.6102890930035e-09 1.01010110540712e-08 1.77621662829868e-07 3.19987988338975e-08 2.03444728934111e-08 3.84878219932092e-08
"2416" 55961 2.17640859889077e-09 2.32210853729784e-09 3.59578380431933e-09 1.01027847913761e-08 1.77795440785944e-07 3.18078267079541e-08 2.01366020268663e-08 3.85412688276854e-08
"2417" 55962 2.22294752716599e-09 2.31743481916535e-09 3.61086714734061e-09 1.02814928717311e-08 1.77998378560349e-07 3.17362853227148e-08 1.99274692940752e-08 3.85085036699551e-08
"2418" 55963 2.28049338335927e-09 2.3275022243543e-09 3.63229280723792e-09 1.04378730033837e-08 1.78106392062247e-07 3.18937265660819e-08 1.99196091118266e-08 3.85559402656535e-08
"2419" 55964 2.33803923955254e-09 2.33756962954326e-09 3.65371846713524e-09 1.05942531350363e-08 1.78214405564144e-07 3.20511678094491e-08 1.99117489295779e-08 3.86033768613518e-08
"2420" 55965 2.39558509574582e-09 2.34763703473221e-09 3.67514412703256e-09 1.07506332666888e-08 1.78322419066042e-07 3.22086090528162e-08 1.99038887473293e-08 3.86508134570501e-08
"2421" 55966 2.45313095193909e-09 2.35770443992117e-09 3.69656978692987e-09 1.09070133983414e-08 1.78430432567939e-07 3.23660502961834e-08 1.98960285650806e-08 3.86982500527485e-08
"2422" 55967 2.51067680813237e-09 2.36777184511012e-09 3.71799544682719e-09 1.1063393529994e-08 1.78538446069837e-07 3.25234915395505e-08 1.9888168382832e-08 3.87456866484468e-08
"2423" 55968 2.56822266432564e-09 2.37783925029908e-09 3.73942110672451e-09 1.12197736616466e-08 1.78646459571735e-07 3.26809327829177e-08 1.98803082005833e-08 3.87931232441452e-08
"2424" 55969 2.62576852051892e-09 2.38790665548804e-09 3.76084676662183e-09 1.13761537932991e-08 1.78754473073632e-07 3.28383740262848e-08 1.98724480183347e-08 3.88405598398435e-08
"2425" 55970 2.68331437671219e-09 2.39797406067699e-09 3.78227242651914e-09 1.15325339249517e-08 1.7886248657553e-07 3.2995815269652e-08 1.9864587836086e-08 3.88879964355419e-08
"2426" 55971 2.70667832903344e-09 2.40702569457297e-09 3.77682759051503e-09 1.15142522039762e-08 1.78915966700916e-07 3.29829941143387e-08 1.9864767637526e-08 4.0063763790591e-08
"2427" 55972 2.73004228135468e-09 2.41607732846895e-09 3.77138275451092e-09 1.14959704830006e-08 1.78969446826302e-07 3.29701729590254e-08 1.9864947438966e-08 4.12395311456401e-08
"2428" 55973 2.75340623367592e-09 2.42512896236493e-09 3.76593791850681e-09 1.14776887620251e-08 1.79022926951688e-07 3.29573518037121e-08 1.9865127240406e-08 4.24152985006891e-08
"2429" 55974 2.77677018599717e-09 2.43418059626091e-09 3.7604930825027e-09 1.14594070410496e-08 1.79076407077074e-07 3.29445306483988e-08 1.9865307041846e-08 4.35910658557382e-08
"2430" 55975 2.80013413831841e-09 2.44323223015689e-09 3.75504824649859e-09 1.1441125320074e-08 1.79129887202461e-07 3.29317094930855e-08 1.9865486843286e-08 4.47668332107873e-08
"2431" 55976 2.82349809063966e-09 2.45228386405287e-09 3.74960341049448e-09 1.14228435990985e-08 1.79183367327847e-07 3.29188883377722e-08 1.98656666447259e-08 4.59426005658364e-08
"2432" 55977 2.8468620429609e-09 2.46133549794885e-09 3.74415857449037e-09 1.1404561878123e-08 1.79236847453233e-07 3.2906067182459e-08 1.98658464461659e-08 4.71183679208855e-08
"2433" 55978 2.87022599528214e-09 2.47038713184483e-09 3.73871373848626e-09 1.13862801571474e-08 1.79290327578619e-07 3.28932460271457e-08 1.98660262476059e-08 4.82941352759345e-08
"2434" 55979 2.89358994760339e-09 2.47943876574081e-09 3.73326890248215e-09 1.13679984361719e-08 1.79343807704005e-07 3.28804248718324e-08 1.98662060490459e-08 4.94699026309836e-08
"2435" 55980 2.9173236698451e-09 2.49351471531399e-09 3.72782406647804e-09 1.12314068928262e-08 1.78420779916949e-07 3.28837010840357e-08 1.97758225515009e-08 5.06546349414567e-08
"2436" 55981 2.94030067257612e-09 2.5193760540105e-09 3.72516810310177e-09 1.12022088060614e-08 1.78029022529161e-07 3.28959456943807e-08 1.97787305116322e-08 5.18196877282391e-08
"2437" 55982 2.96327767530715e-09 2.54523739270701e-09 3.7225121397255e-09 1.11730107192966e-08 1.77637265141373e-07 3.29081903047257e-08 1.97816384717635e-08 5.29847405150215e-08
"2438" 55983 2.98625467803817e-09 2.57109873140352e-09 3.71985617634923e-09 1.11438126325318e-08 1.77245507753585e-07 3.29204349150707e-08 1.97845464318948e-08 5.41497933018039e-08
"2439" 55984 3.0092316807692e-09 2.59696007010003e-09 3.71720021297297e-09 1.1114614545767e-08 1.76853750365797e-07 3.29326795254157e-08 1.97874543920261e-08 5.53148460885863e-08
"2440" 55985 3.03220868350022e-09 2.62282140879654e-09 3.7145442495967e-09 1.10854164590022e-08 1.76461992978009e-07 3.29449241357607e-08 1.97903623521574e-08 5.64798988753688e-08
"2441" 55986 3.03220868350022e-09 2.6277165971238e-09 3.71408694476466e-09 1.10537210706581e-08 1.7610904405717e-07 3.30437733607549e-08 1.98478035192081e-08 5.64691843071021e-08
"2442" 55987 3.03220868350022e-09 2.63261178545105e-09 3.71362963993262e-09 1.10220256823141e-08 1.75756095136331e-07 3.31426225857492e-08 1.99052446862589e-08 5.64584697388354e-08
"2443" 55988 3.03220868350022e-09 2.6375069737783e-09 3.71317233510057e-09 1.099033029397e-08 1.75403146215491e-07 3.32414718107434e-08 1.99626858533096e-08 5.64477551705687e-08
"2444" 55989 3.03220868350022e-09 2.64240216210556e-09 3.71271503026853e-09 1.09586349056259e-08 1.75050197294652e-07 3.33403210357376e-08 2.00201270203604e-08 5.64370406023021e-08
"2445" 55990 3.03220868350022e-09 2.64729735043281e-09 3.71225772543649e-09 1.09269395172819e-08 1.74697248373812e-07 3.34391702607319e-08 2.00775681874111e-08 5.64263260340354e-08
"2446" 55991 3.03220868350022e-09 2.65219253876007e-09 3.71180042060445e-09 1.08952441289378e-08 1.74344299452973e-07 3.35380194857261e-08 2.01350093544619e-08 5.64156114657687e-08
"2447" 55992 3.03220868350022e-09 2.65708772708732e-09 3.71134311577241e-09 1.08635487405938e-08 1.73991350532133e-07 3.36368687107203e-08 2.01924505215126e-08 5.6404896897502e-08
"2448" 55993 3.03220868350022e-09 2.66198291541457e-09 3.71088581094037e-09 1.08318533522497e-08 1.73638401611294e-07 3.37357179357146e-08 2.02498916885634e-08 5.63941823292354e-08
"2449" 55994 3.03220868350022e-09 2.66687810374183e-09 3.71042850610833e-09 1.08001579639056e-08 1.73285452690454e-07 3.38345671607088e-08 2.03073328556141e-08 5.63834677609687e-08
"2450" 55995 3.03220868350022e-09 2.67177329206908e-09 3.70997120127629e-09 1.07684625755616e-08 1.72932503769615e-07 3.3933416385703e-08 2.03647740226649e-08 5.6372753192702e-08
"2451" 55996 3.03220868350022e-09 2.67666848039634e-09 3.70951389644425e-09 1.07367671872175e-08 1.72579554848775e-07 3.40322656106972e-08 2.04222151897156e-08 5.63620386244353e-08
"2452" 55997 3.03220868350022e-09 2.68156366872359e-09 3.70905659161221e-09 1.07050717988735e-08 1.72226605927936e-07 3.41311148356915e-08 2.04796563567664e-08 5.63513240561687e-08
"2453" 55998 3.03220868350022e-09 2.68645885705084e-09 3.70859928678017e-09 1.06733764105294e-08 1.71873657007096e-07 3.42299640606857e-08 2.05370975238171e-08 5.6340609487902e-08
"2454" 55999 3.03220868350022e-09 2.6913540453781e-09 3.70814198194813e-09 1.06416810221853e-08 1.71520708086257e-07 3.43288132856799e-08 2.05945386908679e-08 5.63298949196353e-08
"2455" 56000 3.03220868350022e-09 2.69624923370535e-09 3.70768467711609e-09 1.06099856338413e-08 1.71167759165418e-07 3.44276625106742e-08 2.06519798579186e-08 5.63191803513686e-08
"2456" 56001 3.03259563309044e-09 2.70256685798597e-09 3.70722737228404e-09 1.05892066112865e-08 1.70924693057353e-07 3.45062184415651e-08 2.071461298234e-08 5.6326014993825e-08
"2457" 56002 3.03298258268066e-09 2.7088844822666e-09 3.706770067452e-09 1.05684275887317e-08 1.70681626949289e-07 3.4584774372456e-08 2.07772461067615e-08 5.63328496362814e-08
"2458" 56003 3.03373930219135e-09 2.71111973876475e-09 3.70631276261996e-09 1.05634962603489e-08 1.7085106920105e-07 3.46633303033469e-08 2.08247668031334e-08 5.63300474676407e-08
"2459" 56004 3.03449602170203e-09 2.7133549952629e-09 3.70585545778792e-09 1.05585649319661e-08 1.71020511452811e-07 3.47418862342379e-08 2.08722874995052e-08 5.63272452989999e-08
"2460" 56005 3.03525274121272e-09 2.71559025176105e-09 3.70539815295588e-09 1.05536336035834e-08 1.71189953704572e-07 3.48204421651288e-08 2.09198081958771e-08 5.63244431303591e-08
"2461" 56006 3.04088518836849e-09 2.71003014407352e-09 3.69984113184278e-09 1.05511995767798e-08 1.71265881773481e-07 3.48002175049085e-08 2.09059276671673e-08 5.63541653666434e-08
"2462" 56007 3.04651763552426e-09 2.70447003638599e-09 3.69428411072968e-09 1.05487655499763e-08 1.71341809842391e-07 3.47799928446882e-08 2.08920471384574e-08 5.63838876029276e-08
"2463" 56008 3.04651763552426e-09 2.70447003638599e-09 3.69707298335752e-09 1.05824665587689e-08 1.71673032603265e-07 3.49023017821273e-08 2.09323016485659e-08 5.63740478410823e-08
"2464" 56009 3.04651763552426e-09 2.70447003638599e-09 3.69986185598536e-09 1.06161675675615e-08 1.7200425536414e-07 3.50246107195664e-08 2.09725561586744e-08 5.63642080792369e-08
"2465" 56010 3.04651763552426e-09 2.70447003638599e-09 3.70265072861321e-09 1.06498685763541e-08 1.72335478125015e-07 3.51469196570055e-08 2.10128106687829e-08 5.63543683173916e-08
"2466" 56011 3.04651763552426e-09 2.70447003638599e-09 3.70543960124105e-09 1.06835695851467e-08 1.72666700885889e-07 3.52692285944447e-08 2.10530651788914e-08 5.63445285555462e-08
"2467" 56012 3.04651763552426e-09 2.70447003638599e-09 3.70822847386889e-09 1.07172705939393e-08 1.72997923646764e-07 3.53915375318838e-08 2.10933196889999e-08 5.63346887937009e-08
"2468" 56013 3.04651763552426e-09 2.70447003638599e-09 3.71101734649673e-09 1.07509716027318e-08 1.73329146407639e-07 3.55138464693229e-08 2.11335741991084e-08 5.63248490318555e-08
"2469" 56014 3.04651763552426e-09 2.70447003638599e-09 3.71380621912458e-09 1.07846726115244e-08 1.73660369168513e-07 3.5636155406762e-08 2.11738287092169e-08 5.63150092700102e-08
"2470" 56015 3.03514093768573e-09 2.70493175061007e-09 3.71705239658446e-09 1.08230801375426e-08 1.73215579717407e-07 3.5772909868664e-08 2.11404229346601e-08 5.62754472718806e-08
"2471" 56016 3.02376423984721e-09 2.70539346483415e-09 3.72029857404434e-09 1.08614876635608e-08 1.72770790266301e-07 3.59096643305659e-08 2.11070171601033e-08 5.62358852737511e-08
"2472" 56017 3.01238754200868e-09 2.70585517905823e-09 3.72354475150423e-09 1.08998951895789e-08 1.72326000815195e-07 3.60464187924679e-08 2.10736113855465e-08 5.61963232756215e-08
"2473" 56018 3.00101084417016e-09 2.70631689328231e-09 3.72679092896411e-09 1.09383027155971e-08 1.71881211364089e-07 3.61831732543699e-08 2.10402056109898e-08 5.61567612774919e-08
"2474" 56019 2.98963414633163e-09 2.70677860750639e-09 3.73003710642399e-09 1.09767102416153e-08 1.71436421912983e-07 3.63199277162718e-08 2.1006799836433e-08 5.61171992793623e-08
"2475" 56020 2.98176589998331e-09 2.70288092541355e-09 3.72493739014293e-09 1.09764854304581e-08 1.70906550444217e-07 3.63771562149527e-08 2.09232190810889e-08 5.60776372812328e-08
"2476" 56021 2.97389765363499e-09 2.69898324332071e-09 3.71983767386187e-09 1.09762606193009e-08 1.70376678975451e-07 3.64343847136336e-08 2.08396383257448e-08 5.60380752831032e-08
"2477" 56022 2.96602940728666e-09 2.69508556122787e-09 3.71473795758081e-09 1.09760358081437e-08 1.69846807506685e-07 3.64916132123144e-08 2.07560575704006e-08 5.59985132849736e-08
"2478" 56023 2.95816116093834e-09 2.69118787913503e-09 3.70963824129975e-09 1.09758109969865e-08 1.69316936037919e-07 3.65488417109953e-08 2.06724768150565e-08 5.59589512868441e-08
"2479" 56024 2.96129984250807e-09 2.68682848281811e-09 3.70963824129975e-09 1.09733136954073e-08 1.69529385600198e-07 3.66110668988163e-08 2.06063117676119e-08 5.53881542154605e-08
"2480" 56025 2.96443852407781e-09 2.68246908650119e-09 3.70963824129975e-09 1.0970816393828e-08 1.69741835162477e-07 3.66732920866374e-08 2.05401467201673e-08 5.48173571440769e-08
"2481" 56026 2.96757720564754e-09 2.67810969018427e-09 3.70963824129975e-09 1.09683190922487e-08 1.69954284724755e-07 3.67355172744584e-08 2.04739816727226e-08 5.42465600726934e-08
"2482" 56027 2.97071588721727e-09 2.67375029386735e-09 3.70963824129975e-09 1.09658217906695e-08 1.70166734287034e-07 3.67977424622794e-08 2.0407816625278e-08 5.36757630013098e-08
"2483" 56028 2.97385456878701e-09 2.66939089755043e-09 3.70963824129975e-09 1.09633244890902e-08 1.70379183849313e-07 3.68599676501004e-08 2.03416515778333e-08 5.31049659299262e-08
"2484" 56029 2.97699325035674e-09 2.66503150123351e-09 3.70963824129975e-09 1.09608271875109e-08 1.70591633411592e-07 3.69221928379214e-08 2.02754865303887e-08 5.25341688585427e-08
"2485" 56030 2.97786177339441e-09 2.66274094078367e-09 3.71473795758081e-09 1.09632612143144e-08 1.71515748927827e-07 3.70215636600755e-08 2.02279498075727e-08 5.19635747379073e-08
"2486" 56031 2.97873029643209e-09 2.66045038033383e-09 3.71983767386187e-09 1.09656952411179e-08 1.72439864444062e-07 3.71209344822295e-08 2.01804130847566e-08 5.13929806172719e-08
"2487" 56032 2.97959881946976e-09 2.65815981988399e-09 3.72493739014293e-09 1.09681292679214e-08 1.73363979960297e-07 3.72203053043836e-08 2.01328763619406e-08 5.08223864966366e-08
"2488" 56033 2.98046734250744e-09 2.65586925943415e-09 3.73003710642399e-09 1.09705632947249e-08 1.74288095476532e-07 3.73196761265376e-08 2.00853396391246e-08 5.02517923760012e-08
"2489" 56034 2.98133586554511e-09 2.65357869898431e-09 3.73513682270505e-09 1.09729973215285e-08 1.75212210992767e-07 3.74190469486916e-08 2.00378029163085e-08 4.96811982553658e-08
"2490" 56035 2.98220438858278e-09 2.65128813853447e-09 3.74023653898611e-09 1.0975431348332e-08 1.76136326509002e-07 3.75184177708457e-08 1.99902661934925e-08 4.91106041347305e-08
"2491" 56036 2.98307291162046e-09 2.64899757808464e-09 3.74533625526718e-09 1.09778653751355e-08 1.77060442025237e-07 3.76177885929997e-08 1.99427294706765e-08 4.85400100140951e-08
"2492" 56037 2.98394143465813e-09 2.6467070176348e-09 3.75043597154824e-09 1.0980299401939e-08 1.77984557541472e-07 3.77171594151538e-08 1.98951927478604e-08 4.79694158934597e-08
"2493" 56038 2.98480995769581e-09 2.64441645718496e-09 3.7555356878293e-09 1.09827334287425e-08 1.78908673057708e-07 3.78165302373078e-08 1.98476560250444e-08 4.73988217728244e-08
"2494" 56039 2.98157665226884e-09 2.64648529305204e-09 3.75773434637352e-09 1.09350111298788e-08 1.77799796858257e-07 3.74356841275491e-08 1.94331729020348e-08 4.72567149364775e-08
"2495" 56040 2.97834334684187e-09 2.64855412891912e-09 3.75993300491775e-09 1.08872888310151e-08 1.76690920658807e-07 3.70548380177903e-08 1.90186897790253e-08 4.71146081001306e-08
"2496" 56041 2.97921186987954e-09 2.6506229647862e-09 3.75993300491775e-09 1.08708791089501e-08 1.77174582428251e-07 3.70241440702151e-08 1.90345899449626e-08 4.70165268385968e-08
"2497" 56042 2.98008039291722e-09 2.65269180065328e-09 3.75993300491775e-09 1.08544693868851e-08 1.77658244197694e-07 3.69934501226399e-08 1.90504901108998e-08 4.6918445577063e-08
"2498" 56043 2.98534307015252e-09 2.65078913102927e-09 3.76263041657919e-09 1.08416668782124e-08 1.78819674974182e-07 3.69107165810984e-08 1.90574426876341e-08 4.68426178557409e-08
"2499" 56044 2.98573001974274e-09 2.66427398464042e-09 3.76263041657919e-09 1.08416668782124e-08 1.78477703675763e-07 3.67834384284234e-08 1.91126351665002e-08 4.67431205857906e-08
"2500" 56045 2.98611696933296e-09 2.67775883825157e-09 3.76263041657919e-09 1.08416668782124e-08 1.78135732377343e-07 3.66561602757484e-08 1.91678276453662e-08 4.66436233158402e-08
"2501" 56046 2.98650391892318e-09 2.69124369186272e-09 3.76263041657919e-09 1.08416668782124e-08 1.77793761078924e-07 3.65288821230733e-08 1.92230201242323e-08 4.65441260458899e-08
"2502" 56047 2.98689086851339e-09 2.70472854547387e-09 3.76263041657919e-09 1.08416668782124e-08 1.77451789780505e-07 3.64016039703983e-08 1.92782126030984e-08 4.64446287759395e-08
"2503" 56048 2.98727781810361e-09 2.71821339908503e-09 3.76263041657919e-09 1.08416668782124e-08 1.77109818482086e-07 3.62743258177233e-08 1.93334050819645e-08 4.63451315059891e-08
"2504" 56049 2.98766476769383e-09 2.73169825269618e-09 3.76263041657919e-09 1.08416668782124e-08 1.76767847183666e-07 3.61470476650483e-08 1.93885975608306e-08 4.62456342360388e-08
"2505" 56050 2.98805171728405e-09 2.74518310630733e-09 3.76263041657919e-09 1.08416668782124e-08 1.76425875885247e-07 3.60197695123732e-08 1.94437900396966e-08 4.61461369660884e-08
"2506" 56051 2.98843866687427e-09 2.75866795991848e-09 3.76263041657919e-09 1.08416668782124e-08 1.76083904586828e-07 3.58924913596982e-08 1.94989825185627e-08 4.60466396961381e-08
"2507" 56052 2.98882561646449e-09 2.77215281352964e-09 3.76263041657919e-09 1.08416668782124e-08 1.75741933288409e-07 3.57652132070232e-08 1.95541749974288e-08 4.59471424261877e-08
"2508" 56053 2.98921256605471e-09 2.78563766714079e-09 3.76263041657919e-09 1.08416668782124e-08 1.75399961989989e-07 3.56379350543481e-08 1.96093674762949e-08 4.58476451562374e-08
"2509" 56054 2.98959951564493e-09 2.79912252075194e-09 3.76263041657919e-09 1.08416668782124e-08 1.7505799069157e-07 3.55106569016731e-08 1.9664559955161e-08 4.5748147886287e-08
"2510" 56055 2.98998646523515e-09 2.81260737436309e-09 3.76263041657919e-09 1.08416668782124e-08 1.74716019393151e-07 3.53833787489981e-08 1.9719752434027e-08 4.56486506163366e-08
"2511" 56056 2.99037341482537e-09 2.82609222797424e-09 3.76263041657919e-09 1.08416668782124e-08 1.74374048094732e-07 3.52561005963231e-08 1.97749449128931e-08 4.55491533463863e-08
"2512" 56057 2.99076036441558e-09 2.8395770815854e-09 3.76263041657919e-09 1.08416668782124e-08 1.74032076796312e-07 3.5128822443648e-08 1.98301373917592e-08 4.54496560764359e-08
"2513" 56058 2.9911473140058e-09 2.85306193519655e-09 3.76263041657919e-09 1.08416668782124e-08 1.73690105497893e-07 3.5001544290973e-08 1.98853298706253e-08 4.53501588064856e-08
"2514" 56059 2.99153426359602e-09 2.8665467888077e-09 3.76263041657919e-09 1.08416668782124e-08 1.73348134199474e-07 3.4874266138298e-08 1.99405223494914e-08 4.52506615365352e-08
"2515" 56060 2.9878193847216e-09 2.87796280655177e-09 3.75609661337425e-09 1.07468055243374e-08 1.72957916656182e-07 3.4301908091255e-08 1.99688720607483e-08 4.52506615365352e-08
"2516" 56061 2.98410450584717e-09 2.88937882429584e-09 3.74956281016932e-09 1.06519441704624e-08 1.7256769911289e-07 3.37295500442121e-08 1.99972217720052e-08 4.52506615365352e-08
"2517" 56062 2.98486122535786e-09 2.90116421341918e-09 3.75139562484792e-09 1.06525061983554e-08 1.70627438997766e-07 3.37135121526103e-08 2.00491873390627e-08 4.49951473925199e-08
"2518" 56063 2.98561794486855e-09 2.91294960254252e-09 3.75322843952651e-09 1.06530682262484e-08 1.68687178882642e-07 3.36974742610086e-08 2.01011529061203e-08 4.47396332485046e-08
"2519" 56064 2.98685623782669e-09 2.91004942668409e-09 3.75014445985686e-09 1.06286890622877e-08 1.66734917267307e-07 3.36900432821974e-08 2.0104878571046e-08 4.45084651556116e-08
"2520" 56065 2.98809453078483e-09 2.90714925082566e-09 3.74706048018721e-09 1.06043098983271e-08 1.64782655651972e-07 3.36826123033861e-08 2.01086042359717e-08 4.42772970627186e-08
"2521" 56066 2.98822351398157e-09 2.91259849622181e-09 3.76349860891246e-09 1.06214325766868e-08 1.6348978518948e-07 3.37271111246793e-08 2.00975171419146e-08 4.40296276680798e-08
"2522" 56067 2.98835249717831e-09 2.91804774161796e-09 3.7799367376377e-09 1.06385552550465e-08 1.62196914726988e-07 3.37716099459725e-08 2.00864300478574e-08 4.3781958273441e-08
"2523" 56068 2.98848148037505e-09 2.92349698701411e-09 3.79637486636295e-09 1.06556779334062e-08 1.60904044264496e-07 3.38161087672657e-08 2.00753429538002e-08 4.35342888788021e-08
"2524" 56069 2.98861046357179e-09 2.92894623241026e-09 3.8128129950882e-09 1.06728006117659e-08 1.59611173802004e-07 3.38606075885589e-08 2.00642558597431e-08 4.32866194841633e-08
"2525" 56070 2.98873944676853e-09 2.93439547780641e-09 3.82925112381345e-09 1.06899232901256e-08 1.58318303339513e-07 3.39051064098521e-08 2.00531687656859e-08 4.30389500895245e-08
"2526" 56071 2.98886842996527e-09 2.93984472320256e-09 3.84568925253869e-09 1.07070459684853e-08 1.57025432877021e-07 3.39496052311453e-08 2.00420816716288e-08 4.27912806948857e-08
"2527" 56072 2.98899741316201e-09 2.94529396859871e-09 3.86212738126394e-09 1.0724168646845e-08 1.55732562414529e-07 3.39941040524385e-08 2.00309945775716e-08 4.25436113002469e-08
"2528" 56073 2.98912639635875e-09 2.95074321399486e-09 3.87856550998919e-09 1.07412913252047e-08 1.54439691952037e-07 3.40386028737316e-08 2.00199074835144e-08 4.22959419056081e-08
"2529" 56074 2.98925537955549e-09 2.95619245939101e-09 3.89500363871444e-09 1.07584140035644e-08 1.53146821489545e-07 3.40831016950248e-08 2.00088203894573e-08 4.20482725109693e-08
"2530" 56075 2.98938436275223e-09 2.96164170478716e-09 3.91144176743968e-09 1.07755366819241e-08 1.51853951027054e-07 3.4127600516318e-08 1.99977332954001e-08 4.18006031163305e-08
"2531" 56076 2.98951334594897e-09 2.96709095018331e-09 3.92787989616493e-09 1.07926593602838e-08 1.50561080564562e-07 3.41720993376112e-08 1.99866462013429e-08 4.15529337216917e-08
"2532" 56077 2.98964232914571e-09 2.97254019557946e-09 3.94431802489018e-09 1.08097820386435e-08 1.4926821010207e-07 3.42165981589044e-08 1.99755591072858e-08 4.13052643270529e-08
"2533" 56078 2.99224789825873e-09 2.98127750765986e-09 3.94123404522053e-09 1.09294407279568e-08 1.47179128952382e-07 3.41969912036312e-08 1.99634445400875e-08 4.10786228142719e-08
"2534" 56079 2.99485346737175e-09 2.99001481974026e-09 3.93815006555088e-09 1.10490994172701e-08 1.45090047802694e-07 3.41773842483579e-08 1.99513299728893e-08 4.08519813014909e-08
"2535" 56080 2.99745903648477e-09 2.99875213182067e-09 3.93506608588123e-09 1.11687581065834e-08 1.43000966653006e-07 3.41577772930847e-08 1.9939215405691e-08 4.06253397887099e-08
"2536" 56081 3.0000646055978e-09 3.00748944390107e-09 3.93198210621158e-09 1.12884167958967e-08 1.40911885503318e-07 3.41381703378114e-08 1.99271008384928e-08 4.03986982759289e-08
"2537" 56082 3.00267017471082e-09 3.01622675598147e-09 3.92889812654193e-09 1.140807548521e-08 1.3882280435363e-07 3.41185633825382e-08 1.99149862712945e-08 4.01720567631479e-08
"2538" 56083 3.00527574382384e-09 3.02847385932889e-09 3.91366115012649e-09 1.14532022208887e-08 1.3866308576103e-07 3.39621288033735e-08 1.98513856075454e-08 4.02015760486839e-08
"2539" 56084 3.00712459342618e-09 3.02542578228596e-09 3.89496219042927e-09 1.15550075955815e-08 1.37282961875769e-07 3.33406869474401e-08 1.98310512552185e-08 4.02310953342199e-08
"2540" 56085 3.00897344302852e-09 3.02237770524302e-09 3.87626323073205e-09 1.16568129702743e-08 1.35902837990508e-07 3.27192450915066e-08 1.98107169028916e-08 4.0260614619756e-08
"2541" 56086 3.01082229263085e-09 3.01932962820009e-09 3.85756427103482e-09 1.1758618344967e-08 1.34522714105247e-07 3.20978032355731e-08 1.97903825505647e-08 4.0290133905292e-08
"2542" 56087 3.01267114223319e-09 3.01628155115716e-09 3.8388653113376e-09 1.18604237196598e-08 1.33142590219986e-07 3.14763613796397e-08 1.97700481982379e-08 4.0319653190828e-08
"2543" 56088 3.01451999183553e-09 3.01323347411422e-09 3.82016635164037e-09 1.19622290943525e-08 1.31762466334724e-07 3.08549195237062e-08 1.9749713845911e-08 4.03491724763641e-08
"2544" 56089 3.01636884143786e-09 3.01018539707129e-09 3.80146739194315e-09 1.20640344690453e-08 1.30382342449463e-07 3.02334776677728e-08 1.97293794935841e-08 4.03786917619001e-08
"2545" 56090 3.0182176910402e-09 3.00713732002836e-09 3.78276843224593e-09 1.2165839843738e-08 1.29002218564202e-07 2.96120358118393e-08 1.97090451412572e-08 4.04082110474361e-08
"2546" 56091 3.02006654064253e-09 3.00408924298543e-09 3.7640694725487e-09 1.22676452184308e-08 1.27622094678941e-07 2.89905939559058e-08 1.96887107889304e-08 4.04377303329722e-08
"2547" 56092 3.02191539024487e-09 3.00104116594249e-09 3.74537051285148e-09 1.23694505931235e-08 1.2624197079368e-07 2.83691520999724e-08 1.96683764366035e-08 4.04672496185082e-08
"2548" 56093 3.02799505150859e-09 2.98574598555214e-09 3.72648863122144e-09 1.23631880777638e-08 1.24974808409593e-07 2.77727073758142e-08 1.96601566514749e-08 4.04831971175731e-08
"2549" 56094 3.03407471277231e-09 2.9704508051618e-09 3.7076067495914e-09 1.2356925562404e-08 1.23707646025506e-07 2.7176262651656e-08 1.96519368663462e-08 4.0499144616638e-08
"2550" 56095 3.04015437403603e-09 2.95515562477145e-09 3.68872486796136e-09 1.23506630470443e-08 1.22440483641419e-07 2.65798179274978e-08 1.96437170812176e-08 4.05150921157029e-08
"2551" 56096 3.04623403529975e-09 2.9398604443811e-09 3.66984298633132e-09 1.23444005316846e-08 1.21173321257332e-07 2.59833732033396e-08 1.9635497296089e-08 4.05310396147678e-08
"2552" 56097 3.03807346321844e-09 2.93598128173482e-09 3.66836745112228e-09 1.23797066694141e-08 1.21280549124282e-07 2.58641895242633e-08 1.96315318959099e-08 4.05451274018627e-08
"2553" 56098 3.02991289113714e-09 2.93210211908855e-09 3.66689191591324e-09 1.24150128071437e-08 1.21387776991233e-07 2.5745005845187e-08 1.96275664957309e-08 4.05592151889576e-08
"2554" 56099 3.02175231905583e-09 2.92822295644227e-09 3.6654163807042e-09 1.24503189448733e-08 1.21495004858184e-07 2.56258221661107e-08 1.96236010955519e-08 4.05733029760525e-08
"2555" 56100 3.01359174697452e-09 2.92434379379599e-09 3.66394084549517e-09 1.24856250826028e-08 1.21602232725134e-07 2.55066384870344e-08 1.96196356953728e-08 4.05873907631474e-08
"2556" 56101 2.99896456403928e-09 2.9210742465583e-09 3.66155926501812e-09 1.25202567868608e-08 1.21622685656189e-07 2.53645213225347e-08 1.96037901211008e-08 4.0585247849494e-08
"2557" 56102 2.9858508201254e-09 2.91710274106721e-09 3.65938133061648e-09 1.25548884911188e-08 1.21753771556318e-07 2.54455252291712e-08 1.96035503858475e-08 4.05891702241823e-08
"2558" 56103 2.97273707621153e-09 2.91313123557612e-09 3.65720339621483e-09 1.25895201953769e-08 1.21884857456447e-07 2.55265291358078e-08 1.96033106505942e-08 4.05930925988705e-08
"2559" 56104 2.95962333229766e-09 2.90915973008503e-09 3.65502546181319e-09 1.26241518996349e-08 1.22015943356577e-07 2.56075330424443e-08 1.96030709153408e-08 4.05970149735588e-08
"2560" 56105 2.94650958838379e-09 2.89746668380651e-09 3.58393670066665e-09 1.25491597157062e-08 1.2149460948835e-07 2.5802449403485e-08 1.95092507376407e-08 4.05228911091574e-08
"2561" 56106 2.93339584446991e-09 2.88577363752799e-09 3.51284793952011e-09 1.24741675317776e-08 1.20973275620124e-07 2.59973657645257e-08 1.94154305599405e-08 4.04487672447561e-08
"2562" 56107 2.92028210055604e-09 2.87408059124947e-09 3.44175917837357e-09 1.2399175347849e-08 1.20451941751897e-07 2.61922821255664e-08 1.93216103822403e-08 4.03746433803547e-08
