"time" "channel1" "channel2" "channel3" "channel4" "channel5" "channel6" "channel7" "channel8"
"1" 16095 2.2375482622286e-09 3.04851734441399e-09 1.675321543182e-08 1.65076783386645e-07 1.74849275341654e-07 4.11875133680762e-08 4.71201003342344e-09 2.88701483703723e-09
"2" 16096 2.23943147117044e-09 3.05341253274125e-09 1.6771079083073e-08 1.64163222140317e-07 1.75475724469268e-07 4.11775840955725e-08 4.72336682964059e-09 2.88654128529144e-09
"3" 16097 2.24131468011228e-09 3.0583077210685e-09 1.67889427343261e-08 1.63249660893989e-07 1.76102173596883e-07 4.11676548230687e-08 4.73472362585773e-09 2.88606773354566e-09
"4" 16098 2.24319788905412e-09 3.06320290939575e-09 1.68068063855791e-08 1.62336099647661e-07 1.76728622724497e-07 4.1157725550565e-08 4.74608042207488e-09 2.88559418179987e-09
"5" 16099 2.24508109799596e-09 3.06809809772301e-09 1.68246700368322e-08 1.61422538401333e-07 1.77355071852112e-07 4.11477962780613e-08 4.75743721829203e-09 2.88512063005409e-09
"6" 16100 2.2463193909541e-09 3.06846746910227e-09 1.67557592100873e-08 1.60339035590472e-07 1.78206455582931e-07 4.1123005047935e-08 4.75646967896428e-09 2.87294760449293e-09
"7" 16101 2.24755768391225e-09 3.06883684048153e-09 1.66868483833424e-08 1.59255532779612e-07 1.7905783931375e-07 4.10982138178088e-08 4.75550213963653e-09 2.86077457893177e-09
"8" 16102 2.24879597687039e-09 3.0692062118608e-09 1.66179375565975e-08 1.58172029968752e-07 1.79909223044568e-07 4.10734225876825e-08 4.75453460030878e-09 2.84860155337061e-09
"9" 16103 2.25003426982853e-09 3.06957558324006e-09 1.65490267298526e-08 1.57088527157892e-07 1.80760606775387e-07 4.10486313575563e-08 4.75356706098103e-09 2.83642852780945e-09
"10" 16104 2.25127256278667e-09 3.06994495461933e-09 1.64801159031077e-08 1.56005024347031e-07 1.81611990506206e-07 4.102384012743e-08 4.75259952165328e-09 2.82425550224828e-09
"11" 16105 2.25251085574481e-09 3.07031432599859e-09 1.64112050763628e-08 1.54921521536171e-07 1.82463374237025e-07 4.09990488973037e-08 4.75163198232554e-09 2.81208247668712e-09
"12" 16106 2.25374914870295e-09 3.07068369737785e-09 1.63422942496179e-08 1.53838018725311e-07 1.83314757967844e-07 4.09742576671775e-08 4.75066444299779e-09 2.79990945112596e-09
"13" 16107 2.25822074708806e-09 3.076132942774e-09 1.62873277860122e-08 1.53580826816104e-07 1.84630920806352e-07 4.09730222572834e-08 4.75600623490179e-09 2.79990945112596e-09
"14" 16108 2.26269234547318e-09 3.08158218817015e-09 1.62323613224065e-08 1.53323634906898e-07 1.85947083644861e-07 4.09717868473893e-08 4.76134802680579e-09 2.79990945112596e-09
"15" 16109 2.26716394385829e-09 3.0870314335663e-09 1.61773948588008e-08 1.53066442997691e-07 1.8726324648337e-07 4.09705514374951e-08 4.76668981870979e-09 2.79990945112596e-09
"16" 16110 2.2716355422434e-09 3.09248067896245e-09 1.61224283951952e-08 1.52809251088485e-07 1.88579409321879e-07 4.0969316027601e-08 4.77203161061379e-09 2.79990945112596e-09
"17" 16111 2.27610714062851e-09 3.0979299243586e-09 1.60674619315895e-08 1.52552059179278e-07 1.89895572160388e-07 4.09680806177069e-08 4.77737340251779e-09 2.79990945112596e-09
"18" 16112 2.28057873901362e-09 3.10337916975475e-09 1.60124954679838e-08 1.52294867270072e-07 1.91211734998897e-07 4.09668452078128e-08 4.78271519442179e-09 2.79990945112596e-09
"19" 16113 2.28505033739873e-09 3.1088284151509e-09 1.59575290043781e-08 1.52037675360865e-07 1.92527897837405e-07 4.09656097979187e-08 4.78805698632579e-09 2.79990945112596e-09
"20" 16114 2.287638726842e-09 3.11597712503487e-09 1.59025625407724e-08 1.51063546875082e-07 1.92675035060823e-07 4.09824987700207e-08 4.77828635018025e-09 2.80630039002883e-09
"21" 16115 2.29022711628527e-09 3.12312583491883e-09 1.58475960771667e-08 1.50089418389298e-07 1.92822172284241e-07 4.09993877421227e-08 4.76851571403472e-09 2.8126913289317e-09
"22" 16116 2.29469871467038e-09 3.12999751626835e-09 1.58574589544019e-08 1.50575751809378e-07 1.90177115216956e-07 4.05270823279574e-08 4.76593738987674e-09 2.81874401658759e-09
"23" 16117 2.29917031305550e-09 3.13686919761787e-09 1.5867321831637e-08 1.51062085229458e-07 1.87532058149672e-07 4.00547769137922e-08 4.76335906571876e-09 2.82479670424347e-09
"24" 16118 2.30364191144061e-09 3.14374087896739e-09 1.58771847088722e-08 1.51548418649537e-07 1.84887001082387e-07 3.95824714996269e-08 4.76078074156077e-09 2.83084939189935e-09
"25" 16119 2.30811350982572e-09 3.15061256031691e-09 1.58870475861073e-08 1.52034752069617e-07 1.82241944015103e-07 3.91101660854616e-08 4.75820241740279e-09 2.83690207955523e-09
"26" 16120 2.31258510821083e-09 3.15748424166642e-09 1.58969104633425e-08 1.52521085489697e-07 1.79596886947818e-07 3.86378606712963e-08 4.75562409324481e-09 2.84295476721111e-09
"27" 16121 2.31705670659594e-09 3.16435592301594e-09 1.59067733405776e-08 1.53007418909776e-07 1.76951829880534e-07 3.8165555257131e-08 4.75304576908683e-09 2.84900745486699e-09
"28" 16122 2.32152830498105e-09 3.17122760436546e-09 1.59166362178128e-08 1.53493752329856e-07 1.74306772813249e-07 3.76932498429657e-08 4.75046744492885e-09 2.85506014252287e-09
"29" 16123 2.32276659793919e-09 3.17095057583101e-09 1.59122803490095e-08 1.53724387310292e-07 1.70450668166844e-07 3.7153223798722e-08 4.74254732886686e-09 2.84865660293429e-09
"30" 16124 2.32400489089733e-09 3.16886322051737e-09 1.59061123896702e-08 1.53485266827979e-07 1.67093666370271e-07 3.66362365056571e-08 4.73462721280488e-09 2.84637838878216e-09
"31" 16125 2.33226008683588e-09 3.19095625885898e-09 1.60086640454859e-08 1.52967294222345e-07 1.6352728964657e-07 3.65015457918622e-08 4.76807898071246e-09 2.8754791721361e-09
"32" 16126 2.34051528277442e-09 3.2130492972006e-09 1.61112157013017e-08 1.5244932161671e-07 1.59960912922868e-07 3.63668550780673e-08 4.80153074862004e-09 2.90457995549003e-09
"33" 16127 2.34877047871296e-09 3.23514233554221e-09 1.62137673571174e-08 1.51931349011076e-07 1.56394536199167e-07 3.62321643642724e-08 4.83498251652762e-09 2.93368073884397e-09
"34" 16128 2.35514246570967e-09 3.25932272919747e-09 1.6292104480408e-08 1.52032093604759e-07 1.56695766868965e-07 3.66006011220159e-08 4.87116244312651e-09 2.96704214813315e-09
"35" 16129 2.36151445270637e-09 3.28350312285273e-09 1.63704416036986e-08 1.52132838198441e-07 1.56996997538762e-07 3.69690378797594e-08 4.90734236972539e-09 3.00040355742233e-09
"36" 16130 2.36788643970307e-09 3.30768351650798e-09 1.64487787269892e-08 1.52233582792124e-07 1.5729822820856e-07 3.73374746375029e-08 4.94352229632428e-09 3.03376496671151e-09
"37" 16131 2.37425842669977e-09 3.33186391016324e-09 1.65271158502798e-08 1.52334327385806e-07 1.57599458878358e-07 3.77059113952464e-08 4.97970222292316e-09 3.06712637600069e-09
"38" 16132 2.38063041369648e-09 3.3560443038185e-09 1.66054529735704e-08 1.52435071979489e-07 1.57900689548155e-07 3.80743481529899e-08 5.01588214952205e-09 3.10048778528987e-09
"39" 16133 2.38700240069318e-09 3.38022469747376e-09 1.6683790096861e-08 1.52535816573172e-07 1.58201920217953e-07 3.84427849107334e-08 5.05206207612094e-09 3.13384919457905e-09
"40" 16134 2.39337438768988e-09 3.40440509112902e-09 1.67621272201515e-08 1.52636561166854e-07 1.58503150887751e-07 3.88112216684769e-08 5.08824200271982e-09 3.16721060386824e-09
"41" 16135 2.39974637468659e-09 3.42858548478427e-09 1.68404643434421e-08 1.52737305760537e-07 1.58804381557548e-07 3.91796584262204e-08 5.12442192931871e-09 3.20057201315742e-09
"42" 16136 2.40611836168329e-09 3.45276587843953e-09 1.69188014667327e-08 1.52838050354219e-07 1.59105612227346e-07 3.95480951839639e-08 5.16060185591759e-09 3.2339334224466e-09
"43" 16137 2.40990195923672e-09 3.47615197099657e-09 1.70185642499206e-08 1.52954797106469e-07 1.59184289518273e-07 3.99241916662103e-08 5.20270688610963e-09 3.26531241995266e-09
"44" 16138 2.41368555679015e-09 3.49953806355361e-09 1.71183270331085e-08 1.53071543858718e-07 1.592629668092e-07 4.03002881484567e-08 5.24481191630167e-09 3.29669141745873e-09
"45" 16139 2.41746915434358e-09 3.52292415611065e-09 1.72180898162964e-08 1.53188290610968e-07 1.59341644100128e-07 4.06763846307031e-08 5.28691694649371e-09 3.32807041496479e-09
"46" 16140 2.42125275189702e-09 3.54631024866769e-09 1.73178525994843e-08 1.53305037363218e-07 1.59420321391055e-07 4.10524811129495e-08 5.32902197668575e-09 3.35944941247086e-09
"47" 16141 2.42503634945045e-09 3.56969634122473e-09 1.74176153826722e-08 1.53421784115467e-07 1.59498998681982e-07 4.14285775951959e-08 5.37112700687779e-09 3.39082840997692e-09
"48" 16142 2.42881994700388e-09 3.59308243378177e-09 1.75173781658601e-08 1.53538530867717e-07 1.59577675972909e-07 4.18046740774422e-08 5.41323203706983e-09 3.42220740748299e-09
"49" 16143 2.43260354455731e-09 3.61646852633881e-09 1.7617140949048e-08 1.53655277619966e-07 1.59656353263836e-07 4.21807705596886e-08 5.45533706726187e-09 3.45358640498905e-09
"50" 16144 2.44119415107682e-09 3.64077804734401e-09 1.76724610967728e-08 1.54742193910796e-07 1.60314390071915e-07 4.21753940692611e-08 5.45903276528093e-09 3.45864158641052e-09
"51" 16145 2.43709232261217e-09 3.64386290889207e-09 1.7669672224145e-08 1.54787288822536e-07 1.60127841193677e-07 4.22341325133681e-08 5.46768602756539e-09 3.46369676783199e-09
"52" 16146 2.43299049414753e-09 3.64694777044012e-09 1.76668833515172e-08 1.54832383734275e-07 1.59941292315439e-07 4.22928709574752e-08 5.47633928984985e-09 3.46875194925346e-09
"53" 16147 2.42888866568289e-09 3.65003263198818e-09 1.76640944788893e-08 1.54877478646015e-07 1.59754743437201e-07 4.23516094015822e-08 5.48499255213431e-09 3.47380713067492e-09
"54" 16148 2.42478683721824e-09 3.65311749353624e-09 1.76613056062615e-08 1.54922573557754e-07 1.59568194558963e-07 4.24103478456892e-08 5.49364581441877e-09 3.47886231209639e-09
"55" 16149 2.4206850087536e-09 3.6562023550843e-09 1.76585167336336e-08 1.54967668469494e-07 1.59381645680725e-07 4.24690862897962e-08 5.50229907670323e-09 3.48391749351786e-09
"56" 16150 2.41844920956104e-09 3.65928721663235e-09 1.76628726024369e-08 1.54838273672967e-07 1.59541439283867e-07 4.25128987722593e-08 5.50229907670323e-09 3.48897267493933e-09
"57" 16151 2.41621341036849e-09 3.66237207818041e-09 1.76672284712402e-08 1.54708878876439e-07 1.5970123288701e-07 4.25567112547225e-08 5.50229907670323e-09 3.49402785636079e-09
"58" 16152 2.40158622743324e-09 3.65095606043634e-09 1.7632141395499e-08 1.54579484079912e-07 1.59660739608322e-07 4.25938568890555e-08 5.49886239654806e-09 3.49122568772003e-09
"59" 16153 2.386959044498e-09 3.63954004269227e-09 1.75970543197578e-08 1.54450089283385e-07 1.59620246329635e-07 4.26310025233885e-08 5.4954257163929e-09 3.48842351907927e-09
"60" 16154 2.37233186156275e-09 3.6281240249482e-09 1.75619672440165e-08 1.54320694486858e-07 1.59579753050948e-07 4.26681481577215e-08 5.49198903623773e-09 3.48562135043851e-09
"61" 16155 2.3577046786275e-09 3.61670800720412e-09 1.75268801682753e-08 1.5419129969033e-07 1.5953925977226e-07 4.27052937920545e-08 5.48855235608256e-09 3.48281918179775e-09
"62" 16156 2.34307749569226e-09 3.60529198946005e-09 1.74917930925341e-08 1.54061904893803e-07 1.59498766493573e-07 4.27424394263875e-08 5.4851156759274e-09 3.48001701315699e-09
"63" 16157 2.32845031275701e-09 3.59387597171598e-09 1.74567060167928e-08 1.53932510097276e-07 1.59458273214885e-07 4.27795850607206e-08 5.48167899577223e-09 3.47721484451623e-09
"64" 16158 2.3169618113915e-09 3.58209058259265e-09 1.74172630722483e-08 1.53697607987051e-07 1.5925533544048e-07 4.27226997314547e-08 5.4695890533326e-09 3.46908689345642e-09
"65" 16159 2.30547331002599e-09 3.57030519346931e-09 1.73778201277038e-08 1.53462705876826e-07 1.59052397666075e-07 4.26658144021889e-08 5.45749911089298e-09 3.4609589423966e-09
"66" 16160 2.29398480866048e-09 3.55851980434597e-09 1.73383771831593e-08 1.53227803766601e-07 1.5884945989167e-07 4.2608929072923e-08 5.44540916845335e-09 3.45283099133678e-09
"67" 16161 2.28249630729496e-09 3.54673441522264e-09 1.72989342386148e-08 1.52992901656376e-07 1.58646522117265e-07 4.25520437436572e-08 5.43331922601372e-09 3.44470304027696e-09
"68" 16162 2.27100780592945e-09 3.5349490260993e-09 1.72594912940702e-08 1.52757999546152e-07 1.5844358434286e-07 4.24951584143914e-08 5.4212292835741e-09 3.43657508921714e-09
"69" 16163 2.25951930456394e-09 3.52316363697597e-09 1.72200483495257e-08 1.52523097435927e-07 1.58240646568454e-07 4.24382730851255e-08 5.40913934113447e-09 3.42844713815732e-09
"70" 16164 2.24640556065007e-09 3.52735686704982e-09 1.72081697356792e-08 1.52405634191389e-07 1.58141351112986e-07 4.23810445864447e-08 5.40086496434056e-09 3.42523906802018e-09
"71" 16165 2.24833185443989e-09 3.53716550876289e-09 1.72394668372077e-08 1.53251284059035e-07 1.58325747851766e-07 4.23532516796471e-08 5.41332845012269e-09 3.43853229962883e-09
"72" 16166 2.25025814822971e-09 3.54697415047596e-09 1.72707639387363e-08 1.54096933926682e-07 1.58510144590545e-07 4.23254587728495e-08 5.42579193590481e-09 3.45182553123749e-09
"73" 16167 2.25218444201953e-09 3.55678279218903e-09 1.73020610402648e-08 1.54942583794328e-07 1.58694541329325e-07 4.22976658660519e-08 5.43825542168694e-09 3.46511876284615e-09
"74" 16168 2.25411073580935e-09 3.56659143390209e-09 1.73333581417933e-08 1.55788233661974e-07 1.58878938068105e-07 4.22698729592544e-08 5.45071890746907e-09 3.47841199445481e-09
"75" 16169 2.25603702959917e-09 3.57640007561516e-09 1.73646552433219e-08 1.5663388352962e-07 1.59063334806884e-07 4.22420800524568e-08 5.46318239325119e-09 3.49170522606347e-09
"76" 16170 2.25796332338899e-09 3.58620871732823e-09 1.73959523448504e-08 1.57479533397266e-07 1.59247731545664e-07 4.22142871456592e-08 5.47564587903332e-09 3.50499845767213e-09
"77" 16171 2.25988961717881e-09 3.5960173590413e-09 1.7427249446379e-08 1.58325183264912e-07 1.59432128284444e-07 4.21864942388616e-08 5.48810936481545e-09 3.51829168928079e-09
"78" 16172 2.26181591096863e-09 3.60582600075437e-09 1.74585465479075e-08 1.59170833132559e-07 1.59616525023224e-07 4.2158701332064e-08 5.50057285059758e-09 3.53158492088945e-09
"79" 16173 2.27613358850114e-09 3.62705066021151e-09 1.75107827159627e-08 1.60199574525023e-07 1.59944947871031e-07 4.21375752733966e-08 5.52316123325717e-09 3.55451496359526e-09
"80" 16174 2.29045126603365e-09 3.64827531966865e-09 1.75630188840178e-08 1.61228315917486e-07 1.60273370718839e-07 4.21164492147291e-08 5.54574961591676e-09 3.57744500630107e-09
"81" 16175 2.30737451267919e-09 3.67156881499287e-09 1.76347771604679e-08 1.62212432863382e-07 1.60459558705298e-07 4.21102491177055e-08 5.57053743724378e-09 3.6024377117251e-09
"82" 16176 2.32429775932472e-09 3.6948623103171e-09 1.77065354369179e-08 1.63196549809278e-07 1.60645746691756e-07 4.21040490206819e-08 5.59532525857081e-09 3.62743041714914e-09
"83" 16177 2.34122100597026e-09 3.71815580564132e-09 1.7778293713368e-08 1.64180666755173e-07 1.60831934678215e-07 4.20978489236583e-08 5.62011307989783e-09 3.65242312257317e-09
"84" 16178 2.35814425261579e-09 3.74144930096554e-09 1.7850051989818e-08 1.65164783701069e-07 1.61018122664674e-07 4.20916488266348e-08 5.64490090122486e-09 3.67741582799721e-09
"85" 16179 2.37506749926132e-09 3.76474279628976e-09 1.79218102662681e-08 1.66148900646965e-07 1.61204310651133e-07 4.20854487296112e-08 5.66968872255188e-09 3.70240853342125e-09
"86" 16180 2.38476741554223e-09 3.78803629161398e-09 1.79775169820011e-08 1.66217897185507e-07 1.6128146025731e-07 4.2092147579752e-08 5.66992311565716e-09 3.70447119613947e-09
"87" 16181 2.39446733182314e-09 3.8113297869382e-09 1.80332236977341e-08 1.6628689372405e-07 1.61358609863488e-07 4.20988464298928e-08 5.67015750876243e-09 3.7065338588577e-09
"88" 16182 2.39459631501988e-09 3.81792443975327e-09 1.80381404920824e-08 1.66187634781739e-07 1.61627465165812e-07 4.20594952515802e-08 5.67015750876243e-09 3.70625065717439e-09
"89" 16183 2.39472529821662e-09 3.82451909256834e-09 1.80430572864306e-08 1.66088375839428e-07 1.61896320468135e-07 4.20201440732677e-08 5.67015750876243e-09 3.70596745549109e-09
"90" 16184 2.39485428141336e-09 3.83111374538341e-09 1.80479740807789e-08 1.65989116897118e-07 1.62165175770459e-07 4.19807928949552e-08 5.67015750876243e-09 3.70568425380779e-09
"91" 16185 2.3949832646101e-09 3.83770839819848e-09 1.80528908751271e-08 1.65889857954807e-07 1.62434031072782e-07 4.19414417166427e-08 5.67015750876243e-09 3.70540105212449e-09
"92" 16186 2.39511224780684e-09 3.84430305101355e-09 1.80578076694754e-08 1.65790599012496e-07 1.62702886375106e-07 4.19020905383302e-08 5.67015750876243e-09 3.70511785044118e-09
"93" 16187 2.39511224780684e-09 3.8519137295096e-09 1.80635183239826e-08 1.65727362700203e-07 1.63087471666273e-07 4.19041541846821e-08 5.66989314875049e-09 3.70418799445617e-09
"94" 16188 2.39511224780684e-09 3.85952440800565e-09 1.80692289784899e-08 1.6566412638791e-07 1.6347205695744e-07 4.19062178310339e-08 5.66962878873856e-09 3.70325813847115e-09
"95" 16189 2.39511224780684e-09 3.8671350865017e-09 1.80749396329971e-08 1.65600890075617e-07 1.63856642248607e-07 4.19082814773857e-08 5.66936442872662e-09 3.70232828248614e-09
"96" 16190 2.39511224780684e-09 3.87474576499775e-09 1.80806502875044e-08 1.65537653763324e-07 1.64241227539774e-07 4.19103451237376e-08 5.66910006871468e-09 3.70139842650112e-09
"97" 16191 2.39511224780684e-09 3.88235644349379e-09 1.80863609420117e-08 1.65474417451031e-07 1.64625812830941e-07 4.19124087700894e-08 5.66883570870275e-09 3.7004685705161e-09
"98" 16192 2.39511224780684e-09 3.88996712198984e-09 1.80920715965189e-08 1.65411181138737e-07 1.65010398122108e-07 4.19144724164412e-08 5.66857134869081e-09 3.69953871453109e-09
"99" 16193 2.39511224780684e-09 3.89757780048589e-09 1.80977822510262e-08 1.65347944826444e-07 1.65394983413275e-07 4.19165360627931e-08 5.66830698867888e-09 3.69860885854607e-09
"100" 16194 2.39511224780684e-09 3.90518847898194e-09 1.81034929055334e-08 1.65284708514151e-07 1.65779568704442e-07 4.19185997091449e-08 5.66804262866694e-09 3.69767900256106e-09
"101" 16195 2.39263566189056e-09 3.90134635522879e-09 1.80730396768452e-08 1.65237277837214e-07 1.66182710243637e-07 4.18783562903533e-08 5.66188313196851e-09 3.69533313815953e-09
"102" 16196 2.39015907597427e-09 3.89750423147564e-09 1.80425864481569e-08 1.65189847160276e-07 1.66585851782832e-07 4.18381128715617e-08 5.65572363527009e-09 3.692987273758e-09
"103" 16197 2.38768249005799e-09 3.89366210772249e-09 1.80121332194686e-08 1.65142416483339e-07 1.66988993322027e-07 4.17978694527701e-08 5.64956413857166e-09 3.69064140935647e-09
"104" 16198 2.38520590414171e-09 3.88981998396934e-09 1.79816799907803e-08 1.65094985806401e-07 1.67392134861222e-07 4.17576260339785e-08 5.64340464187324e-09 3.68829554495494e-09
"105" 16199 2.38272931822542e-09 3.88597786021619e-09 1.7951226762092e-08 1.65047555129464e-07 1.67795276400417e-07 4.17173826151869e-08 5.63724514517481e-09 3.68594968055341e-09
"106" 16200 2.38025273230914e-09 3.88213573646304e-09 1.79207735334037e-08 1.65000124452526e-07 1.68198417939612e-07 4.16771391963954e-08 5.63108564847639e-09 3.68360381615189e-09
"107" 16201 2.37777614639286e-09 3.87829361270989e-09 1.78903203047155e-08 1.64952693775589e-07 1.68601559478807e-07 4.16368957776038e-08 5.62492615177796e-09 3.68125795175036e-09
"108" 16202 2.37777614639286e-09 3.86595416651766e-09 1.78576684174829e-08 1.65014774581259e-07 1.72032269300193e-07 4.19531007258065e-08 5.63109099062444e-09 3.67912763878274e-09
"109" 16203 2.37777614639286e-09 3.85361472032543e-09 1.78250165302504e-08 1.6507685538693e-07 1.7546297912158e-07 4.22693056740093e-08 5.63725582947091e-09 3.67699732581511e-09
"110" 16204 2.37777614639286e-09 3.85740154012689e-09 1.78048834836293e-08 1.65184933884962e-07 1.75409396613502e-07 4.23594244045216e-08 5.65116098293937e-09 3.68105500100217e-09
"111" 16205 2.37777614639286e-09 3.86118835992835e-09 1.77847504370082e-08 1.65293012382994e-07 1.75355814105425e-07 4.24495431350339e-08 5.66506613640784e-09 3.68511267618922e-09
"112" 16206 2.37777614639286e-09 3.86497517972981e-09 1.77646173903871e-08 1.65401090881026e-07 1.75302231597347e-07 4.25396618655462e-08 5.67897128987631e-09 3.68917035137627e-09
"113" 16207 2.37777614639286e-09 3.86876199953127e-09 1.7744484343766e-08 1.65509169379058e-07 1.7524864908927e-07 4.26297805960585e-08 5.69287644334477e-09 3.69322802656333e-09
"114" 16208 2.37777614639286e-09 3.87254881933273e-09 1.7724351297145e-08 1.65617247877091e-07 1.75195066581192e-07 4.27198993265708e-08 5.70678159681324e-09 3.69728570175038e-09
"115" 16209 2.37354533473147e-09 3.87633563913419e-09 1.77200661651655e-08 1.65702218659357e-07 1.73549875705819e-07 4.2848756058555e-08 5.72581877383905e-09 3.69728570175038e-09
"116" 16210 2.36931452307009e-09 3.88012245893565e-09 1.7715781033186e-08 1.65787189441623e-07 1.71904684830445e-07 4.29776127905391e-08 5.74485595086486e-09 3.69728570175038e-09
"117" 16211 2.36508371140871e-09 3.88390927873712e-09 1.77114959012066e-08 1.65872160223889e-07 1.70259493955071e-07 4.31064695225233e-08 5.76389312789068e-09 3.69728570175038e-09
"118" 16212 2.36085289974732e-09 3.88769609853858e-09 1.77072107692271e-08 1.65957131006155e-07 1.68614303079698e-07 4.32353262545075e-08 5.78293030491649e-09 3.69728570175038e-09
"119" 16213 2.35662208808594e-09 3.89148291834004e-09 1.77029256372476e-08 1.66042101788421e-07 1.66969112204324e-07 4.33641829864917e-08 5.8019674819423e-09 3.69728570175038e-09
"120" 16214 2.35239127642456e-09 3.8952697381415e-09 1.76986405052682e-08 1.66127072570687e-07 1.6532392132895e-07 4.34930397184759e-08 5.82100465896811e-09 3.69728570175038e-09
"121" 16215 2.34816046476317e-09 3.89905655794296e-09 1.76943553732887e-08 1.66212043352953e-07 1.63678730453577e-07 4.362189645046e-08 5.84004183599393e-09 3.69728570175038e-09
"122" 16216 2.34392965310179e-09 3.90284337774442e-09 1.76900702413092e-08 1.66297014135219e-07 1.62033539578203e-07 4.37507531824442e-08 5.85907901301974e-09 3.69728570175038e-09
"123" 16217 2.33611294576272e-09 3.89358879310024e-09 1.76813585037027e-08 1.66443282420098e-07 1.62079726959218e-07 4.3576354333092e-08 5.83822128281704e-09 3.68589463098973e-09
"124" 16218 2.32829623842365e-09 3.88433420845607e-09 1.76726467660961e-08 1.66589550704978e-07 1.62125914340233e-07 4.34019554837398e-08 5.81736355261434e-09 3.67450356022908e-09
"125" 16219 2.32047953108458e-09 3.8750796238119e-09 1.76639350284895e-08 1.66735818989858e-07 1.62172101721249e-07 4.32275566343876e-08 5.79650582241164e-09 3.66311248946843e-09
"126" 16220 2.31266282374552e-09 3.86582503916772e-09 1.76552232908829e-08 1.66882087274737e-07 1.62218289102264e-07 4.30531577850355e-08 5.77564809220894e-09 3.65172141870777e-09
"127" 16221 2.30484611640645e-09 3.85657045452355e-09 1.76465115532764e-08 1.67028355559617e-07 1.62264476483279e-07 4.28787589356833e-08 5.75479036200624e-09 3.64033034794712e-09
"128" 16222 2.29702940906738e-09 3.84731586987938e-09 1.76377998156698e-08 1.67174623844496e-07 1.62310663864295e-07 4.27043600863311e-08 5.73393263180354e-09 3.62893927718647e-09
"129" 16223 2.28921270172831e-09 3.8380612852352e-09 1.76290880780632e-08 1.67320892129376e-07 1.6235685124531e-07 4.25299612369789e-08 5.71307490160085e-09 3.61754820642582e-09
"130" 16224 2.2795127854474e-09 3.83298141121832e-09 1.76338719631599e-08 1.67181803284451e-07 1.62288953917325e-07 4.26259277371316e-08 5.70040164747206e-09 3.60530753061526e-09
"131" 16225 2.26981286916649e-09 3.82790153720143e-09 1.76386558482565e-08 1.67042714439526e-07 1.62221056589341e-07 4.27218942372844e-08 5.68772839334328e-09 3.5930668548047e-09
"132" 16226 2.26011295288558e-09 3.82282166318455e-09 1.76434397333532e-08 1.66903625594601e-07 1.62153159261356e-07 4.28178607374372e-08 5.6750551392145e-09 3.58082617899414e-09
"133" 16227 2.25041303660468e-09 3.81774178916766e-09 1.76482236184499e-08 1.66764536749676e-07 1.62085261933371e-07 4.29138272375899e-08 5.66238188508572e-09 3.56858550318358e-09
"134" 16228 2.24071312032377e-09 3.81266191515077e-09 1.76530075035466e-08 1.66625447904751e-07 1.62017364605386e-07 4.30097937377427e-08 5.64970863095694e-09 3.55634482737303e-09
"135" 16229 2.23101320404286e-09 3.80758204113389e-09 1.76577913886432e-08 1.66486359059826e-07 1.61949467277402e-07 4.31057602378954e-08 5.63703537682816e-09 3.54410415156247e-09
"136" 16230 2.22131328776195e-09 3.802502167117e-09 1.76625752737399e-08 1.66347270214901e-07 1.61881569949417e-07 4.32017267380482e-08 5.62436212269938e-09 3.53186347575191e-09
"137" 16231 2.21161337148104e-09 3.79742229310012e-09 1.76673591588366e-08 1.66208181369976e-07 1.61813672621432e-07 4.3297693238201e-08 5.6116888685706e-09 3.51962279994135e-09
"138" 16232 2.2103750785229e-09 3.7994911289672e-09 1.76906469219511e-08 1.66208181369976e-07 1.60713470883267e-07 4.35924013826618e-08 5.62356904266357e-09 3.51955514969195e-09
"139" 16233 2.20961835901221e-09 3.79986050034646e-09 1.77122347796387e-08 1.64773795692835e-07 1.60706614041217e-07 4.38866290899416e-08 5.63339427047439e-09 3.51762778747252e-09
"140" 16234 2.20398591185645e-09 3.7980316541207e-09 1.7717841813433e-08 1.64567132685963e-07 1.60094537530464e-07 4.41026395076391e-08 5.64527444456736e-09 3.51784333890643e-09
"141" 16235 2.19835346470068e-09 3.79620280789494e-09 1.77234488472274e-08 1.64360469679092e-07 1.59482461019711e-07 4.43186499253365e-08 5.65715461866033e-09 3.51805889034033e-09
"142" 16236 2.19272101754491e-09 3.79437396166918e-09 1.77290558810217e-08 1.64153806672221e-07 1.58870384508958e-07 4.4534660343034e-08 5.66903479275331e-09 3.51827444177424e-09
"143" 16237 2.18708857038914e-09 3.79254511544342e-09 1.77346629148161e-08 1.6394714366535e-07 1.58258307998205e-07 4.47506707607315e-08 5.68091496684628e-09 3.51848999320814e-09
"144" 16238 2.18145612323337e-09 3.79071626921766e-09 1.77402699486104e-08 1.63740480658478e-07 1.57646231487452e-07 4.49666811784289e-08 5.69279514093925e-09 3.51870554464205e-09
"145" 16239 2.1758236760776e-09 3.78681858712482e-09 1.77360762775974e-08 1.63686502916241e-07 1.57110562533074e-07 4.49326286986929e-08 5.69279514093925e-09 3.51977070112586e-09
"146" 16240 2.17019122892184e-09 3.78292090503198e-09 1.77318826065843e-08 1.63632525174004e-07 1.56574893578696e-07 4.48985762189568e-08 5.69279514093925e-09 3.52083585760967e-09
"147" 16241 2.22647288697874e-09 3.98530406271464e-09 1.84915786604074e-08 1.65968713062948e-07 1.58047270577645e-07 4.51480260413049e-08 5.8028504626981e-09 3.58413505461698e-09
"148" 16242 2.28275454503565e-09 4.1876872203973e-09 1.92512747142304e-08 1.68304900951891e-07 1.59519647576594e-07 4.5397475863653e-08 5.91290578445695e-09 3.64743425162429e-09
"149" 16243 2.33903620309255e-09 4.39007037807995e-09 2.00109707680535e-08 1.70641088840835e-07 1.60992024575543e-07 4.56469256860012e-08 6.0229611062158e-09 3.7107334486316e-09
"150" 16244 2.39531786114946e-09 4.59245353576261e-09 2.07706668218766e-08 1.72977276729778e-07 1.62464401574492e-07 4.58963755083493e-08 6.13301642797465e-09 3.77403264563892e-09
"151" 16245 2.45159951920636e-09 4.79993508690872e-09 2.15074116679121e-08 1.75499348603038e-07 1.64316428025078e-07 4.62240426202798e-08 6.23925618408778e-09 3.83518892899289e-09
"152" 16246 2.50788117726326e-09 5.00741663805483e-09 2.22441565139476e-08 1.78021420476298e-07 1.66168454475665e-07 4.65517097322103e-08 6.34549594020092e-09 3.89634521234687e-09
"153" 16247 2.56416283532017e-09 5.21489818920093e-09 2.2980901359983e-08 1.80543492349557e-07 1.68020480926251e-07 4.68793768441407e-08 6.45173569631405e-09 3.95750149570085e-09
"154" 16248 2.62044449337707e-09 5.42237974034704e-09 2.37176462060185e-08 1.83065564222817e-07 1.69872507376837e-07 4.72070439560712e-08 6.55797545242719e-09 4.01865777905482e-09
"155" 16249 2.67672615143398e-09 5.62986129149315e-09 2.4454391052054e-08 1.85587636096077e-07 1.71724533827423e-07 4.75347110680017e-08 6.66421520854032e-09 4.0798140624088e-09
"156" 16250 2.73300780949088e-09 5.83734284263925e-09 2.51911358980895e-08 1.88109707969337e-07 1.73576560278009e-07 4.78623781799321e-08 6.77045496465346e-09 4.14097034576278e-09
"157" 16251 2.78928946754779e-09 6.04482439378536e-09 2.59278807441249e-08 1.90631779842597e-07 1.75428586728595e-07 4.81900452918626e-08 6.87669472076659e-09 4.20212662911675e-09
"158" 16252 2.84557112560469e-09 6.25230594493147e-09 2.66646255901604e-08 1.93153851715857e-07 1.77280613179181e-07 4.85177124037931e-08 6.98293447687972e-09 4.26328291247073e-09
"159" 16253 2.9018527836616e-09 6.45978749607757e-09 2.74013704361959e-08 1.95675923589116e-07 1.79132639629767e-07 4.88453795157235e-08 7.08917423299286e-09 4.32443919582471e-09
"160" 16254 2.96376688887427e-09 6.66399949998599e-09 2.8179948371649e-08 1.98079685640006e-07 1.81203815357692e-07 4.89469192499847e-08 7.19541398910599e-09 4.38559547917868e-09
"161" 16255 3.02568099408694e-09 6.86821150389441e-09 2.89585263071021e-08 2.00483447690896e-07 1.83274991085617e-07 4.90484589842459e-08 7.30165374521913e-09 4.44675176253266e-09
"162" 16256 3.08759509929962e-09 7.07242350780283e-09 2.97371042425552e-08 2.02887209741785e-07 1.85346166813542e-07 4.91499987185071e-08 7.40789350133226e-09 4.50790804588664e-09
"163" 16257 3.14950920451229e-09 7.27663551171124e-09 3.05156821780084e-08 2.05290971792675e-07 1.87417342541467e-07 4.92515384527683e-08 7.5141332574454e-09 4.56906432924062e-09
"164" 16258 3.21142330972496e-09 7.48084751561966e-09 3.12942601134615e-08 2.07694733843565e-07 1.89488518269392e-07 4.93530781870296e-08 7.62037301355853e-09 4.63022061259459e-09
"165" 16259 3.27333741493764e-09 7.68505951952808e-09 3.20728380489146e-08 2.10098495894454e-07 1.91559693997317e-07 4.94546179212908e-08 7.72661276967167e-09 4.69137689594857e-09
"166" 16260 3.33525152015031e-09 7.8892715234365e-09 3.28514159843677e-08 2.12502257945344e-07 1.93630869725242e-07 4.9556157655552e-08 7.8328525257848e-09 4.75253317930255e-09
"167" 16261 3.33525152015031e-09 7.8860019761988e-09 3.30052270261468e-08 2.13058300860261e-07 1.93692899610914e-07 4.93267540656794e-08 7.82903696013909e-09 4.75067346733251e-09
"168" 16262 3.33525152015031e-09 7.88273242896112e-09 3.31590380679258e-08 2.13614343775177e-07 1.93754929496586e-07 4.90973504758067e-08 7.82522139449337e-09 4.74881375536248e-09
"169" 16263 3.33648981310845e-09 7.87885326631484e-09 3.31623049695283e-08 2.13591457334575e-07 1.93827068252691e-07 4.88792717818958e-08 7.82213897507014e-09 4.74688639314305e-09
"170" 16264 3.33772810606659e-09 7.87497410366856e-09 3.31655718711308e-08 2.13568570893973e-07 1.93899207008797e-07 4.86611930879849e-08 7.8190565556469e-09 4.74495903092362e-09
"171" 16265 3.33896639902473e-09 7.87109494102229e-09 3.31688387727332e-08 2.13545684453371e-07 1.93971345764902e-07 4.84431143940739e-08 7.81597413622366e-09 4.74303166870419e-09
"172" 16266 3.34020469198287e-09 7.86721577837601e-09 3.31721056743357e-08 2.13522798012768e-07 1.94043484521007e-07 4.8225035700163e-08 7.81289171680043e-09 4.74110430648476e-09
"173" 16267 3.34144298494102e-09 7.86333661572973e-09 3.31753725759382e-08 2.13499911572166e-07 1.94115623277113e-07 4.8006957006252e-08 7.80980929737719e-09 4.73917694426533e-09
"174" 16268 3.34007570878614e-09 7.86124926041609e-09 3.31753725759382e-08 2.1316010269896e-07 1.94063097072817e-07 4.80272503003553e-08 7.81054244359967e-09 4.73939249569924e-09
"175" 16269 3.34131400174428e-09 7.8615448083971e-09 3.31795455228087e-08 2.12859828570449e-07 1.94130742997618e-07 4.78370377769866e-08 7.78672216160039e-09 4.73726218273161e-09
"176" 16270 3.34242331150568e-09 7.85973448161791e-09 3.31795455228087e-08 2.12950043145881e-07 1.9393575790094e-07 4.78534188380034e-08 7.77862224409842e-09 4.73362300972666e-09
"177" 16271 3.34353262126708e-09 7.85792415483871e-09 3.31795455228087e-08 2.13040257721313e-07 1.93740772804261e-07 4.78697998990201e-08 7.77052232659645e-09 4.7299838367217e-09
"178" 16272 3.34464193102848e-09 7.85611382805951e-09 3.31795455228087e-08 2.13130472296745e-07 1.93545787707582e-07 4.78861809600369e-08 7.76242240909448e-09 4.72634466371674e-09
"179" 16273 3.34575124078988e-09 7.85430350128032e-09 3.31795455228087e-08 2.13220686872177e-07 1.93350802610903e-07 4.79025620210536e-08 7.75432249159251e-09 4.72270549071179e-09
"180" 16274 3.34686055055129e-09 7.85249317450112e-09 3.31795455228087e-08 2.13310901447609e-07 1.93155817514224e-07 4.79189430820703e-08 7.74622257409054e-09 4.71906631770683e-09
"181" 16275 3.34796986031269e-09 7.85068284772193e-09 3.31795455228087e-08 2.13401116023041e-07 1.92960832417545e-07 4.79353241430871e-08 7.73812265658857e-09 4.71542714470188e-09
"182" 16276 3.34821064703642e-09 7.85504224403885e-09 3.31879121406922e-08 2.13371250574791e-07 1.9353518413728e-07 4.79878213301917e-08 7.73008267289993e-09 4.71263757674683e-09
"183" 16277 3.34808166383968e-09 7.86163689685392e-09 3.32319767725431e-08 2.14043373253574e-07 1.93642117015903e-07 4.79993796017067e-08 7.72506517482119e-09 4.70971270829298e-09
"184" 16278 3.34795268064294e-09 7.86823154966899e-09 3.32760414043941e-08 2.14715495932358e-07 1.93749049894527e-07 4.80109378732216e-08 7.72004767674246e-09 4.70678783983914e-09
"185" 16279 3.3478236974462e-09 7.87482620248406e-09 3.3320106036245e-08 2.15387618611142e-07 1.9385598277315e-07 4.80224961447365e-08 7.71503017866372e-09 4.7038629713853e-09
"186" 16280 3.34769471424946e-09 7.88142085529913e-09 3.3364170668096e-08 2.16059741289925e-07 1.93962915651773e-07 4.80340544162515e-08 7.71001268058499e-09 4.70093810293145e-09
"187" 16281 3.34756573105272e-09 7.88040482961815e-09 3.33602013673009e-08 2.16111179671767e-07 1.93733975811229e-07 4.8078324491853e-08 7.70499518250625e-09 4.6972989299265e-09
"188" 16282 3.34743674785598e-09 7.87938880393717e-09 3.33562320665059e-08 2.16162618053608e-07 1.93505035970684e-07 4.81225945674546e-08 7.69997768442752e-09 4.69365975692154e-09
"189" 16283 3.34730776465924e-09 7.87837277825619e-09 3.33522627657108e-08 2.16214056435449e-07 1.9327609613014e-07 4.81668646430562e-08 7.69496018634878e-09 4.69002058391658e-09
"190" 16284 3.3471787814625e-09 7.87735675257522e-09 3.33482934649157e-08 2.16265494817291e-07 1.93047156289595e-07 4.82111347186577e-08 7.68994268827005e-09 4.68638141091163e-09
"191" 16285 3.34704979826576e-09 7.87634072689424e-09 3.33443241641206e-08 2.16316933199132e-07 1.92818216449051e-07 4.82554047942593e-08 7.68492519019132e-09 4.68274223790667e-09
"192" 16286 3.34692081506902e-09 7.87532470121326e-09 3.33403548633256e-08 2.16368371580973e-07 1.92589276608506e-07 4.82996748698609e-08 7.67990769211258e-09 4.67910306490172e-09
"193" 16287 3.34679183187228e-09 7.87430867553228e-09 3.33363855625305e-08 2.16419809962815e-07 1.92360336767962e-07 4.83439449454625e-08 7.67489019403385e-09 4.67546389189676e-09
"194" 16288 3.34666284867554e-09 7.87329264985131e-09 3.33324162617354e-08 2.16471248344656e-07 1.92131396927417e-07 4.8388215021064e-08 7.66987269595511e-09 4.67182471889181e-09
"195" 16289 3.3465338654788e-09 7.87329264985131e-09 3.33302383273338e-08 2.16461993310593e-07 1.91302387130172e-07 4.83872541467019e-08 7.67172321603866e-09 4.66969440592418e-09
"196" 16290 3.33683394919789e-09 7.85805302780065e-09 3.33179024086552e-08 2.164003306764e-07 1.90439681098149e-07 4.84151431612868e-08 7.66688551939992e-09 4.66350641776951e-09
"197" 16291 3.31771798820778e-09 7.82947619893534e-09 3.31507164936779e-08 2.15222532075551e-07 1.88878164151965e-07 4.8141583919536e-08 7.65060112582403e-09 4.63912256459005e-09
"198" 16292 3.29860202721767e-09 7.80089937007004e-09 3.29835305787007e-08 2.14044733474702e-07 1.87316647205781e-07 4.78680246777852e-08 7.63431673224814e-09 4.61473871141059e-09
"199" 16293 3.27948606622756e-09 7.77232254120473e-09 3.28163446637234e-08 2.12866934873853e-07 1.85755130259597e-07 4.75944654360345e-08 7.61803233867225e-09 4.59035485823114e-09
"200" 16294 3.26037010523746e-09 7.74374571233943e-09 3.26491587487462e-08 2.11689136273004e-07 1.84193613313413e-07 4.73209061942837e-08 7.60174794509636e-09 4.56597100505168e-09
"201" 16295 3.24125414424735e-09 7.71516888347412e-09 3.24819728337689e-08 2.10511337672155e-07 1.82632096367229e-07 4.70473469525329e-08 7.58546355152047e-09 4.54158715187223e-09
"202" 16296 3.22213818325724e-09 7.68659205460882e-09 3.23147869187916e-08 2.09333539071306e-07 1.81070579421045e-07 4.67737877107821e-08 7.56917915794458e-09 4.51720329869277e-09
"203" 16297 3.20377894177782e-09 7.65712858180048e-09 3.21637233013552e-08 2.0845264243161e-07 1.79490428163635e-07 4.65320114007666e-08 7.55791226244743e-09 4.498669182421e-09
"204" 16298 3.18590127374585e-09 7.64000455518437e-09 3.20872275571393e-08 2.08827423388701e-07 1.78916431230367e-07 4.63795255848056e-08 7.56758765572492e-09 4.48652600505211e-09
"205" 16299 3.16802360571388e-09 7.62288052856826e-09 3.20107318129234e-08 2.09202204345792e-07 1.78342434297099e-07 4.62270397688447e-08 7.57726304900241e-09 4.47438282768321e-09
"206" 16300 3.15014593768192e-09 7.60575650195216e-09 3.19342360687075e-08 2.09576985302883e-07 1.77768437363832e-07 4.60745539528837e-08 7.5869384422799e-09 4.46223965031431e-09
"207" 16301 3.13226826964995e-09 7.58863247533605e-09 3.18577403244916e-08 2.09951766259973e-07 1.77194440430564e-07 4.59220681369227e-08 7.59661383555740e-09 4.45009647294542e-09
"208" 16302 3.1327498430974e-09 7.60026996327488e-09 3.1907083999206e-08 2.1154313969147e-07 1.78139723555507e-07 4.60271494609512e-08 7.62565604183401e-09 4.46226949850658e-09
"209" 16303 3.13323141654486e-09 7.61190745121371e-09 3.19564276739204e-08 2.13134513122966e-07 1.7908500668045e-07 4.61322307849797e-08 7.65469824811063e-09 4.47444252406774e-09
"210" 16304 3.13371298999231e-09 7.62354493915254e-09 3.20057713486348e-08 2.14725886554463e-07 1.80030289805392e-07 4.62373121090082e-08 7.68374045438725e-09 4.4866155496289e-09
"211" 16305 3.13419456343977e-09 7.63518242709136e-09 3.20551150233492e-08 2.1631725998596e-07 1.80975572930335e-07 4.63423934330367e-08 7.71278266066386e-09 4.49878857519006e-09
"212" 16306 3.13467613688722e-09 7.64681991503019e-09 3.21044586980636e-08 2.17908633417456e-07 1.81920856055278e-07 4.64474747570652e-08 7.74182486694048e-09 4.51096160075122e-09
"213" 16307 3.13515771033468e-09 7.65845740296902e-09 3.2153802372778e-08 2.19500006848953e-07 1.82866139180221e-07 4.65525560810937e-08 7.7708670732171e-09 4.52313462631238e-09
"214" 16308 3.13563928378213e-09 7.67009489090785e-09 3.22031460474924e-08 2.21091380280449e-07 1.83811422305164e-07 4.66576374051222e-08 7.79990927949371e-09 4.53530765187354e-09
"215" 16309 3.13612085722959e-09 7.68173237884668e-09 3.22524897222068e-08 2.22682753711946e-07 1.84756705430107e-07 4.67627187291507e-08 7.82895148577033e-09 4.5474806774347e-09
"216" 16310 3.13660243067705e-09 7.69336986678551e-09 3.23018333969212e-08 2.24274127143442e-07 1.8570198855505e-07 4.68678000531792e-08 7.85799369204695e-09 4.55965370299586e-09
"217" 16311 3.13595751469335e-09 7.70561697013292e-09 3.23721161381622e-08 2.25763695200246e-07 1.86443579696039e-07 4.69806463674659e-08 7.88773907763938e-09 4.56996701658699e-09
"218" 16312 3.13531259870965e-09 7.71786407348034e-09 3.24423988794032e-08 2.2725326325705e-07 1.87185170837027e-07 4.70934926817527e-08 7.91748446323181e-09 4.58028033017812e-09
"219" 16313 3.13466768272595e-09 7.73011117682776e-09 3.25126816206442e-08 2.28742831313854e-07 1.87926761978016e-07 4.72063389960394e-08 7.94722984882424e-09 4.59059364376925e-09
"220" 16314 3.13402276674225e-09 7.74235828017517e-09 3.25829643618853e-08 2.30232399370658e-07 1.88668353119005e-07 4.73191853103261e-08 7.97697523441667e-09 4.60090695736038e-09
"221" 16315 3.13337785075855e-09 7.75460538352259e-09 3.26532471031263e-08 2.31721967427462e-07 1.89409944259994e-07 4.74320316246128e-08 8.0067206200091e-09 4.6112202709515e-09
"222" 16316 3.13273293477485e-09 7.76685248687e-09 3.27235298443673e-08 2.33211535484265e-07 1.90151535400982e-07 4.75448779388995e-08 8.03646600560153e-09 4.62153358454263e-09
"223" 16317 3.13208801879116e-09 7.77909959021742e-09 3.27938125856083e-08 2.34701103541069e-07 1.90893126541971e-07 4.76577242531862e-08 8.06621139119396e-09 4.63184689813376e-09
"224" 16318 3.13704119062372e-09 7.7790072473726e-09 3.27851008480017e-08 2.34565597157584e-07 1.90600413206469e-07 4.77210430550289e-08 8.0669745043231e-09 4.63076914096424e-09
"225" 16319 3.13515798168188e-09 7.79125435072002e-09 3.27951673713123e-08 2.34502585656448e-07 1.9030414574835e-07 4.7684926928941e-08 8.06694453741644e-09 4.62969138379472e-09
"226" 16320 3.13451306569818e-09 7.79513351336629e-09 3.27870958604706e-08 2.36559120065944e-07 1.91831932982295e-07 4.78247745454399e-08 8.08252040952847e-09 4.62783167182468e-09
"227" 16321 3.13386814971449e-09 7.79901267601257e-09 3.27790243496288e-08 2.38615654475441e-07 1.9335972021624e-07 4.79646221619388e-08 8.09809628164049e-09 4.62597195985465e-09
"228" 16322 3.13322323373079e-09 7.80289183865884e-09 3.27709528387871e-08 2.40672188884937e-07 1.94887507450185e-07 4.81044697784376e-08 8.11367215375252e-09 4.62411224788462e-09
"229" 16323 3.13257831774709e-09 7.80677100130512e-09 3.27628813279454e-08 2.42728723294433e-07 1.9641529468413e-07 4.82443173949365e-08 8.12924802586455e-09 4.62225253591459e-09
"230" 16324 3.13193340176339e-09 7.8106501639514e-09 3.27548098171037e-08 2.4478525770393e-07 1.97943081918076e-07 4.83841650114354e-08 8.14482389797658e-09 4.62039282394455e-09
"231" 16325 3.13317169472153e-09 7.81271899981848e-09 3.27517551259727e-08 2.46922716667965e-07 1.98854091991925e-07 4.85553562824673e-08 8.16066413010054e-09 4.61961086914404e-09
"232" 16326 3.13317169472153e-09 7.81580386136654e-09 3.27336170918204e-08 2.48311740190291e-07 2.0029193537863e-07 4.87398491459935e-08 8.17430492355707e-09 4.61754820642582e-09
"233" 16327 3.13428100448293e-09 7.81997857199382e-09 3.2745953010499e-08 2.50392509907332e-07 2.02094822461986e-07 4.89065241650662e-08 8.17782082013614e-09 4.61568849445579e-09
"234" 16328 3.13539031424434e-09 7.82415328262111e-09 3.27582889291776e-08 2.52473279624374e-07 2.03897709545342e-07 4.90731991841389e-08 8.18133671671521e-09 4.61382878248575e-09
"235" 16329 3.13649962400574e-09 7.8283279932484e-09 3.27706248478562e-08 2.54554049341416e-07 2.05700596628698e-07 4.92398742032117e-08 8.18485261329427e-09 4.61196907051572e-09
"236" 16330 3.13760893376714e-09 7.83250270387569e-09 3.27829607665348e-08 2.56634819058458e-07 2.07503483712054e-07 4.94065492222844e-08 8.18836850987334e-09 4.61010935854569e-09
"237" 16331 3.14717986685131e-09 7.85311774792424e-09 3.28936925229509e-08 2.56517067727987e-07 2.0763113713791e-07 4.96022205560382e-08 8.19188440645241e-09 4.62042267213682e-09
"238" 16332 3.15675079993548e-09 7.87373279197280e-09 3.30044242793669e-08 2.56399316397517e-07 2.07758790563766e-07 4.97978918897919e-08 8.19540030303147e-09 4.63073598572795e-09
"239" 16333 3.16632173301965e-09 7.89434783602135e-09 3.31151560357829e-08 2.56281565067046e-07 2.07886443989621e-07 4.99935632235457e-08 8.19891619961054e-09 4.64104929931907e-09
"240" 16334 3.17589266610381e-09 7.9149628800699e-09 3.32258877921989e-08 2.56163813736576e-07 2.08014097415477e-07 5.01892345572994e-08 8.20243209618961e-09 4.6513626129102e-09
"241" 16335 3.18546359918798e-09 7.93557792411846e-09 3.3336619548615e-08 2.56046062406105e-07 2.08141750841333e-07 5.03849058910532e-08 8.20594799276867e-09 4.66167592650133e-09
"242" 16336 3.19503453227215e-09 7.95619296816701e-09 3.3447351305031e-08 2.55928311075635e-07 2.08269404267189e-07 5.05805772248069e-08 8.20946388934774e-09 4.67198924009246e-09
"243" 16337 3.20460546535632e-09 7.97680801221557e-09 3.3558083061447e-08 2.55810559745164e-07 2.08397057693045e-07 5.07762485585607e-08 8.2129797859268e-09 4.68230255368359e-09
"244" 16338 3.20894808054469e-09 7.98935066354400e-09 3.36307266590225e-08 2.55746167926249e-07 2.08384993342039e-07 5.07485929195291e-08 8.20954310577164e-09 4.68934014688817e-09
"245" 16339 3.21329069573306e-09 8.00189331487242e-09 3.3703370256598e-08 2.55681776107333e-07 2.08372928991032e-07 5.07209372804976e-08 8.20610642561647e-09 4.69637774009276e-09
"246" 16340 3.21763331092143e-09 8.01443596620085e-09 3.37760138541734e-08 2.55617384288417e-07 2.08360864640025e-07 5.0693281641466e-08 8.2026697454613e-09 4.70341533329734e-09
"247" 16341 3.22197592610981e-09 8.02697861752928e-09 3.38486574517489e-08 2.55552992469501e-07 2.08348800289019e-07 5.06656260024344e-08 8.19923306530614e-09 4.71045292650193e-09
"248" 16342 3.22631854129818e-09 8.0395212688577e-09 3.39213010493244e-08 2.55488600650586e-07 2.08336735938012e-07 5.06379703634029e-08 8.19579638515097e-09 4.71749051970651e-09
"249" 16343 3.23066115648655e-09 8.05206392018613e-09 3.39939446468999e-08 2.5542420883167e-07 2.08324671587006e-07 5.06103147243713e-08 8.1923597049958e-09 4.72452811291109e-09
"250" 16344 3.23500377167492e-09 8.06460657151456e-09 3.40665882444754e-08 2.55359817012754e-07 2.08312607235999e-07 5.05826590853397e-08 8.18892302484064e-09 4.73156570611568e-09
"251" 16345 3.23934638686329e-09 8.07714922284298e-09 3.41392318420508e-08 2.55295425193838e-07 2.08300542884992e-07 5.05550034463082e-08 8.18548634468547e-09 4.73860329932026e-09
"252" 16346 3.24368900205166e-09 8.08969187417141e-09 3.42118754396263e-08 2.55231033374922e-07 2.08288478533986e-07 5.05273478072766e-08 8.18204966453031e-09 4.74564089252485e-09
"253" 16347 3.24779083051631e-09 8.09805981487255e-09 3.42782596168961e-08 2.54946364822562e-07 2.08172265004428e-07 5.05273478072766e-08 8.19070292681477e-09 4.75453819769946e-09
"254" 16348 3.25189265898095e-09 8.10642775557369e-09 3.43446437941659e-08 2.54661696270202e-07 2.0805605147487e-07 5.05273478072766e-08 8.19935618909923e-09 4.76343550287408e-09
"255" 16349 3.25599448744559e-09 8.1186748589211e-09 3.44171959307749e-08 2.54708238310491e-07 2.07407001329992e-07 5.04728647656712e-08 8.20800945138369e-09 4.76621247014342e-09
"256" 16350 3.26009631591024e-09 8.13092196226852e-09 3.4489748067384e-08 2.54754780350779e-07 2.06757951185113e-07 5.04183817240658e-08 8.21666271366815e-09 4.76898943741275e-09
"257" 16351 3.26419814437488e-09 8.14316906561593e-09 3.45623002039931e-08 2.54801322391068e-07 2.06108901040235e-07 5.03638986824604e-08 8.22531597595261e-09 4.77176640468209e-09
"258" 16352 3.26829997283952e-09 8.15541616896335e-09 3.46348523406021e-08 2.54847864431356e-07 2.05459850895357e-07 5.0309415640855e-08 8.23396923823707e-09 4.77454337195143e-09
"259" 16353 3.27240180130417e-09 8.16766327231077e-09 3.47074044772112e-08 2.54894406471644e-07 2.04810800750479e-07 5.02549325992495e-08 8.24262250052153e-09 4.77732033922077e-09
"260" 16354 3.27650362976881e-09 8.17991037565818e-09 3.47799566138203e-08 2.54940948511933e-07 2.041617506056e-07 5.02004495576441e-08 8.25127576280599e-09 4.7800973064901e-09
"261" 16355 3.27650362976881e-09 8.18199773097183e-09 3.48050564674709e-08 2.55370522338257e-07 2.04190954009075e-07 5.01438250778358e-08 8.25324080836815e-09 4.77475892338533e-09
"262" 16356 3.28060545823346e-09 8.19424483431924e-09 3.48107671219781e-08 2.55961506259324e-07 2.04876048186481e-07 5.0230017889187e-08 8.25931574649463e-09 4.76928523978177e-09
"263" 16357 3.2847072866981e-09 8.20649193766666e-09 3.48164777764854e-08 2.56552490180391e-07 2.05561142363887e-07 5.03162107005382e-08 8.26539068462111e-09 4.7638115561782e-09
"264" 16358 3.28880911516274e-09 8.21873904101407e-09 3.48221884309926e-08 2.57143474101458e-07 2.06246236541293e-07 5.04024035118894e-08 8.27146562274759e-09 4.75833787257464e-09
"265" 16359 3.29291094362739e-09 8.23098614436149e-09 3.48278990854999e-08 2.57734458022525e-07 2.069313307187e-07 5.04885963232406e-08 8.27754056087406e-09 4.75286418897107e-09
"266" 16360 3.29701277209203e-09 8.2432332477089e-09 3.48336097400072e-08 2.58325441943592e-07 2.07616424896106e-07 5.05747891345918e-08 8.28361549900054e-09 4.74739050536751e-09
"267" 16361 3.30111460055667e-09 8.25548035105632e-09 3.48393203945144e-08 2.58916425864659e-07 2.08301519073512e-07 5.0660981945943e-08 8.28969043712702e-09 4.74191682176394e-09
"268" 16362 3.30521642902132e-09 8.26772745440373e-09 3.48450310490217e-08 2.59507409785727e-07 2.08986613250919e-07 5.07471747572942e-08 8.2957653752535e-09 4.73644313816037e-09
"269" 16363 3.30931825748596e-09 8.27997455775115e-09 3.48507417035289e-08 2.60098393706794e-07 2.09671707428325e-07 5.08333675686454e-08 8.30184031337998e-09 4.73096945455681e-09
"270" 16364 3.31342008595061e-09 8.29222166109856e-09 3.48564523580362e-08 2.60689377627861e-07 2.10356801605731e-07 5.09195603799966e-08 8.30791525150646e-09 4.72549577095324e-09
"271" 16365 3.31752191441525e-09 8.30446876444598e-09 3.48621630125435e-08 2.61280361548928e-07 2.11041895783137e-07 5.10057531913478e-08 8.31399018963293e-09 4.72002208734968e-09
"272" 16366 3.32162374287989e-09 8.31671586779339e-09 3.48678736670507e-08 2.61871345469995e-07 2.11726989960544e-07 5.1091946002699e-08 8.32006512775941e-09 4.71454840374611e-09
"273" 16367 3.32572557134454e-09 8.32896297114081e-09 3.4873584321558e-08 2.62462329391062e-07 2.1241208413795e-07 5.11781388140502e-08 8.32614006588589e-09 4.70907472014255e-09
"274" 16368 3.32982739980918e-09 8.34121007448823e-09 3.48792949760652e-08 2.63053313312129e-07 2.13097178315356e-07 5.12643316254014e-08 8.33221500401237e-09 4.70360103653898e-09
"275" 16369 3.33169342908127e-09 8.35375272581665e-09 3.48765975644038e-08 2.63604959011713e-07 2.13200383731379e-07 5.1404801576709e-08 8.33236483854569e-09 4.70360103653898e-09
"276" 16370 3.33355945835336e-09 8.36629537714508e-09 3.48739001527424e-08 2.64156604711296e-07 2.13303589147401e-07 5.15452715280166e-08 8.33251467307901e-09 4.70360103653898e-09
"277" 16371 3.32665435889994e-09 8.37013750089823e-09 3.48502343860157e-08 2.64500473956202e-07 2.14588074082501e-07 5.15330863935865e-08 8.32274403693348e-09 4.70360103653898e-09
"278" 16372 3.31974925944653e-09 8.37397962465138e-09 3.48265686192889e-08 2.64844343201109e-07 2.15872559017601e-07 5.15209012591564e-08 8.31297340078795e-09 4.70360103653898e-09
"279" 16373 3.31284415999312e-09 8.37782174840453e-09 3.48029028525622e-08 2.65188212446014e-07 2.17157043952701e-07 5.15087161247264e-08 8.30320276464241e-09 4.70360103653898e-09
"280" 16374 3.30222418166528e-09 8.3897362648778e-09 3.49700229997613e-08 2.65041336538432e-07 2.18338323471779e-07 5.14351294090714e-08 8.29328229396356e-09 4.70295438223727e-09
"281" 16375 3.29435593531696e-09 8.3897362648778e-09 3.49648318225138e-08 2.64979800080689e-07 2.18291715400845e-07 5.12963616187644e-08 8.28125228533726e-09 4.70295438223727e-09
"282" 16376 3.28486244642027e-09 8.38194090069212e-09 3.49375418747151e-08 2.64779227444816e-07 2.19303261733083e-07 5.11435006313777e-08 8.26619979110106e-09 4.70587925069111e-09
"283" 16377 3.27536895752359e-09 8.37414553650644e-09 3.49102519269164e-08 2.64578654808943e-07 2.20314808065321e-07 5.0990639643991e-08 8.25114729686485e-09 4.70880411914496e-09
"284" 16378 3.2658754686269e-09 8.36635017232076e-09 3.48829619791176e-08 2.64378082173071e-07 2.21326354397559e-07 5.08377786566044e-08 8.23609480262865e-09 4.7117289875988e-09
"285" 16379 3.25638197973022e-09 8.35855480813508e-09 3.48556720313189e-08 2.64177509537198e-07 2.22337900729797e-07 5.06849176692177e-08 8.22104230839245e-09 4.71465385605264e-09
"286" 16380 3.24688849083353e-09 8.3507594439494e-09 3.48283820835202e-08 2.63976936901325e-07 2.23349447062035e-07 5.0532056681831e-08 8.20598981415624e-09 4.71757872450649e-09
"287" 16381 3.23739500193685e-09 8.34296407976372e-09 3.48010921357214e-08 2.63776364265453e-07 2.24360993394273e-07 5.03791956944443e-08 8.19093731992004e-09 4.72050359296033e-09
"288" 16382 3.22790151304016e-09 8.33516871557804e-09 3.47738021879227e-08 2.6357579162958e-07 2.25372539726511e-07 5.02263347070576e-08 8.17588482568383e-09 4.72342846141418e-09
"289" 16383 3.21840802414348e-09 8.32737335139236e-09 3.4746512240124e-08 2.63375218993707e-07 2.26384086058749e-07 5.0073473719671e-08 8.16083233144763e-09 4.72635332986802e-09
"290" 16384 3.21905294012718e-09 8.32181324370483e-09 3.47478048534002e-08 2.63418491037339e-07 2.27445291778171e-07 5.00692091592013e-08 8.15792971346438e-09 4.72414276596529e-09
"291" 16385 3.21268095313047e-09 8.31401787951916e-09 3.4733860490261e-08 2.63453726828307e-07 2.27445291778171e-07 5.00674978402326e-08 8.14663285106056e-09 4.72706763441913e-09
"292" 16386 3.1708544099641e-09 8.26539883750876e-09 3.45532118364696e-08 2.63446024256385e-07 2.28440316406746e-07 4.97269730428717e-08 8.02729170581087e-09 4.68833799383292e-09
"293" 16387 3.12902786679772e-09 8.21677979549836e-09 3.43725631826782e-08 2.63438321684462e-07 2.2943534103532e-07 4.93864482455108e-08 7.90795056056117e-09 4.6496083532467e-09
"294" 16388 3.08720132363134e-09 8.16816075348796e-09 3.41919145288867e-08 2.6343061911254e-07 2.30430365663895e-07 4.90459234481499e-08 7.78860941531147e-09 4.61087871266049e-09
"295" 16389 3.04912401867889e-09 8.13422727645932e-09 3.40504344367406e-08 2.65214034083223e-07 2.30966034618273e-07 4.87043233527036e-08 7.67455012815244e-09 4.57214907207427e-09
"296" 16390 3.01104671372643e-09 8.10029379943069e-09 3.39089543445945e-08 2.66997449053907e-07 2.31501703572651e-07 4.83627232572572e-08 7.56049084099341e-09 4.53341943148806e-09
"297" 16391 2.97296940877398e-09 8.06636032240205e-09 3.37674742524484e-08 2.6878086402459e-07 2.32037372527029e-07 4.80211231618108e-08 7.44643155383438e-09 4.49468979090184e-09
"298" 16392 2.93489210382153e-09 8.03242684537342e-09 3.36259941603023e-08 2.70564278995273e-07 2.32573041481407e-07 4.76795230663644e-08 7.33237226667536e-09 4.45596015031563e-09
"299" 16393 2.89681479886908e-09 7.99849336834478e-09 3.34845140681562e-08 2.72347693965956e-07 2.33108710435785e-07 4.7337922970918e-08 7.21831297951633e-09 4.41723050972941e-09
"300" 16394 2.85873749391663e-09 7.96455989131614e-09 3.334303397601e-08 2.74131108936639e-07 2.33644379390163e-07 4.69963228754717e-08 7.1042536923573e-09 4.3785008691432e-09
"301" 16395 2.81502774180841e-09 7.91594084930575e-09 3.31638108447464e-08 2.74168030811285e-07 2.3375518469863e-07 4.67430295556752e-08 6.99019440519827e-09 4.33613205555203e-09
"302" 16396 2.77131798970019e-09 7.86732180729535e-09 3.29845877134828e-08 2.74204952685931e-07 2.33865990007097e-07 4.64897362358787e-08 6.87613511803925e-09 4.29376324196086e-09
"303" 16397 2.72760823759197e-09 7.81870276528495e-09 3.28053645822192e-08 2.74241874560577e-07 2.33976795315564e-07 4.62364429160822e-08 6.76207583088022e-09 4.25139442836968e-09
"304" 16398 2.68389848548375e-09 7.77008372327455e-09 3.26261414509556e-08 2.74278796435224e-07 2.34087600624031e-07 4.59831495962857e-08 6.64801654372119e-09 4.20902561477851e-09
"305" 16399 2.64018873337553e-09 7.72146468126415e-09 3.2446918319692e-08 2.7431571830987e-07 2.34198405932498e-07 4.57298562764892e-08 6.53395725656216e-09 4.16665680118734e-09
"306" 16400 2.59647898126731e-09 7.67284563925376e-09 3.22676951884283e-08 2.74352640184516e-07 2.34309211240965e-07 4.54765629566927e-08 6.41989796940313e-09 4.12428798759617e-09
"307" 16401 2.5527692291591e-09 7.62422659724336e-09 3.20884720571647e-08 2.74389562059162e-07 2.34420016549432e-07 4.52232696368962e-08 6.30583868224411e-09 4.081919174005e-09
"308" 16402 2.50905947705088e-09 7.57560755523296e-09 3.19092489259011e-08 2.74426483933809e-07 2.34530821857899e-07 4.49699763170997e-08 6.19177939508508e-09 4.03955036041383e-09
"309" 16403 2.46534972494266e-09 7.52698851322256e-09 3.17300257946375e-08 2.74463405808455e-07 2.34641627166366e-07 4.47166829973032e-08 6.07772010792605e-09 3.99718154682266e-09
"310" 16404 2.42163997283444e-09 7.47836947121217e-09 3.15508026633739e-08 2.74500327683101e-07 2.34752432474833e-07 4.44633896775067e-08 5.96366082076702e-09 3.95481273323149e-09
"311" 16405 2.37793022072622e-09 7.42975042920177e-09 3.13715795321103e-08 2.74537249557747e-07 2.348632377833e-07 4.42100963577102e-08 5.84960153360799e-09 3.91244391964032e-09
"312" 16406 2.37604701178438e-09 7.41506486422001e-09 3.13597923792301e-08 2.74469714291727e-07 2.34889608847717e-07 4.42438743019142e-08 5.84960153360799e-09 3.91172961508921e-09
"313" 16407 2.37157541339927e-09 7.41179531698232e-09 3.13429884066392e-08 2.74247846573318e-07 2.35038763401911e-07 4.42969251899446e-08 5.85371142617231e-09 3.91194516652311e-09
"314" 16408 2.3712056434788e-09 7.41059460561171e-09 3.12985579309226e-08 2.72905624516166e-07 2.35076032024363e-07 4.43617036192666e-08 5.85371142617231e-09 3.9110955614732e-09
"315" 16409 2.37083587355833e-09 7.4093938942411e-09 3.12541274552061e-08 2.71563402459013e-07 2.35113300646816e-07 4.44264820485885e-08 5.85371142617231e-09 3.9102459564233e-09
"316" 16410 2.37046610363787e-09 7.40819318287049e-09 3.12096969794895e-08 2.7022118040186e-07 2.35150569269268e-07 4.44912604779105e-08 5.85371142617231e-09 3.90939635137339e-09
"317" 16411 2.3769327144918e-09 7.41255257918741e-09 3.11679224671492e-08 2.68787454641115e-07 2.35855378381175e-07 4.45671029537367e-08 5.85356159163899e-09 3.91067705929111e-09
"318" 16412 2.38339932534574e-09 7.41691197550433e-09 3.11261479548088e-08 2.6735372888037e-07 2.36560187493082e-07 4.46429454295628e-08 5.85341175710566e-09 3.91195776720882e-09
"319" 16413 2.38315853862202e-09 7.41718900403877e-09 3.10904499408414e-08 2.6608050336176e-07 2.37204026075754e-07 4.46340365073361e-08 5.84736678588585e-09 3.91303552437835e-09
"320" 16414 2.38291775189829e-09 7.41746603257322e-09 3.1054751926874e-08 2.64807277843149e-07 2.37847864658426e-07 4.46251275851094e-08 5.84132181466604e-09 3.91411328154787e-09
"321" 16415 2.38267696517456e-09 7.41774306110767e-09 3.10190539129065e-08 2.63534052324539e-07 2.38491703241098e-07 4.46162186628827e-08 5.83527684344622e-09 3.91519103871739e-09
"322" 16416 2.38243617845083e-09 7.41802008964212e-09 3.09833558989391e-08 2.62260826805929e-07 2.3913554182377e-07 4.46073097406559e-08 5.82923187222641e-09 3.91626879588691e-09
"323" 16417 2.3821953917271e-09 7.41829711817657e-09 3.09476578849717e-08 2.60987601287319e-07 2.39779380406443e-07 4.45984008184292e-08 5.82318690100659e-09 3.91734655305644e-09
"324" 16418 2.38195460500338e-09 7.41857414671101e-09 3.09119598710043e-08 2.59714375768708e-07 2.40423218989115e-07 4.45894918962025e-08 5.81714192978678e-09 3.91842431022596e-09
"325" 16419 2.38171381827965e-09 7.41885117524546e-09 3.08762618570368e-08 2.58441150250098e-07 2.41067057571787e-07 4.45805829739758e-08 5.81109695856697e-09 3.91950206739548e-09
"326" 16420 2.38147303155592e-09 7.41912820377991e-09 3.08405638430694e-08 2.57167924731488e-07 2.41710896154459e-07 4.45716740517491e-08 5.80505198734715e-09 3.92057982456501e-09
"327" 16421 2.38123224483219e-09 7.41940523231436e-09 3.0804865829102e-08 2.55894699212878e-07 2.42354734737131e-07 4.45627651295223e-08 5.79900701612734e-09 3.92165758173453e-09
"328" 16422 2.38099145810847e-09 7.4196822608488e-09 3.07691678151346e-08 2.54621473694268e-07 2.42998573319803e-07 4.45538562072956e-08 5.79296204490753e-09 3.92273533890405e-09
"329" 16423 2.38075067138474e-09 7.41995928938325e-09 3.07334698011671e-08 2.53348248175657e-07 2.43642411902476e-07 4.45449472850689e-08 5.78691707368771e-09 3.92381309607358e-09
"330" 16424 2.38050988466101e-09 7.4202363179177e-09 3.06977717871997e-08 2.52075022657047e-07 2.44286250485148e-07 4.45360383628422e-08 5.7808721024679e-09 3.9248908532431e-09
"331" 16425 2.38026909793728e-09 7.42051334645215e-09 3.06620737732323e-08 2.50801797138437e-07 2.4493008906782e-07 4.45271294406155e-08 5.77482713124809e-09 3.92596861041262e-09
"332" 16426 2.38002831121356e-09 7.4207903749866e-09 3.06263757592648e-08 2.49528571619827e-07 2.45573927650492e-07 4.45182205183887e-08 5.76878216002827e-09 3.92704636758215e-09
"333" 16427 2.37978752448983e-09 7.42106740352104e-09 3.05906777452974e-08 2.48255346101216e-07 2.46217766233164e-07 4.4509311596162e-08 5.76273718880846e-09 3.92812412475167e-09
"334" 16428 2.36685430278195e-09 7.3739261014157e-09 3.02783789927059e-08 2.48137331436766e-07 2.4624566498233e-07 4.45051065116073e-08 5.76203400949265e-09 3.92386349881642e-09
"335" 16429 2.36510007703685e-09 7.37521915563113e-09 3.0275324301575e-08 2.48281983984729e-07 2.46427371296639e-07 4.44301151162815e-08 5.76206397639931e-09 3.91994112412816e-09
"336" 16430 2.35959661307782e-09 7.36890153135051e-09 3.02857566687511e-08 2.48073087383361e-07 2.46680992336019e-07 4.44397378512425e-08 5.76130086327017e-09 3.90218896265691e-09
"337" 16431 2.35747261741225e-09 7.37209725518994e-09 3.02857566687511e-08 2.48746670961564e-07 2.46143481442913e-07 4.44424466764456e-08 5.76027339012909e-09 3.88443680118565e-09
"338" 16432 2.35534862174669e-09 7.37529297902938e-09 3.02857566687511e-08 2.49420254539767e-07 2.45605970549806e-07 4.44451555016487e-08 5.75924591698801e-09 3.86668463971439e-09
"339" 16433 2.3504728941016e-09 7.37039779070213e-09 3.02896552327224e-08 2.4911364085025e-07 2.46072838946159e-07 4.45605458994683e-08 5.75918598317468e-09 3.84785472107361e-09
"340" 16434 2.34559716645652e-09 7.36550260237487e-09 3.02935537966936e-08 2.48807027160732e-07 2.46539707342511e-07 4.46759362972879e-08 5.75912604936135e-09 3.82902480243283e-09
"341" 16435 2.34072143881144e-09 7.36060741404762e-09 3.02974523606649e-08 2.48500413471215e-07 2.47006575738864e-07 4.47913266951075e-08 5.75906611554802e-09 3.81019488379205e-09
"342" 16436 2.33584571116636e-09 7.35571222572037e-09 3.03013509246361e-08 2.48193799781698e-07 2.47473444135216e-07 4.49067170929271e-08 5.75900618173469e-09 3.79136496515126e-09
"343" 16437 2.33096998352128e-09 7.35081703739311e-09 3.03052494886074e-08 2.47887186092181e-07 2.47940312531569e-07 4.50221074907467e-08 5.75894624792136e-09 3.77253504651048e-09
"344" 16438 2.32609425587620e-09 7.34592184906586e-09 3.03091480525786e-08 2.47580572402663e-07 2.48407180927921e-07 4.51374978885663e-08 5.75888631410803e-09 3.7537051278697e-09
"345" 16439 2.32121852823111e-09 7.3410266607386e-09 3.03130466165499e-08 2.47273958713146e-07 2.48874049324274e-07 4.52528882863859e-08 5.75882638029471e-09 3.73487520922892e-09
"346" 16440 2.31634280058603e-09 7.33613147241135e-09 3.03169451805211e-08 2.46967345023629e-07 2.49340917720626e-07 4.53682786842055e-08 5.75876644648138e-09 3.71604529058814e-09
"347" 16441 2.31146707294095e-09 7.3312362840841e-09 3.03208437444924e-08 2.46660731334112e-07 2.49807786116978e-07 4.54836690820251e-08 5.75870651266805e-09 3.69721537194736e-09
"348" 16442 2.30659134529587e-09 7.32634109575684e-09 3.03247423084636e-08 2.46354117644594e-07 2.50274654513331e-07 4.55990594798446e-08 5.75864657885472e-09 3.67838545330658e-09
"349" 16443 2.30171561765079e-09 7.32985088702386e-09 3.03182085052587e-08 2.46390136738619e-07 2.51119240199647e-07 4.57141067082492e-08 5.75864657885472e-09 3.67916740810709e-09
"350" 16444 2.3009588981401e-09 7.32384733017081e-09 3.03122027437096e-08 2.4615177480741e-07 2.51139967852785e-07 4.56067466782518e-08 5.75864657885472e-09 3.67916740810709e-09
"351" 16445 2.30020217862941e-09 7.31784377331776e-09 3.03061969821605e-08 2.45913412876202e-07 2.51160695505922e-07 4.54993866482543e-08 5.75864657885472e-09 3.67916740810709e-09
"352" 16446 2.29944545911873e-09 7.31184021646471e-09 3.03001912206115e-08 2.45675050944993e-07 2.5118142315906e-07 4.53920266182569e-08 5.75864657885472e-09 3.67916740810709e-09
"353" 16447 2.29868873960804e-09 7.30583665961167e-09 3.02941854590624e-08 2.45436689013784e-07 2.51202150812197e-07 4.52846665882595e-08 5.75864657885472e-09 3.67916740810709e-09
"354" 16448 2.29793202009735e-09 7.29983310275862e-09 3.02881796975133e-08 2.45198327082576e-07 2.51222878465335e-07 4.5177306558262e-08 5.75864657885472e-09 3.67916740810709e-09
"355" 16449 2.29717530058667e-09 7.29382954590557e-09 3.02821739359643e-08 2.44959965151367e-07 2.51243606118473e-07 4.50699465282646e-08 5.75864657885472e-09 3.67916740810709e-09
"356" 16450 2.29641858107598e-09 7.28782598905252e-09 3.02761681744152e-08 2.44721603220159e-07 2.5126433377161e-07 4.49625864982672e-08 5.75864657885472e-09 3.67916740810709e-09
"357" 16451 2.29566186156529e-09 7.28182243219948e-09 3.02701624128661e-08 2.4448324128895e-07 2.51285061424748e-07 4.48552264682697e-08 5.75864657885472e-09 3.67916740810709e-09
"358" 16452 2.29490514205461e-09 7.27581887534643e-09 3.02641566513171e-08 2.44244879357742e-07 2.51305789077885e-07 4.47478664382723e-08 5.75864657885472e-09 3.67916740810709e-09
"359" 16453 2.29765687403412e-09 7.2736206577414e-09 3.02946098800054e-08 2.45024005236472e-07 2.51694640116666e-07 4.45999198200682e-08 5.77375900690425e-09 3.67916740810709e-09
"360" 16454 2.30040860601364e-09 7.27142244013638e-09 3.03250631086936e-08 2.45803131115202e-07 2.52083491155447e-07 4.44519732018642e-08 5.78887143495378e-09 3.67916740810709e-09
"361" 16455 2.30316033799315e-09 7.26922422253136e-09 3.03555163373819e-08 2.46582256993933e-07 2.52472342194227e-07 4.43040265836601e-08 5.80398386300332e-09 3.67916740810709e-09
"362" 16456 2.30591206997267e-09 7.26702600492633e-09 3.03859695660702e-08 2.47361382872663e-07 2.52861193233008e-07 4.41560799654561e-08 5.81909629105285e-09 3.67916740810709e-09
"363" 16457 2.30866380195218e-09 7.26482778732131e-09 3.04164227947585e-08 2.48140508751393e-07 2.53250044271789e-07 4.4008133347252e-08 5.83420871910238e-09 3.67916740810709e-09
"364" 16458 2.31141553393169e-09 7.26262956971629e-09 3.04468760234468e-08 2.48919634630124e-07 2.53638895310569e-07 4.3860186729048e-08 5.84932114715192e-09 3.67916740810709e-09
"365" 16459 2.31416726591121e-09 7.26043135211126e-09 3.04773292521351e-08 2.49698760508854e-07 2.5402774634935e-07 4.37122401108439e-08 5.86443357520145e-09 3.67916740810709e-09
"366" 16460 2.31691899789072e-09 7.25823313450624e-09 3.05077824808234e-08 2.50477886387585e-07 2.54416597388131e-07 4.35642934926399e-08 5.87954600325098e-09 3.67916740810709e-09
"367" 16461 2.31967072987024e-09 7.25603491690122e-09 3.05382357095116e-08 2.51257012266315e-07 2.54805448426911e-07 4.34163468744358e-08 5.89465843130052e-09 3.67916740810709e-09
"368" 16462 2.32242246184975e-09 7.25383669929619e-09 3.05686889381999e-08 2.52036138145045e-07 2.55194299465692e-07 4.32684002562317e-08 5.90977085935005e-09 3.67916740810709e-09
"369" 16463 2.32517419382927e-09 7.25163848169117e-09 3.05991421668882e-08 2.52815264023776e-07 2.55583150504473e-07 4.31204536380277e-08 5.92488328739958e-09 3.67916740810709e-09
"370" 16464 2.32792592580878e-09 7.24944026408615e-09 3.06295953955765e-08 2.53594389902506e-07 2.55972001543253e-07 4.29725070198236e-08 5.93999571544912e-09 3.67916740810709e-09
"371" 16465 2.31231841630887e-09 7.2287696616979e-09 3.05463622020802e-08 2.54085064335129e-07 2.54905322699881e-07 4.27578692797863e-08 5.93574133049953e-09 3.66562082300739e-09
"372" 16466 2.31231841630887e-09 7.22847411371689e-09 3.04025298179957e-08 2.52405787341446e-07 2.54411333082812e-07 4.27942004654913e-08 5.94462898588926e-09 3.66775113597501e-09
"373" 16467 2.3125592030326e-09 7.22847411371689e-09 3.0287462916919e-08 2.51158623907585e-07 2.54906158025284e-07 4.28778217194054e-08 5.94691832527669e-09 3.66775113597501e-09
"374" 16468 2.31690181822097e-09 7.234643836813e-09 3.01438134547673e-08 2.49365641811158e-07 2.5533602441477e-07 4.28778217194054e-08 5.94911776394412e-09 3.67393912412969e-09
"375" 16469 2.32124443340934e-09 7.24081355990912e-09 3.00001639926156e-08 2.47572659714731e-07 2.55765890804255e-07 4.28778217194054e-08 5.95131720261155e-09 3.68012711228437e-09
"376" 16470 2.32558704859771e-09 7.24698328300524e-09 2.98565145304639e-08 2.45779677618304e-07 2.56195757193741e-07 4.28778217194054e-08 5.95351664127899e-09 3.68631510043904e-09
"377" 16471 2.32992966378608e-09 7.25315300610135e-09 2.97128650683123e-08 2.43986695521878e-07 2.56625623583226e-07 4.28778217194054e-08 5.95571607994642e-09 3.69250308859372e-09
"378" 16472 2.33427227897446e-09 7.25932272919747e-09 2.95692156061606e-08 2.42193713425451e-07 2.57055489972712e-07 4.28778217194054e-08 5.95791551861386e-09 3.6986910767484e-09
"379" 16473 2.33861489416283e-09 7.26549245229358e-09 2.94255661440089e-08 2.40400731329024e-07 2.57485356362197e-07 4.28778217194054e-08 5.96011495728129e-09 3.70487906490307e-09
"380" 16474 2.3429575093512e-09 7.2716621753897e-09 2.92819166818572e-08 2.38607749232597e-07 2.57915222751683e-07 4.28778217194054e-08 5.96231439594873e-09 3.71106705305775e-09
"381" 16475 2.34730012453957e-09 7.27783189848582e-09 2.91382672197055e-08 2.3681476713617e-07 2.58345089141168e-07 4.28778217194054e-08 5.96451383461616e-09 3.71725504121243e-09
"382" 16476 2.35164273972794e-09 7.28400162158193e-09 2.89946177575538e-08 2.35021785039744e-07 2.58774955530654e-07 4.28778217194054e-08 5.96671327328359e-09 3.72344302936711e-09
"383" 16477 2.35598535491631e-09 7.29017134467805e-09 2.88509682954021e-08 2.33228802943317e-07 2.59204821920139e-07 4.28778217194054e-08 5.96891271195103e-09 3.72963101752178e-09
"384" 16478 2.36032797010468e-09 7.29634106777416e-09 2.87073188332505e-08 2.3143582084689e-07 2.59634688309625e-07 4.28778217194054e-08 5.97111215061846e-09 3.73581900567646e-09
"385" 16479 2.36467058529306e-09 7.30251079087028e-09 2.85636693710988e-08 2.29642838750463e-07 2.6006455469911e-07 4.28778217194054e-08 5.9733115892859e-09 3.74200699383114e-09
"386" 16480 2.36901320048143e-09 7.30868051396639e-09 2.84200199089471e-08 2.27849856654036e-07 2.60494421088596e-07 4.28778217194054e-08 5.97551102795333e-09 3.74819498198581e-09
"387" 16481 2.3733558156698e-09 7.31485023706251e-09 2.82763704467954e-08 2.2605687455761e-07 2.60924287478081e-07 4.28778217194054e-08 5.97771046662077e-09 3.75438297014049e-09
"388" 16482 2.37769843085817e-09 7.32101996015863e-09 2.81327209846437e-08 2.24263892461183e-07 2.61354153867567e-07 4.28778217194054e-08 5.9799099052882e-09 3.76057095829517e-09
"389" 16483 2.38204104604654e-09 7.32718968325474e-09 2.7989071522492e-08 2.22470910364756e-07 2.61784020257052e-07 4.28778217194054e-08 5.98210934395563e-09 3.76675894644985e-09
"390" 16484 2.38638366123491e-09 7.33335940635086e-09 2.78454220603403e-08 2.20677928268329e-07 2.62213886646538e-07 4.28778217194054e-08 5.98430878262307e-09 3.77294693460452e-09
"391" 16485 2.39072627642328e-09 7.33952912944697e-09 2.77017725981887e-08 2.18884946171902e-07 2.62643753036023e-07 4.28778217194054e-08 5.9865082212905e-09 3.7791349227592e-09
"392" 16486 2.38956542765263e-09 7.33729387294882e-09 2.75086307969741e-08 2.18650799076789e-07 2.63711886554789e-07 4.29102909899707e-08 5.98641832057051e-09 3.78460860636276e-09
"393" 16487 2.39366725611727e-09 7.34346359604494e-09 2.74669806294892e-08 2.1848786480785e-07 2.64857012552742e-07 4.28822235476411e-08 5.98641832057051e-09 3.79101214595135e-09
"394" 16488 2.39862042794984e-09 7.35109253959955e-09 2.74142835612516e-08 2.18440447901783e-07 2.64291434624327e-07 4.28227163429913e-08 5.97409398502561e-09 3.77931267213597e-09
"395" 16489 2.4035735997824e-09 7.35872148315416e-09 2.7361586493014e-08 2.18393030995716e-07 2.63725856695912e-07 4.27632091383415e-08 5.96176964948071e-09 3.76761319832059e-09
"396" 16490 2.40206016076103e-09 7.35419566620617e-09 2.72727255415808e-08 2.17866217618401e-07 2.63111090761281e-07 4.2782399660455e-08 5.95560481063424e-09 3.75563052282192e-09
"397" 16491 2.40054672173966e-09 7.34966984925818e-09 2.71838645901476e-08 2.17339404241086e-07 2.6249632482665e-07 4.28015901825686e-08 5.94943997178777e-09 3.74364784732324e-09
"398" 16492 2.39903328271828e-09 7.34514403231019e-09 2.70950036387144e-08 2.1681259086377e-07 2.61881558892018e-07 4.28207807046822e-08 5.94327513294129e-09 3.73166517182456e-09
"399" 16493 2.39751984369691e-09 7.34061821536219e-09 2.70061426872813e-08 2.16285777486455e-07 2.61266792957387e-07 4.28399712267957e-08 5.93711029409482e-09 3.71968249632588e-09
"400" 16494 2.39600640467554e-09 7.3360923984142e-09 2.69172817358481e-08 2.1575896410914e-07 2.60652027022756e-07 4.28591617489093e-08 5.93094545524835e-09 3.7076998208272e-09
"401" 16495 2.39449296565417e-09 7.33156658146622e-09 2.68284207844149e-08 2.15232150731824e-07 2.60037261088125e-07 4.28783522710229e-08 5.92478061640188e-09 3.69571714532852e-09
"402" 16496 2.39297952663279e-09 7.32704076451822e-09 2.67395598329817e-08 2.14705337354509e-07 2.59422495153493e-07 4.28975427931364e-08 5.9186157775554e-09 3.68373446982984e-09
"403" 16497 2.39146608761142e-09 7.32251494757023e-09 2.66506988815486e-08 2.14178523977194e-07 2.58807729218862e-07 4.291673331525e-08 5.91245093870893e-09 3.67175179433116e-09
"404" 16498 2.38995264859005e-09 7.31798913062224e-09 2.65618379301154e-08 2.13651710599878e-07 2.58192963284231e-07 4.29359238373636e-08 5.90628609986246e-09 3.65976911883248e-09
"405" 16499 2.38843920956868e-09 7.31346331367425e-09 2.64729769786822e-08 2.13124897222563e-07 2.57578197349599e-07 4.29551143594771e-08 5.90012126101599e-09 3.6477864433338e-09
"406" 16500 2.3869257705473e-09 7.30893749672626e-09 2.6384116027249e-08 2.12598083845248e-07 2.56963431414968e-07 4.29743048815907e-08 5.89395642216951e-09 3.63580376783513e-09
"407" 16501 2.38605724750963e-09 7.30893749672626e-09 2.63820295538138e-08 2.12241212032464e-07 2.56123730877133e-07 4.30083573613268e-08 5.90011591886794e-09 3.63552056615182e-09
"408" 16502 2.38557567406217e-09 7.30496599123517e-09 2.63861110397179e-08 2.11962472314721e-07 2.55414963165686e-07 4.29605045359792e-08 5.90035031197321e-09 3.63523736446852e-09
"409" 16503 2.38509410061472e-09 7.30099448574408e-09 2.63901925256219e-08 2.11683732596979e-07 2.54706195454239e-07 4.29126517106315e-08 5.90058470507848e-09 3.63495416278522e-09
"410" 16504 2.38461252716726e-09 7.29702298025299e-09 2.6394274011526e-08 2.11404992879236e-07 2.53997427742793e-07 4.28647988852839e-08 5.90081909818375e-09 3.63467096110192e-09
"411" 16505 2.38413095371981e-09 7.2930514747619e-09 2.63983554974301e-08 2.11126253161493e-07 2.53288660031346e-07 4.28169460599363e-08 5.90105349128902e-09 3.63438775941861e-09
"412" 16506 2.38364938027235e-09 7.2890799692708e-09 2.64024369833341e-08 2.1084751344375e-07 2.52579892319899e-07 4.27690932345887e-08 5.9012878843943e-09 3.63410455773531e-09
"413" 16507 2.3831678068249e-09 7.28510846377971e-09 2.64065184692382e-08 2.10568773726007e-07 2.51871124608453e-07 4.2721240409241e-08 5.90152227749957e-09 3.63382135605201e-09
"414" 16508 2.37945292795047e-09 7.27605708427173e-09 2.6396655592003e-08 2.0946372310661e-07 2.50697577789316e-07 4.26498317636613e-08 5.89544733937309e-09 3.62136512880755e-09
"415" 16509 2.37573804907605e-09 7.26700570476376e-09 2.63867927147679e-08 2.08358672487214e-07 2.49524030970179e-07 4.25784231180815e-08 5.88937240124661e-09 3.60890890156308e-09
"416" 16510 2.37202317020162e-09 7.25795432525578e-09 2.63769298375327e-08 2.07253621867817e-07 2.48350484151043e-07 4.25070144725017e-08 5.88329746312013e-09 3.59645267431862e-09
"417" 16511 2.36755157181651e-09 7.26059599202632e-09 2.63902754221923e-08 2.07292191303319e-07 2.47795276654805e-07 4.2435605826922e-08 5.87722252499365e-09 3.58421199850806e-09
"418" 16512 2.3630799734314e-09 7.26323765879686e-09 2.64036210068518e-08 2.07330760738821e-07 2.47240069158567e-07 4.23641971813422e-08 5.87114758686718e-09 3.5719713226975e-09
"419" 16513 2.35860837504629e-09 7.2658793255674e-09 2.64169665915113e-08 2.07369330174323e-07 2.46684861662329e-07 4.22927885357624e-08 5.8650726487407e-09 3.55973064688694e-09
"420" 16514 2.35413677666118e-09 7.26852099233794e-09 2.64303121761708e-08 2.07407899609825e-07 2.46129654166091e-07 4.22213798901827e-08 5.85899771061422e-09 3.54748997107638e-09
"421" 16515 2.34966517827607e-09 7.27116265910849e-09 2.64436577608303e-08 2.07446469045327e-07 2.45574446669853e-07 4.21499712446029e-08 5.85292277248774e-09 3.53524929526583e-09
"422" 16516 2.34519357989096e-09 7.27380432587903e-09 2.64570033454899e-08 2.07485038480829e-07 2.45019239173616e-07 4.20785625990231e-08 5.84684783436126e-09 3.52300861945527e-09
"423" 16517 2.34072198150585e-09 7.27644599264957e-09 2.64703489301494e-08 2.07523607916331e-07 2.44464031677378e-07 4.20071539534434e-08 5.84077289623479e-09 3.51076794364471e-09
"424" 16518 2.33625038312073e-09 7.27908765942011e-09 2.64836945148089e-08 2.07562177351833e-07 2.4390882418114e-07 4.19357453078636e-08 5.83469795810831e-09 3.49852726783415e-09
"425" 16519 2.33177878473562e-09 7.28172932619065e-09 2.64970400994684e-08 2.07600746787335e-07 2.43353616684902e-07 4.18643366622838e-08 5.82862301998183e-09 3.48628659202359e-09
"426" 16520 2.32730718635051e-09 7.28437099296120e-09 2.6510385684128e-08 2.07639316222837e-07 2.42798409188664e-07 4.17929280167041e-08 5.82254808185535e-09 3.47404591621303e-09
"427" 16521 2.3228355879654e-09 7.28701265973174e-09 2.65237312687875e-08 2.07677885658339e-07 2.42243201692427e-07 4.17215193711243e-08 5.81647314372887e-09 3.46180524040247e-09
"428" 16522 2.31836398958029e-09 7.28965432650228e-09 2.6537076853447e-08 2.07716455093841e-07 2.41687994196189e-07 4.16501107255445e-08 5.81039820560239e-09 3.44956456459192e-09
"429" 16523 2.31389239119518e-09 7.29229599327282e-09 2.65504224381065e-08 2.07755024529343e-07 2.41132786699951e-07 4.15787020799648e-08 5.80432326747592e-09 3.43732388878136e-09
"430" 16524 2.31341081774772e-09 7.29109528190221e-09 2.65570184137392e-08 2.06946696654752e-07 2.41512031674664e-07 4.15867507637231e-08 5.80359012125344e-09 3.43753944021526e-09
"431" 16525 2.31292924430027e-09 7.2917048973108e-09 2.65654264799079e-08 2.0660812424291e-07 2.41392173799545e-07 4.15717606963026e-08 5.80285697503096e-09 3.43362966621271e-09
"432" 16526 2.30655725730357e-09 7.26722895567453e-09 2.64628748240922e-08 2.0648277567411e-07 2.41261893800607e-07 4.1202363064197e-08 5.76280689112108e-09 3.3983408947041e-09
"433" 16527 2.30018527030686e-09 7.24275301403826e-09 2.63603231682764e-08 2.0635742710531e-07 2.41131613801669e-07 4.08329654320914e-08 5.72275680721119e-09 3.36305212319549e-09
"434" 16528 2.29381328331016e-09 7.21827707240199e-09 2.62577715124607e-08 2.06232078536509e-07 2.4100133380273e-07 4.04635677999858e-08 5.68270672330131e-09 3.32776335168688e-09
"435" 16529 2.28744129631346e-09 7.19380113076572e-09 2.61552198566449e-08 2.06106729967709e-07 2.40871053803792e-07 4.00941701678802e-08 5.64265663939143e-09 3.29247458017827e-09
"436" 16530 2.28106930931675e-09 7.16932518912945e-09 2.60526682008292e-08 2.05981381398909e-07 2.40740773804854e-07 3.97247725357746e-08 5.60260655548155e-09 3.25718580866966e-09
"437" 16531 2.27469732232005e-09 7.14484924749318e-09 2.59501165450134e-08 2.05856032830108e-07 2.40610493805915e-07 3.9355374903669e-08 5.56255647157166e-09 3.22189703716105e-09
"438" 16532 2.26832533532335e-09 7.12037330585691e-09 2.58475648891977e-08 2.05730684261308e-07 2.40480213806977e-07 3.89859772715634e-08 5.52250638766178e-09 3.18660826565243e-09
"439" 16533 2.26195334832665e-09 7.09589736422064e-09 2.57450132333819e-08 2.05605335692507e-07 2.40349933808038e-07 3.86165796394579e-08 5.4824563037519e-09 3.15131949414382e-09
"440" 16534 2.25558136132994e-09 7.07142142258437e-09 2.56424615775662e-08 2.05479987123707e-07 2.402196538091e-07 3.82471820073522e-08 5.44240621984202e-09 3.11603072263521e-09
"441" 16535 2.24920937433324e-09 7.0469454809481e-09 2.55399099217504e-08 2.05354638554907e-07 2.40089373810162e-07 3.78777843752467e-08 5.40235613593213e-09 3.0807419511266e-09
"442" 16536 2.24283738733654e-09 7.02246953931183e-09 2.54373582659347e-08 2.05229289986106e-07 2.39959093811223e-07 3.75083867431411e-08 5.36230605202225e-09 3.04545317961799e-09
"443" 16537 2.23646540033983e-09 6.99799359767556e-09 2.53348066101189e-08 2.05103941417306e-07 2.39828813812285e-07 3.71389891110355e-08 5.32225596811237e-09 3.01016440810938e-09
"444" 16538 2.23009341334313e-09 6.97351765603929e-09 2.52322549543032e-08 2.04978592848506e-07 2.39698533813347e-07 3.67695914789299e-08 5.28220588420249e-09 2.97487563660076e-09
"445" 16539 2.22372142634643e-09 6.94904171440303e-09 2.51297032984874e-08 2.04853244279705e-07 2.39568253814408e-07 3.64001938468243e-08 5.2421558002926e-09 2.93958686509215e-09
"446" 16540 2.21734943934973e-09 6.92456577276676e-09 2.50271516426717e-08 2.04727895710905e-07 2.3943797381547e-07 3.60307962147187e-08 5.20210571638272e-09 2.90429809358354e-09
"447" 16541 2.21097745235302e-09 6.90008983113049e-09 2.4924599986856e-08 2.04602547142104e-07 2.39307693816532e-07 3.56613985826131e-08 5.16205563247284e-09 2.86900932207493e-09
"448" 16542 2.20460546535632e-09 6.87561388949422e-09 2.48220483310402e-08 2.04477198573304e-07 2.39177413817593e-07 3.52920009505075e-08 5.12200554856296e-09 2.83372055056632e-09
"449" 16543 2.19823347835962e-09 6.85113794785795e-09 2.47194966752245e-08 2.04351850004504e-07 2.39047133818655e-07 3.49226033184019e-08 5.08195546465307e-09 2.79843177905771e-09
"450" 16544 2.19186149136291e-09 6.82666200622168e-09 2.46169450194087e-08 2.04226501435703e-07 2.38916853819717e-07 3.45532056862963e-08 5.04190538074319e-09 2.76314300754909e-09
"451" 16545 2.18068249540014e-09 6.80126263613725e-09 2.45588359990561e-08 2.03130983328323e-07 2.38207214303627e-07 3.45652810268646e-08 5.04026462900629e-09 2.75417805212508e-09
"452" 16546 2.18219593442151e-09 6.79738347349097e-09 2.4554754513152e-08 2.03111089406424e-07 2.38412684374921e-07 3.45542169803604e-08 5.04370130916146e-09 2.74521309670107e-09
"453" 16547 2.18370937344288e-09 6.7935043108447e-09 2.45506730272479e-08 2.03091195484525e-07 2.38618154446215e-07 3.45431529338562e-08 5.04713798931663e-09 2.73624814127705e-09
"454" 16548 2.18457789648056e-09 6.80492032858877e-09 2.45444136069422e-08 2.03207092496051e-07 2.4149667360956e-07 3.45855332627443e-08 5.03851469393883e-09 2.72941349882066e-09
"455" 16549 2.18544641951823e-09 6.81633634633284e-09 2.45381541866365e-08 2.03322989507577e-07 2.44375192772905e-07 3.46279135916324e-08 5.02989139856104e-09 2.72257885636427e-09
"456" 16550 2.1863149425559e-09 6.82775236407691e-09 2.45318947663308e-08 2.03438886519103e-07 2.4725371193625e-07 3.46702939205205e-08 5.02126810318324e-09 2.71574421390788e-09
"457" 16551 2.18718346559358e-09 6.83916838182098e-09 2.45256353460251e-08 2.03554783530629e-07 2.50132231099595e-07 3.47126742494085e-08 5.01264480780545e-09 2.70890957145149e-09
"458" 16552 2.18805198863125e-09 6.85058439956506e-09 2.45193759257194e-08 2.03670680542155e-07 2.5301075026294e-07 3.47550545782966e-08 5.00402151242765e-09 2.7020749289951e-09
"459" 16553 2.18892051166893e-09 6.86200041730913e-09 2.45131165054137e-08 2.03786577553681e-07 2.55889269426285e-07 3.47974349071847e-08 4.99539821704985e-09 2.69524028653871e-09
"460" 16554 2.1897890347066e-09 6.8734164350532e-09 2.4506857085108e-08 2.03902474565207e-07 2.5876778858963e-07 3.48398152360728e-08 4.98677492167206e-09 2.68840564408232e-09
"461" 16555 2.19065755774428e-09 6.88483245279727e-09 2.45005976648023e-08 2.04018371576733e-07 2.61646307752975e-07 3.48821955649608e-08 4.97815162629426e-09 2.68157100162592e-09
"462" 16556 2.19152608078195e-09 6.89624847054134e-09 2.44943382444966e-08 2.04134268588259e-07 2.6452482691632e-07 3.49245758938489e-08 4.96952833091647e-09 2.67473635916953e-09
"463" 16557 2.19239460381963e-09 6.90766448828542e-09 2.44880788241909e-08 2.04250165599786e-07 2.67403346079665e-07 3.4966956222737e-08 4.96090503553867e-09 2.66790171671314e-09
"464" 16558 2.1932631268573e-09 6.91908050602949e-09 2.44818194038851e-08 2.04366062611312e-07 2.7028186524301e-07 3.5009336551625e-08 4.95228174016088e-09 2.66106707425675e-09
"465" 16559 2.19099296832524e-09 6.93086589515282e-09 2.44799158523827e-08 2.04587466936535e-07 2.73322828902073e-07 3.5145747844112e-08 4.95231170706754e-09 2.65955821421942e-09
"466" 16560 2.18748451683504e-09 6.9270605559048e-09 2.45032036154973e-08 2.04738747131437e-07 2.73350138675176e-07 3.5145747844112e-08 4.9542767526297e-09 2.65804935418209e-09
"467" 16561 2.18397606534484e-09 6.92325521665678e-09 2.45264913786119e-08 2.04890027326339e-07 2.7337744844828e-07 3.5145747844112e-08 4.95624179819187e-09 2.65654049414476e-09
"468" 16562 2.18046761385464e-09 6.91944987740875e-09 2.45497791417264e-08 2.05041307521241e-07 2.73404758221384e-07 3.5145747844112e-08 4.95820684375403e-09 2.65503163410742e-09
"469" 16563 2.17695916236444e-09 6.91564453816073e-09 2.4573066904841e-08 2.05192587716143e-07 2.73432067994487e-07 3.5145747844112e-08 4.96017188931619e-09 2.65352277407009e-09
"470" 16564 2.17345071087424e-09 6.9118391989127e-09 2.45963546679556e-08 2.05343867911045e-07 2.73459377767591e-07 3.5145747844112e-08 4.96213693487836e-09 2.65201391403276e-09
"471" 16565 2.1715675019324e-09 6.89205524046749e-09 2.45920781003722e-08 2.05377709240259e-07 2.73383045221758e-07 3.5146091013527e-08 4.96028641479481e-09 2.64558517307275e-09
"472" 16566 2.15464425528686e-09 6.86665587038306e-09 2.45446258174137e-08 2.0444843745729e-07 2.73023020481677e-07 3.51169985910588e-08 4.93769803213522e-09 2.62265513036694e-09
"473" 16567 2.13772100864133e-09 6.84125650029864e-09 2.44971735344552e-08 2.03519165674321e-07 2.72662995741596e-07 3.50879061685905e-08 4.91510964947562e-09 2.59972508766113e-09
"474" 16568 2.12203605495394e-09 6.82455765778948e-09 2.44539978190801e-08 2.02535048728426e-07 2.72297354962385e-07 3.50680933116682e-08 4.89128936747635e-09 2.5747323822371e-09
"475" 16569 2.10635110126654e-09 6.80785881528033e-09 2.4410822103705e-08 2.0155093178253e-07 2.71931714183174e-07 3.5048280454746e-08 4.86746908547707e-09 2.54973967681306e-09
"476" 16570 2.09066614757915e-09 6.79115997277118e-09 2.43676463883299e-08 2.00566814836634e-07 2.71566073403963e-07 3.50284675978237e-08 4.8436488034778e-09 2.52474697138903e-09
"477" 16571 2.07498119389176e-09 6.77446113026203e-09 2.43244706729548e-08 1.99582697890739e-07 2.71200432624753e-07 3.50086547409014e-08 4.81982852147852e-09 2.49975426596499e-09
"478" 16572 2.05929624020437e-09 6.75776228775288e-09 2.42812949575797e-08 1.98598580944843e-07 2.70834791845542e-07 3.49888418839792e-08 4.79600823947924e-09 2.47476156054096e-09
"479" 16573 2.04361128651698e-09 6.74106344524373e-09 2.42381192422046e-08 1.97614463998947e-07 2.70469151066331e-07 3.49690290270569e-08 4.77218795747997e-09 2.44976885511692e-09
"480" 16574 2.02792633282958e-09 6.72436460273458e-09 2.41949435268295e-08 1.96630347053052e-07 2.7010351028712e-07 3.49492161701346e-08 4.74836767548069e-09 2.42477614969289e-09
"481" 16575 2.01224137914219e-09 6.70766576022543e-09 2.41517678114544e-08 1.95646230107156e-07 2.69737869507909e-07 3.49294033132124e-08 4.72454739348142e-09 2.39978344426885e-09
"482" 16576 1.9965564254548e-09 6.69096691771628e-09 2.41085920960793e-08 1.9466211316126e-07 2.69372228728699e-07 3.49095904562901e-08 4.70072711148214e-09 2.37479073884481e-09
"483" 16577 1.98087147176741e-09 6.67426807520712e-09 2.40654163807042e-08 1.93677996215365e-07 2.69006587949488e-07 3.48897775993678e-08 4.67690682948286e-09 2.34979803342078e-09
"484" 16578 1.96518651808001e-09 6.65756923269797e-09 2.40222406653291e-08 1.92693879269469e-07 2.68640947170277e-07 3.48699647424456e-08 4.65308654748359e-09 2.32480532799674e-09
"485" 16579 1.94950156439262e-09 6.64087039018882e-09 2.3979064949954e-08 1.91709762323573e-07 2.68275306391066e-07 3.48501518855233e-08 4.62926626548431e-09 2.29981262257271e-09
"486" 16580 1.93381661070523e-09 6.62417154767967e-09 2.39358892345789e-08 1.90725645377678e-07 2.67909665611855e-07 3.4830339028601e-08 4.60544598348504e-09 2.27481991714867e-09
"487" 16581 1.92535498738246e-09 6.60747270517052e-09 2.39087650799208e-08 1.90656648839135e-07 2.67653063212926e-07 3.47976272245144e-08 4.60617912970751e-09 2.27275725443045e-09
"488" 16582 1.9168933640597e-09 6.59077386266137e-09 2.38816409252628e-08 1.90587652300593e-07 2.67396460813996e-07 3.47649154204277e-08 4.60691227592999e-09 2.27069459171222e-09
"489" 16583 1.91752110037364e-09 6.58227654022229e-09 2.38780167441907e-08 1.90586819866733e-07 2.67113671849788e-07 3.47824587293492e-08 4.60920161531742e-09 2.27162444769724e-09
"490" 16584 1.93238907003262e-09 6.60893218001702e-09 2.39810257048385e-08 1.91953431695826e-07 2.6802959949811e-07 3.48434027174357e-08 4.6252815826947e-09 2.27768973603883e-09
"491" 16585 1.9348656559489e-09 6.60261455573639e-09 2.39814830096706e-08 1.92391097977604e-07 2.67856988335004e-07 3.4896650349147e-08 4.62551597579997e-09 2.27790528747273e-09
"492" 16586 1.93734224186518e-09 6.59629693145577e-09 2.39819403145026e-08 1.92828764259381e-07 2.67684377171899e-07 3.49498979808583e-08 4.62575036890525e-09 2.27812083890664e-09
"493" 16587 1.93981882778147e-09 6.58997930717515e-09 2.39823976193347e-08 1.93266430541159e-07 2.67511766008794e-07 3.50031456125695e-08 4.62598476201052e-09 2.27833639034054e-09
"494" 16588 1.94229541369775e-09 6.58366168289453e-09 2.39828549241667e-08 1.93704096822936e-07 2.67339154845689e-07 3.50563932442808e-08 4.62621915511579e-09 2.27855194177445e-09
"495" 16589 1.94477199961403e-09 6.5773440586139e-09 2.39833122289987e-08 1.94141763104714e-07 2.67166543682584e-07 3.51096408759921e-08 4.62645354822106e-09 2.27876749320835e-09
"496" 16590 1.94724858553031e-09 6.57102643433328e-09 2.39837695338308e-08 1.94579429386492e-07 2.66993932519478e-07 3.51628885077034e-08 4.62668794132633e-09 2.27898304464226e-09
"497" 16591 1.9497251714466e-09 6.56470881005266e-09 2.39842268386628e-08 1.95017095668269e-07 2.66821321356373e-07 3.52161361394147e-08 4.6269223344316e-09 2.27919859607616e-09
"498" 16592 1.95220175736288e-09 6.55839118577204e-09 2.39846841434949e-08 1.95454761950047e-07 2.66648710193268e-07 3.5269383771126e-08 4.62715672753687e-09 2.27941414751007e-09
"499" 16593 1.95467834327916e-09 6.55207356149141e-09 2.39851414483269e-08 1.95892428231825e-07 2.66476099030163e-07 3.53226314028373e-08 4.62739112064214e-09 2.27962969894397e-09
"500" 16594 1.95715492919545e-09 6.54575593721079e-09 2.39855987531589e-08 1.96330094513602e-07 2.66303487867058e-07 3.53758790345486e-08 4.62762551374741e-09 2.27984525037788e-09
"501" 16595 1.95963151511173e-09 6.53943831293017e-09 2.3986056057991e-08 1.9676776079538e-07 2.66130876703952e-07 3.54291266662599e-08 4.62785990685269e-09 2.28006080181178e-09
"502" 16596 1.96210810102801e-09 6.53312068864955e-09 2.3986513362823e-08 1.97205427077157e-07 2.65958265540847e-07 3.54823742979712e-08 4.62809429995796e-09 2.28027635324569e-09
"503" 16597 1.9645846869443e-09 6.52680306436892e-09 2.39869706676551e-08 1.97643093358935e-07 2.65785654377742e-07 3.55356219296825e-08 4.62832869306323e-09 2.28049190467959e-09
"504" 16598 1.96706127286058e-09 6.5204854400883e-09 2.39874279724871e-08 1.98080759640713e-07 2.65613043214637e-07 3.55888695613938e-08 4.6285630861685e-09 2.28070745611349e-09
"505" 16599 1.96953785877686e-09 6.51416781580768e-09 2.39878852773191e-08 1.9851842592249e-07 2.65440432051532e-07 3.56421171931051e-08 4.62879747927377e-09 2.2809230075474e-09
"506" 16600 1.97201444469315e-09 6.50785019152706e-09 2.39883425821512e-08 1.98956092204268e-07 2.65267820888427e-07 3.56953648248164e-08 4.62903187237904e-09 2.2811385589813e-09
"507" 16601 1.97449103060943e-09 6.50153256724643e-09 2.39887998869832e-08 1.99393758486046e-07 2.65095209725321e-07 3.57486124565277e-08 4.62926626548431e-09 2.28135411041521e-09
"508" 16602 1.97696761652571e-09 6.49521494296581e-09 2.39892571918153e-08 1.99831424767823e-07 2.64922598562216e-07 3.5801860088239e-08 4.62950065858958e-09 2.28156966184911e-09
"509" 16603 1.97696761652571e-09 6.49739464112427e-09 2.39919131551915e-08 2.00159579566993e-07 2.61722419116919e-07 3.54986593529559e-08 4.61741071614996e-09 2.28156966184911e-09
"510" 16604 1.97696761652571e-09 6.49957433928273e-09 2.39945691185678e-08 2.00487734366162e-07 2.58522239671623e-07 3.51954586176728e-08 4.60532077371033e-09 2.28156966184911e-09
"511" 16605 1.97436204741269e-09 6.48324486815284e-09 2.39907827397055e-08 2.00343587643303e-07 2.585187798252e-07 3.50832574822374e-08 4.58745556221087e-09 2.27929144769698e-09
"512" 16606 1.97175647829967e-09 6.46782056041255e-09 2.40041283243651e-08 2.00243556005915e-07 2.58653906441316e-07 3.49508316865817e-08 4.56739091204398e-09 2.27503082176174e-09
"513" 16607 1.96915090918664e-09 6.46403374061109e-09 2.39942654471299e-08 2.00196378054978e-07 2.59050427329242e-07 3.50145942937331e-08 4.55621391726682e-09 2.27097314657468e-09
"514" 16608 1.96654534007362e-09 6.46024692080963e-09 2.39844025698948e-08 2.00149200104041e-07 2.59446948217169e-07 3.50783569008845e-08 4.54503692248966e-09 2.26691547138763e-09
"515" 16609 1.9639397709606e-09 6.45646010100817e-09 2.39745396926596e-08 2.00102022153105e-07 2.59843469105095e-07 3.51421195080359e-08 4.5338599277125e-09 2.26285779620057e-09
"516" 16610 1.96133420184758e-09 6.45267328120671e-09 2.39646768154245e-08 2.00054844202168e-07 2.60239989993021e-07 3.52058821151873e-08 4.52268293293534e-09 2.25880012101352e-09
"517" 16611 1.95872863273455e-09 6.44888646140525e-09 2.39548139381893e-08 2.00007666251231e-07 2.60636510880947e-07 3.52696447223387e-08 4.51150593815818e-09 2.25474244582647e-09
"518" 16612 1.95612306362153e-09 6.44509964160379e-09 2.39449510609542e-08 1.99960488300294e-07 2.61033031768873e-07 3.53334073294901e-08 4.50032894338102e-09 2.25068477063941e-09
"519" 16613 1.95351749450851e-09 6.44131282180233e-09 2.3935088183719e-08 1.99913310349357e-07 2.61429552656799e-07 3.53971699366415e-08 4.48915194860386e-09 2.24662709545236e-09
"520" 16614 1.95091192539548e-09 6.43752600200087e-09 2.39252253064839e-08 1.9986613239842e-07 2.61826073544725e-07 3.54609325437929e-08 4.4779749538267e-09 2.24256942026531e-09
"521" 16615 1.94830635628246e-09 6.43373918219941e-09 2.39153624292487e-08 1.99818954447483e-07 2.62222594432651e-07 3.55246951509444e-08 4.46679795904954e-09 2.23851174507825e-09
"522" 16616 1.94570078716944e-09 6.42995236239795e-09 2.39054995520136e-08 1.99771776496546e-07 2.62619115320577e-07 3.55884577580958e-08 4.45562096427238e-09 2.2344540698912e-09
"523" 16617 1.94309521805642e-09 6.42616554259649e-09 2.38956366747784e-08 1.9972459854561e-07 2.63015636208503e-07 3.56522203652472e-08 4.44444396949522e-09 2.23039639470415e-09
"524" 16618 1.94121200911458e-09 6.43870819392492e-09 2.38902004031704e-08 1.99544748729502e-07 2.63311350169206e-07 3.58123704338175e-08 4.44940153376063e-09 2.23167710262186e-09
"525" 16619 1.93932880017274e-09 6.44081406868513e-09 2.38804082627591e-08 1.99275460569034e-07 2.63734504683885e-07 3.60146354537119e-08 4.44952140138729e-09 2.23082749757196e-09
"526" 16620 1.9374455912309e-09 6.44291994344533e-09 2.38706161223478e-08 1.99006172408565e-07 2.64157659198564e-07 3.62169004736063e-08 4.44964126901395e-09 2.22997789252205e-09
"527" 16621 1.93556238228906e-09 6.44502581820554e-09 2.38608239819364e-08 1.98736884248097e-07 2.64580813713243e-07 3.64191654935007e-08 4.4497611366406e-09 2.22912828747214e-09
"528" 16622 1.93367917334722e-09 6.44713169296575e-09 2.38510318415251e-08 1.98467596087628e-07 2.65003968227922e-07 3.66214305133951e-08 4.44988100426726e-09 2.22827868242223e-09
"529" 16623 1.93179596440538e-09 6.44923756772596e-09 2.38412397011138e-08 1.98198307927159e-07 2.65427122742601e-07 3.68236955332895e-08 4.45000087189392e-09 2.22742907737233e-09
"530" 16624 1.92991275546354e-09 6.45134344248616e-09 2.38314475607025e-08 1.97929019766691e-07 2.6585027725728e-07 3.70259605531839e-08 4.45012073952058e-09 2.22657947232242e-09
"531" 16625 1.92991275546354e-09 6.44927460661908e-09 2.38081597975879e-08 1.97945088736027e-07 2.66387516480959e-07 3.69578602235734e-08 4.44205613107332e-09 2.22657947232242e-09
"532" 16626 1.92991275546354e-09 6.447205770752e-09 2.37848720344733e-08 1.97961157705363e-07 2.66924755704638e-07 3.68897598939629e-08 4.43399152262606e-09 2.22657947232242e-09
"533" 16627 1.93115104842168e-09 6.447205770752e-09 2.37758030173972e-08 1.97959440170847e-07 2.67355034677545e-07 3.66185709378618e-08 4.42214131543976e-09 2.22657947232242e-09
"534" 16628 1.93238934137982e-09 6.447205770752e-09 2.37667340003211e-08 1.97957722636331e-07 2.67785313650452e-07 3.63473819817608e-08 4.41029110825345e-09 2.22657947232242e-09
"535" 16629 1.93362763433796e-09 6.447205770752e-09 2.37576649832449e-08 1.97956005101816e-07 2.68215592623359e-07 3.60761930256598e-08 4.39844090106714e-09 2.22657947232242e-09
"536" 16630 1.9348659272961e-09 6.447205770752e-09 2.37485959661688e-08 1.979542875673e-07 2.68645871596265e-07 3.58050040695588e-08 4.38659069388083e-09 2.22657947232242e-09
"537" 16631 1.93610422025424e-09 6.447205770752e-09 2.37395269490926e-08 1.97952570032785e-07 2.69076150569172e-07 3.55338151134577e-08 4.37474048669452e-09 2.22657947232242e-09
"538" 16632 1.93734251321238e-09 6.447205770752e-09 2.37304579320165e-08 1.97950852498269e-07 2.69506429542079e-07 3.52626261573567e-08 4.36289027950821e-09 2.22657947232242e-09
"539" 16633 1.93858080617053e-09 6.447205770752e-09 2.37213889149404e-08 1.97949134963754e-07 2.69936708514986e-07 3.49914372012557e-08 4.35104007232191e-09 2.22657947232242e-09
"540" 16634 1.93981909912867e-09 6.447205770752e-09 2.37123198978642e-08 1.97947417429238e-07 2.70366987487892e-07 3.47202482451547e-08 4.3391898651356e-09 2.22657947232242e-09
"541" 16635 1.94105739208681e-09 6.447205770752e-09 2.37032508807881e-08 1.97945699894722e-07 2.70797266460799e-07 3.44490592890536e-08 4.32733965794929e-09 2.22657947232242e-09
"542" 16636 1.94229568504495e-09 6.447205770752e-09 2.3694181863712e-08 1.97943982360207e-07 2.71227545433706e-07 3.41778703329526e-08 4.31548945076298e-09 2.22657947232242e-09
"543" 16637 1.94353397800309e-09 6.447205770752e-09 2.36851128466358e-08 1.97942264825691e-07 2.71657824406613e-07 3.39066813768516e-08 4.30363924357667e-09 2.22657947232242e-09
"544" 16638 1.94477227096123e-09 6.447205770752e-09 2.36760438295597e-08 1.97940547291176e-07 2.72088103379519e-07 3.36354924207506e-08 4.29178903639036e-09 2.22657947232242e-09
"545" 16639 1.94601056391938e-09 6.447205770752e-09 2.36669748124836e-08 1.9793882975666e-07 2.72518382352426e-07 3.33643034646495e-08 4.27993882920406e-09 2.22657947232242e-09
"546" 16640 1.94724885687752e-09 6.44927460661908e-09 2.36677065002148e-08 1.9778442695751e-07 2.72872253768958e-07 3.33431774059821e-08 4.27996879611072e-09 2.22572986727251e-09
"547" 16641 1.94848714983566e-09 6.45134344248616e-09 2.36684381879461e-08 1.9763002415836e-07 2.73226125185489e-07 3.33220513473146e-08 4.27999876301738e-09 2.22488026222261e-09
"548" 16642 1.88694281454345e-09 6.24896028480351e-09 2.29602466144469e-08 1.9550364979538e-07 2.71374098734903e-07 3.30124766153696e-08 4.17586854485169e-09 2.1618642668986e-09
"549" 16643 1.82539847925125e-09 6.04657712712085e-09 2.22520550409477e-08 1.93377275432399e-07 2.69522072284317e-07 3.27029018834246e-08 4.071738326686e-09 2.09884827157459e-09
"550" 16644 1.77173956997712e-09 5.83819041258514e-09 2.1514121202349e-08 1.90887078163831e-07 2.68440657931119e-07 3.24618393861434e-08 3.99178799339955e-09 2.04753175006595e-09
"551" 16645 1.71808066070299e-09 5.62980369804944e-09 2.07761873637502e-08 1.88396880895263e-07 2.6735924357792e-07 3.22207768888621e-08 3.91183766011311e-09 1.99621522855732e-09
"552" 16646 1.66442175142886e-09 5.42141698351373e-09 2.00382535251514e-08 1.85906683626695e-07 2.66277829224721e-07 3.19797143915809e-08 3.83188732682667e-09 1.94489870704869e-09
"553" 16647 1.61076284215473e-09 5.21303026897803e-09 1.93003196865526e-08 1.83416486358126e-07 2.65196414871523e-07 3.17386518942997e-08 3.75193699354023e-09 1.89358218554006e-09
"554" 16648 1.5571039328806e-09 5.00464355444232e-09 1.85623858479538e-08 1.80926289089558e-07 2.64115000518324e-07 3.14975893970185e-08 3.67198666025379e-09 1.84226566403142e-09
"555" 16649 1.50344502360647e-09 4.79625683990662e-09 1.7824452009355e-08 1.7843609182099e-07 2.63033586165126e-07 3.12565268997372e-08 3.59203632696735e-09 1.79094914252279e-09
"556" 16650 1.44978611433234e-09 4.58787012537091e-09 1.70865181707563e-08 1.75945894552422e-07 2.61952171811927e-07 3.1015464402456e-08 3.51208599368091e-09 1.73963262101416e-09
"557" 16651 1.39612720505821e-09 4.37948341083521e-09 1.63485843321575e-08 1.73455697283854e-07 2.60870757458728e-07 3.07744019051748e-08 3.43213566039447e-09 1.68831609950552e-09
"558" 16652 1.34246829578408e-09 4.1710966962995e-09 1.56106504935587e-08 1.70965500015285e-07 2.5978934310553e-07 3.05333394078935e-08 3.35218532710803e-09 1.63699957799689e-09
"559" 16653 1.28880938650995e-09 3.9627099817638e-09 1.48727166549599e-08 1.68475302746717e-07 2.58707928752331e-07 3.02922769106123e-08 3.27223499382158e-09 1.58568305648826e-09
"560" 16654 1.23515047723582e-09 3.75432326722809e-09 1.41347828163611e-08 1.65985105478149e-07 2.57626514399133e-07 3.00512144133311e-08 3.19228466053514e-09 1.53436653497963e-09
"561" 16655 1.18149156796169e-09 3.54593655269239e-09 1.33968489777623e-08 1.63494908209581e-07 2.56545100045934e-07 2.98101519160499e-08 3.1123343272487e-09 1.48305001347099e-09
"562" 16656 1.12783265868756e-09 3.33754983815668e-09 1.26589151391636e-08 1.61004710941013e-07 2.55463685692736e-07 2.95690894187686e-08 3.03238399396226e-09 1.43173349196236e-09
"563" 16657 1.07417374941343e-09 3.12916312362098e-09 1.19209813005648e-08 1.58514513672444e-07 2.54382271339537e-07 2.93280269214874e-08 2.95243366067582e-09 1.38041697045373e-09
"564" 16658 1.0205148401393e-09 2.92077640908527e-09 1.1183047461966e-08 1.56024316403876e-07 2.53300856986338e-07 2.90869644242062e-08 2.87248332738938e-09 1.32910044894509e-09
"565" 16659 9.66855930865165e-10 2.71238969454957e-09 1.04451136233672e-08 1.53534119135308e-07 2.5221944263314e-07 2.88459019269249e-08 2.79253299410294e-09 1.27778392743646e-09
"566" 16660 9.13197021591035e-10 2.50400298001386e-09 9.70717978476843e-09 1.5104392186674e-07 2.51138028279941e-07 2.86048394296437e-08 2.7125826608165e-09 1.22646740592783e-09
"567" 16661 8.59538112316905e-10 2.29561626547816e-09 8.96924594616964e-09 1.48553724598172e-07 2.50056613926743e-07 2.83637769323625e-08 2.63263232753005e-09 1.1751508844192e-09
"568" 16662 8.67793308255448e-10 2.29471110208856e-09 8.8560790012449e-09 1.47911246465576e-07 2.50984345415797e-07 2.84536577592151e-08 2.66273731600246e-09 1.18685035823457e-09
"569" 16663 8.80855513160066e-10 2.30634859002739e-09 8.73203951310409e-09 1.4820024225961e-07 2.51097979010073e-07 2.84455404415737e-08 2.67139057828692e-09 1.1889130209528e-09
"570" 16664 8.79746203398664e-10 2.30605304204638e-09 8.72997376381143e-09 1.48105380905735e-07 2.51137588324371e-07 2.84503129131287e-08 2.67068739897111e-09 1.1889806712022e-09
"571" 16665 8.80391119382362e-10 2.30575749406537e-09 8.76225980717831e-09 1.47986242185498e-07 2.51052171786488e-07 2.85112202693429e-08 2.66995425274863e-09 1.18969497575331e-09
"572" 16666 8.81036035366061e-10 2.30546194608435e-09 8.79454585054519e-09 1.47867103465262e-07 2.50966755248606e-07 2.85721276255571e-08 2.66922110652615e-09 1.19040928030442e-09
"573" 16667 8.81680951349759e-10 2.30516639810334e-09 8.82683189391207e-09 1.47747964745025e-07 2.50881338710723e-07 2.86330349817712e-08 2.66848796030368e-09 1.19112358485553e-09
"574" 16668 8.82325867333458e-10 2.30487085012233e-09 8.85911793727895e-09 1.47628826024788e-07 2.5079592217284e-07 2.86939423379854e-08 2.6677548140812e-09 1.19183788940664e-09
"575" 16669 8.82970783317156e-10 2.30457530214132e-09 8.89140398064583e-09 1.47509687304551e-07 2.50710505634957e-07 2.87548496941996e-08 2.66702166785872e-09 1.19255219395775e-09
"576" 16670 8.83615699300855e-10 2.30427975416031e-09 8.92369002401271e-09 1.47390548584315e-07 2.50625089097075e-07 2.88157570504138e-08 2.66628852163624e-09 1.19326649850887e-09
"577" 16671 8.84260615284553e-10 2.3039842061793e-09 8.95597606737959e-09 1.47271409864078e-07 2.50539672559192e-07 2.8876664406628e-08 2.66555537541376e-09 1.19398080305998e-09
"578" 16672 8.84905531268252e-10 2.30368865819829e-09 8.98826211074647e-09 1.47152271143841e-07 2.50454256021309e-07 2.89375717628421e-08 2.66482222919128e-09 1.19469510761109e-09
"579" 16673 8.8555044725195e-10 2.30339311021727e-09 9.02054815411335e-09 1.47033132423605e-07 2.50368839483426e-07 2.89984791190563e-08 2.66408908296881e-09 1.1954094121622e-09
"580" 16674 8.86195363235649e-10 2.30309756223626e-09 9.05283419748023e-09 1.46913993703368e-07 2.50283422945544e-07 2.90593864752705e-08 2.66335593674633e-09 1.19612371671331e-09
"581" 16675 8.86840279219347e-10 2.30280201425525e-09 9.08512024084711e-09 1.46794854983131e-07 2.50198006407661e-07 2.91202938314847e-08 2.66262279052385e-09 1.19683802126442e-09
"582" 16676 8.87485195203046e-10 2.30250646627424e-09 9.11740628421399e-09 1.46675716262894e-07 2.50112589869778e-07 2.91812011876988e-08 2.66188964430137e-09 1.19755232581554e-09
"583" 16677 8.87244408479318e-10 2.29713104427634e-09 9.10516182650179e-09 1.46687739004504e-07 2.49260487408057e-07 2.91255055802419e-08 2.66479226228462e-09 1.19755232581554e-09
"584" 16678 8.87373391676058e-10 2.2895203657803e-09 9.05721935482217e-09 1.45997773619079e-07 2.48875803787447e-07 2.91107488883747e-08 2.66467239465796e-09 1.19768762631433e-09
"585" 16679 8.87502374872797e-10 2.28190968728425e-09 9.00927688314256e-09 1.45307808233654e-07 2.48491120166838e-07 2.90959921965075e-08 2.6645525270313e-09 1.19782292681313e-09
"586" 16680 8.87631358069537e-10 2.2742990087882e-09 8.96133441146294e-09 1.4461784284823e-07 2.48106436546229e-07 2.90812355046403e-08 2.66443265940464e-09 1.19795822731192e-09
"587" 16681 8.87760341266277e-10 2.26668833029215e-09 8.91339193978332e-09 1.43927877462805e-07 2.47721752925619e-07 2.90664788127732e-08 2.66431279177798e-09 1.19809352781072e-09
"588" 16682 8.87889324463016e-10 2.26668833029215e-09 8.91348340074972e-09 1.43858596374323e-07 2.47672942024177e-07 2.90190103168193e-08 2.66419292415132e-09 1.19894313286062e-09
"589" 16683 8.88018307659756e-10 2.26668833029215e-09 8.91357486171613e-09 1.43789315285841e-07 2.47624131122736e-07 2.89715418208655e-08 2.66407305652467e-09 1.19979273791053e-09
"590" 16684 8.88147290856496e-10 2.26668833029215e-09 8.91366632268254e-09 1.43720034197359e-07 2.47575320221294e-07 2.89240733249117e-08 2.66395318889801e-09 1.20064234296044e-09
"591" 16685 8.88276274053236e-10 2.26668833029215e-09 8.91375778364895e-09 1.43650753108877e-07 2.47526509319852e-07 2.88766048289578e-08 2.66383332127135e-09 1.20149194801035e-09
"592" 16686 8.89514567011377e-10 2.27206375229005e-09 8.98640138122443e-09 1.44295113848362e-07 2.48646823363537e-07 2.90246795569598e-08 2.66371345364469e-09 1.20767993616502e-09
"593" 16687 8.90752859969519e-10 2.27743917428795e-09 9.05904497879991e-09 1.44939474587848e-07 2.49767137407222e-07 2.91727542849618e-08 2.66359358601803e-09 1.2138679243197e-09
"594" 16688 8.9199115292766e-10 2.28281459628584e-09 9.13168857637538e-09 1.45583835327333e-07 2.50887451450906e-07 2.93208290129638e-08 2.66347371839137e-09 1.22005591247438e-09
"595" 16689 8.93229445885802e-10 2.28819001828374e-09 9.20433217395086e-09 1.46228196066819e-07 2.52007765494591e-07 2.94689037409658e-08 2.66335385076471e-09 1.22624390062905e-09
"596" 16690 8.94467738843943e-10 2.29356544028164e-09 9.27697577152634e-09 1.46872556806305e-07 2.53128079538276e-07 2.96169784689678e-08 2.66323398313805e-09 1.23243188878373e-09
"597" 16691 8.95706031802085e-10 2.29894086227953e-09 9.34961936910182e-09 1.4751691754579e-07 2.5424839358196e-07 2.97650531969698e-08 2.66311411551139e-09 1.23861987693841e-09
"598" 16692 8.96944324760227e-10 2.30431628427743e-09 9.4222629666773e-09 1.48161278285276e-07 2.55368707625645e-07 2.99131279249717e-08 2.66299424788473e-09 1.24480786509309e-09
"599" 16693 8.98182617718368e-10 2.30969170627533e-09 9.49490656425278e-09 1.48805639024761e-07 2.5648902166933e-07 3.00612026529737e-08 2.66287438025807e-09 1.25099585324776e-09
"600" 16694 8.9942091067651e-10 2.31506712827323e-09 9.56755016182826e-09 1.49449999764247e-07 2.57609335713015e-07 3.02092773809757e-08 2.66275451263141e-09 1.25718384140244e-09
"601" 16695 9.00659203634651e-10 2.32044255027112e-09 9.64019375940374e-09 1.50094360503732e-07 2.58729649756699e-07 3.03573521089777e-08 2.66263464500476e-09 1.26337182955712e-09
"602" 16696 9.01897496592793e-10 2.32581797226902e-09 9.71283735697921e-09 1.50738721243218e-07 2.59849963800384e-07 3.05054268369797e-08 2.6625147773781e-09 1.26955981771179e-09
"603" 16697 9.03135789550934e-10 2.33119339426692e-09 9.78548095455469e-09 1.51383081982704e-07 2.60970277844069e-07 3.06535015649817e-08 2.66239490975144e-09 1.27574780586647e-09
"604" 16698 9.03617362998389e-10 2.33745546020785e-09 9.84200225458932e-09 1.51730540761036e-07 2.6210922619898e-07 3.07697933612484e-08 2.65725754404604e-09 1.27608605711346e-09
"605" 16699 9.03617362998389e-10 2.33137807995655e-09 9.82395568140346e-09 1.50822321942581e-07 2.62242020229748e-07 3.07967946634606e-08 2.631177889566e-09 1.27003336945758e-09
"606" 16700 9.03617362998389e-10 2.32530069970525e-09 9.8059091082176e-09 1.49914103124127e-07 2.62374814260517e-07 3.08237959656728e-08 2.60509823508596e-09 1.2639806818017e-09
"607" 16701 9.04262278982088e-10 2.31486392313703e-09 9.74041025207325e-09 1.48829771788503e-07 2.61853020170476e-07 3.06796059968531e-08 2.5750884894816e-09 1.25366736821057e-09
"608" 16702 9.03780705534633e-10 2.3032264351982e-09 9.65552219678558e-09 1.47796018486017e-07 2.60852096674191e-07 3.051248254261e-08 2.55138807510898e-09 1.24335405461944e-09
"609" 16703 9.05147981689514e-10 2.291773632949e-09 9.58022263583383e-09 1.46178320008893e-07 2.59963059109647e-07 3.03468645056866e-08 2.52357776817205e-09 1.23730136696356e-09
"610" 16704 9.06515257844395e-10 2.28032083069981e-09 9.50492307488209e-09 1.4456062153177e-07 2.59074021545104e-07 3.01812464687632e-08 2.49576746123512e-09 1.23124867930768e-09
"611" 16705 9.07882533999276e-10 2.26886802845061e-09 9.42962351393034e-09 1.42942923054647e-07 2.5818498398056e-07 3.00156284318398e-08 2.46795715429818e-09 1.22519599165180e-09
"612" 16706 9.09249810154158e-10 2.25741522620141e-09 9.35432395297859e-09 1.41325224577524e-07 2.57295946416017e-07 2.98500103949164e-08 2.44014684736125e-09 1.21914330399591e-09
"613" 16707 9.10617086309039e-10 2.24596242395222e-09 9.27902439202684e-09 1.39707526100401e-07 2.56406908851473e-07 2.9684392357993e-08 2.41233654042432e-09 1.21309061634003e-09
"614" 16708 9.1198436246392e-10 2.23450962170302e-09 9.2037248310751e-09 1.38089827623278e-07 2.5551787128693e-07 2.95187743210696e-08 2.38452623348739e-09 1.20703792868415e-09
"615" 16709 9.13351638618802e-10 2.22305681945382e-09 9.12842527012335e-09 1.36472129146154e-07 2.54628833722386e-07 2.93531562841462e-08 2.35671592655046e-09 1.20098524102827e-09
"616" 16710 9.14718914773683e-10 2.21160401720463e-09 9.0531257091716e-09 1.34854430669031e-07 2.53739796157843e-07 2.91875382472228e-08 2.32890561961353e-09 1.19493255337239e-09
"617" 16711 9.16086190928564e-10 2.20015121495543e-09 8.97782614821986e-09 1.33236732191908e-07 2.52850758593299e-07 2.90219202102994e-08 2.30109531267659e-09 1.18887986571651e-09
"618" 16712 9.17453467083445e-10 2.18869841270623e-09 8.90252658726811e-09 1.31619033714785e-07 2.51961721028755e-07 2.8856302173376e-08 2.27328500573966e-09 1.18282717806062e-09
"619" 16713 9.18820743238327e-10 2.17724561045704e-09 8.82722702631636e-09 1.30001335237662e-07 2.51072683464212e-07 2.86906841364526e-08 2.24547469880273e-09 1.17677449040474e-09
"620" 16714 9.20188019393208e-10 2.16579280820784e-09 8.75192746536462e-09 1.28383636760538e-07 2.50183645899668e-07 2.85250660995292e-08 2.2176643918658e-09 1.17072180274886e-09
"621" 16715 9.21555295548089e-10 2.15434000595864e-09 8.67662790441287e-09 1.26765938283415e-07 2.49294608335125e-07 2.83594480626058e-08 2.18985408492887e-09 1.16466911509298e-09
"622" 16716 9.2292257170297e-10 2.14288720370944e-09 8.60132834346112e-09 1.25148239806292e-07 2.48405570770581e-07 2.81938300256824e-08 2.16204377799193e-09 1.1586164274371e-09
"623" 16717 9.24289847857852e-10 2.13143440146025e-09 8.52602878250937e-09 1.23530541329169e-07 2.47516533206038e-07 2.8028211988759e-08 2.134233471055e-09 1.15256373978122e-09
"624" 16718 9.25657124012733e-10 2.11998159921105e-09 8.45072922155763e-09 1.21912842852046e-07 2.46627495641494e-07 2.78625939518356e-08 2.10642316411807e-09 1.14651105212534e-09
"625" 16719 9.21426312351349e-10 2.12086824315408e-09 8.45442413945348e-09 1.21920218815212e-07 2.46772762553442e-07 2.77465034273563e-08 2.10759512964443e-09 1.1518494352301e-09
"626" 16720 9.24031881464372e-10 2.10941544090489e-09 8.4393407964322e-09 1.21855099896028e-07 2.46921583588006e-07 2.77298478308075e-08 2.10956017520659e-09 1.15718781833487e-09
"627" 16721 9.25399157619253e-10 2.10633057935683e-09 8.44239548756319e-09 1.19670435066213e-07 2.45246349930506e-07 2.75372284916719e-08 2.09591938175006e-09 1.16330815624015e-09
"628" 16722 9.24160864661112e-10 2.10215586872954e-09 8.430151029851e-09 1.17475960246427e-07 2.43848842695499e-07 2.7439820679976e-08 2.08638848085784e-09 1.16516786821019e-09
"629" 16723 9.2292257170297e-10 2.09798115810225e-09 8.41790657213881e-09 1.15281485426642e-07 2.42451335460492e-07 2.73424128682801e-08 2.07685757996563e-09 1.16702758018022e-09
"630" 16724 9.21813261941568e-10 2.10250697505024e-09 8.44691714950714e-09 1.15381587783895e-07 2.41477234143347e-07 2.71822627997098e-08 2.06101734784166e-09 1.16695992993082e-09
"631" 16725 9.20703952180167e-10 2.10703279199823e-09 8.47592772687548e-09 1.15481690141147e-07 2.40503132826203e-07 2.70221127311395e-08 2.0451771157177e-09 1.16689227968142e-09
"632" 16726 9.19594642418765e-10 2.11155860894622e-09 8.50493830424382e-09 1.155817924984e-07 2.39529031509058e-07 2.68619626625693e-08 2.02933688359374e-09 1.16682462943203e-09
"633" 16727 9.18485332657363e-10 2.11608442589422e-09 8.53394888161216e-09 1.15681894855652e-07 2.38554930191913e-07 2.6701812593999e-08 2.01349665146977e-09 1.16675697918263e-09
"634" 16728 9.17376022895961e-10 2.1206102428422e-09 8.56295945898049e-09 1.15781997212905e-07 2.37580828874768e-07 2.65416625254287e-08 1.99765641934581e-09 1.16668932893323e-09
"635" 16729 9.16266713134559e-10 2.1251360597902e-09 8.59197003634883e-09 1.15882099570157e-07 2.36606727557624e-07 2.63815124568584e-08 1.98181618722184e-09 1.16662167868383e-09
"636" 16730 9.15157403373157e-10 2.12966187673819e-09 8.62098061371717e-09 1.1598220192741e-07 2.35632626240479e-07 2.62213623882881e-08 1.96597595509788e-09 1.16655402843443e-09
"637" 16731 9.14048093611755e-10 2.13418769368618e-09 8.64999119108551e-09 1.16082304284662e-07 2.34658524923334e-07 2.60612123197178e-08 1.95013572297391e-09 1.16648637818504e-09
"638" 16732 9.04477160527587e-10 2.1222731772129e-09 8.58060593071642e-09 1.18380927689427e-07 2.35359657263689e-07 2.58720659364665e-08 1.93429549084995e-09 1.15424570237448e-09
"639" 16733 8.94906227443418e-10 2.11035866073962e-09 8.51122067034733e-09 1.20679551094192e-07 2.36060789604044e-07 2.56829195532152e-08 1.91845525872599e-09 1.14200502656392e-09
"640" 16734 8.85335294359249e-10 2.09844414426635e-09 8.44183540997824e-09 1.22978174498956e-07 2.367619219444e-07 2.54937731699639e-08 1.90261502660202e-09 1.12976435075336e-09
"641" 16735 8.7576436127508e-10 2.08652962779307e-09 8.37245014960915e-09 1.25276797903721e-07 2.37463054284755e-07 2.53046267867126e-08 1.88677479447806e-09 1.1175236749428e-09
"642" 16736 8.66193428190912e-10 2.07461511131979e-09 8.30306488924007e-09 1.27575421308485e-07 2.3816418662511e-07 2.51154804034613e-08 1.87093456235409e-09 1.10528299913224e-09
"643" 16737 8.56622495106743e-10 2.06270059484652e-09 8.23367962887098e-09 1.2987404471325e-07 2.38865318965465e-07 2.492633402021e-08 1.85509433023013e-09 1.09304232332169e-09
"644" 16738 8.47051562022574e-10 2.05078607837324e-09 8.16429436850189e-09 1.32172668118015e-07 2.3956645130582e-07 2.47371876369587e-08 1.83925409810616e-09 1.08080164751113e-09
"645" 16739 8.42708946834203e-10 2.04694395462009e-09 8.13299726697335e-09 1.34417932011225e-07 2.40407301423038e-07 2.47713682264928e-08 1.83036644271643e-09 1.07183669208711e-09
"646" 16740 8.38366331645831e-10 2.04310183086694e-09 8.10170016544481e-09 1.36663195904435e-07 2.41248151540256e-07 2.48055488160268e-08 1.8214787873267e-09 1.0628717366631e-09
"647" 16741 8.3402371645746e-10 2.03925970711379e-09 8.07040306391627e-09 1.38908459797645e-07 2.42089001657474e-07 2.48397294055608e-08 1.81259113193697e-09 1.05390678123908e-09
"648" 16742 8.29681101269089e-10 2.03541758336064e-09 8.03910596238772e-09 1.41153723690855e-07 2.42929851774691e-07 2.48739099950948e-08 1.80370347654724e-09 1.04494182581507e-09
"649" 16743 8.25338486080717e-10 2.03157545960749e-09 8.00780886085918e-09 1.43398987584065e-07 2.43770701891909e-07 2.49080905846288e-08 1.79481582115751e-09 1.03597687039105e-09
"650" 16744 8.20995870892346e-10 2.02773333585434e-09 7.97651175933064e-09 1.45644251477274e-07 2.44611552009127e-07 2.49422711741629e-08 1.78592816576778e-09 1.02701191496704e-09
"651" 16745 8.20995870892346e-10 2.01548623250693e-09 7.92345244257781e-09 1.47186821359143e-07 2.45312908380516e-07 2.49439824931316e-08 1.77800804970579e-09 1.02195673354557e-09
"652" 16746 8.22156719663003e-10 2.0038487445681e-09 7.86693114254319e-09 1.47529011592356e-07 2.45397606187497e-07 2.49835395730931e-08 1.77818785114578e-09 1.02475890218633e-09
"653" 16747 8.18054891198359e-10 2.00320234465439e-09 7.87405875518217e-09 1.48049235845556e-07 2.45387379721969e-07 2.49878041335628e-08 1.76953458886132e-09 1.01586159701172e-09
"654" 16748 8.13953062733716e-10 2.00255594474068e-09 7.88118636782115e-09 1.48569460098755e-07 2.45377153256442e-07 2.49920686940325e-08 1.76088132657686e-09 1.0069642918371e-09
"655" 16749 8.09851234269072e-10 2.00190954482697e-09 7.88831398046013e-09 1.49089684351955e-07 2.45366926790915e-07 2.49963332545022e-08 1.7522280642924e-09 9.98066986662483e-10
"656" 16750 8.05749405804428e-10 2.00126314491325e-09 7.89544159309911e-09 1.49609908605154e-07 2.45356700325388e-07 2.50005978149718e-08 1.74357480200794e-09 9.89169681487867e-10
"657" 16751 8.01647577339784e-10 2.00061674499954e-09 7.90256920573809e-09 1.50130132858354e-07 2.45346473859861e-07 2.50048623754415e-08 1.73492153972348e-09 9.8027237631325e-10
"658" 16752 7.97545748875141e-10 1.99997034508583e-09 7.90969681837707e-09 1.50650357111553e-07 2.45336247394334e-07 2.50091269359112e-08 1.72626827743902e-09 9.71375071138634e-10
"659" 16753 7.93443920410497e-10 1.99932394517212e-09 7.91682443101604e-09 1.51170581364753e-07 2.45326020928806e-07 2.50133914963809e-08 1.71761501515456e-09 9.62477765964017e-10
"660" 16754 7.89342091945853e-10 1.99867754525841e-09 7.92395204365502e-09 1.51690805617952e-07 2.45315794463279e-07 2.50176560568506e-08 1.7089617528701e-09 9.535804607894e-10
"661" 16755 7.85240263481209e-10 1.9980311453447e-09 7.931079656294e-09 1.52211029871152e-07 2.45305567997752e-07 2.50219206173202e-08 1.70030849058564e-09 9.44683155614784e-10
"662" 16756 7.85240263481209e-10 2.00754449346476e-09 7.98565955189147e-09 1.52348222338316e-07 2.44617087983873e-07 2.50283266159928e-08 1.69834344502348e-09 9.43901200814274e-10
"663" 16757 7.81138435016566e-10 2.00689809355104e-09 8.05962864663226e-09 1.52324004710737e-07 2.43272717196061e-07 2.48919153235059e-08 1.692268506897e-09 9.4325454651256e-10
"664" 16758 7.77036606551922e-10 2.00625169363733e-09 8.13359774137305e-09 1.52299787083158e-07 2.41928346408249e-07 2.4755504031019e-08 1.68619356877052e-09 9.42607892210847e-10
"665" 16759 7.72565008166811e-10 2.00017431338603e-09 8.26056398043893e-09 1.53762187052495e-07 2.4110116333733e-07 2.46126867398594e-08 1.6838143286631e-09 9.42743192709642e-10
"666" 16760 7.73725856937468e-10 1.99363521891065e-09 8.40927530593694e-09 1.54185301840248e-07 2.40294031773197e-07 2.44707983210513e-08 1.67853247057243e-09 9.42028888158531e-10
"667" 16761 7.73725856937468e-10 1.98347547087688e-09 8.41252148339682e-09 1.53823951484287e-07 2.39002034115941e-07 2.43404406998539e-08 1.67442257800811e-09 9.42164188657326e-10
"668" 16762 7.73725856937468e-10 1.97331572284311e-09 8.41576766085671e-09 1.53462601128326e-07 2.37710036458685e-07 2.42100830786564e-08 1.6703126854438e-09 9.42299489156122e-10
"669" 16763 7.73725856937468e-10 1.96315597480934e-09 8.41901383831659e-09 1.53101250772365e-07 2.36418038801429e-07 2.4079725457459e-08 1.66620279287948e-09 9.42434789654917e-10
