time,channel1,channel2,channel3,channel4,channel5,channel6,channel7,channel8,class
45579,2.3475918468820813e-8,4.861671385725651e-9,4.286105002164601e-9,3.3824421155791672e-9,7.600944067091204e-8,1.5187473280177724e-8,6.203988313289993e-9,9.471041140926799e-10,0
45580,2.346129657330705e-8,4.857923243853921e-9,4.2681353028259996e-9,3.3514941147802345e-9,7.603985485832494e-8,1.519142461806007e-8,6.201770499370531e-9,9.46269989190872e-10,0
45581,2.347834315751997e-8,4.8612625545205725e-9,4.268149889945149e-9,3.351833565200124e-9,7.592141199330757e-8,1.520903154678172e-8,6.20155789850678e-9,9.457798451930537e-10,0
45582,2.3495389741732896e-8,4.8646018651872235e-9,4.268164477064299e-9,3.3521730156200135e-9,7.580296912829021e-8,1.522663847550337e-8,6.201345297643029e-9,9.452897011952353e-10,0
45583,2.3512436325945818e-8,4.8679411758538746e-9,4.268179064183449e-9,3.3525124660399027e-9,7.568452626327284e-8,1.524424540422502e-8,6.201132696779278e-9,9.44799557197417e-10,0
45584,2.352948291015874e-8,4.871280486520525e-9,4.268193651302599e-9,3.3528519164597922e-9,7.556608339825548e-8,1.526185233294667e-8,6.200920095915527e-9,9.443094131995986e-10,0
45585,2.354652949437166e-8,4.874619797187176e-9,4.268208238421749e-9,3.3531913668796818e-9,7.544764053323811e-8,1.5279459261668318e-8,6.200707495051776e-9,9.438192692017802e-10,0
45586,2.3563576078584586e-8,4.877959107853827e-9,4.268222825540898e-9,3.3535308172995713e-9,7.532919766822074e-8,1.529706619038997e-8,6.2004948941880246e-9,9.433291252039619e-10,0
45587,2.3580622662797507e-8,4.881298418520478e-9,4.268237412660049e-9,3.353870267719461e-9,7.521075480320338e-8,1.531467311911162e-8,6.2002822933242735e-9,9.428389812061437e-10,0
45588,2.359766924701043e-8,4.884637729187129e-9,4.268251999779199e-9,3.3542097181393504e-9,7.509231193818601e-8,1.533228004783327e-8,6.2000696924605225e-9,9.423488372083254e-10,0
45589,2.361471583122335e-8,4.88797703985378e-9,4.268266586898349e-9,3.35454916855924e-9,7.497386907316865e-8,1.5349886976554918e-8,6.1998570915967715e-9,9.41858693210507e-10,0
45590,2.3631762415436275e-8,4.891316350520431e-9,4.2682811740174985e-9,3.3548886189791295e-9,7.48554262081513e-8,1.5367493905276567e-8,6.1996444907330204e-9,9.413685492126886e-10,0
45591,2.3648808999649197e-8,4.883366274615829e-9,4.266044078549642e-9,3.35577297507358e-9,7.469026407939957e-8,1.5381729801945544e-8,6.207953642490843e-9,9.408784052148703e-10,0
45592,2.367238854993167e-8,4.874675562528093e-9,4.2677872832733415e-9,3.357223081867847e-9,7.45562573500512e-8,1.538897897637178e-8,6.2099588555465545e-9,9.408784052148703e-10,0
45593,2.3685558675207754e-8,4.865999837425712e-9,4.2677872832733415e-9,3.3613724095028203e-9,7.452992595253682e-8,1.544188967245287e-8,6.206085331627657e-9,9.402162707650573e-10,0
45594,2.3698728800483837e-8,4.857324112323332e-9,4.2677872832733415e-9,3.3655217371377934e-9,7.450359455502243e-8,1.549480036853396e-8,6.20221180770876e-9,9.39554136315244e-10,0
45595,2.371189892575992e-8,4.848648387220951e-9,4.2677872832733415e-9,3.369671064772767e-9,7.447726315750803e-8,1.5547711064615053e-8,6.198338283789864e-9,9.388920018654311e-10,0
45596,2.3725069051036003e-8,4.83997266211857e-9,4.2677872832733415e-9,3.37382039240774e-9,7.445093175999364e-8,1.5600621760696143e-8,6.194464759870967e-9,9.38229867415618e-10,0
45597,2.371465962602961e-8,4.838007623620452e-9,4.269031734879834e-9,3.3670894565788685e-9,7.425917377421568e-8,1.560868754188576e-8,6.188586022896359e-9,9.38393248748224e-10,0
45598,2.3687450650152937e-8,4.835997624166269e-9,4.267288530156134e-9,3.356754098789585e-9,7.423002314001788e-8,1.5629144776894923e-8,6.188586022896359e-9,9.327521922457298e-10,0
45599,2.3653644317751758e-8,4.827321899063888e-9,4.269278680251913e-9,3.3594533196302915e-9,7.412580324399509e-8,1.563721055808454e-8,6.188532872680421e-9,9.309291702288966e-10,0
45600,2.3619837985350582e-8,4.818646173961507e-9,4.27126883034769e-9,3.362152540470998e-9,7.40215833479723e-8,1.564527633927415e-8,6.188479722464483e-9,9.291061482120634e-10,0
45601,2.3586031652949403e-8,4.809970448859126e-9,4.273258980443469e-9,3.364851761311705e-9,7.391736345194951e-8,1.5653342120463766e-8,6.1884265722485455e-9,9.272831261952303e-10,0
45602,2.3552225320548224e-8,4.801294723756746e-9,4.275249130539246e-9,3.3675509821524115e-9,7.381314355592672e-8,1.566140790165338e-8,6.188373422032608e-9,9.254601041783971e-10,0
45603,2.3518418988147045e-8,4.792618998654365e-9,4.277239280635025e-9,3.3702502029931184e-9,7.370892365990393e-8,1.5669473682842994e-8,6.18832027181667e-9,9.236370821615639e-10,0
45604,2.3484612655745866e-8,4.7839432735519845e-9,4.279229430730802e-9,3.372949423833825e-9,7.360470376388114e-8,1.567753946403261e-8,6.188267121600733e-9,9.218140601447308e-10,0
45605,2.3450806323344687e-8,4.775267548449604e-9,4.2812195808265805e-9,3.375648644674532e-9,7.350048386785835e-8,1.568560524522222e-8,6.1882139713847944e-9,9.199910381278976e-10,0
45606,2.341699999094351e-8,4.766591823347223e-9,4.283209730922358e-9,3.3783478655152383e-9,7.339626397183555e-8,1.5693671026411836e-8,6.188160821168857e-9,9.181680161110644e-10,0
45607,2.3383193658542332e-8,4.757916098244842e-9,4.2851998810181364e-9,3.3810470863559452e-9,7.329204407581276e-8,1.570173680760145e-8,6.188107670952919e-9,9.163449940942313e-10,0
45608,2.3349387326141153e-8,4.749240373142461e-9,4.287190031113914e-9,3.3837463071966517e-9,7.318782417978997e-8,1.5709802588791064e-8,6.188054520736982e-9,9.145219720773981e-10,0
45609,2.3315580993739974e-8,4.740564648040081e-9,4.289180181209692e-9,3.3864455280373587e-9,7.308360428376718e-8,1.571786836998068e-8,6.188001370521043e-9,9.12698950060565e-10,0
45610,2.3281774661338795e-8,4.7318889229377e-9,4.29117033130547e-9,3.389144748878065e-9,7.297938438774439e-8,1.572593415117029e-8,6.187948220305106e-9,9.108759280437317e-10,0
45611,2.3247968328937616e-8,4.723213197835319e-9,4.293160481401248e-9,3.391843969718772e-9,7.28751644917216e-8,1.5733999932359907e-8,6.187895070089168e-9,9.090529060268986e-10,0
45612,2.3214161996536437e-8,4.714537472732938e-9,4.295150631497026e-9,3.3945431905594786e-9,7.277094459569881e-8,1.574206571354952e-8,6.187841919873231e-9,9.072298840100654e-10,0
45613,2.318035566413526e-8,4.7058617476305575e-9,4.297140781592804e-9,3.3972424114001855e-9,7.266672469967602e-8,1.5750131494739134e-8,6.187788769657292e-9,9.054068619932323e-10,0
45614,2.3133492772458814e-8,4.700889203443843e-9,4.309096269286622e-9,3.492432796697265e-9,7.38649900640851e-8,1.670829689259701e-8,6.203260316877593e-9,9.070665026774593e-10,0
45615,2.3091049581950357e-8,4.695976607198546e-9,4.312849073598298e-9,3.494042206188849e-9,7.389850904063554e-8,1.666341329065022e-8,6.204035021661372e-9,9.059056151104392e-10,0
45616,2.304445831138949e-8,4.687300882096165e-9,4.318824386258683e-9,3.494042206188849e-9,7.370891367924347e-8,1.6619105815931262e-8,6.209860608420043e-9,9.047447275434192e-10,0
45617,2.299786704082862e-8,4.6786251569937845e-9,4.3247996989190665e-9,3.494042206188849e-9,7.351931831785138e-8,1.6574798341212303e-8,6.215686195178713e-9,9.035838399763991e-10,0
45618,2.2954342052289784e-8,4.6786251569937845e-9,4.318819523885633e-9,3.4769044524812395e-9,7.318367697544455e-8,1.6438608410363167e-8,6.209754307988167e-9,9.042459744262122e-10,0
45619,2.2952890282052103e-8,4.677899507796006e-9,4.322790099331089e-9,3.478627012112787e-9,7.324828217454493e-8,1.6394300935644208e-8,6.2155798947468374e-9,9.030850868591921e-10,0
45620,2.2931853672901528e-8,4.674136378938922e-9,4.3287605496184224e-9,3.479192762812603e-9,7.332232625939414e-8,1.6391729795947548e-8,6.2207370771536045e-9,9.035752308570104e-10,0
45621,2.291081706375095e-8,4.670373250081838e-9,4.334730999905756e-9,3.4797585135124187e-9,7.339637034424336e-8,1.6389158656250892e-8,6.2258942595603715e-9,9.040653748548288e-10,0
45622,2.288978045460037e-8,4.666610121224753e-9,4.34070145019309e-9,3.4803242642122342e-9,7.347041442909256e-8,1.6386587516554236e-8,6.231051441967138e-9,9.045555188526471e-10,0
45623,2.2868743845449792e-8,4.662846992367668e-9,4.346671900480424e-9,3.48089001491205e-9,7.354445851394177e-8,1.6384016376857576e-8,6.236208624373905e-9,9.050456628504654e-10,0
45624,2.2847707236299213e-8,4.659083863510584e-9,4.352642350767758e-9,3.481455765611866e-9,7.361850259879098e-8,1.638144523716092e-8,6.241365806780671e-9,9.055358068482838e-10,0
45625,2.2826670627148634e-8,4.6553207346535e-9,4.358612801055091e-9,3.482021516311682e-9,7.369254668364019e-8,1.6378874097464263e-8,6.246522989187438e-9,9.060259508461021e-10,0
45626,2.2805634017998055e-08,4.651557605796416e-9,4.364583251342426e-9,3.482587267011498e-9,7.37665907684894e-8,1.6376302957767603e-8,6.251680171594204e-9,9.065160948439204e-10,0
45627,2.2807791772013563e-8,4.683537753239081e-9,4.373323586826173e-9,3.481702910917047e-9,7.382427851816836e-8,1.6489218776134777e-8,6.25483214094526e-9,9.073502197457283e-10,0
45628,2.280994952602907e-8,4.7155179006817466e-9,4.38206392230992e-9,3.480818554822596e-9,7.388196626784731e-8,1.6602134594501954e-8,6.2579841102963145e-9,9.081843446475361e-10,0
45629,2.2812107280044578e-8,4.747498048124413e-9,4.390804257793667e-9,3.4799341987281454e-9,7.393965401752628e-8,1.6715050412869128e-8,6.26113607964737e-9,9.09018469549344e-10,0
45630,2.2814265034060082e-08,4.779478195567078e-9,4.399544593277414e-9,3.4790498426336947e-9,7.399734176720523e-8,1.68279662312363e-8,6.264288048998425e-9,9.098525944511518e-10,0
45631,2.2809163936887197e-8,4.809281395416408e-9,4.4082897911342114e-9,3.469640530989371e-9,7.402950442557974e-8,1.693919653357714e-8,6.268384374367956e-9,9.101965753551414e-10,0
45632,2.2817869871881348e-8,4.844269048547671e-9,4.417034988991008e-9,3.4654912033543975e-9,7.401314809040949e-8,1.6928185277943274e-8,6.268384374367956e-9,9.112026907089439e-10,0
45633,2.28265758068755e-8,4.879256701678933e-9,4.4257801868478056e-9,3.461341875719424e-9,7.399679175523924e-8,1.691717402230941e-8,6.268384374367956e-9,9.122088060627466e-10,0
45634,2.283528174186965e-8,4.914244354810195e-9,4.434525384704602e-9,3.457192548084451e-9,7.398043542006898e-8,1.6906162766675545e-8,6.268384374367956e-9,9.132149214165492e-10,0
45635,2.2831676904048384e-8,4.917191912557373e-9,4.4432414083231e-9,3.4530432204494773e-9,7.393735145196471e-8,1.6782235692674503e-8,6.2652324050169015e-9,9.138770558663623e-10,0
45636,2.2828072066227118e-8,4.920139470304551e-9,4.451957431941597e-9,3.448893892814504e-9,7.389426748386044e-8,1.6658308618673465e-8,6.262080435665846e-9,9.145391903161754e-10,0
45637,2.2824467228405855e-8,4.923087028051729e-9,4.460673455560094e-9,3.4447445651795307e-9,7.385118351575616e-8,1.6534381544672427e-8,6.258928466314791e-9,9.152013247659884e-10,0
45638,2.282086239058459e-8,4.926034585798906e-9,4.469389479178591e-9,3.4405952375445576e-9,7.380809954765189e-8,1.6410454470671385e-8,6.255776496963736e-9,9.158634592158015e-10,0
45639,2.2817257552763326e-8,4.9289821435460845e-9,4.478105502797089e-9,3.436445909909584e-9,7.376501557954762e-8,1.6286527396670347e-8,6.252624527612681e-9,9.165255936656146e-10,0
45640,2.2817257552763326e-8,4.9289821435460845e-9,4.4860758279263005e-9,3.4361064594896945e-9,7.351926048120352e-8,1.628484188064401e-8,6.253292931964585e-9,9.161816127616252e-10,0
45641,2.2820363637467383e-8,4.9319596752639714e-9,4.494046153055513e-9,3.4364920624669384e-9,7.354438933708835e-8,1.6277244522719972e-8,6.25014096261353e-9,9.166717567594435e-10,0
45642,2.282346972217144e-8,4.934937206981858e-9,4.502016478184724e-9,3.4368776654441824e-9,7.356951819297317e-8,1.6269647164795934e-8,6.246988993262474e-9,9.171619007572618e-10,0
45643,2.28265758068755e-8,4.937914738699746e-9,4.509986803313936e-9,3.437263268421426e-9,7.3594647048858e-8,1.6262049806871895e-8,6.24383702391142e-9,9.176520447550801e-10,0
45644,2.2829681891579556e-8,4.940892270417633e-9,4.517957128443148e-9,3.43764887139867e-9,7.361977590474281e-8,1.6254452448947857e-8,6.240685054560364e-9,9.181421887528985e-10,0
45645,2.2832787976283615e-8,4.94386980213552e-9,4.525927453572359e-9,3.4380344743759135e-9,7.364490476062762e-8,1.6246855091023818e-8,6.237533085209309e-9,9.186323327507169e-10,0
45646,2.2835894060987672e-8,4.946847333853408e-9,4.5338977787015716e-9,3.4384200773531574e-9,7.367003361651245e-8,1.623925773309978e-8,6.234381115858254e-9,9.191224767485351e-10,0
45647,2.2839000145691732e-8,4.949824865571295e-9,4.541868103830783e-9,3.4388056803304014e-9,7.369516247239727e-8,1.623166037517574e-8,6.231229146507198e-9,9.196126207463535e-10,0
45648,2.2842106230395788e-8,4.9528023972891815e-9,4.549838428959994e-9,3.439191283307645e-9,7.37202913282821e-8,1.6224063017251702e-8,6.228077177156144e-9,9.201027647441718e-10,0
45649,2.2871483488765137e-8,4.9528023972891815e-9,4.54909273047071e-9,3.4426364025707397e-9,7.390303025183827e-8,1.6230964008180135e-8,6.224203653237247e-9,9.19930774292177e-10,0
45650,2.2884742592269107e-8,4.952061761106049e-9,4.549102455216809e-9,3.4452894708540922e-9,7.39474567027478e-8,1.6259625058192802e-8,6.221157984318067e-9,9.207648991939849e-10,0
45651,2.2887848676973164e-8,4.955039292823936e-9,4.564050461613869e-9,3.5150434471736154e-9,7.53281160141422e-8,1.7220546673820212e-8,6.2973813119926275e-9,9.224159307588233e-10,0
45652,2.2890954761677224e-8,4.9580168245418234e-9,4.5789984680109284e-9,3.584797423493139e-9,7.67087753255366e-8,1.8181468289447625e-8,6.3736046396671876e-09,9.240669623236617e-10,0
45653,2.2898776756437774e-8,4.9619768755087695e-9,4.590939368585596e-9,3.652715690041152e-9,7.803598912379971e-8,1.9150258072386253e-8,6.44189086709549e-9,9.16559838207391e-10,0
45654,2.2792335111812066e-8,4.9659369264757164e-9,4.606633073471941e-9,3.7179347357484586e-9,7.901694623555012e-8,2.0120311992344633e-8,6.5101770945237925e-9,9.032741036141859e-10,0
45655,2.279907062211032e-8,4.949630034761684e-9,4.616351465697902e-9,3.7745156757659285e-9,8.03779117165002e-8,2.1087145449869745e-8,6.5864004221983526e-9,9.049251351790243e-10,0
45656,2.2805806132408574e-8,4.933323143047651e-9,4.626069857923864e-9,3.831096615783398e-9,8.173887719745027e-8,2.2053978907394857e-8,6.662623749872913e-9,9.065761667438628e-10,0
45657,2.281254164270683e-8,4.917016251333618e-9,4.635788250149824e-9,3.887677555800869e-9,8.309984267840034e-8,2.302081236491997e-8,6.738847077547473e-9,9.082271983087011e-10,0
45658,2.2819277153005083e-8,4.9007093596195864e-9,4.645506642375786e-9,3.944258495818339e-9,8.446080815935041e-8,2.3987645822445082e-8,6.815070405222033e-9,9.098782298735395e-10,0
45659,2.2826012663303338e-8,4.884402467905554e-9,4.655225034601747e-9,4.000839435835809e-9,8.58217736403005e-8,2.4954479279970194e-8,6.891293732896593e-9,9.115292614383779e-10,0
45660,2.2832748173601592e-8,4.868095576191521e-9,4.664943426827708e-9,4.05742037585328e-9,8.718273912125057e-8,2.5921312737495306e-8,6.967517060571153e-9,9.131802930032163e-10,0
45661,2.2839483683899846e-8,4.851788684477488e-9,4.67466181905367e-9,4.11400131587075e-9,8.854370460220064e-8,2.6888146195020418e-8,7.043740388245713e-9,9.148313245680547e-10,0
45662,2.28462191941981e-8,4.835481792763456e-9,4.6843802112796304e-9,4.17058225588822e-9,8.990467008315071e-8,2.785497965254553e-8,7.119963715920273e-9,9.164823561328931e-10,0
45663,2.2852954704496355e-8,4.819174901049424e-9,4.694098603505592e-9,4.2271631959056895e-9,9.126563556410079e-8,2.8821813110070643e-8,7.196187043594833e-9,9.181333876977316e-10,0
45664,2.285969021479461e-8,4.802868009335391e-9,4.703816995731553e-9,4.28374413592316e-9,9.262660104505086e-8,2.9788646567595755e-8,7.272410371269393e-9,9.1978441926257e-10,0
45665,2.2866425725092864e-8,4.786561117621358e-9,4.713535387957514e-9,4.34032507594063e-9,9.398756652600094e-8,3.075548002512087e-8,7.3486336989439534e-9,9.214354508274084e-10,0
45666,2.287316123539112e-8,4.770254225907326e-9,4.723253780183475e-9,4.3969060159581e-9,9.534853200695102e-8,3.172231348264598e-8,7.4248570266185135e-9,9.230864823922468e-10,0
45667,2.2879896745689373e-8,4.753947334193294e-9,4.7329721724094365e-9,4.45348695597557e-9,9.670949748790109e-8,3.268914694017109e-8,7.501080354293073e-9,9.247375139570851e-10,0
45668,2.2886632255987624e-8,4.737640442479261e-9,4.742690564635398e-9,4.510067895993041e-9,9.807046296885116e-8,3.3655980397696204e-8,7.577303681967633e-9,9.263885455219235e-10,0
45669,2.289336776628588e-8,4.721333550765229e-9,4.752408956861359e-9,4.566648836010511e-9,9.943142844980123e-8,3.4622813855221316e-8,7.653527009642193e-9,9.280395770867619e-10,0
45670,2.2900103276584133e-8,4.705026659051196e-9,4.76212734908732e-9,4.623229776027981e-9,1.007923939307513e-7,3.558964731274643e-8,7.729750337316753e-9,9.296906086516004e-10,0
45671,2.2906838786882387e-8,4.688719767337164e-9,4.771845741313281e-9,4.6798107160454514e-9,1.0215335941170138e-7,3.655648077027154e-8,7.805973664991313e-9,9.313416402164387e-10,0
45672,2.317835834043977e-8,4.6807247304764975e-9,4.769623232964575e-9,4.667907638815092e-9,1.0215335941170138e-7,3.65547952542452e-8,7.805761064127563e-9,9.313416402164387e-10,0
45673,2.3202505720726323e-8,4.661470281015287e-9,4.764403343539576e-9,4.659269533125256e-9,1.0230017019281402e-7,3.663598430838769e-8,7.85091459575588e-9,9.313416402164387e-10,0
45674,2.3198698338676358e-8,4.642185857583368e-9,4.758428030879193e-9,4.659269533125256e-9,1.0270057618097039e-7,3.6708157119365134e-8,7.852919808811591e-9,9.321757651182467e-10,0
45675,2.3194890956626393e-8,4.622901434151448e-9,4.752452718218809e-9,4.659269533125256e-9,1.0310098216912674e-7,3.678032993034258e-8,7.854925021867303e-9,9.330098900200546e-10,0
45676,2.318244671646915e-8,4.6198639544921414e-9,4.750462568123031e-9,4.662647654805742e-9,1.0321588658610883e-7,3.681140737183066e-8,7.804518207987228e-9,9.298453808648178e-10,0
45677,2.3170002476311904e-8,4.616826474832836e-9,4.748472418027253e-9,4.6660257764862274e-9,1.033307910030909e-7,3.6842484813318735e-8,7.754111394107152e-9,9.266808717095812e-10,0
45678,2.2805467809611384e-8,4.6116120475801946e-9,4.744739063207776e-9,4.673645530916395e-9,1.031930618832544e-7,3.69166139497097e-8,7.756116607162864e-9,9.253479936905663e-10,0
45679,2.244093314291086e-8,4.6063976203275535e-9,4.741005708388298e-9,4.681265285346563e-9,1.030553327634179e-7,3.6990743086100665e-8,7.758121820218575e-9,9.240151156715515e-10,0
45680,2.207639847621034e-8,4.6011831930749115e-9,4.737272353568821e-9,4.6888850397767305e-9,1.029176036435814e-7,3.706487222249163e-8,7.760127033274287e-9,9.226822376525367e-10,0
45681,2.1711863809509817e-8,4.5959687658222704e-9,4.733538998749343e-9,4.6965047942068984e-9,1.027798745237449e-7,3.713900135888259e-8,7.762132246329998e-9,9.213493596335218e-10,0
45682,2.1347329142809296e-8,4.590754338569629e-9,4.729805643929866e-9,4.7041245486370656e-9,1.0264214540390839e-7,3.721313049527356e-8,7.76413745938571e-9,9.20016481614507e-10,0
45683,2.0982794476108773e-8,4.585539911316988e-9,4.726072289110388e-9,4.7117443030672335e-9,1.0250441628407189e-7,3.728725963166452e-8,7.766142672441421e-9,9.186836035954921e-10,0
45684,2.062098070699592e-8,4.580325484064347e-9,4.722343796663961e-9,4.706304171335311e-9,1.0197289515504166e-7,3.729209659321718e-8,7.768413636576822e-9,9.161812288900686e-10,0
45685,2.0259166937883064e-8,4.575111056811705e-9,4.718615304217533e-9,4.7008640396033884e-9,1.0144137402601144e-7,3.729693355476985e-8,7.770684600712222e-9,9.13678854184645e-10,0
45686,1.989735316877021e-8,4.569896629559064e-9,4.714886811771106e-9,4.695423907871466e-9,1.0090985289698121e-7,3.730177051632251e-8,7.772955564847622e-9,9.111764794792214e-10,0
45687,1.9535539399657354e-8,4.564682202306423e-9,4.711158319324679e-9,4.689983776139543e-9,1.0037833176795098e-7,3.730660747787518e-8,7.775226528983022e-9,9.086741047737979e-10,0
45688,1.91737256305445e-8,4.559467775053782e-9,4.707429826878251e-9,4.684543644407621e-9,9.984681063892076e-8,3.731144443942784e-8,7.777497493118422e-9,9.061717300683743e-10,0
45689,1.8811911861431645e-8,4.554253347801141e-9,4.703701334431824e-9,4.679103512675698e-9,9.931528950989053e-8,3.73162814009805e-8,7.779768457253822e-9,9.036693553629508e-10,0
45690,1.8809803282962e-8,4.554223373830431e-9,4.701701459589946e-9,4.669421748194094e-9,9.928181203945214e-8,3.7323956133015165e-8,7.786135746758754e-9,9.035059740303446e-10,0
45691,1.8807694704492357e-8,4.554193399859722e-9,4.699701584748068e-9,4.659739983712489e-9,9.924833456901374e-8,3.733163086504983e-8,7.792503036263687e-9,9.033425926977386e-10,0
45692,1.8815309468592287e-8,4.559377853141654e-9,4.699701584748068e-9,4.65447999970314e-9,9.920824311961272e-8,3.7354422938821944e-8,7.79466769996721e-9,9.031792113651324e-10,0
45693,1.8850133208568892e-08,4.570637265742198e-9,4.698452270768525e-9,4.676358139277637e-9,9.982584917262738e-8,3.74313898456949e-8,7.795612055985688e-9,9.030158300325263e-10,0
45694,1.8884956948545498e-8,4.581896678342741e-9,4.697202956788983e-9,4.698236278852136e-9,1.0044345522564204e-7,3.7508356752567864e-8,7.796556412004164e-9,9.028524486999202e-10,0
45695,1.89197806885221e-8,4.593156090943285e-9,4.695953642809441e-9,4.720114418426635e-9,1.010610612786567e-7,3.758532365944082e-8,7.79750076802264e-9,9.026890673673141e-10,0
45696,1.8954604428498704e-8,4.604415503543829e-9,4.694704328829898e-9,4.7419925580011324e-9,1.0167866733167136e-7,3.7662290566313784e-8,7.798445124041115e-9,9.02525686034708e-10,0
45697,1.8988070062897434e-8,4.544490194552217e-9,4.6917069477536066e-9,4.771012543913847e-9,1.0223822682306555e-7,3.77209928645248e-8,7.768922590280912e-9,8.981916801930626e-10,0
45698,1.9021535697296164e-8,4.484564885560606e-9,4.688709566677314e-9,4.80003252982656e-9,1.0279778631445972e-7,3.777969516273582e-8,7.739400056520708e-9,8.938576743514172e-10,0
45699,1.9055001331694894e-8,4.424639576568995e-9,4.685712185601023e-9,4.829052515739273e-9,1.033573458058539e-7,3.783839746094684e-8,7.709877522760505e-9,8.895236685097718e-10,0
45700,1.9088466966093624e-8,4.364714267577383e-9,4.682714804524731e-9,4.8580725016519876e-9,1.0391690529724808e-7,3.789709975915786e-8,7.6803549890003e-9,8.851896626681264e-10,0
45701,1.9121932600492354e-8,4.304788958585772e-9,4.679717423448439e-9,4.887092487564701e-9,1.0447646478864226e-7,3.7955802057368875e-8,7.650832455240097e-9,8.80855656826481e-10,0
45702,1.9155398234891083e-8,4.24486364959416e-9,4.676720042372147e-9,4.916112473477414e-9,1.0503602428003643e-7,3.801450435557989e-8,7.621309921479892e-9,8.765216509848357e-10,0
45703,1.9188863869289817e-8,4.184938340602549e-9,4.673722661295855e-9,4.945132459390128e-9,1.0559558377143062e-7,3.8073206653790916e-8,7.59178738771969e-9,8.721876451431903e-10,0
45704,1.9222329503688546e-8,4.125013031610938e-9,4.670725280219563e-9,4.974152445302842e-9,1.061551432628248e-7,3.813190895200193e-8,7.562264853959485e-9,8.678536393015449e-10,0
45705,1.9255795138087276e-8,4.065087722619326e-9,4.667727899143271e-9,5.003172431215555e-9,1.0671470275421899e-7,3.819061125021295e-8,7.532742320199282e-9,8.635196334598995e-10,0
45706,1.9289260772486006e-8,4.005162413627714e-9,4.6647305180669795e-9,5.0321924171282686e-9,1.0727426224561316e-7,3.8249313548423967e-8,7.503219786439077e-9,8.591856276182541e-10,0
45707,1.9610428505762452e-8,3.933207081881717e-9,4.67293320144912e-9,5.083605678251097e-9,1.0812649954701211e-7,3.933120004920081e-8,7.521258650635118e-9,8.548516217766088e-10,0
45708,1.9605351996362495e-8,3.862022360289562e-9,4.67792559499424e-9,5.085487540579962e-9,1.0877239299906305e-7,3.940843358685911e-8,7.51123043807504e-9,8.525040192844027e-10,0
45709,1.959855209560929e-8,3.790067028543564e-9,4.674177653055612e-9,5.083220075273853e-9,1.0877239299906305e-7,3.949568087391686e-8,7.505966955236397e-9,8.485053852273582e-10,0
45710,1.959175219485608e-8,3.718111696797566e-9,4.670429711116985e-9,5.080952609967745e-9,1.0877239299906305e-7,3.958292816097461e-8,7.500703472397756e-9,8.445067511703135e-10,0
45711,1.9584952294102873e-8,3.646156365051568e-9,4.666681769178358e-9,5.078685144661636e-9,1.0877239299906305e-7,3.9670175448032363e-8,7.495439989559113e-9,8.40508117113269e-10,0
45712,1.9578152393349664e-8,3.5742010333055702e-9,4.662933827239731e-9,5.076417679355528e-9,1.0877239299906305e-7,3.975742273509011e-8,7.490176506720471e-9,8.365094830562245e-10,0
45713,1.9571352492596457e-8,3.5022457015595724e-9,4.6591858853011025e-9,5.074150214049419e-9,1.0877239299906305e-7,3.9844670022147865e-8,7.484913023881829e-9,8.3251084899918e-10,0
45714,1.9564552591843248e-8,3.430290369813575e-9,4.655437943362475e-9,5.0718827487433105e-9,1.0877239299906305e-7,3.993191730920561e-8,7.479649541043187e-9,8.285122149421355e-10,0
45715,1.9557752691090042e-08,3.358335038067577e-9,4.651690001423848e-9,5.069615283437202e-9,1.0877239299906305e-7,4.0019164596263366e-8,7.474386058204544e-9,8.24513580885091e-10,0
45716,1.9550952790336832e-8,3.2863797063215792e-9,4.647942059485221e-9,5.0673478181310934e-9,1.0877239299906305e-7,4.010641188332111e-8,7.469122575365903e-9,8.205149468280465e-10,0
45717,1.9544152889583626e-8,3.2144243745755814e-9,4.6441941175465935e-9,5.065080352824985e-9,1.0877239299906305e-7,4.019365917037886e-8,7.46385909252726e-9,8.16516312771002e-10,0
45718,1.9537352988830416e-8,3.1424690428295835e-9,4.640446175607966e-9,5.062812887518876e-9,1.0877239299906305e-7,4.0280906457436614e-8,7.458595609688619e-9,8.125176787139575e-10,0
45719,1.9352004158549028e-8,3.1417284066464504e-9,4.6344514134553825e-9,5.051932624055031e-9,1.0873402234988227e-7,4.02924290019932e-8,7.315911415819886e-9,8.120275347161391e-10,0
45720,1.9352004158549028e-8,3.1356984082839026e-9,4.634703221200511e-9,5.039145190730222e-9,1.0882672533546329e-7,4.03951031272309e-8,7.3411148227599246e-9,8.120275347161391e-10,0
45721,1.9348670941843338e-8,3.105848156178257e-9,4.633952660338175e-9,5.038805740310332e-9,1.0895178217944329e-7,4.050019364394401e-8,7.36604227803339e-9,8.1236290650074e-10,0
45722,1.9345337725137647e-8,3.0759979040726116e-9,4.63320209947584e-9,5.0384662898904425e-9,1.0907683902342331e-7,4.060528416065712e-8,7.390969733306855e-9,8.126982782853409e-10,0
45723,1.9342004508431957e-8,3.046147651966966e-9,4.6324515386135046e-9,5.038126839470553e-9,1.0920189586740331e-7,4.071037467737022e-8,7.415897188580321e-9,8.130336500699418e-10,0
45724,1.9338671291726266e-8,3.0162973998613207e-9,4.631700977751169e-9,5.037787389050663e-9,1.0932695271138332e-7,4.081546519408333e-8,7.4408246438537864e-9,8.133690218545427e-10,0
45725,1.9335338075020576e-8,2.986447147755675e-9,4.630950416888834e-9,5.037447938630774e-9,1.0945200955536332e-7,4.092055571079644e-8,7.465752099127253e-9,8.137043936391435e-10,0
45726,1.933200485831489e-8,2.9565968956500298e-9,4.630199856026498e-9,5.037108488210884e-9,1.0957706639934332e-7,4.102564622750955e-8,7.490679554400717e-9,8.140397654237444e-10,0
45727,1.9328671641609198e-8,2.926746643544384e-9,4.629449295164163e-9,5.036769037790995e-9,1.0970212324332332e-7,4.113073674422266e-8,7.515607009674183e-9,8.143751372083453e-10,0
45728,1.9328671641609198e-8,2.9088215052956425e-9,4.634669184589161e-9,5.037879694165372e-9,1.0972410580395854e-7,4.115732122905403e-8,7.531078556894483e-9,8.145385185409514e-10,0
45729,1.932595074402153e-8,2.8809512786734703e-9,4.634659459843061e-9,5.038990350539749e-9,1.0992808607615946e-7,4.120174476493892e-8,7.531025406678545e-9,8.181845625746178e-10,0
45730,1.932941742806905e-8,2.854819194468845e-9,4.634659459843061e-9,5.055315208242362e-9,1.1002187525030178e-7,4.136438532540739e-8,7.543154932139327e-9,8.193540592610265e-10,0
45731,1.9332884112116564e-8,2.82868711026422e-9,4.634659459843061e-9,5.071640065944974e-9,1.1011566442444412e-7,4.1527025885875857e-08,7.555284457600107e-9,8.205235559474352e-10,0
45732,1.9336350796164083e-8,2.8025550260595947e-9,4.634659459843061e-9,5.087964923647588e-9,1.1020945359858645e-7,4.168966644634433e-8,7.567413983060888e-9,8.216930526338439e-10,0
45733,1.93398174802116e-8,2.7764229418549696e-9,4.634659459843061e-9,5.1042897813502e-9,1.1030324277272879e-7,4.185230700681279e-8,7.579543508521668e-9,8.228625493202526e-10,0
45734,1.9338568254202624e-8,2.7763629939135507e-9,4.634659459843061e-9,5.121339692449946e-9,1.1028289641262088e-7,4.19198707999676e-8,7.566745578708984e-9,8.228625493202526e-10,0
45735,1.9330608105668323e-8,2.7781011363310977e-9,4.635410020705397e-9,5.13573653526634e-9,1.1037144176134719e-7,4.200731987950559e-8,7.4239550844083764e-9,8.18227608171561e-10,0
45736,1.9334869751721553e-8,2.7798392787486448e-9,4.6324320891213045e-9,5.1338129828869655e-9,1.1036944266624442e-7,4.208583008998916e-8,7.4341958978322055e-9,8.193971048579697e-10,0
45737,1.9339131397774782e-8,2.7815774211661922e-9,4.629454157537213e-9,5.131889430507592e-9,1.1036744357114164e-7,4.216434030047274e-8,7.444436711256034e-9,8.205666015443784e-10,0
45738,1.9343393043828015e-8,2.7833155635837393e-9,4.626476225953121e-9,5.129965878128218e-9,1.1036544447603886e-7,4.224285051095631e-8,7.454677524679863e-9,8.217360982307871e-10,0
45739,1.9347654689881245e-8,2.7850537060012863e-9,4.623498294369029e-9,5.1280423257488445e-9,1.1036344538093608e-7,4.232136072143988e-8,7.464918338103691e-9,8.229055949171958e-10,0
45740,1.9351916335934474e-8,2.7867918484188333e-9,4.6205203627849364e-9,5.126118773369471e-9,1.103614462858333e-7,4.239987093192345e-8,7.475159151527519e-9,8.240750916036047e-10,0
45741,1.9352711297940188e-8,2.7868368093748975e-9,4.618791745180387e-9,5.109798378173703e-9,1.1026625928740298e-7,4.232552220900614e-8,7.479361777328925e-9,8.265774663090281e-10,0
45742,1.9838828159238397e-8,2.80063494851754e-9,4.614811444988831e-9,5.105695203096084e-9,1.1052304229580836e-7,4.230020186119452e-8,7.492944612512273e-9,8.26912838093629e-10,0
45743,2.032494502053661e-8,2.8144330876601832e-9,4.610831144797275e-9,5.101592028018465e-9,1.1077982530421375e-7,4.2274881513382896e-8,7.50652744769562e-9,8.272482098782299e-10,0
45744,2.0811061881834818e-8,2.828231226802826e-9,4.606850844605719e-9,5.097488852940846e-9,1.1103660831261913e-7,4.224956116557127e-8,7.520110282878969e-9,8.275835816628308e-10,0
45745,2.1297178743133026e-8,2.842029365945469e-9,4.6028705444141635e-9,5.093385677863227e-9,1.1129339132102453e-7,4.222424081775965e-8,7.533693118062315e-9,8.279189534474317e-10,0
45746,2.1783295604431235e-8,2.8558275050881117e-9,4.5988902442226076e-9,5.089282502785608e-9,1.1155017432942992e-7,4.219892046994803e-8,7.547275953245664e-9,8.282543252320326e-10,0
45747,2.2269412465729447e-8,2.8696256442307548e-9,4.594909944031052e-9,5.0851793277079885e-9,1.118069573378353e-7,4.21736001221364e-8,7.56085878842901e-9,8.285896970166334e-10,0
45748,2.261128079658594e-8,2.8833788224173333e-9,4.593907575423588e-9,5.086876579807436e-9,1.1212717475708681e-7,4.220037804224434e-8,7.541014964172608e-9,8.277555721148255e-10,0
45749,2.2953149127442438e-8,2.8971320006039123e-9,4.592905206816124e-9,5.088573831906884e-9,1.1244739217633834e-7,4.222715596235227e-8,7.521171139916204e-9,8.269214472130177e-10,0
45750,2.2809695559006437e-8,2.8951070141643747e-9,4.592149783580738e-9,5.076670754676525e-9,1.1249940244170355e-7,4.2212967109942284e-8,7.49168135519817e-9,8.25751950526609e-10,0
45751,2.2666241990570433e-8,2.8930820277248375e-9,4.591394360345353e-9,5.064767677446166e-9,1.1255141270706876e-7,4.21987782575323e-8,7.462191570480137e-9,8.245824538402003e-10,0
45752,2.252278842213443e-8,2.8910570412853003e-9,4.590638937109968e-9,5.052864600215808e-9,1.1260342297243397e-7,4.218458940512232e-8,7.432701785762104e-9,8.234129571537916e-10,0
45753,2.2507257998614142e-8,2.887278925442861e-9,4.584639312584334e-9,5.037084648187756e-9,1.12539391373407e-7,4.218458940512232e-8,7.426397847059993e-9,8.225874413713723e-10,0
45754,2.2491727575093853e-8,2.883500809600422e-9,4.5786396880587e-9,5.021304696159705e-9,1.1247535977438003e-7,4.218458940512232e-8,7.420093908357883e-9,8.217619255889531e-10,0
45755,2.2476197151573564e-8,2.8797226937579827e-9,4.572640063533066e-9,5.005524744131653e-9,1.1241132817535306e-7,4.218458940512232e-8,7.413789969655773e-9,8.209364098065339e-10,0
45756,2.246066672805327e-8,2.8759445779155438e-9,4.566640439007433e-9,4.9897447921036016e-9,1.123472965763261e-7,4.218458940512232e-8,7.407486030953663e-9,8.201108940241147e-10,0
45757,2.2445136304532982e-8,2.8721664620731044e-9,4.560640814481799e-9,4.973964840075551e-9,1.1228326497729914e-7,4.218458940512232e-8,7.4011820922515524e-9,8.192853782416955e-10,0
45758,2.2429605881012693e-8,2.8683883462306655e-9,4.554641189956165e-9,4.958184888047499e-9,1.1221923337827217e-7,4.218458940512232e-8,7.394878153549442e-9,8.184598624592763e-10,0
45759,2.2414075457492403e-8,2.8646102303882266e-9,4.548641565430531e-9,4.942404936019448e-9,1.1215520177924521e-7,4.218458940512232e-8,7.388574214847332e-9,8.176343466768571e-10,0
45760,2.239854503397211e-8,2.8608321145457872e-9,4.542641940904898e-9,4.926624983991396e-9,1.1209117018021824e-7,4.218458940512232e-8,7.382270276145222e-9,8.168088308944379e-10,0
45761,2.238301461045182e-8,2.8570539987033483e-9,4.536642316379264e-9,4.9108450319633445e-9,1.1202713858119127e-7,4.218458940512232e-8,7.3759663374431115e-9,8.159833151120187e-10,0
45762,2.2367484186931532e-8,2.853275882860909e-9,4.5306426918536305e-9,4.8950650799352935e-9,1.119631069821643e-7,4.218458940512232e-8,7.369662398741001e-9,8.151577993295995e-10,0
45763,2.2351953763411243e-8,2.84949776701847e-9,4.5246430673279965e-9,4.879285127907242e-9,1.1189907538313734e-7,4.218458940512232e-8,7.363358460038891e-9,8.143322835471803e-10,0
45764,2.233642333989095e-8,2.8457196511760307e-9,4.518643442802363e-9,4.863505175879191e-9,1.1183504378411038e-7,4.218458940512232e-8,7.357054521336781e-9,8.135067677647611e-10,0
45765,2.2334492717877077e-8,2.850722169333455e-9,4.513389516766015e-9,4.846455264779445e-9,1.1185007555448002e-7,4.216686223663289e-8,7.348745369578959e-9,8.138507486687506e-10,0
45766,2.2339095061932756e-8,2.8528991169267905e-9,4.507389892240381e-9,4.830675312751393e-9,1.1179546900583118e-7,4.215170620784013e-8,7.336339892451606e-9,8.130252328863314e-10,0
45767,2.2327031322459982e-8,2.8610461149412548e-09,4.505123622534225e-9,4.837200793325593e-9,1.1318778108620909e-7,4.218523037065525e-8,7.379645514390505e-9,8.123630984365183e-10,0
45768,2.2314967582987212e-8,2.869193112955719e-9,4.502857352828068e-9,4.843726273899793e-9,1.14580093166587e-7,4.221875453347037e-8,7.422951136329404e-9,8.117009639867053e-10,0
45769,2.229830149945876e-8,2.8774000589116026e-9,4.497874684029049e-9,4.865465955802228e-9,1.1608123186157966e-7,4.222569839005596e-8,7.430156481420937e-9,8.110388295368922e-10,0
45770,2.230068169904398e-8,2.8885845365853727e-9,4.497874684029049e-9,4.887205637704664e-9,1.1749688282076871e-7,4.226678122373981e-8,7.484923224468713e-9,8.112022108694982e-10,0
45771,2.224592773572011e-8,2.898529624958803e-9,4.500862340359241e-9,4.895910740977109e-9,1.189603587377269e-7,4.2304914404377565e-8,7.536537998165434e-9,8.112022108694982e-10,0
45772,2.2191173772396234e-8,2.9084747133322335e-9,4.5038499966894324e-9,4.904615844249554e-9,1.2042383465468508e-7,4.2343047585015325e-8,7.588152771862155e-9,8.112022108694982e-10,0
45773,2.2136419809072363e-8,2.9184198017056637e-9,4.506837653019624e-9,4.913320947521999e-9,1.2188731057164326e-7,4.2381180765653084e-8,7.639767545558876e-9,8.112022108694982e-10,0
45774,2.2081665845748492e-8,2.928364890079094e-9,4.509825309349816e-9,4.922026050794444e-9,1.2335078648860145e-7,4.2419313946290844e-8,7.691382319255597e-9,8.112022108694982e-10,0
45775,2.2026911882424618e-8,2.938309978452524e-9,4.512812965680008e-9,4.930731154066889e-9,1.2481426240555963e-7,4.24574471269286e-8,7.742997092952318e-9,8.112022108694982e-10,0
45776,2.1972157919100747e-8,2.9482550668259542e-9,4.5158006220102e-9,4.939436257339334e-9,1.2627773832251782e-7,4.249558030756636e-8,7.794611866649039e-9,8.112022108694982e-10,0
45777,2.1917403955776876e-8,2.9582001551993844e-9,4.518788278340392e-9,4.9481413606117796e-9,1.27741214239476e-7,4.253371348820412e-8,7.84622664034576e-9,8.112022108694982e-10,0
45778,2.1862649992453005e-8,2.968145243572815e-9,4.521775934670584e-9,4.956846463884224e-9,1.292046901564342e-7,4.257184666884188e-8,7.897841414042481e-9,8.112022108694982e-10,0
45779,2.180789602912913e-8,2.978090331946245e-9,4.524763591000776e-9,4.9655515671566695e-9,1.306681660733924e-7,4.2609979849479634e-8,7.949456187739202e-9,8.112022108694982e-10,0
45780,2.175314206580526e-8,2.9880354203196753e-9,4.527751247330968e-9,4.974256670429114e-9,1.3213164199035058e-7,4.2648113030117393e-8,8.001070961435923e-9,8.112022108694982e-10,0
45781,2.169838810248139e-8,2.9979805086931055e-9,4.53073890366116e-9,4.982961773701559e-9,1.3359511790730877e-7,4.268624621075515e-8,8.052685735132644e-9,8.112022108694982e-10,0
45782,2.164363413915752e-8,3.0079255970665357e-9,4.533726559991352e-9,4.991666876974005e-9,1.3505859382426695e-7,4.272437939139291e-8,8.104300508829365e-9,8.112022108694982e-10,0
45783,2.1588880175833644e-8,3.0178706854399663e-9,4.5367142163215435e-9,5.000371980246449e-9,1.3652206974122513e-7,4.276251257203067e-8,8.155915282526086e-9,8.112022108694982e-10,0
45784,2.1534126212509773e-8,3.0278157738133965e-9,4.539701872651735e-9,5.009077083518895e-9,1.3798554565818332e-7,4.280064575266843e-8,8.207530056222807e-9,8.112022108694982e-10,0
45785,2.151746012898132e-8,2.949815456719496e-9,4.513480866200494e-9,5.022857560571273e-9,1.3952485971969834e-7,4.284475979211083e-8,8.220751040481474e-9,8.07031586360459e-10,0
45786,2.168558910502594e-8,2.9361372134596907e-9,4.423749066460687e-9,4.992936836045699e-9,1.38147916220993e-7,4.2784350005225525e-8,8.157611794873055e-9,8.101960955156957e-10,0
45787,2.1670172247506465e-8,2.9292595787162757e-9,4.33401726672088e-9,4.9608364888218804e-9,1.362802826671801e-7,4.2690893915633104e-8,8.095247254048415e-9,8.206440836188762e-10,0
45788,2.164924451792478e-8,2.9155813354564708e-9,4.245040890216458e-9,4.923660767818128e-9,1.3440007776773947e-7,4.2513651480951744e-8,8.051792382048586e-9,8.214609902819068e-10,0
45789,2.1628316788343098e-8,2.9019030921966654e-9,4.1560645137120365e-9,4.886485046814376e-9,1.325198728682988e-7,4.233640904627039e-8,8.008337510048757e-9,8.222778969449374e-10,0
45790,2.1607389058761416e-8,2.88822484893686e-9,4.067088137207615e-9,4.849309325810624e-9,1.3063966796885817e-7,4.2159166611589036e-8,7.964882638048928e-9,8.230948036079679e-10,0
45791,2.1586461329179734e-8,2.8745466056770546e-9,3.978111760703194e-9,4.812133604806871e-9,1.287594630694175e-7,4.198192417690768e-8,7.921427766049099e-9,8.239117102709985e-10,0
45792,2.1565533599598053e-8,2.8608683624172496e-9,3.889135384198772e-9,4.774957883803119e-9,1.2687925816997687e-7,4.180468174222632e-8,7.87797289404927e-9,8.247286169340291e-10,0
45793,2.154460587001637e-8,2.8471901191574443e-9,3.80015900769435e-9,4.737782162799368e-9,1.2499905327053624e-7,4.162743930754497e-8,7.834518022049443e-9,8.255455235970596e-10,0
45794,2.152367814043469e-8,2.833511875897639e-9,3.711182631189928e-9,4.700606441795615e-9,1.2311884837109557e-7,4.1450196872863614e-8,7.791063150049614e-9,8.263624302600902e-10,0
45795,2.1502750410853007e-8,2.819833632637834e-9,3.6222062546855068e-9,4.663430720791863e-9,1.2123864347165494e-7,4.127295443818226e-8,7.747608278049785e-9,8.271793369231208e-10,0
45796,2.1481822681271325e-8,2.8061553893780285e-9,3.533229878181085e-9,4.626254999788111e-9,1.1935843857221428e-7,4.10957120035009e-8,7.704153406049956e-9,8.279962435861512e-10,0
45797,2.098559844590048e-8,2.788245238114641e-9,3.530251946596993e-9,4.629134368351389e-9,1.1906164712663198e-7,4.101041686325483e-8,7.72178961697378e-9,8.291571311531713e-10,0
45798,2.0489374210529635e-8,2.770335086851254e-9,3.5272740150129013e-9,4.6320137369146686e-9,1.1876485568104966e-7,4.0925121723008755e-8,7.739425827897605e-9,8.303180187201914e-10,0
45799,1.999314997515879e-8,2.7524249355878666e-9,3.524296083428809e-9,4.634893105477947e-9,1.1846806423546736e-7,4.083982658276268e-8,7.75706203882143e-9,8.314789062872115e-10,0
45800,1.9496925739787947e-8,2.7345147843244792e-9,3.5213181518447172e-9,4.6377724740412255e-9,1.1817127278988505e-7,4.075453144251661e-8,7.774698249745256e-9,8.326397938542315e-10,0
45801,1.90007015044171e-8,2.716604633061092e-9,3.5183402202606254e-9,4.640651842604505e-9,1.1787448134430274e-7,4.066923630227053e-8,7.79233446066908e-9,8.338006814212517e-10,0
45802,1.8504477269046256e-8,2.6986944817977046e-9,3.515362288676533e-9,4.643531211167783e-9,1.1757768989872044e-7,4.058394116202446e-8,7.809970671592905e-9,8.349615689882717e-10,0
45803,1.8008253033675412e-8,2.6807843305343177e-9,3.5123843570924413e-9,4.646410579731062e-9,1.1728089845313813e-7,4.0498646021778386e-8,7.82760688251673e-9,8.361224565552917e-10,0
45804,1.7512028798304565e-8,2.6628741792709304e-9,3.5094064255083495e-9,4.649289948294341e-9,1.1698410700755581e-7,4.041335088153231e-8,7.845243093440555e-9,8.372833441223119e-10,0
45805,1.7513411491655372e-8,2.6610760889119645e-9,3.510156986370685e-9,4.658699259938664e-9,1.1679914444802824e-7,4.0378708972715e-8,7.864152762265366e-9,8.381002507853424e-10,0
45806,1.7369162961213657e-8,2.638285406674241e-9,3.5049127850804366e-9,4.667224215488538e-9,1.1682251099758075e-7,4.033600128270808e-8,7.883837135873957e-9,8.381002507853424e-10,0
45807,1.7224914430771942e-8,2.615494724436518e-9,3.4996685837901884e-9,4.67574917103841e-9,1.1684587754713327e-7,4.0293293592701153e-8,7.903521509482548e-9,8.381002507853424e-10,0
45808,1.708146086233594e-8,2.591494626869164e-9,3.4996685837901884e-9,4.681394758025005e-9,1.1683615877903308e-7,4.025058590269423e-8,7.90418991383445e-9,8.362772287685092e-10,0
45809,1.693800729389994e-8,2.56749452930181e-9,3.4996685837901884e-9,4.687040345011599e-9,1.1682644001093289e-7,4.0207878212687306e-08,7.904858318186355e-9,8.344542067516761e-10,0
45810,1.6814686493039907e-8,2.5464419894816337e-9,3.497402314084032e-9,4.72614408090157e-9,1.1687694426420974e-7,4.026932837146418e-8,7.905633022970134e-9,8.33293319184656e-10,0
45811,1.6691365692179877e-8,2.5253894496614577e-9,3.495136044377876e-9,4.765247816791542e-9,1.169274485174866e-7,4.033077853024106e-8,7.906407727753914e-9,8.321324316176359e-10,0
45812,1.6568044891319844e-8,2.5043369098412816e-9,3.4928697746717194e-9,4.804351552681513e-9,1.1697795277076346e-7,4.039222868901793e-8,7.907182432537693e-9,8.309715440506159e-10,0
45813,1.644472409045981e-8,2.483284370021105e-9,3.490603504965563e-9,4.8434552885714835e-9,1.170284570240403e-7,4.04536788477948e-8,7.907957137321473e-9,8.298106564835958e-10,0
45814,1.6321403289599778e-8,2.462231830200929e-9,3.488337235259407e-9,4.882559024461455e-9,1.1707896127731716e-7,4.051512900657167e-8,7.908731842105252e-9,8.286497689165757e-10,0
45815,1.6198082488739748e-8,2.441179290380753e-9,3.4860709655532504e-9,4.921662760351426e-9,1.1712946553059401e-7,4.057657916534855e-8,7.90950654688903e-9,8.274888813495556e-10,0
45816,1.6074761687879715e-8,2.4201267505605768e-9,3.483804695847094e-9,4.960766496241398e-9,1.1717996978387087e-7,4.063802932412542e-8,7.91028125167281e-9,8.263279937825356e-10,0
45817,1.595144088701968e-8,2.3990742107404007e-9,3.481538426140938e-9,4.999870232131369e-9,1.1723047403714771e-7,4.0699479482902294e-8,7.911055956456589e-9,8.251671062155154e-10,0
45818,1.582812008615965e-8,2.378021670920224e-9,3.4792721564347815e-9,5.03897396802134e-9,1.1728097829042457e-7,4.076092964167917e-8,7.911830661240369e-9,8.240062186484954e-10,0
45819,1.570479928529962e-8,2.356969131100048e-9,3.477005886728625e-9,5.078077703911311e-9,1.1733148254370143e-7,4.082237980045604e-8,7.912605366024148e-9,8.228453310814754e-10,0
45820,1.5726541878228024e-8,2.356969131100048e-9,3.4650455366617577e-9,5.115798330589625e-9,1.173921018004981e-7,4.077565175565983e-8,7.897908523587627e-9,8.211684721584709e-10,0
45821,1.574828447115643e-8,2.351996586913333e-9,3.4680331929919495e-9,5.154902066479596e-9,1.1736840819237937e-7,4.085064562271192e-8,7.889822173280441e-9,8.219939879408902e-10,0
45822,1.5750822725856407e-8,2.3572110141659745e-9,3.465786372777993e-9,5.138397061054411e-9,1.171380257583418e-7,4.0863767951980544e-8,7.823667860513492e-9,8.156649696304168e-10,0
45823,1.5750822725856407e-8,2.392228641267946e-9,3.4685319461091562e-9,5.116632071619876e-9,1.1699200744806842e-7,4.086630040462189e-8,7.920415764664763e-9,8.101700762217514e-10,0
45824,1.5750822725856407e-8,2.4272462683699178e-9,3.47127751944032e-9,5.0948670821853405e-9,1.1684598913779504e-7,4.086883285726323e-8,8.017163668816035e-9,8.04675182813086e-10,0
45825,1.5750822725856407e-8,2.4622638954718894e-9,3.474023092771483e-9,5.0731020927508055e-9,1.1669997082752165e-7,4.087136530990458e-8,8.113911572967305e-9,7.991802894044204e-10,0
45826,1.5750822725856407e-8,2.497281522573861e-9,3.4767686661026466e-9,5.0513371033162704e-9,1.1655395251724828e-7,4.0873897762545927e-08,8.210659477118575e-9,7.93685395995755e-10,0
45827,1.5750822725856407e-8,2.5322991496758326e-9,3.47951423943381e-9,5.029572113881735e-9,1.1640793420697489e-7,4.087643021518727e-8,8.307407381269847e-9,7.881905025870896e-10,0
45828,1.5750822725856407e-8,2.5673167767778043e-9,3.4822598127649733e-9,5.0078071244472e-9,1.1626191589670151e-7,4.087896266782862e-8,8.404155285421117e-9,7.82695609178424e-10,0
45829,1.5750822725856407e-8,2.602334403879776e-9,3.485005386096137e-9,4.9860421350126645e-9,1.1611589758642812e-7,4.0881495120469965e-8,8.50090318957239e-9,7.772007157697586e-10,0
45830,1.5750822725856407e-8,2.637352030981748e-9,3.4877509594273e-9,4.9642771455781295e-9,1.1596987927615475e-7,4.088402757311131e-8,8.59765109372366e-9,7.717058223610932e-10,0
45831,1.5750822725856407e-8,2.6723696580837196e-9,3.4904965327584636e-9,4.9425121561435945e-9,1.1582386096588136e-7,4.088656002575266e-8,8.69439899787493e-9,7.662109289524277e-10,0
45832,1.5750822725856407e-8,2.707387285185691e-9,3.493242106089627e-9,4.9207471667090594e-09,1.1567784265560798e-7,4.0889092478394004e-8,8.791146902026202e-9,7.607160355437622e-10,0
45833,1.5750822725856407e-8,2.742404912287663e-9,3.4959876794207904e-9,4.898982177274524e-9,1.155318243453346e-7,4.089162493103535e-8,8.887894806177472e-9,7.552211421350968e-10,0
45834,1.5750822725856407e-8,2.7774225393896344e-9,3.4987332527519536e-9,4.8772171878399886e-9,1.1538580603506122e-7,4.08941573836767e-8,8.984642710328744e-9,7.497262487264313e-10,0
45835,1.5750822725856407e-8,2.812440166491606e-9,3.501478826083117e-9,4.8554521984054535e-9,1.1523978772478783e-7,4.089668983631804e-8,9.081390614480014e-9,7.442313553177658e-10,0
45836,1.5750822725856407e-8,2.8474577935935777e-9,3.5042243994142803e-9,4.8336872089709185e-9,1.1509376941451445e-7,4.0899222288959386e-8,9.178138518631284e-9,7.387364619091004e-10,0
45837,1.5750822725856407e-8,2.8824754206955493e-9,3.506969972745444e-9,4.8119222195363835e-9,1.1494775110424106e-7,4.090175474160074e-8,9.274886422782556e-9,7.332415685004349e-10,0
45838,1.5750822725856407e-8,2.917493047797521e-9,3.5097155460766075e-9,4.790157230101848e-9,1.1480173279396769e-7,4.090428719424208e-8,9.371634326933827e-9,7.277466750917695e-10,0
45839,1.5750822725856407e-8,2.952510674899493e-9,3.5124611194077706e-9,4.768392240667313e-9,1.146557144836943e-7,4.0906819646883425e-8,9.468382231085099e-9,7.22251781683104e-10,0
45840,1.5750822725856407e-8,2.9875283020014646e-9,3.5152066927389342e-9,4.746627251232778e-9,1.1450969617342092e-7,4.0909352099524775e-8,9.565130135236369e-9,7.167568882744385e-10,0
45841,1.5741143872400774e-8,3.0235284483524954e-9,3.521947153380803e-9,4.750776578867751e-9,1.1458683529467095e-7,4.091223273566392e-8,9.732075527308182e-9,7.175910131762464e-10,0
45842,1.5724210854188668e-8,3.05556854373658e-9,3.521976327619103e-9,4.754925906502725e-9,1.1467114815958634e-7,4.082440932137834e-8,9.892208026973794e-9,7.187605098626551e-10,0
45843,1.5670251852870508e-8,3.0794016931647813e-9,3.5309684708479787e-9,4.756015717851847e-9,1.147477234334997e-7,4.082924628293101e-8,1.0012971779422224e-8,7.162839625153975e-10,0
45844,1.5618831106252327e-8,3.071194747208898e-9,3.533205566315835e-9,4.771544062067872e-9,1.148457491740869e-7,4.090202137238607e-8,9.964741977114077e-9,7.126379184817312e-10,0
45845,1.5572921231696355e-8,3.0590277502860685e-9,3.5334525116879136e-9,4.768212092944741e-9,1.1489863083988152e-7,4.0899721042076596e-8,9.917286879589708e-9,7.133258802897102e-10,0
45846,1.554027046064435e-8,3.0508208043301853e-9,3.533699457059992e-9,4.767420041964999e-9,1.1500497752428093e-7,4.089999185146377e-8,9.880814551230777e-9,7.100152080406447e-10,0
45847,1.5507619689592343e-8,3.042613858374302e-9,3.533946402432071e-9,4.766627990985256e-9,1.1511132420868032e-7,4.0900262660850956e-8,9.844342222871845e-9,7.067045357915793e-10,0
45848,1.5474968918540337e-8,3.034406912418419e-9,3.5341933478041494e-9,4.765835940005514e-9,1.1521767089307972e-7,4.090053347023813e-8,9.807869894512915e-9,7.033938635425138e-10,0
45849,1.544231814748833e-8,3.026199966462536e-9,3.534440293176228e-9,4.765043889025772e-9,1.1532401757747913e-7,4.090080427962531e-8,9.771397566153984e-9,7.000831912934483e-10,0
45850,1.5409667376436324e-8,3.0179930205066527e-9,3.5346872385483063e-9,4.76425183804603e-9,1.1543036426187852e-7,4.090107508901249e-8,9.734925237795052e-9,6.967725190443829e-10,0
45851,1.537701660538432e-8,3.0097860745507696e-9,3.534934183920385e-9,4.763459787066288e-9,1.1553671094627792e-7,4.090134589839967e-8,9.698452909436121e-9,6.934618467953174e-10,0
45852,1.5344365834332312e-8,3.0015791285948864e-9,3.5351811292924633e-9,4.762667736086545e-9,1.1564305763067733e-7,4.0901616707786846e-08,9.661980581077191e-9,6.90151174546252e-10,0
45853,1.5311715063280306e-8,2.9933721826390033e-9,3.5354280746645417e-9,4.761875685106803e-9,1.1574940431507672e-7,4.090188751717403e-8,9.62550825271826e-9,6.868405022971866e-10,0
45854,1.4613288584780012e-8,2.9973322336059494e-9,3.5354280746645417e-9,4.749658464988655e-9,1.1549196469437382e-7,4.08913405062039e-8,9.637318876883413e-9,6.863503582993682e-10,0
45855,1.454210504279316e-8,3.001292284572896e-9,3.5334379245687638e-9,4.752311533272007e-9,1.1555999607107517e-7,4.089306888788739e-8,9.624148895559165e-9,6.771922026182591e-10,0
45856,1.447092150080631e-8,3.0052523355398424e-9,3.531447774472986e-9,4.75496460155536e-9,1.1562802744777652e-7,4.089479726957088e-8,9.610978914234915e-9,6.6803404693715e-10,0
45857,1.4399737958819458e-8,3.009212386506789e-9,3.529457624377208e-9,4.757617669838712e-9,1.1569605882447788e-7,4.089652565125437e-8,9.597808932910667e-9,6.588758912560409e-10,0
45858,1.4328554416832607e-8,3.0131724374737354e-9,3.52746747428143e-9,4.760270738122065e-9,1.1576409020117923e-7,4.089825403293785e-8,9.584638951586418e-9,6.497177355749318e-10,0
45859,1.4257370874845756e-8,3.017132488440682e-9,3.525477324185652e-9,4.762923806405417e-9,1.1583212157788058e-7,4.089998241462134e-8,9.57146897026217e-9,6.405595798938227e-10,0
45860,1.4186187332858905e-8,3.0210925394076284e-9,3.523487174089874e-9,4.765576874688769e-9,1.1590015295458195e-7,4.090171079630483e-8,9.55829898893792e-9,6.314014242127136e-10,0
45861,1.4115003790872053e-8,3.025052590374575e-9,3.521497023994096e-9,4.768229942972122e-9,1.159681843312833e-7,4.090343917798832e-8,9.545129007613672e-9,6.222432685316045e-10,0
45862,1.4025050273319027e-8,3.0253094604258556e-9,3.5195117362713683e-9,4.768229942972122e-9,1.1598275068937989e-7,4.090516755967181e-8,9.526292890178565e-9,6.139192377523033e-10,0
45863,1.4021717056613337e-8,3.050322051212978e-9,3.4835723375941653e-9,4.761699999891076e-9,1.1581522498348107e-7,4.0801035862137805e-8,9.52314092082751e-9,6.127583501852832e-10,0
45864,1.452936928017933e-8,3.0805790432234517e-9,3.4498846215039694e-9,4.75743752211614e-9,1.1565888663429271e-7,4.0700666245811424e-8,9.521209259161504e-9,6.132743215412674e-10,0
45865,1.5037021503745324e-8,3.110836035233925e-9,3.416196905413773e-9,4.753175044341204e-9,1.1550254828510436e-7,4.060029662948505e-8,9.519277597495497e-9,6.137902928972517e-10,0
45866,1.554467372731132e-8,3.1410930272443983e-9,3.382509189323577e-9,4.748912566566267e-9,1.1534620993591599e-7,4.049992701315867e-8,9.51734593582949e-9,6.143062642532361e-10,0
45867,1.6052325950877315e-8,3.1713500192548715e-9,3.3488214732333805e-9,4.74465008879133e-9,1.1518987158672762e-7,4.0399557396832294e-8,9.515414274163484e-9,6.148222356092204e-10,0
45868,1.6195779519313316e-8,3.173616888760335e-9,3.3131290199282564e-9,4.737847692873005e-9,1.1511386991288769e-7,4.0294466880119185e-8,9.517419487219196e-9,6.153382069652047e-10,0
45869,1.6339233087749318e-8,3.1758837582657983e-9,3.2774365666231324e-9,4.731045296954679e-9,1.1503786823904776e-7,4.0189376363406077e-8,9.519424700274907e-9,6.158541783211889e-10,0
45870,1.6354763511269607e-8,3.176866277514858e-9,3.242499536553394e-9,4.739000039297891e-9,1.1502677364729816e-7,4.012870938257786e-8,9.5174930386089e-9,6.548944754377737e-10,0
45871,1.63702939347899e-8,3.177848796763917e-9,3.207562506483655e-9,4.7469547816411026e-9,1.1501567905554856e-7,4.006804240174965e-8,9.515561376942894e-9,6.939347725543585e-10,0
45872,1.638582435831019e-8,3.178831316012976e-9,3.1726254764139166e-9,4.754909523984315e-9,1.1500458446379895e-7,4.0007375420921435e-8,9.513629715276887e-9,7.329750696709433e-10,0
45873,1.6401354781830478e-8,3.1798138352620353e-9,3.1376884463441777e-9,4.762864266327527e-9,1.1499348987204935e-7,3.994670844009322e-8,9.511698053610882e-9,7.720153667875281e-10,0
45874,1.6416885205350767e-8,3.180796354511095e-9,3.1027514162744393e-9,4.770819008670739e-9,1.1498239528029975e-7,3.9886041459265003e-08,9.509766391944874e-9,8.110556639041129e-10,0
45875,1.643241562887106e-8,3.181778873760154e-9,3.0678143862047004e-9,4.7787737510139505e-9,1.1497130068855015e-7,3.982537447843679e-8,9.507834730278867e-9,8.500959610206976e-10,0
45876,1.644794605239135e-8,3.1827613930092132e-9,3.032877356134962e-9,4.786728493357163e-9,1.1496020609680055e-7,3.976470749760857e-8,9.505903068612861e-9,8.891362581372825e-10,0
45877,1.6463476475911638e-8,3.1837439122582724e-9,2.997940326065223e-9,4.794683235700375e-9,1.1494911150505095e-7,3.970404051678036e-8,9.503971406946854e-9,9.281765552538673e-10,0
45878,1.6453773034683074e-8,3.1784545500788577e-9,2.997950050811323e-9,4.8050185934896584e-9,1.1503536245348361e-7,3.9741210699637176e-8,9.499768781145448e-9,9.692032557198914e-10,0
45879,1.6411082810831974e-8,3.1635369175187125e-9,2.9949721192272313e-9,4.80862301545007e-9,1.1344042074897794e-7,3.9624966714874474e-8,9.453427690874253e-9,1.001768371432174e-9,0
45880,1.6389680915906017e-8,3.164262566716491e-9,2.9957275424626165e-9,4.822223344779877e-9,1.1348198895225712e-7,3.966981162976595e-8,9.425125464799098e-9,1.0419695561157788e-9,0
45881,1.636827902098006e-8,3.1649882159142693e-9,2.996482965698002e-9,4.835823674109683e-9,1.135235571555363e-7,3.971465654465743e-8,9.396823238723942e-9,1.0821707407993838e-9,0
45882,1.63468771260541e-8,3.1657138651120478e-9,2.9972383889333874e-9,4.849424003439489e-9,1.1356512535881549e-7,3.975950145954891e-8,9.368521012648787e-9,1.1223719254829886e-9,0
45883,1.6325475231128145e-8,3.1664395143098262e-9,2.997993812168773e-9,4.863024332769296e-9,1.1360669356209467e-7,3.9804346374440385e-8,9.340218786573631e-9,1.1625731101665934e-9,0
45884,1.6304073336202185e-8,3.1671651635076047e-9,2.998749235404158e-9,4.876624662099102e-9,1.1364826176537386e-7,3.984919128933186e-8,9.311916560498477e-9,1.2027742948501984e-9,0
45885,1.628267144127623e-8,3.167890812705383e-9,2.999504658639544e-9,4.8902249914289076e-9,1.1368982996865303e-7,3.989403620422334e-8,9.283614334423321e-9,1.2429754795338032e-9,0
45886,1.626126954635027e-8,3.168616461903161e-9,3.0002600818749294e-9,4.903825320758714e-9,1.1373139817193222e-7,3.993888111911482e-8,9.255312108348166e-9,1.2831766642174082e-9,0
45887,1.6239867651424313e-8,3.1693421111009396e-9,3.0010155051103146e-9,4.91742565008852e-9,1.1377296637521141e-7,3.9983726034006296e-8,9.22700988227301e-9,1.323377848901013e-9,0
45888,1.6218465756498356e-8,3.170067760298718e-9,3.0017709283457003e-9,4.9310259794183266e-9,1.1381453457849058e-7,4.0028570948897774e-8,9.198707656197855e-9,1.3635790335846178e-9,0
45889,1.6197063861572396e-8,3.1707934094964965e-9,3.0025263515810855e-9,4.944626308748133e-9,1.1385610278176977e-7,4.007341586378925e-8,9.1704054301227e-9,1.4037802182682228e-9,0
45890,1.617566196664644e-8,3.171519058694275e-9,3.003281774816471e-9,4.958226638077939e-9,1.1389767098504894e-7,4.011826077868073e-8,9.142103204047545e-9,1.4439814029518276e-9,0
45891,1.634107004510339e-8,3.191394248455781e-9,3.0040274733057563e-9,4.966751593627812e-9,1.1396474636162795e-7,4.011826077868073e-8,9.127383813155736e-9,1.4489603250045088e-9,0
45892,1.6424377030586045e-8,3.1921198976535594e-9,3.0040274733057563e-9,4.966751593627812e-9,1.1390261134000617e-7,4.011964097686641e-8,9.097192875043629e-9,1.4493043059084983e-9,0
45893,1.6390911396187315e-8,3.204134933422591e-9,3.0077802776174338e-9,4.96813470283947e-9,1.140666360213478e-7,4.0225152872586105e-8,9.109216100072536e-9,1.4613002080796318e-9,0
45894,1.6357445761788585e-8,3.216149969191623e-9,3.0115330819291112e-9,4.9695178120511275e-9,1.1423066070268942e-7,4.03306647683058e-8,9.12123932510144e-9,1.4732961102507653e-9,0
45895,1.6323980127389856e-8,3.2281650049606543e-9,3.0152858862407883e-9,4.970900921262785e-9,1.1439468538403105e-7,4.043617666402549e-8,9.133262550130345e-9,1.4852920124218988e-9,0
45896,1.6290514492991126e-8,3.240180040729686e-9,3.0190386905524658e-9,4.972284030474443e-9,1.1455871006537267e-7,4.0541688559745186e-8,9.14528577515925e-9,1.4972879145930325e-9,0
45897,1.6257048858592393e-8,3.2521950764987178e-9,3.0227914948641432e-9,4.973667139686101e-9,1.147227347467143e-7,4.064720045546487e-8,9.157309000188157e-9,1.509283816764166e-9,0
45898,1.6223583224193663e-8,3.2642101122677493e-9,3.0265442991758203e-9,4.975050248897759e-9,1.1488675942805592e-7,4.075271235118457e-8,9.169332225217062e-9,1.5212797189352996e-9,0
45899,1.6217326565671605e-8,3.276240135022136e-9,3.0265442991758203e-9,4.975050248897759e-9,1.1502545021811757e-7,4.080531355082317e-8,9.205455050519715e-9,1.5337657651042515e-9,0
45900,1.622424003242563e-8,3.286290132293049e-9,3.029551404998212e-9,4.977317714203867e-9,1.1533622058635235e-7,4.089256083788092e-8,9.24384883995777e-9,1.5454176863713953e-9,0
45901,1.623103993317884e-8,3.2983051680620806e-9,3.032558510820604e-9,4.9563953908132735e-9,1.1549773358410331e-7,4.0946283962123545e-8,9.277520849303442e-9,1.5545930602912818e-9,0
45902,1.6237839833932045e-8,3.310320203831112e-9,3.035565616642996e-9,4.9354730674226805e-9,1.1565924658185426e-7,4.1000007086366175e-8,9.311192858649116e-9,1.5637684342111681e-9,0
45903,1.6244639734685255e-8,3.322335239600144e-9,3.0385727224653877e-9,4.914550744032087e-9,1.158207595796052e-7,4.1053730210608805e-8,9.344864867994788e-9,1.5729438081310546e-9,0
45904,1.625143963543846e-8,3.3343502753691755e-9,3.0415798282877796e-9,4.893628420641494e-9,1.1598227257735617e-7,4.1107453334851435e-8,9.378536877340461e-9,1.582119182050941e-9,0
45905,1.625823953619167e-8,3.3463653111382074e-9,3.0445869341101714e-9,4.8727060972509e-9,1.1614378557510711e-7,4.116117645909406e-8,9.412208886686133e-9,1.5912945559708275e-9,0
45906,1.6265039436944877e-8,3.358380346907239e-9,3.0475940399325633e-9,4.851783773860307e-9,1.1630529857285807e-7,4.121489958333669e-8,9.445880896031807e-9,1.6004699298907138e-9,0
45907,1.6271839337698087e-8,3.370395382676271e-9,3.050601145754955e-9,4.830861450469713e-9,1.1646681157060902e-7,4.126862270757932e-8,9.47955290537748e-9,1.6096453038106003e-9,0
45908,1.6278639238451293e-8,3.3824104184453024e-9,3.0536082515773466e-9,4.809939127079119e-9,1.1662832456835997e-7,4.132234583182195e-8,9.513224914723153e-9,1.6188206777304866e-9,0
45909,1.6285439139204502e-8,3.394425454214334e-9,3.0566153573997385e-9,4.789016803688526e-9,1.1678983756611093e-7,4.137606895606457e-8,9.546896924068826e-9,1.6279960516503731e-9,0
45910,1.629223903995771e-8,3.406440489983366e-9,3.0596224632221303e-9,4.768094480297932e-9,1.1695135056386188e-7,4.14297920803072e-8,9.580568933414498e-9,1.6371714255702594e-9,0
45911,1.629396243131096e-8,3.4152061369978745e-9,3.1007428523399317e-9,4.755784955065075e-9,1.1727451899570459e-7,4.1410456769902066e-8,9.573915491656111e-9,1.6360277562420167e-9,0
45912,1.6259962927544924e-8,3.4031761142434883e-9,3.1556300070979498e-9,4.753517489758966e-9,1.1715732176589768e-7,4.139860275625503e-8,9.573639539989538e-9,1.6368446629050473e-9,0
45913,1.6254703775257278e-8,3.4240787842101177e-9,3.1573732118216493e-9,4.752792436361834e-9,1.1723315991045451e-7,4.1398796191531586e-8,9.609071412485002e-9,1.633362000203987e-9,0
45914,1.6249444622969633e-8,3.4449814541767466e-9,3.1591164165453483e-9,4.7520673829647e-9,1.1730899805501134e-7,4.1398989626808145e-8,9.644503284980465e-9,1.6298793375029267e-9,0
45915,1.624418547068199e-8,3.465884124143376e-9,3.160859621269048e-9,4.751342329567567e-9,1.1738483619956818e-7,4.13991830620847e-8,9.679935157475927e-9,1.6263966748018665e-9,0
45916,1.6238926318394345e-8,3.486786794110005e-9,3.1626028259927473e-9,4.750617276170433e-9,1.17460674344125e-7,4.1399376497361256e-8,9.715367029971391e-9,1.6229140121008063e-9,0
45917,1.62336671661067e-8,3.5076894640766343e-9,3.164346030716447e-9,4.7498922227733004e-9,1.1753651248868183e-7,4.1399569932637814e-8,9.750798902466854e-9,1.6194313493997461e-9,0
45918,1.6228408013819054e-8,3.5285921340432633e-9,3.1660892354401463e-9,4.749167169376167e-9,1.1761235063323866e-7,4.1399763367914366e-8,9.786230774962316e-9,1.615948686698686e-9,0
45919,1.622314886153141e-8,3.5494948040098926e-9,3.1678324401638458e-9,4.748442115979033e-9,1.176881887777955e-7,4.1399956803190925e-8,9.82166264745778e-9,1.6124660239976257e-9,0
45920,1.6217889709243766e-8,3.5703974739765216e-9,3.1695756448875453e-9,4.7477170625819e-9,1.1776402692235233e-7,4.1400150238467484e-8,9.857094519953243e-9,1.6089833612965653e-9,0
45921,1.621263055695612e-8,3.591300143943151e-9,3.1713188496112448e-9,4.746992009184766e-9,1.1783986506690916e-7,4.140034367374404e-8,9.892526392448705e-9,1.6055006985955051e-9,0
45922,1.593350208134406e-8,3.607230269723065e-9,3.175047342057672e-9,4.745156299413257e-9,1.1737553566752619e-7,4.1391211369413066e-8,9.932001440097762e-9,1.603677676578672e-9,0
45923,1.5654373605732e-8,3.623160395502979e-9,3.1787758345040997e-9,4.743320589641746e-9,1.1691120626814322e-7,4.1382079065082096e-8,9.97147648774682e-9,1.6018546545618389e-9,0
45924,1.537524513011994e-8,3.639090521282893e-9,3.182504326950527e-9,4.7414848798702355e-9,1.1644687686876027e-7,4.1372946760751126e-8,1.0010951535395876e-8,1.6000316325450057e-9,0
45925,1.509611665450788e-8,3.655020647062807e-9,3.1862328193969545e-9,4.739649170098725e-9,1.159825474693773e-7,4.1363814456420156e-8,1.0050426583044933e-8,1.5982086105281726e-9,0
45926,1.4813180796845854e-8,3.658359957729458e-9,3.189980761335582e-9,4.7390834193989094e-9,1.1547334004218243e-7,4.135825079802026e-8,1.0056920574155506e-8,1.5970477229611525e-9,0
45927,1.4536432520819014e-8,3.65169423208126e-9,3.209906574158611e-9,4.740692828890494e-9,1.1512174268265893e-7,4.135774786630121e-8,1.00609637493091e-8,1.5950613196117131e-9,0
45928,1.445855795764785e-8,3.648958583429299e-9,3.209906574158611e-9,4.782772700965297e-9,1.149289082610564e-7,4.135774786630121e-8,1.0065006924462694e-8,1.5942444129486826e-9,0
45929,1.4380683394476687e-8,3.6462229347773377e-9,3.209906574158611e-9,4.8248525730401005e-9,1.1473607383945387e-7,4.135774786630121e-8,1.0069050099616288e-8,1.593427506285652e-9,0
45930,1.4302808831305525e-8,3.6434872861253767e-9,3.209906574158611e-9,4.866932445114904e-9,1.1454323941785133e-7,4.135774786630121e-8,1.0073093274769881e-8,1.5926105996226215e-9,0
45931,1.4224934268134361e-8,3.640751637473416e-9,3.209906574158611e-9,4.909012317189708e-9,1.143504049962488e-7,4.135774786630121e-8,1.0077136449923475e-8,1.591793692959591e-9,0
45932,1.4147059704963198e-8,3.6380159888214545e-9,3.209906574158611e-9,4.951092189264512e-9,1.1415757057464627e-7,4.135774786630121e-8,1.0081179625077068e-8,1.5909767862965604e-9,0
45933,1.4069185141792036e-8,3.6352803401694936e-9,3.209906574158611e-9,4.993172061339316e-9,1.1396473615304374e-7,4.135774786630121e-8,1.0085222800230661e-8,1.59015987963353e-9,0
45934,1.3991310578620873e-8,3.6325446915175323e-9,3.209906574158611e-9,5.03525193341412e-9,1.1377190173144121e-7,4.135774786630121e-8,1.0089265975384255e-8,1.5893429729704993e-9,0
45935,1.4084270674172901e-8,3.638499754953307e-9,3.2039361238712773e-9,5.07878191228319e-9,1.1404519076892927e-7,4.1365345224225246e-8,1.0095357313222615e-8,1.5893429729704993e-9,0
45936,1.4285524586613798e-8,3.614439709444534e-9,3.1233461652714246e-9,5.122311891152261e-9,1.1438612878306973e-7,4.1239323790996804e-8,1.0092587595970008e-8,1.5810189421911982e-9,0
45937,1.4486778499054695e-8,3.5903796639357612e-9,3.0427562066715723e-9,5.165841870021331e-9,1.147270667972102e-7,4.111330235776836e-8,1.00898178787174e-8,1.5726949114118968e-9,0
45938,1.4688032411495593e-8,3.5663196184269884e-9,2.96216624807172e-9,5.209371848890401e-9,1.1506800481135067e-7,4.098728092453992e-8,1.0087048161464794e-8,1.5643708806325955e-9,0
45939,1.488928632393649e-8,3.542259572918216e-9,2.8815762894718672e-9,5.252901827759472e-9,1.1540894282549114e-7,4.086125949131148e-8,1.0084278444212186e-8,1.5560468498532944e-9,0
45940,1.5090540236377387e-8,3.518199527409443e-9,2.800986330872015e-9,5.296431806628542e-9,1.157498808396316e-7,4.073523805808304e-8,1.0081508726959579e-8,1.547722819073993e-9,0
45941,1.5291794148818285e-8,3.4941394819006702e-9,2.720396372272162e-9,5.339961785497613e-9,1.1609081885377208e-7,4.0609216624854596e-8,1.0078739009706971e-8,1.539398788294692e-9,0
45942,1.549304806125918e-8,3.4700794363918974e-9,2.63980641367231e-9,5.383491764366683e-9,1.1643175686791254e-7,4.0483195191626155e-8,1.0075969292454365e-8,1.5310747575153906e-9,0
45943,1.569430197370008e-8,3.4460193908831245e-9,2.559216455072457e-9,5.4270217432357536e-9,1.1677269488205302e-7,4.035717375839771e-8,1.0073199575201757e-8,1.5227507267360893e-9,0
45944,1.5895555886140977e-8,3.421959345374352e-9,2.4786264964726048e-9,5.470551722104824e-9,1.1711363289619348e-7,4.023115232516927e-8,1.007042985794915e-8,1.5144266959567882e-9,0
45945,1.6096809798581872e-8,3.3978992998655792e-9,2.3980365378727525e-9,5.514081700973894e-9,1.1745457091033395e-7,4.010513089194083e-8,1.0067660140696542e-8,1.5061026651774869e-9,0
45946,1.629806371102277e-8,3.3738392543568064e-9,2.3174465792728997e-9,5.5576116798429646e-9,1.1779550892447442e-7,3.997910945871239e-8,1.0064890423443936e-8,1.4977786343981856e-9,0
45947,1.649931762346367e-8,3.3497792088480335e-9,2.2368566206730474e-9,5.601141658712035e-9,1.1813644693861489e-7,3.985308802548395e-8,1.0062120706191328e-8,1.4894546036188844e-9,0
45948,1.6700571535904564e-8,3.325719163339261e-9,2.1562666620731947e-9,5.6446716375811055e-9,1.1847738495275535e-7,3.9727066592255505e-8,1.005935098893872e-8,1.4811305728395831e-9,0
45949,1.6698690089436554e-8,3.2954621713287875e-9,2.0756767034733423e-9,5.670585954650614e-9,1.1873129746562855e-7,3.9591912854696094e-8,1.0050436783631815e-8,1.4752830894075395e-9,0
45950,1.670732694754383e-8,3.2652051793183144e-9,1.9958275809897254e-9,5.681466218114459e-9,1.1933704412679573e-7,3.946032776306775e-8,1.0076891100017553e-8,1.4657895619418295e-9,0
45951,1.6831590237047163e-8,3.2550802471206277e-9,1.9309264649031677e-9,5.704656006811161e-9,1.1966332143040992e-7,3.948468929170027e-8,1.0067976894710649e-8,1.4571215502585387e-9,0
45952,1.6955853526550494e-8,3.244955314922941e-9,1.8660253488166104e-9,5.727845795507863e-9,1.1998959873402414e-7,3.950905082033279e-8,1.0059062689403745e-8,1.448453538575248e-9,0
45953,1.7080116816053828e-8,3.234830382725254e-9,1.8011242327300529e-9,5.7510355842045654e-9,1.2031587603763836e-7,3.953341234896531e-8,1.005014848409684e-8,1.4397855268919573e-9,0
45954,1.7204380105557158e-8,3.224705450527568e-9,1.7362231166434955e-9,5.774225372901267e-9,1.2064215334125256e-7,3.9557773877597826e-8,1.0041234278789937e-8,1.4311175152086666e-9,0
45955,1.7328643395060492e-8,3.214580518329881e-9,1.671322000556938e-9,5.797415161597969e-9,1.2096843064486678e-7,3.958213540623035e-8,1.0032320073483031e-8,1.4224495035253758e-9,0
45956,1.7452906684563823e-8,3.2044555861321944e-9,1.6064208844703807e-9,5.820604950294671e-9,1.21294707948481e-7,3.960649693486287e-8,1.0023405868176127e-8,1.413781491842085e-9,0
45957,1.7560281444968993e-8,3.2236051266959216e-9,1.6221097269836757e-9,5.8396454113564e-9,1.2150371725796603e-7,3.975687989672383e-8,1.0023628669626762e-8,1.4146070076245042e-9,0
45958,1.765153805050878e-8,3.2434803164574276e-9,1.6318281192096368e-9,5.8619508439586515e-9,1.218349446692742e-7,3.990726285858479e-8,1.0007678770463023e-8,1.4142630267205145e-9,0
45959,1.7742794656048563e-8,3.2633555062189333e-9,1.641546511435598e-9,5.884256276560902e-9,1.221661720805824e-7,4.005764582044575e-8,9.991728871299282e-9,1.413919045816525e-9,0
45960,1.783405126158835e-8,3.2832306959804393e-9,1.6512649036615593e-9,5.906561709163154e-9,1.2249739949189057e-7,4.0208028782306714e-8,9.975778972135543e-9,1.4135750649125356e-9,0
45961,1.7925307867128138e-8,3.303105885741945e-9,1.6609832958875204e-9,5.928867141765405e-9,1.2282862690319874e-7,4.0358411744167676e-8,9.959829072971804e-9,1.4132310840085461e-9,0
45962,1.8016564472667925e-8,3.3229810755034506e-9,1.6707016881134816e-9,5.951172574367657e-9,1.231598543145069e-7,4.050879470602864e-8,9.943879173808063e-9,1.4128871031045565e-9,0
45963,1.8107821078207712e-8,3.3428562652649567e-9,1.6804200803394427e-9,5.9734780069699075e-9,1.234910817258151e-7,4.0659177667889595e-8,9.927929274644324e-9,1.412543122200567e-9,0
45964,1.8199077683747495e-8,3.3627314550264623e-9,1.690138472565404e-9,5.995783439572159e-9,1.2382230913712327e-7,4.080956062975056e-8,9.911979375480583e-9,1.4121991412965775e-9,0
45965,1.8290334289287283e-8,3.382606644787968e-9,1.6998568647913651e-09,6.01808887217441e-9,1.2415353654843144e-7,4.095994359161152e-8,9.896029476316844e-9,1.4118551603925878e-09,0
45966,1.838159089482707e-8,3.402481834549474e-9,1.7095752570173263e-9,6.040394304776662e-9,1.244847639597396e-7,4.1110326553472484e-8,9.880079577153103e-9,1.4115111794885984e-9,0
45967,1.8472847500366857e-8,3.4223570243109797e-9,1.7192936492432876e-9,6.062699737378913e-9,1.248159913710478e-7,4.126070951533344e-8,9.864129677989364e-9,1.411167198584609e-9,0
45968,1.8564104105906644e-8,3.4422322140724857e-9,1.7290120414692487e-9,6.085005169981164e-9,1.2514721878235597e-7,4.14110924771944e-8,9.848179778825625e-9,1.4108232176806194e-9,0
45969,1.8666945599143005e-8,3.4442422135266682e-9,1.7789359769204468e-9,6.088270141521687e-9,1.2515454630256772e-7,4.140080791840777e-8,9.844412555338602e-9,1.4099890927788116e-9,0
45970,1.916333373167386e-8,3.4600053911674296e-9,1.7727137188879845e-9,6.087113332589956e-9,1.2515454630256772e-7,4.139489607651007e-8,9.830404518427754e-9,1.413153601934048e-9,0
45971,1.910619956876477e-8,3.4597635081015036e-9,1.77345941737727e-9,6.063600475991773e-9,1.267790487120615e-7,4.140121676160884e-8,9.830181716977119e-9,1.4139877268358561e-9,0
45972,1.904906540585568e-8,3.4595216250355772e-09,1.7742051158665553e-9,6.040087619393591e-9,1.2840355112155527e-7,4.1407537446707604e-8,9.829958915526484e-9,1.414821851737664e-9,0
45973,1.899193124294659e-8,3.459279741969651e-9,1.774950814355841e-9,6.016574762795409e-9,1.3002805353104906e-7,4.141385813180637e-8,9.82973611407585e-9,1.4156559766394718e-9,0
45974,1.89347970800375e-8,3.459037858903725e-9,1.7756965128451263e-9,5.9930619061972266e-9,1.3165255594054284e-7,4.142017881690514e-8,9.829513312625214e-9,1.4164901015412796e-9,0
45975,1.8877662917128408e-8,3.4587959758377988e-9,1.7764422113344117e-9,5.969549049599044e-9,1.3327705835003664e-7,4.14264995020039e-8,9.82929051117458e-9,1.4173242264430874e-9,0
45976,1.8820528754219317e-8,3.4585540927718728e-9,1.7771879098236973e-9,5.946036193000862e-9,1.349015607595304e-7,4.143282018710267e-8,9.829067709723945e-9,1.4181583513448953e-9,0
45977,1.8763394591310227e-8,3.4583122097059467e-9,1.7779336083129828e-9,5.92252333640268e-9,1.3652606316902419e-7,4.1439140872201436e-8,9.828844908273312e-9,1.418992476246703e-9,0
45978,1.8706260428401136e-8,3.4580703266400203e-9,1.7786793068022684e-9,5.8990104798044975e-9,1.3815056557851799e-7,4.14454615573002e-8,9.828622106822677e-9,1.4198266011485111e-9,0
45979,1.8222025013570938e-8,3.4517984452115465e-9,1.77342538076592e-9,5.901617395530496e-9,1.3950229312648042e-7,4.139033208362209e-8,9.828399305372042e-9,1.4184937231294961e-9,0
45980,1.820951169652682e-8,3.439526539391234e-9,1.7721663420402777e-9,5.909052539731246e-9,1.4130388623342684e-7,4.14319565360803e-8,9.824515580866262e-9,1.419327848031304e-9,0
45981,1.8196998379482705e-8,3.427254633570921e-9,1.7709073033146354e-9,5.9164876839319965e-9,1.4310547934037326e-7,4.1473580988538506e-8,9.820631856360481e-9,1.4201619729331118e-9,0
45982,1.8184485062438585e-8,3.414982727750609e-9,1.7696482645889928e-9,5.923922828132747e-9,1.4490707244731967e-7,4.151520544099671e-8,9.816748131854701e-9,1.4209960978349198e-9,0
45983,1.817197174539447e-8,3.4027108219302963e-9,1.7683892258633504e-9,5.931357972333497e-9,1.467086655542661e-7,4.155682989345492e-8,9.81286440734892e-9,1.4218302227367277e-9,0
45984,1.8163087853944547e-8,3.392660824659383e-9,1.767130187137708e-9,5.93618620080825e-9,1.4666688256285503e-7,4.1539184277677965e-8,9.811145346546665e-9,1.422320366734546e-9,0
45985,1.815420396249463e-8,3.38261082738847e-9,1.7658711484120657e-9,5.941014429283002e-9,1.4662509957144394e-7,4.1521538661901004e-8,9.80942628574441e-9,1.4228105107323642e-9,0
45986,1.8145320071044707e-8,3.372560830117557e-9,1.7646121096864233e-9,5.945842657757754e-9,1.4658331658003288e-7,4.150389304612404e-8,9.807707224942154e-9,1.4233006547301825e-9,0
45987,1.8136436179594786e-8,3.3625108328466436e-9,1.7633530709607808e-9,5.950670886232507e-9,1.465415335886218e-7,4.148624743034708e-8,9.805988164139899e-9,1.4237907987280009e-9,0
45988,1.8127552288144867e-8,3.3524608355757304e-9,1.7620940322351384e-9,5.955499114707259e-9,1.4649975059721073e-7,4.146860181457012e-8,9.804269103337642e-9,1.4242809427258193e-9,0
45989,1.8118668396694945e-8,3.3424108383048173e-9,1.760834993509496e-9,5.960327343182011e-9,1.4645796760579964e-7,4.145095619879316e-8,9.802550042535386e-9,1.4247710867236376e-9,0
45990,1.810506859518853e-8,3.33415893139287e-9,1.758835118667618e-9,5.969397204406445e-9,1.4645796760579964e-7,4.144355227614568e-8,9.810699743645395e-9,1.4264221182884759e-9,0
45991,1.8146168895028203e-8,3.3228995187923263e-9,1.7565834360806118e-9,5.97320708162153e-9,1.4666737473817315e-7,4.1440181244093e-8,9.832019426079653e-9,1.4304207523455204e-9,0
45992,1.8187269194867876e-8,3.3229294927630358e-9,1.7565834360806118e-9,5.976472053162052e-9,1.4692350113428102e-7,4.1440181244093e-8,9.844817355892337e-9,1.4344193864025651e-9,0
45993,1.8221836528637997e-8,3.3237001029168784e-9,1.752603135889056e-9,5.979171274002759e-9,1.4714847213098553e-7,4.1447167966335735e-8,9.863919224407133e-9,1.4379278764617913e-9,0
45994,1.826681328741451e-8,3.3244557260853662e-9,1.7503660404211993e-9,5.979171274002759e-9,1.4726576779585606e-7,4.140849316692362e-8,9.888899829896535e-9,1.4420985009708304e-9,0
45995,1.8311790046191024e-8,3.3252113492538537e-9,1.7481289449533429e-9,5.979171274002759e-9,1.4738306346072659e-7,4.13698183675115e-8,9.91388043538594e-9,1.4462691254798697e-9,0
45996,1.8356766804967536e-8,3.3259669724223415e-9,1.7458918494854864e-9,5.979171274002759e-9,1.4750035912559711e-7,4.133114356809939e-8,9.938861040875343e-9,1.450439749988909e-9,0
45997,1.840174356374405e-8,3.3267225955908294e-9,1.74365475401763e-9,5.979171274002759e-9,1.4761765479046767e-7,4.129246876868727e-8,9.963841646364745e-9,1.4546103744979482e-9,0
45998,1.8446720322520563e-8,3.3274782187593173e-9,1.7414176585497736e-9,5.979171274002759e-9,1.477349504553382e-7,4.125379396927515e-8,9.988822251854148e-9,1.4587809990069876e-9,0
45999,1.8491697081297078e-8,3.328233841927805e-9,1.7391805630819172e-9,5.979171274002759e-9,1.4785224612020873e-7,4.121511916986304e-8,1.0013802857343553e-8,1.462951623516027e-9,0
46000,1.853667384007359e-8,3.328989465096293e-9,1.7369434676140608e-9,5.979171274002759e-9,1.4796954178507926e-7,4.117644437045092e-8,1.0038783462832956e-8,1.467122248025066e-9,0
46001,1.8581650598850105e-8,3.329745088264781e-9,1.7347063721462041e-9,5.979171274002759e-9,1.480868374499498e-7,4.1137769571038806e-8,1.0063764068322358e-8,1.4712928725341054e-9,0
46002,1.8626627357626617e-8,3.3305007114332688e-9,1.7324692766783477e-9,5.979171274002759e-9,1.4820413311482032e-7,4.1099094771626686e-8,1.0088744673811761e-8,1.4754634970431447e-9,0
46003,1.8671604116403132e-8,3.3312563346017566e-9,1.7302321812104913e-9,5.979171274002759e-9,1.4832142877969088e-7,4.106041997221457e-8,1.0113725279301166e-8,1.4796341215521839e-9,0
46004,1.8716580875179644e-8,3.332011957770244e-9,1.7279950857426348e-9,5.979171274002759e-9,1.484387244445614e-7,4.1021745172802453e-8,1.0138705884790568e-8,1.4838047460612232e-9,0
46005,1.8737691247649014e-8,3.33571513868591e-9,1.7279950857426348e-9,5.976472053162052e-9,1.4854294434058418e-7,4.09760836511476e-8,1.0138483083339934e-8,1.483976736513218e-9,0
46006,1.8748100672655408e-8,3.344480785700419e-9,1.7297577399585342e-9,5.973772832321345e-9,1.4838737487412768e-7,4.092371039523902e-8,1.0138483083339934e-8,1.4838133551806118e-9,0
46007,1.8758510097661802e-8,3.3532464327149277e-9,1.7315203941744335e-9,5.971073611480639e-9,1.4823180540767114e-7,4.0871337139330455e-8,1.0138483083339934e-8,1.4836499738480058e-9,0
46008,1.8768919522668193e-8,3.362012079729437e-9,1.733283048390333e-9,5.968374390639932e-9,1.480762359412146e-7,4.081896388342188e-8,1.0138483083339934e-8,1.4834865925153997e-9,0
46009,1.8779328947674587e-8,3.3707777267439456e-9,1.7350457026062323e-9,5.965675169799225e-9,1.479206664747581e-7,4.0766590627513307e-8,1.0138483083339934e-8,1.4833232111827937e-9,0
46010,1.878973837268098e-8,3.3795433737584548e-9,1.7368083568221316e-9,5.962975948958518e-9,1.4776509700830157e-7,4.071421737160473e-8,1.0138483083339934e-8,1.4831598298501874e-9,0
46011,1.8800147797687372e-8,3.3883090207729635e-9,1.7385710110380309e-9,5.960276728117812e-9,1.4760952754184506e-7,4.0661844115696164e-8,1.0138483083339934e-8,1.4829964485175813e-9,0
46012,1.8810557222693766e-8,3.3970746677874727e-9,1.7403336652539304e-9,5.957577507277105e-9,1.4745395807538852e-7,4.060947085978759e-8,1.0138483083339934e-8,1.4828330671849753e-9,0
46013,1.8820966647700157e-8,3.4058403148019814e-9,1.7420963194698297e-9,5.954878286436398e-9,1.47298388608932e-7,4.0557097603879016e-8,1.0138483083339934e-8,1.482669685852369e-9,0
46014,1.883137607270655e-8,3.4146059618164905e-9,1.743858973685729e-9,5.9521790655956915e-9,1.4714281914247548e-7,4.050472434797044e-8,1.0138483083339934e-8,1.482506304519763e-9,0
46015,1.885484205698821e-8,3.4196684279153335e-9,1.7356562903035887e-9,5.856988680298612e-9,1.456847644155871e-7,3.9502251475393605e-8,1.0122958385903697e-8,1.4788602604860967e-9,0
46016,1.887388834010188e-8,3.424670946072758e-9,1.7356562903035887e-9,5.855379270807028e-9,1.4539145607655735e-7,3.950282760262144e-8,1.0122130530903979e-8,1.4780347447036775e-9,0
46017,1.8897082703267964e-8,3.433436593087267e-9,1.7334337819548821e-9,5.855379270807028e-9,1.453212620754701e-7,3.950282760262144e-8,1.011625179392937e-8,1.4772092289212582e-9,0
46018,1.892027706643405e-8,3.442202240101776e-9,1.7312112736061757e-9,5.855379270807028e-9,1.4525106807438285e-7,3.950282760262144e-8,1.0110373056954762e-8,1.476383713138839e-9,0
46019,1.8943471429600133e-8,3.450967887116285e-9,1.728988765257469e-9,5.855379270807028e-9,1.4518087407329561e-7,3.950282760262144e-8,1.0104494319980153e-8,1.47555819735642e-9,0
46020,1.896666579276622e-8,3.4597335341307938e-9,1.7267662569087627e-9,5.855379270807028e-9,1.4511068007220838e-7,3.950282760262144e-8,1.0098615583005546e-8,1.4747326815740007e-9,0
46021,1.903229397357692e-8,3.4617435335849767e-9,1.7207909442483788e-9,5.863338475657085e-9,1.4504002474148204e-7,3.950282760262144e-8,1.009483815893164e-8,1.4750766624779902e-9,0
46022,1.9043177563927587e-8,3.461486663533696e-9,1.7155710548233803e-9,5.8627727249572696e-9,1.4519496934901637e-7,3.9525082236221036e-8,1.0119203510285078e-8,1.4754206433819796e-9,0
46023,1.9045444197511992e-8,3.4970500960091894e-9,1.7155710548233803e-9,5.869097212783643e-9,1.4563809890586665e-7,3.975526569683511e-8,1.01429842092632e-8,1.4765815309489998e-9,0
46024,1.9047710831096393e-8,3.5326135284846834e-9,1.7155710548233803e-9,5.875421700610016e-9,1.4608122846271692e-7,3.998544915744919e-8,1.0166764908241322e-8,1.47774241851602e-9,0
46025,1.9049977464680797e-8,3.568176960960177e-9,1.7155710548233803e-9,5.881746188436389e-9,1.465243580195672e-7,4.021563261806327e-8,1.0190545607219443e-8,1.4789033060830398e-9,0
46026,1.9052244098265198e-8,3.6037403934356708e-9,1.7155710548233803e-9,5.8880706762627625e-9,1.4696748757641748e-7,4.044581607867735e-8,1.0214326306197566e-8,1.48006419365006e-9,0
46027,1.9054510731849602e-8,3.6393038259111643e-9,1.7155710548233803e-9,5.894395164089136e-9,1.4741061713326775e-7,4.067599953929143e-8,1.0238107005175687e-8,1.4812250812170801e-9,0
46028,1.903358300226792e-8,3.6391239820869077e-9,1.7128011696269671e-9,5.902169758709776e-9,1.478701030252883e-7,4.0790696041841674e-8,1.0263892917209521e-8,1.4820419878801106e-9,0
46029,1.901265527268624e-8,3.6389441382626516e-9,1.7100312844305537e-9,5.909944353330415e-9,1.4832958891730883e-7,4.090539254439192e-8,1.0289678829243354e-8,1.4828588945431412e-9,0
46030,1.8991727543104557e-8,3.638764294438395e-9,1.7072613992341405e-9,5.917718947951056e-9,1.4878907480932934e-7,4.102008904694217e-8,1.0315464741277189e-8,1.4836758012061717e-9,0
46031,1.8970799813522875e-8,3.638584450614139e-9,1.7044915140377274e-9,5.925493542571696e-9,1.4924856070134988e-7,4.113478554949241e-8,1.0341250653311021e-8,1.4844927078692024e-9,0
46032,1.8949872083941193e-8,3.6384046067898823e-9,1.701721628841314e-9,5.933268137192335e-9,1.4970804659337042e-7,4.124948205204266e-8,1.0367036565344854e-8,1.4853096145322328e-9,0
46033,1.892894435435951e-8,3.638224762965626e-9,1.6989517436449008e-9,5.9410427318129755e-9,1.5016753248539093e-7,4.1364178554592906e-8,1.0392822477378689e-8,1.4861265211952635e-9,0
46034,1.890801662477783e-8,3.6380449191413695e-9,1.6961818584484874e-9,5.948817326433615e-9,1.5062701837741147e-7,4.147887505714315e-8,1.0418608389412521e-8,1.486943427858294e-9,0
46035,1.8884550640496168e-8,3.6223117154713175e-9,1.6911894649033678e-9,5.951084791739724e-9,1.5070441379290544e-7,4.138111526756875e-8,1.041451206404299e-8,1.4859373125044913e-9,0
46036,1.9286915625172296e-8,3.618351664504371e-9,1.683219139774156e-9,5.956252470634366e-9,1.5089055530595518e-7,4.137842806670615e-8,1.0417664033394045e-8,1.4859373125044913e-9,0
46037,1.9689280609848424e-8,3.6143916135374246e-9,1.675248814644944e-9,5.961420149529008e-9,1.510766968190049e-7,4.137574086584356e-8,1.04208160027451e-8,1.4859373125044913e-9,0
46038,2.0091645594524552e-8,3.610431562570478e-9,1.6672784895157324e-9,5.9665878284236496e-9,1.5126283833205464e-7,4.137305366498097e-8,1.0423967972096157e-8,1.4859373125044913e-9,0
46039,2.0494010579200677e-8,3.6064715116035316e-9,1.6593081643865206e-9,5.971755507318291e-9,1.5144897984510438e-7,4.137036646411838e-8,1.0427119941447211e-8,1.4859373125044913e-9,0
46040,2.0896375563876806e-8,3.602511460636585e-9,1.6513378392573088e-9,5.976923186212933e-9,1.516351213581541e-7,4.1367679263255786e-8,1.0430271910798266e-8,1.4859373125044913e-9,0
46041,2.1298740548552934e-8,3.598551409669639e-9,1.6433675141280971e-9,5.982090865107575e-9,1.5182126287120384e-7,4.13649920623932e-8,1.043342388014932e-8,1.4859373125044913e-9,0
46042,2.13023453863742e-8,3.5986113576110574e-9,1.6346563528826499e-9,5.9948782984323845e-9,1.5200438011217503e-7,4.14077729479089e-8,1.043270232558148e-8,1.485447168506673e-9,0
46043,2.1305950224195463e-8,3.5986713055524763e-9,1.6259451916372024e-9,6.007665731757194e-9,1.5218749735314618e-7,4.145055383342461e-8,1.0431980771013638e-8,1.4849570245088546e-9,0
46044,2.130955506201673e-8,3.598731253493895e-9,1.6172340303917552e-9,6.020453165082004e-9,1.5237061459411736e-7,4.149333471894032e-8,1.0431259216445796e-8,1.4844668805110364e-9,0
46045,2.1313159899837992e-8,3.598791201435314e-9,1.608522869146308e-9,6.033240598406813e-9,1.5255373183508852e-7,4.153611560445602e-8,1.0430537661877955e-8,1.483976736513218e-9,0
46046,2.1316764737659258e-8,3.598851149376733e-9,1.5998117079008607e-9,6.0460280317316226e-9,1.527368490760597e-7,4.1578896489971725e-8,1.0429816107310113e-8,1.4834865925153997e-9,0
46047,2.1320369575480524e-8,3.5989110973181517e-9,1.5911005466554135e-9,6.058815465056432e-9,1.5291996631703088e-7,4.1621677375487436e-8,1.0429094552742272e-8,1.4829964485175813e-9,0
46048,2.1323974413301787e-8,3.5989710452595706e-9,1.5823893854099662e-9,6.071602898381242e-9,1.5310308355800204e-7,4.166445826100314e-8,1.042837299817443e-8,1.482506304519763e-9,0
46049,2.1327579251123053e-8,3.5990309932009894e-9,1.5736782241645188e-9,6.084390331706051e-9,1.5328620079897322e-7,4.170723914651885e-8,1.0427651443606588e-8,1.4820161605219446e-9,0
46050,2.1304912915279027e-8,3.602068472860295e-9,1.5736830865375688e-9,6.09411824874501e-9,1.5331170797227303e-7,4.173552168318208e-8,1.0427651443606588e-8,1.4821881509739395e-9,0
46051,2.1298364734300383e-8,3.6058465887027345e-9,1.5729325256752334e-9,6.1046382167637105e-9,1.5347552761821949e-7,4.174204416076108e-8,1.0426823588606872e-8,1.4813540260721316e-9,0
46052,2.1301969572121646e-8,3.605906536644153e-9,1.5572436831619384e-9,6.0480572767462406e-9,1.5230311440368108e-7,4.081630607272534e-8,1.0346726737013415e-8,1.4797029945072931e-9,0
46053,2.1305574409942912e-8,3.605966484585572e-9,1.5415548406486434e-9,5.991476336728771e-9,1.5113070118914267e-7,3.989056798468959e-8,1.0266629885419957e-8,1.4780519629424549e-9,0
46054,2.1309179247764178e-8,3.6060264325269907e-9,1.5258659981353482e-9,5.934895396711301e-9,1.4995828797460424e-7,3.896482989665385e-8,1.0186533033826501e-8,1.4764009313776164e-9,0
46055,2.131278408558544e-8,3.6060863804684095e-9,1.5101771556220532e-9,5.87831445669383e-9,1.4878587476006584e-7,3.803909180861811e-8,1.0106436182233044e-8,1.474749899812778e-9,0
46056,2.1316388923406707e-8,3.6061463284098284e-9,1.4944883131087581e-9,5.82173351667636e-9,1.476134615455274e-7,3.711335372058236e-8,1.0026339330639588e-8,1.4730988682479396e-9,0
46057,2.1433916702611787e-8,3.6061463284098284e-9,1.480784758318191e-9,5.7538152501283474e-9,1.4638900472477964e-7,3.6144563937643734e-8,9.946964033613971e-9,1.4719379806809194e-09,0
46058,2.1515253263398546e-8,3.6062062763512472e-9,1.4688438577435234e-9,5.6885962044210405e-9,1.4520217892869102e-7,3.5225847080304204e-8,9.875462486031792e-9,1.4766159674265543e-9,0
46059,2.1596589824185308e-8,3.606266224292666e-9,1.4569029571688556e-9,5.623377158713734e-9,1.440153531326024e-7,3.430713022296467e-8,9.803960938449613e-9,1.4812939541721894e-9,0
46060,2.1677926384972068e-8,3.6063261722340845e-9,1.4449620565941879e-9,5.558158113006428e-9,1.4282852733651374e-7,3.338841336562514e-8,9.732459390867435e-9,1.4859719409178242e-9,0
46061,2.1759262945758827e-8,3.6063861201755034e-9,1.4330211560195201e-9,5.492939067299121e-9,1.4164170154042512e-7,3.24696965082856e-8,9.660957843285256e-9,1.4906499276634591e-9,0
46062,2.184059950654559e-8,3.6064460681169223e-9,1.4210802554448526e-9,5.427720021591815e-9,1.404548757443365e-7,3.155097965094607e-8,9.589456295703077e-9,1.495327914409094e-9,0
46063,2.192193606733235e-8,3.606506016058341e-9,1.4091393548701848e-9,5.362500975884509e-9,1.3926804994824787e-7,3.063226279360653e-8,9.517954748120898e-9,1.500005901154729e-9,0
46064,2.200327262811911e-8,3.60656596399976e-9,1.397198454295517e-9,5.297281930177203e-9,1.3808122415215925e-7,2.9713545936267e-8,9.446453200538719e-9,1.504683887900364e-9,0
46065,2.208460918890587e-8,3.606625911941179e-9,1.3852575537208493e-9,5.232062884469896e-9,1.368943983560706e-7,2.8794829078927466e-8,9.37495165295654e-9,1.5093618746459988e-9,0
46066,2.2165945749692633e-8,3.6066858598825977e-9,1.3733166531461816e-9,5.16684383876259e-9,1.3570757255998197e-7,2.787611222158793e-8,9.303450105374361e-9,1.5140398613916336e-9,0
46067,2.2247282310479392e-8,3.6067458078240165e-9,1.3613757525715139e-9,5.101624793055284e-9,1.3452074676389335e-7,2.6957395364248395e-8,9.231948557792183e-9,1.5187178481372685e-9,0
46068,2.2328618871266155e-8,3.606805755765435e-9,1.3494348519968461e-9,5.036405747347978e-9,1.3333392096780473e-7,2.603867850690886e-8,9.160447010210004e-9,1.5233958348829036e-9,0
46069,2.2409955432052914e-8,3.606865703706854e-9,1.3374939514221786e-9,4.971186701640671e-9,1.321470951717161e-7,2.5119961649569328e-8,9.088945462627825e-9,1.5280738216285384e-9,0
46070,2.2491291992839676e-8,3.6069256516482727e-9,1.3255530508475108e-9,4.905967655933365e-9,1.3096026937562745e-7,2.4201244792229794e-8,9.017443915045644e-9,1.5327518083741733e-9,0
46071,2.2572628553626435e-8,3.6069855995896915e-9,1.313612150272843e-9,4.840748610226059e-9,1.2977344357953883e-7,2.328252793489026e-8,8.945942367463465e-9,1.5374297951198082e-9,0
46072,2.2653965114413198e-8,3.6070455475311104e-9,1.3016712496981753e-9,4.775529564518752e-9,1.285866177834502e-7,2.2363811077550724e-8,8.874440819881286e-9,1.5421077818654432e-9,0
46073,2.2470517631940833e-8,3.598793640619163e-9,1.3016712496981753e-9,4.7787945360592745e-9,1.2876075746831164e-7,2.2413613193762642e-8,8.87937520083742e-9,1.5484368001759164e-9,0
46074,2.253444232273929e-8,3.60180114630776e-9,1.3046686307744672e-9,4.7787945360592745e-9,1.2878808637206046e-7,2.2380540739805736e-8,8.838943449301482e-9,1.5547658184863897e-9,0
46075,2.2626321775874272e-8,3.6048386259670657e-9,1.3084214350861444e-9,4.770156430369438e-9,1.2856182006876554e-7,2.2356484529013865e-8,8.841660016338152e-9,1.5602607118950553e-9,0
46076,2.2718201229009254e-8,3.607876105626372e-9,1.312174239397822e-9,4.761518324679602e-9,1.2833555376547062e-7,2.2332428318221995e-8,8.844376583374822e-9,1.5657556053037206e-9,0
46077,2.2810080682144232e-8,3.6109135852856776e-9,1.3159270437094992e-9,4.752880218989766e-9,1.281092874621757e-7,2.2308372107430128e-8,8.847093150411491e-9,1.5712504987123861e-9,0
46078,2.2901960135279214e-8,3.613951064944984e-9,1.3196798480211764e-9,4.74424211329993e-9,1.2788302115888078e-7,2.2284315896638258e-8,8.849809717448161e-9,1.5767453921210517e-9,0
46079,2.293290272988706e-8,3.621991062761714e-9,1.3196798480211764e-9,4.734514196260971e-9,1.2770148885958813e-7,2.2207348989765298e-8,8.844652535041395e-9,1.5764014112170622e-9,0
46080,2.2963845324494904e-8,3.630031060578445e-9,1.3196798480211764e-9,4.724786279222012e-9,1.2751995656029548e-7,2.2130382082892338e-8,8.839495352634627e-9,1.5760574303130725e-9,0
46081,2.2976289564652147e-8,3.6330685402377506e-9,1.319432902649098e-9,4.711613242919959e-9,1.2730810283855078e-7,2.2053376488964066e-8,8.833393814209385e-9,1.575713449409083e-9,0
46082,2.298873380480939e-8,3.6361060198970568e-9,1.3191859572770195e-9,4.6984402066179055e-9,1.2709624911680607e-7,2.1976370895035793e-8,8.827292275784143e-9,1.5753694685050936e-9,0
46083,2.3001178044966632e-8,3.6391434995563626e-9,1.318939011904941e-9,4.685267170315852e-9,1.2688439539506137e-7,2.1899365301107524e-8,8.821190737358899e-9,1.575025487601104e-9,0
46084,2.3013622285123875e-8,3.6421809792156687e-9,1.3186920665328624e-9,4.672094134013799e-9,1.2667254167331667e-7,2.1822359707179252e-8,8.815089198933657e-9,1.5746815066971144e-9,0
46085,2.3023345627693452e-8,3.6452184588749745e-9,1.318440258787734e-9,4.671980983873836e-9,1.2685447996076567e-7,2.181464628808928e-8,8.808721909428724e-9,1.5755070224795337e-9,0
46086,2.303306897026303e-8,3.6482559385342807e-9,1.3181884510426054e-9,4.6718678337338726e-9,1.270364182482147e-7,2.1806932868999307e-8,8.802354619923792e-9,1.576332538261953e-9,0
46087,2.3042792312832607e-8,3.651293418193587e-9,1.317936643297477e-9,4.67175468359391e-9,1.272183565356637e-7,2.1799219449909335e-8,8.795987330418861e-9,1.5771580540443722e-9,0
46088,2.305251565540218e-8,3.6543308978528927e-9,1.3176848355523485e-9,4.671641533453946e-9,1.2740029482311273e-7,2.1791506030819362e-8,8.789620040913929e-9,1.5779835698267912e-9,0
46089,2.3062238997971758e-8,3.657368377512199e-9,1.31743302780722e-9,4.6715283833139834e-9,1.2758223311056176e-7,2.178379261172939e-8,8.783252751408998e-9,1.5788090856092105e-9,0
46090,2.3071962340541335e-8,3.6604058571715046e-9,1.3171812200620915e-9,4.67141523317402e-9,1.2776417139801077e-7,2.1776079192639417e-8,8.776885461904066e-9,1.5796346013916297e-9,0
46091,2.3112425733490052e-8,3.668355933076107e-9,1.320929162000719e-9,4.673955151317409e-9,1.2776299244448861e-7,2.1771513040473932e-8,8.772842286750472e-9,1.5839686072332751e-9,0
46092,2.3152889126438772e-8,3.6763060089807095e-9,1.3246771039393463e-9,4.6764950694607985e-9,1.2776181349096646e-7,2.1766946888308444e-8,8.76879911159688e-9,1.5883026130749205e-9,0
46093,2.3183629176817915e-8,3.6790416576326704e-9,1.3264251710360958e-9,4.6746132071319335e-9,1.2776724851640696e-7,2.1747263394405507e-8,8.768958562244692e-9,1.592636618916566e-9,0
46094,2.318716025132039e-8,3.6757023469660193e-9,1.3294225521123876e-9,4.64559322121922e-9,1.2711498603943175e-7,2.1673405067401722e-8,8.770338320577554e-9,1.5969706247582113e-9,0
46095,2.319069132582286e-8,3.6723630362993687e-9,1.3324199331886795e-9,4.616573235306507e-9,1.2646272356245655e-7,2.1599546740397937e-8,8.771718078910415e-9,1.6013046305998567e-9,0
46096,2.319422240032533e-8,3.6690237256327176e-9,1.3354173142649713e-9,4.5875532493937926e-9,1.2581046108548134e-7,2.1525688413394152e-8,8.773097837243278e-9,1.605638636441502e-9,0
46097,2.316200599193558e-8,3.6590186893178686e-9,1.3503944949003307e-9,4.557150154269421e-9,1.2512629224437558e-7,2.149356642141267e-8,8.784186906840591e-9,1.6081410111469256e-9,0
46098,2.3313335417109913e-8,3.6477592767173246e-9,1.3496439340379953e-9,4.5258627030505995e-9,1.244685947419599e-7,2.1444417806539204e-8,8.783242550822114e-9,1.610127414496365e-9,0
46099,2.346466484228425e-8,3.636499864116781e-9,1.3488933731756597e-9,4.494575251831777e-9,1.238108972395442e-7,2.1395269191665742e-8,8.782298194803638e-9,1.6121138178458041e-9,0
46100,2.3615994267458587e-8,3.625240451516237e-9,1.3481428123133243e-9,4.463287800612955e-9,1.2315319973712851e-7,2.134612057679228e-8,8.781353838785162e-9,1.6141002211952435e-9,0
46101,2.3767323692632924e-8,3.6139810389156932e-9,1.3473922514509889e-9,4.432000349394133e-9,1.224955022347128e-7,2.1296971961918815e-8,8.780409482766686e-9,1.6160866245446827e-9,0
46102,2.391865311780726e-8,3.602721626315149e-9,1.3466416905886535e-9,4.40071289817531e-9,1.2183780473229713e-7,2.1247823347045352e-8,8.77946512674821e-9,1.618073027894122e-9,0
46103,2.4069982542981598e-8,3.5914622137146055e-9,1.3458911297263178e-9,4.369425446956488e-9,1.2118010722988143e-7,2.119867473217189e-8,8.778520770729732e-9,1.6200594312435612e-9,0
46104,2.4221311968155934e-8,3.5802028011140615e-9,1.3451405688639824e-9,4.338137995737666e-9,1.2052240972746572e-7,2.1149526117298425e-8,8.777576414711257e-9,1.6220458345930006e-9,0
46105,2.437264139333027e-8,3.5689433885135174e-9,1.344390008001647e-9,4.306850544518844e-9,1.1986471222505005e-7,2.1100377502424963e-8,8.77663205869278e-9,1.6240322379424398e-9,0
46106,2.452397081850461e-8,3.557683975912974e-9,1.3436394471393116e-9,4.275563093300022e-9,1.1920701472263435e-7,2.1051228887551497e-8,8.775687702674305e-9,1.6260186412918792e-9,0
46107,2.4675300243678945e-8,3.5464245633124298e-9,1.342888886276976e-9,4.2442756420812e-9,1.1854931722021866e-7,2.1002080272678035e-8,8.774743346655829e-9,1.6280050446413184e-9,0
46108,2.4538927569975566e-8,3.5471951734662723e-9,1.3309382609562084e-9,4.190594915652263e-9,1.175989419077982e-7,1.992974745523875e-8,8.726237592681109e-9,1.6299914479907577e-9,0
46109,2.4728799138948586e-8,3.5471951734662723e-9,1.3221979254724612e-9,4.18644558801729e-9,1.1685491044472574e-7,1.9862067600918006e-8,8.705798915462506e-9,1.6299914479907577e-9,0
46110,2.4920394099274863e-8,3.547965783620115e-9,1.3221979254724612e-9,4.18644558801729e-9,1.1675677243370423e-7,1.978437399719781e-8,8.680595508522467e-9,1.631642479555596e-9,0
46111,2.5111989059601136e-8,3.5487363937739575e-9,1.3221979254724612e-9,4.18644558801729e-9,1.1665863442268271e-7,1.9706680393477614e-8,8.65539210158243e-9,1.6332935111204345e-9,0
46112,2.5303584019927412e-8,3.5495070039278e-9,1.3221979254724612e-9,4.18644558801729e-9,1.1656049641166121e-7,1.9628986789757422e-8,8.630188694642392e-9,1.6349445426852728e-9,0
46113,2.5495178980253685e-8,3.5502776140816427e-9,1.3221979254724612e-9,4.18644558801729e-9,1.1646235840063969e-7,1.9551293186037226e-8,8.604985287702354e-9,1.6365955742501113e-9,0
46114,2.6256899084706738e-8,3.5500357310157162e-9,1.3221930630994114e-9,4.186059985040046e-9,1.163516767147318e-7,1.945648722811075e-8,8.583878206131847e-9,1.6374296991519191e-9,0
46115,2.6262340879882072e-8,3.555990794451491e-9,1.3378819056127064e-9,4.185674382062802e-9,1.1623440872060263e-7,1.9350936645335743e-8,8.560998913543148e-9,1.6374296991519191e-9,0
46116,2.6270390006644257e-8,3.5560057814368456e-9,1.3398817804545843e-9,4.185674382062802e-9,1.1628308149069376e-7,1.9245846128622638e-8,8.536846163053461e-9,1.6372577086999243e-9,0
46117,2.627843913340644e-8,3.5560207684222003e-9,1.341881655296462e-9,4.185674382062802e-9,1.163317542607849e-7,1.914075561190953e-8,8.512693412563775e-9,1.6370857182479297e-9,0
46118,2.6286488260168626e-8,3.556035755407555e-9,1.34388153013834e-9,4.185674382062802e-9,1.1638042703087602e-7,1.903566509519642e-8,8.48854066207409e-9,1.6369137277959348e-9,0
46119,2.6294537386930814e-8,3.5560507423929098e-9,1.345881404980218e-9,4.185674382062802e-9,1.1642909980096714e-7,1.8930574578483314e-8,8.464387911584403e-9,1.63674173734394e-9,0
46120,2.6302586513693e-8,3.556065729378264e-9,1.3478812798220958e-9,4.185674382062802e-9,1.1647777257105827e-7,1.8825484061770205e-8,8.440235161094717e-9,1.6365697468919454e-9,0
46121,2.6310635640455183e-8,3.5560807163636188e-9,1.3498811546639738e-9,4.185674382062802e-9,1.165264453411494e-7,1.8720393545057097e-8,8.416082410605032e-9,1.6363977564399505e-9,0
46122,2.6318684767217368e-8,3.5560957033489735e-9,1.3518810295058517e-9,4.185674382062802e-9,1.1657511811124052e-7,1.861530302834399e-8,8.391929660115345e-9,1.6362257659879557e-9,0
46123,2.6326733893979555e-8,3.5561106903343282e-9,1.3538809043477297e-9,4.185674382062802e-9,1.1662379088133166e-7,1.8510212511630882e-8,8.367776909625658e-9,1.636053775535961e-9,0
46124,2.633478302074174e-8,3.556125677319683e-9,1.3558807791896075e-9,4.185674382062802e-9,1.1667246365142278e-7,1.8405121994917773e-8,8.343624159135972e-9,1.6358817850839662e-9,0
46125,2.6342832147503925e-8,3.5561406643050376e-9,1.3578806540314854e-9,4.185674382062802e-9,1.1672113642151391e-7,1.8300031478204665e-8,8.319471408646287e-9,1.6357097946319716e-9,0
46126,2.635088127426611e-8,3.5561556512903924e-9,1.3598805288733634e-9,4.185674382062802e-9,1.1676980919160503e-7,1.819494096149156e-8,8.2953186581566e-9,1.6355378041799767e-9,0
46127,2.6358930401028297e-8,3.556170638275747e-9,1.3618804037152412e-9,4.185674382062802e-9,1.1681848196169616e-7,1.808985044477845e-8,8.271165907666914e-9,1.635365813727982e-9,0
46128,2.636697952779048e-8,3.5561856252611018e-9,1.3638802785571191e-9,4.185674382062802e-9,1.1686715473178729e-7,1.798475992806534e-8,8.247013157177227e-9,1.6351938232759873e-9,0
46129,2.6371695437846976e-8,3.5442754983895533e-9,1.3599097031116632e-9,4.1842242752685355e-9,1.1701890178522321e-7,1.795817544323397e-8,8.232316314740706e-9,1.6351938232759873e-9,0
46130,2.637913224549114e-8,3.5423104598914345e-9,1.3611687418373056e-9,4.1827741684742684e-9,1.1698865112709342e-7,1.7913751907349076e-8,8.233144169740424e-9,1.631711160574927e-9,0
46131,2.6380381471500117e-8,3.5386072789757688e-9,1.362418055816848e-9,4.166109860351766e-9,1.1706859156702222e-7,1.7751111346880605e-8,8.221789349063422e-9,1.6307050452211244e-9,0
46132,2.6381630697509092e-8,3.5349040980601034e-9,1.3636673697963905e-9,4.149445552229264e-9,1.1714853200695103e-7,1.758847078641214e-8,8.210434528386422e-9,1.6296989298673217e-9,0
46133,2.638287992351807e-8,3.5312009171444376e-9,1.3649166837759329e-9,4.132781244106762e-9,1.1722847244687983e-7,1.7425830225943672e-8,8.19907970770942e-9,1.628692814513519e-9,0
46134,2.638412914952705e-8,3.5274977362287723e-9,1.3661659977554754e-9,4.1161169359842595e-9,1.1730841288680861e-7,1.7263189665475205e-8,8.187724887032419e-9,1.6276866991597164e-9,0
46135,2.6385378375536027e-8,3.5237945553131065e-9,1.3674153117350178e-9,4.099452627861758e-9,1.1738835332673742e-7,1.7100549105006738e-8,8.176370066355417e-9,1.626680583805914e-9,0
46136,2.638402026995815e-8,3.5320015012689896e-9,1.3666598884996323e-9,4.082515866901975e-9,1.1748452807866542e-7,1.6938024605704205e-8,8.163964589228063e-9,1.6256744684521113e-9,0
46137,2.6386899222660577e-8,3.5440614979940853e-9,1.365909327637297e-9,4.070000886414446e-9,1.1750487443877334e-7,1.6827873362310243e-8,8.163964589228063e-9,1.628838977607348e-9,0
46138,2.6389778175363003e-8,3.5561214947191813e-9,1.3651587667749615e-9,4.057485905926917e-9,1.1752522079888125e-7,1.6717722118916284e-8,8.163964589228063e-9,1.6320034867625846e-9,0
46139,2.639265712806543e-8,3.568181491444277e-9,1.364408205912626e-9,4.044970925439388e-9,1.1754556715898915e-7,1.6607570875522322e-8,8.163964589228063e-9,1.6351679959178213e-9,0
46140,2.6395536080767855e-8,3.5802414881693726e-9,1.3636576450502905e-9,4.032455944951859e-9,1.1756591351909706e-7,1.6497419632128364e-8,8.163964589228063e-9,1.638332505073058e-9,0
46141,2.639841503347028e-8,3.5923014848944687e-9,1.362907084187955e-9,4.01994096446433e-9,1.1758625987920497e-7,1.63872683887344e-8,8.163964589228063e-9,1.6414970142282945e-9,0
46142,2.6404760670220223e-8,3.6060546630810472e-9,1.3609072093460771e-9,4.021822826793195e-9,1.1769979414264042e-7,1.6429976078741325e-8,8.170002776850486e-9,1.6433286453645164e-9,0
46143,2.592578440767767e-8,3.6060546630810472e-9,1.3611590170912056e-9,4.0114874690039115e-9,1.1746135839924016e-7,1.642365539364256e-8,8.166660755090966e-9,1.6473272794215609e-9,0
46144,2.5446808145135116e-8,3.6060546630810472e-9,1.361410824836334e-9,4.001152111214628e-9,1.172229226558399e-7,1.6417334708543793e-8,8.163318733331447e-9,1.6513259134786054e-9,0
46145,2.4967831882592563e-8,3.6060546630810472e-9,1.3616626325814625e-9,3.990816753425344e-9,1.1698448691243964e-7,1.6411014023445027e-8,8.159976711571927e-9,1.65532454753565e-9,0
46146,2.448885562005001e-8,3.6060546630810472e-9,1.361914440326591e-9,3.98048139563606e-9,1.1674605116903939e-7,1.6404693338346264e-8,8.156634689812408e-9,1.6593231815926944e-9,0
46147,2.4009879357507457e-8,3.6060546630810472e-9,1.3621662480717195e-9,3.970146037846777e-9,1.1650761542563913e-7,1.6398372653247497e-8,8.15329266805289e-9,1.663321815649739e-9,0
46148,2.3530903094964903e-8,3.6060546630810472e-9,1.362418055816848e-9,3.959810680057493e-9,1.1626917968223887e-7,1.639205196814873e-8,8.149950646293369e-9,1.6673204497067834e-9,0
46149,2.3053403190432962e-8,3.5989672105426667e-9,1.3646551512847046e-9,3.956206258097081e-9,1.1658062049814186e-7,1.6354877606690075e-8,8.134203147406497e-9,1.6694874526276062e-9,0
46150,2.2575903285901018e-8,3.591879758004286e-9,1.366892246752561e-9,3.952601836136668e-9,1.1689206131404487e-7,1.631770324523142e-8,8.118455648519625e-9,1.6716544555484288e-9,0
46151,2.2583725280661572e-8,3.6005704700920213e-9,1.368882396848339e-9,3.962597743506063e-9,1.1747170928383417e-7,1.6321495656290677e-8,8.112354110094382e-9,1.6741568302538525e-9,0
46152,2.2591547275422122e-8,3.609261182179757e-9,1.370872546944117e-9,3.972593650875457e-9,1.1805135725362349e-7,1.6325288067349937e-8,8.10625257166914e-9,1.676659204959276e-9,0
46153,2.2599369270182676e-8,3.6179518942674924e-9,1.3728626970398949e-9,3.9825895582448515e-9,1.1863100522341279e-7,1.6329080478409197e-8,8.100151033243896e-9,1.6791615796646995e-9,0
46154,2.260719126494323e-8,3.6266426063552276e-9,1.3748528471356728e-9,3.992585465614246e-9,1.192106531932021e-7,1.6332872889468458e-8,8.094049494818654e-9,1.6816639543701232e-9,0
46155,2.2605581439590793e-8,3.632672604717776e-9,1.37860565144735e-9,3.99823105260084e-9,1.1912912781159479e-7,1.6324811286880684e-8,8.096766061855323e-9,1.6818273357027292e-9,0
46156,2.2609048123638312e-8,3.633443214871618e-9,1.3806103886622779e-9,3.999614161812498e-9,1.1905836996317087e-7,1.630654667821874e-8,8.09171517988043e-9,1.682996832389138e-9,0
46157,2.2612514807685828e-8,3.6342138250254606e-9,1.3826151258772058e-9,4.000997271024156e-9,1.1898761211474696e-7,1.6288282069556798e-8,8.08666429790554e-9,1.6841663290755466e-9,0
46158,2.2615981491733347e-8,3.634984435179303e-9,1.3846198630921338e-9,4.0023803802358135e-9,1.1891685426632303e-7,1.6270017460894858e-8,8.081613415930648e-9,1.6853358257619554e-9,0
46159,2.2619448175780863e-8,3.6357550453331458e-9,1.3866246003070616e-9,4.003763489447471e-9,1.1884609641789912e-7,1.6251752852232915e-8,8.076562533955757e-9,1.686505322448364e-9,0
46160,2.2622914859828382e-8,3.6365256554869884e-9,1.3886293375219895e-9,4.005146598659128e-9,1.187753385694752e-7,1.6233488243570975e-8,8.071511651980866e-9,1.6876748191347728e-9,0
46161,2.2626381543875897e-8,3.637296265640831e-9,1.3906340747369173e-9,4.006529707870786e-9,1.1870458072105129e-7,1.6215223634909032e-8,8.066460770005975e-9,1.6888443158211815e-9,0
46162,2.2629848227923417e-8,3.6380668757946735e-9,1.3926388119518453e-9,4.007912817082444e-9,1.1863382287262736e-7,1.6196959026247092e-8,8.061409888031084e-9,1.6900138125075902e-9,0
46163,2.2633314911970936e-8,3.6388374859485157e-9,1.3946435491667733e-9,4.009295926294102e-9,1.1856306502420345e-7,1.617869441758515e-8,8.056359006056193e-9,1.6911833091939991e-9,0
46164,2.263678159601845e-8,3.6396080961023583e-9,1.396648286381701e-9,4.01067903550576e-9,1.1849230717577953e-7,1.6160429808923206e-8,8.051308124081302e-9,1.6923528058804079e-9,0
46165,2.264024828006597e-8,3.640378706256201e-9,1.398653023596629e-9,4.0120621447174176e-9,1.1842154932735562e-7,1.6142165200261266e-8,8.04625724210641e-9,1.6935223025668166e-9,0
46166,2.263011516260707e-8,3.63236868241018e-9,1.3999120623222714e-9,4.01471521300077e-9,1.1827172810953509e-7,1.6141627760088748e-8,8.043211573187231e-9,1.6935223025668166e-9,0
46167,2.2613449079078622e-8,3.627184229128248e-9,1.4019167995371991e-9,4.0160983222124275e-9,1.1819154521073303e-7,1.6138519180219572e-8,8.044262229637582e-9,1.6946917992532253e-9,0
46168,2.2613449079078622e-8,3.616029725425187e-9,1.4001881819326497e-9,3.9951759988218345e-9,1.1666444368290424e-7,1.608673040874251e-8,7.989601787021681e-9,1.6956979146070278e-9,0
46169,2.2613449079078622e-8,3.6048752217221262e-9,1.3984595643281002e-9,3.974253675431241e-9,1.1513734215507546e-7,1.6034941637265445e-8,7.93494134440578e-9,1.6967040299608304e-9,0
46170,2.2613449079078622e-8,3.593720718019065e-9,1.3967309467235507e-9,3.953331352040648e-9,1.1361024062724667e-7,1.598315286578838e-8,7.88028090178988e-9,1.697710145314633e-9,0
46171,2.2613449079078622e-8,3.582566214316004e-9,1.3950023291190012e-9,3.932409028650054e-9,1.1208313909941788e-7,1.5931364094311318e-8,7.82562045917398e-9,1.6987162606684358e-09,0
46172,2.2625512818551392e-8,3.571411710612943e-9,1.3910220289274453e-9,3.909219239953351e-9,1.1055259755861744e-7,1.5879575322834254e-8,7.7701853117743e-9,1.6985528793358295e-9,0
46173,2.304336957967912e-8,3.571516619510426e-9,1.3880343725972533e-9,3.909219239953351e-9,1.0942296892435846e-7,1.5835035725783427e-8,7.714697014158681e-9,1.6987248697878243e-9,0
46174,2.3461226340806846e-8,3.571621528407909e-9,1.3850467162670614e-9,3.909219239953351e-9,1.0829334029009949e-7,1.57904961287326e-8,7.659208716543064e-9,1.6988968602398192e-9,0
46175,2.3879083101934574e-8,3.571726437305392e-9,1.3820590599368694e-9,3.909219239953351e-9,1.071637116558405e-7,1.5745956531681774e-8,7.603720418927446e-9,1.6990688506918138e-9,0
46176,2.42969398630623e-8,3.5718313462028746e-9,1.3790714036066776e-9,3.909219239953351e-9,1.0603408302158153e-7,1.5701416934630947e-8,7.548232121311829e-9,1.6992408411438086e-9,0
46177,2.4714796624190025e-8,3.5719362551003576e-9,1.3760837472764857e-9,3.909219239953351e-9,1.0490445438732255e-7,1.565687733758012e-8,7.49274382369621e-9,1.6994128315958035e-9,0
46178,2.5132653385317752e-8,3.5720411639978406e-9,1.3730960909462937e-9,3.909219239953351e-9,1.0377482575306356e-7,1.561233774052929e-8,7.437255526080593e-9,1.6995848220477981e-9,0
46179,2.555051014644548e-8,3.5721460728953236e-9,1.3701084346161019e-9,3.909219239953351e-9,1.0264519711880459e-7,1.5567798143478464e-8,7.381767228464975e-9,1.699756812499793e-9,0
46180,2.5968366907573207e-8,3.572250981792806e-9,1.3671207782859098e-9,3.909219239953351e-9,1.0151556848454561e-7,1.5523258546427637e-8,7.326278930849357e-9,1.6999288029517878e-9,0
46181,2.6386223668700934e-8,3.572355890690289e-9,1.364133121955718e-9,3.909219239953351e-9,1.0038593985028664e-7,1.547871894937681e-8,7.270790633233739e-9,1.7001007934037824e-9,0
46182,2.680408042982866e-8,3.572460799587772e-9,1.3611454656255261e-9,3.909219239953351e-9,9.925631121602766e-8,1.5434179352325983e-8,7.215302335618122e-9,1.7002727838557773e-9,0
46183,2.7221937190956385e-8,3.572565708485255e-9,1.358157809295334e-9,3.909219239953351e-9,9.812668258176869e-8,1.5389639755275157e-8,7.159814038002504e-9,1.7004447743077719e-9,0
46184,2.7639793952084112e-8,3.5726706173827378e-9,1.3551701529651423e-9,3.909219239953351e-9,9.69970539475097e-8,1.534510015822433e-8,7.104325740386886e-9,1.7006167647597667e-9,0
46185,2.805765071321184e-8,3.5727755262802208e-9,1.3521824966349502e-9,3.909219239953351e-9,9.586742531325073e-8,1.5300560561173503e-8,7.048837442771268e-9,1.7007887552117616e-9,0
46186,2.8475507474339567e-8,3.5728804351777038e-9,1.3491948403047584e-9,3.909219239953351e-9,9.473779667899175e-8,1.5256020964122677e-8,6.9933491451556504e-9,1.7009607456637562e-9,0
46187,2.8708569175894227e-8,3.582930432448617e-9,1.3499405387940438e-9,3.915744720527551e-9,9.461208163524539e-8,1.51362344846787e-8,6.993295994939713e-9,1.6969621116067117e-9,0
46188,2.9125176711012976e-8,3.5861798212031397e-9,1.3506862372833294e-9,3.924449823799997e-9,9.497705664660659e-8,1.5049494307941836e-8,6.992468139939996e-9,1.6856799986017233e-9,0
46189,2.9547295118193933e-8,3.596229818474053e-9,1.3506765125372294e-9,3.938230300852375e-9,9.535460300359553e-8,1.5046540476293907e-8,6.972730616115468e-9,1.6840289670368848e-9,0
46190,2.996941352537489e-8,3.606279815744966e-9,1.3506667877911294e-9,3.952010777904753e-9,9.573214936058449e-8,1.5043586644645975e-8,6.952993092290939e-9,1.6823779354720465e-9,0
46191,3.039153193255585e-8,3.6163298130158793e-9,1.3506570630450296e-9,3.9657912549571315e-9,9.610969571757345e-8,1.5040632812998042e-8,6.9332555684664105e-9,1.680726903907208e-9,0
46192,3.054813572492692e-8,3.6163298130158793e-9,1.3499016398096442e-9,3.956721393732697e-9,9.608094540142923e-8,1.5030429806923877e-8,6.9154599068947725e-9,1.6799099972441775e-9,0
46193,3.0547320861580194e-8,3.6300080562756842e-9,1.3551215292346424e-9,3.94876218888264e-9,9.605061014360649e-8,1.5020648179856292e-8,6.895775533286182e-9,1.6779235938947381e-9,0
46194,3.0552831733642405e-8,3.6287686669753443e-9,1.3581189103109343e-9,3.967643347247051e-9,9.690294588006908e-8,1.5256588734146828e-8,6.881916746436262e-9,1.6795832345789652e-9,0
46195,3.055834260570461e-8,3.627529277675004e-9,1.3611162913872261e-9,3.986524505611463e-9,9.775528161653165e-8,1.549252928843736e-8,6.868057959586342e-9,1.6812428752631923e-9,0
46196,3.056385347776682e-8,3.626289888374664e-9,1.3641136724635182e-9,4.005405663975874e-9,9.860761735299424e-8,1.5728469842727897e-8,6.854199172736422e-9,1.6829025159474194e-9,0
46197,3.0569364349829025e-8,3.625050499074324e-9,1.36711105353981e-9,4.024286822340285e-9,9.945995308945681e-8,1.596441039701843e-8,6.840340385886502e-9,1.6845621566316464e-9,0
46198,3.0574875221891236e-8,3.623811109773984e-9,1.3701084346161019e-9,4.043167980704696e-9,1.0031228882591938e-7,1.6200350951308965e-8,6.826481599036582e-9,1.6862217973158735e-9,0
46199,3.058038609395344e-8,3.6225717204736437e-9,1.3731058156923937e-9,4.062049139069108e-9,1.0116462456238197e-7,1.6436291505599498e-8,6.812622812186662e-9,1.6878814380001006e-9,0
46200,3.058589696601565e-8,3.6213323311733038e-9,1.3761031967686855e-9,4.080930297433519e-9,1.0201696029884455e-7,1.6672232059890033e-8,6.798764025336742e-9,1.6895410786843277e-9,0
46201,3.0591407838077857e-8,3.6200929418729635e-9,1.3791005778449774e-9,4.09981145579793e-9,1.0286929603530713e-7,1.6908172614180566e-8,6.784905238486822e-9,1.6912007193685547e-9,0
46202,3.059691871014007e-8,3.6188535525726236e-9,1.3820979589212692e-9,4.118692614162341e-9,1.0372163177176971e-7,1.7144113168471102e-8,6.771046451636902e-9,1.6928603600527816e-9,0
46203,3.060242958220227e-8,3.6176141632722833e-9,1.385095339997561e-9,4.137573772526753e-9,1.0457396750823228e-7,1.7380053722761638e-8,6.757187664786982e-9,1.6945200007370087e-9,0
46204,3.0607940454264484e-8,3.6163747739719434e-9,1.3880927210738531e-9,4.156454930891164e-9,1.0542630324469487e-7,1.761599427705217e-8,6.743328877937062e-9,1.6961796414212358e-9,0
46205,3.0613451326326695e-8,3.615135384671603e-9,1.391090102150145e-9,4.1753360892555754e-9,1.0627863898115744e-7,1.7851934831342706e-8,6.729470091087142e-9,1.6978392821054628e-9,0
46206,3.06189621983889e-8,3.6138959953712632e-9,1.3940874832264368e-9,4.194217247619986e-9,1.0713097471762003e-7,1.808787538563324e-8,6.715611304237222e-9,1.69949892278969e-9,0
46207,3.062322384444213e-8,3.6179459682503376e-9,1.3953222100868294e-9,4.184422332998419e-9,1.0746901706065205e-7,1.808492155398531e-8,6.697815642665584e-9,1.6975125194402507e-9,0
46208,3.062748549049536e-8,3.6219959411294124e-9,1.396556936947222e-9,4.174627418376851e-9,1.0780705940368407e-7,1.8081967722337378e-8,6.680019981093946e-9,1.6955261160908113e-9,0
46209,3.063095217454288e-8,3.6272553293381176e-9,1.392547462517366e-9,4.1677118723185626e-9,1.0817818706436881e-7,1.8079013890689446e-8,6.681240288778994e-9,1.6953627347582053e-9,0
46210,3.0634418858590397e-8,3.6325147175468233e-9,1.3885379880875102e-9,4.160796326260273e-9,1.0854931472505353e-7,1.8076060059041517e-8,6.682460596464042e-9,1.6951993534255992e-9,0
46211,3.0617752775061944e-8,3.6348265480083506e-9,1.3867947833638107e-9,4.1204226312986074e-9,1.0886021936436122e-7,1.7968948378609788e-8,6.683574603717215e-9,1.69437383764318e-9,0
46212,3.060108669153349e-8,3.6371383784698783e-9,1.3850515786401115e-9,4.0800489363369415e-9,1.0917112400366892e-7,1.7861836698178063e-8,6.6846886109703885e-9,1.6935483218607607e-9,0
46213,3.0712550983581376e-8,3.639375274004632e-9,1.3833229610355618e-9,4.05284827767733e-9,1.0919481761178764e-7,1.7775294135319595e-8,6.687734279889568e-9,1.6927228060783415e-9,0
46214,3.082401527562925e-8,3.6416121695393863e-9,1.3815943434310123e-9,4.025647619017717e-9,1.0921851121990636e-7,1.7688751572461127e-8,6.690779948808748e-9,1.6918972902959223e-9,0
46215,3.0935479567677136e-8,3.6438490650741405e-9,1.3798657258264628e-9,3.998446960358104e-9,1.0924220482802508e-7,1.760220900960266e-8,6.693825617727927e-9,1.6910717745135032e-9,0
46216,3.104694385972501e-8,3.6460859606088946e-9,1.3781371082219133e-9,3.971246301698492e-9,1.0926589843614381e-7,1.751566644674419e-8,6.696871286647107e-9,1.690246258731084e-9,0
46217,3.1158408151772897e-8,3.6483228561436484e-9,1.3764084906173639e-9,3.944045643038879e-9,1.0928959204426254e-7,1.7429123883885722e-8,6.6999169555662865e-9,1.6894207429486647e-9,0
46218,3.126987244382078e-8,3.6505597516784026e-9,1.3746798730128142e-9,3.916844984379267e-9,1.0931328565238125e-7,1.7342581321027254e-8,6.702962624485467e-9,1.6885952271662455e-9,0
46219,3.138133673586866e-8,3.6527966472131568e-9,1.3729512554082647e-9,3.8896443257196545e-9,1.0933697926049998e-7,1.725603875816879e-8,6.7060082934046466e-9,1.6877697113838262e-9,0
46220,3.149280102791654e-8,3.655033542747911e-9,1.3712226378037152e-9,3.862443667060042e-9,1.093606728686187e-7,1.7169496195310322e-8,6.709053962323826e-9,1.6869441956014072e-9,0
46221,3.160426531996442e-8,3.6572704382826647e-9,1.3694940201991658e-9,3.835243008400429e-9,1.0938436647673742e-7,1.7082953632451854e-8,6.712099631243006e-9,1.686118679818988e-9,0
46222,3.17157296120123e-8,3.659507333817419e-9,1.3677654025946163e-9,3.8080423497408165e-9,1.0940806008485615e-7,1.6996411069593386e-8,6.715145300162185e-9,1.6852931640365687e-9,0
46223,3.1848121633641866e-8,3.659507333817419e-9,1.3660173354978668e-9,3.811420471421303e-9,1.0949242420862034e-7,1.700596475293094e-8,6.712874336026785e-9,1.6849577922519678e-9,0
46224,3.19830519099714e-8,3.6297041339680884e-9,1.3592768748559975e-9,3.820058577111139e-9,1.0949242420862034e-7,1.7026108312895778e-08,6.547701154973165e-9,1.683788295565559e-9,0
46225,3.2117982186300944e-8,3.5999009341187582e-9,1.3525364142141284e-9,3.828696682800975e-9,1.0949242420862034e-7,1.7046251872860613e-8,6.382527973919546e-9,1.6826187988791504e-9,0
46226,3.2252912462630486e-8,3.5700977342694277e-9,1.345795953572259e-9,3.8373347884908115e-9,1.0949242420862034e-7,1.7066395432825447e-8,6.217354792865926e-9,1.6814493021927417e-9,0
46227,3.238784273896002e-8,3.540294534420097e-9,1.3390554929303898e-9,3.845972894180648e-9,1.0949242420862034e-7,1.7086538992790285e-8,6.052181611812307e-9,1.680279805506333e-9,0
46228,3.2522773015289563e-8,3.510491334570767e-9,1.3323150322885207e-9,3.854610999870484e-9,1.0949242420862034e-7,1.710668255275512e-8,5.887008430758688e-9,1.6791103088199242e-9,0
46229,3.2657703291619105e-8,3.4806881347214366e-9,1.3255745716466514e-9,3.86324910556032e-9,1.0949242420862034e-7,1.7126826112719954e-8,5.721835249705068e-9,1.6779408121335155e-9,0
46230,3.2668858503085346e-8,3.4457004815901744e-9,1.3165824284177758e-9,3.859984134019797e-9,1.0942560512628528e-7,1.7120531578870983e-8,5.554730406985443e-9,1.6769346967797128e-9,0
46231,3.267219171979104e-8,3.410712828458912e-9,1.3075902851889e-9,3.85544920340758e-9,1.0938734516006998e-7,1.7115694617318318e-8,5.385460900562291e-9,1.6800992059349495e-9,0
46232,3.2683346931257285e-8,3.374954565173807e-9,1.3025784421515805e-9,3.851027422935326e-9,1.09325937515068e-7,1.7109593518745898e-8,5.216191394139141e-9,1.6790930905811469e-9,0
46233,3.2694502142723526e-8,3.339196301888702e-9,1.2975665991142608e-9,3.846605642463072e-9,1.0926452987006601e-7,1.7103492420173482e-8,5.04692188771599e-9,1.6780869752273442e-9,0
46234,3.270565735418977e-8,3.3034380386035974e-9,1.292554756076941e-9,3.842183861990818e-9,1.0920312222506403e-7,1.7097391321601065e-8,4.877652381292839e-9,1.6770808598735417e-9,0
46235,3.2716812565656014e-8,3.2676797753184926e-9,1.2875429130396214e-9,3.837762081518564e-9,1.0914171458006205e-7,1.7091290223028646e-8,4.708382874869688e-9,1.676074744519739e-9,0
46236,3.2727967777122255e-8,3.231921512033388e-9,1.2825310700023016e-9,3.83334030104631e-9,1.0908030693506007e-7,1.708518912445623e-8,4.539113368446538e-9,1.6750686291659364e-9,0
46237,3.2739122988588497e-8,3.196163248748283e-9,1.277519226964982e-9,3.828918520574056e-9,1.0901889929005809e-7,1.707908802588381e-8,4.369843862023387e-9,1.6740625138121337e-9,0
46238,3.2750278200054744e-8,3.1604049854631783e-9,1.272507383927662e-9,3.8244967401018025e-9,1.0895749164505611e-7,1.7072986927311394e-8,4.200574355600236e-9,1.6730563984583313e-9,0
46239,3.2761433411520985e-8,3.1246467221780735e-9,1.2674955408903425e-9,3.820074959629548e-9,1.0889608400005413e-7,1.7066885828738974e-8,4.031304849177085e-9,1.6720502831045286e-9,0
46240,3.2772588622987226e-8,3.0888884588929687e-9,1.2624836978530228e-9,3.815653179157294e-9,1.0883467635505213e-7,1.7060784730166558e-8,3.862035342753935e-9,1.671044167750726e-9,0
46241,3.2783743834453474e-8,3.053130195607864e-9,1.257471854815703e-9,3.81123139868504e-9,1.0877326871005015e-7,1.705468363159414e-8,3.692765836330784e-9,1.6700380523969233e-9,0
46242,3.2794899045919715e-8,3.017371932322759e-9,1.2524600117783834e-9,3.806809618212786e-9,1.0871186106504817e-7,1.7048582533021722e-8,3.523496329907633e-9,1.6690319370431208e-9,0
46243,3.2806054257385956e-8,2.9816136690376544e-9,1.2474481687410636e-9,3.802387837740532e-9,1.0865045342004619e-7,1.7042481434449306e-8,3.3542268234844824e-9,1.6680258216893182e-9,0
46244,3.2817209468852204e-8,2.9458554057525496e-9,1.242436325703744e-9,3.797966057268278e-9,1.0858904577504421e-7,1.7036380335876886e-8,3.1849573170613315e-9,1.6670197063355155e-9,0
46245,3.282582642561847e-8,2.942137237851529e-9,1.2441795304274434e-9,3.779105743929121e-9,1.0850618766336838e-7,1.6962341109402067e-8,3.184681365394759e-9,1.6671830876681215e-9,0
