time,channel1,channel2,channel3,channel4,channel5,channel6,channel7,channel8,class
55693,3.035203092959144e-8,4.380246018653473e-9,1.1900122224002174e-8,9.406812788911933e-8,1.9640919912373375e-7,6.73008958076355e-9,9.293911734929694e-10,2.24841948596925e-9,0
55694,3.031165182843868e-8,4.395133677242909e-9,1.1890897722520369e-8,9.443300525315333e-8,1.9647559838254175e-7,6.740907401120858e-9,9.284468174744931e-10,2.24841948596925e-9,0
55695,3.027127272728593e-8,4.4100213358323446e-09,1.1881673221038565e-8,9.479788261718732e-8,1.9654199764134974e-7,6.751725221478166e-9,9.275024614560169e-10,2.24841948596925e-9,0
55696,3.023089362613317e-8,4.424908994421781e-9,1.1872448719556761e-8,9.516275998122133e-8,1.9660839690015776e-7,6.762543041835475e-9,9.265581054375407e-10,2.24841948596925e-9,0
55697,3.019051452498042e-8,4.439796653011217e-9,1.1863224218074957e-8,9.552763734525531e-8,1.9667479615896575e-7,6.773360862192783e-9,9.256137494190645e-10,2.24841948596925e-9,0
55698,3.015013542382766e-8,4.4546843116006525e-9,1.1853999716593152e-8,9.58925147092893e-8,1.9674119541777377e-7,6.784178682550092e-9,9.246693934005882e-10,2.24841948596925e-9,0
55699,3.010975632267491e-8,4.469571970190089e-9,1.1844775215111348e-8,9.625739207332331e-8,1.9680759467658176e-7,6.7949965029074e-9,9.23725037382112e-10,2.24841948596925e-9,0
55700,3.020406046450905e-8,4.469330087124162e-9,1.1858503081767165e-8,9.628351184564748e-8,1.9667821825393278e-7,6.805165000528097e-9,9.247756938324638e-10,2.253097472714885e-9,0
55701,3.0298364606343196e-8,4.469088204058237e-9,1.1872230948422982e-8,9.630963161797166e-8,1.965488418312838e-7,6.815333498148793e-9,9.258263502828154e-10,2.25777545946052e-9,0
55702,3.039266874817734e-8,4.46884632099231e-9,1.18859588150788e-8,9.633575139029585e-8,1.9641946540863482e-7,6.825501995769489e-9,9.268770067331671e-10,2.2624534462061548e-9,0
55703,3.0486972890011476e-8,4.468604437926384e-9,1.1899686681734616e-8,9.636187116262002e-8,1.9629008898598584e-7,6.835670493390185e-9,9.279276631835189e-10,2.2671314329517896e-9,0
55704,3.058127703184562e-8,4.468362554860458e-9,1.1913414548390433e-8,9.63879909349442e-8,1.9616071256333686e-7,6.845838991010881e-9,9.289783196338705e-10,2.2718094196974245e-9,0
55705,3.060050127141506e-8,4.438105562849985e-9,1.1928391729025793e-8,9.636887901379302e-8,1.963380498022967e-7,6.8537071583220985e-9,9.297530244176499e-10,2.275971435087075e-9,0
55706,3.0619725510984504e-8,4.407848570839511e-9,1.1943368909661152e-8,9.634976709264183e-8,1.9651538704125655e-7,6.861575325633316e-9,9.305277292014293e-10,2.280133450476726e-9,0
55707,3.063894975055394e-8,4.377591578829038e-9,1.1958346090296511e-8,9.633065517149066e-8,1.966927242802164e-7,6.869443492944534e-9,9.313024339852086e-10,2.2842954658663766e-9,0
55708,3.065817399012338e-8,4.347334586818565e-9,1.197332327093187e-8,9.631154325033947e-8,1.9687006151917624e-7,6.877311660255752e-9,9.32077138768988e-10,2.288457481256027e-9,0
55709,3.067739822969282e-8,4.3170775948080915e-9,1.198830045156723e-8,9.629243132918829e-8,1.9704739875813606e-7,6.88517982756697e-9,9.328518435527673e-10,2.2926194966456777e-9,0
55710,3.069662246926226e-8,4.286820602797618e-9,1.200327763220259e-8,9.62733194080371e-8,1.972247359970959e-7,6.8930479948781875e-9,9.336265483365466e-10,2.2967815120353283e-9,0
55711,3.07158467088317e-8,4.256563610787145e-9,1.201825481283795e-8,9.625420748688593e-8,1.9740207323605576e-7,6.9009161621894044e-9,9.34401253120326e-10,2.300943527424979e-9,0
55712,3.0735070948401145e-8,4.226306618776672e-9,1.2033231993473309e-8,9.623509556573474e-8,1.975794104750156e-7,6.908784329500622e-9,9.351759579041053e-10,2.3051055428146298e-9,0
55713,3.0754295187970584e-8,4.196049626766198e-9,1.2048209174108668e-8,9.621598364458356e-8,1.9775674771397545e-7,6.91665249681184e-9,9.359506626878846e-10,2.3092675582042803e-9,0
55714,3.077351942754002e-8,4.165792634755725e-9,1.2063186354744027e-8,9.619687172343237e-8,1.979340849529353e-7,6.924520664123058e-9,9.367253674716641e-10,2.313429573593931e-9,0
55715,3.070154560997938e-8,4.136518161994311e-9,1.2062183986136564e-8,9.624311284315371e-8,1.9790285878920967e-7,6.922104272647645e-9,9.373937718235679e-10,2.3117527146709267e-9,0
55716,3.0629571792418734e-8,4.107243689232897e-9,1.20611816175291e-8,9.628935396287506e-8,1.9787163262548407e-7,6.919687881172233e-9,9.380621761754717e-10,2.310075855747922e-9,0
55717,3.091158974921039e-8,4.12596941160619e-9,1.2096118647598839e-8,9.632600562322951e-8,1.9905844209103687e-7,6.956217098496116e-9,9.501917016362525e-10,2.324221542601101e-9,0
55718,3.1193607706002046e-8,4.144695133979485e-9,1.2131055677668576e-8,9.636265728358394e-8,2.002452515565897e-7,6.99274631582e-9,9.623212270970334e-10,2.33836722945428e-9,0
55719,3.1475625662793705e-8,4.1634208563527785e-9,1.2165992707738315e-8,9.63993089439384e-8,2.0143206102214254e-7,7.029275533143884e-9,9.744507525578142e-10,2.352512916307459e-9,0
55720,3.1757643619585365e-8,4.182146578726072e-9,1.2200929737808054e-8,9.643596060429284e-8,2.0261887048769537e-7,7.0658047504677665e-9,9.86580278018595e-10,2.366658603160638e-9,0
55721,3.1786532653314674e-8,4.141246731814849e-9,1.2027213955108946e-8,9.479413533502793e-8,2.0386708759825017e-7,7.094968732199479e-9,9.951020306401678e-10,2.368034526776596e-9,0
55722,3.182371200510357e-8,4.14798739238982e-9,1.1942401613318509e-8,9.405057035986862e-8,2.051113423546087e-7,7.131227140136184e-9,1.0011402182625893e-9,2.3718611703816456e-9,0
55723,3.2188246671804094e-8,4.195987587524528e-9,1.1966138578929814e-8,9.383728863593346e-8,2.0547287327036428e-7,7.16902049447982e-9,1.0124950389395908e-09,2.388173860155647e-9,0
55724,3.2552781338504614e-8,4.243987782659236e-9,1.1989875544541122e-8,9.362400691199828e-8,2.0583440418611987e-7,7.206813848823457e-9,1.0238498596165924e-9,2.404486549929649e-9,0
55725,3.2917316005205134e-8,4.291987977793944e-9,1.2013612510152428e-8,9.341072518806311e-8,2.0619593510187546e-7,7.244607203167094e-9,1.0352046802935938e-9,2.4207992397036506e-9,0
55726,3.3281850671905654e-8,4.339988172928652e-9,1.2037349475763735e-8,9.319744346412793e-8,2.0655746601763105e-7,7.28240055751073e-9,1.0465595009705953e-9,2.437111929477652e-9,0
55727,3.364638533860618e-8,4.38798836806336e-9,1.206108644137504e-8,9.298416174019277e-8,2.0691899693338665e-7,7.320193911854367e-9,1.0579143216475967e-9,2.4534246192516537e-9,0
55728,3.40109200053067e-8,4.435988563198068e-9,1.2084823406986346e-8,9.27708800162576e-8,2.0728052784914224e-7,7.3579872661980035e-9,1.0692691423245982e-9,2.4697373090256553e-9,0
55729,3.437545467200722e-8,4.483988758332776e-9,1.2108560372597654e-8,9.255759829232242e-8,2.076420587648978e-7,7.39578062054164e-9,1.0806239630015998e-9,2.486049998799657e-9,0
55730,3.473998933870774e-8,4.531988953467484e-9,1.213229733820896e-8,9.234431656838725e-8,2.080035896806534e-7,7.433573974885277e-9,1.0919787836786012e-9,2.5023626885736588e-9,0
55731,3.510452400540827e-8,4.5799891486021915e-9,1.2156034303820267e-8,9.213103484445209e-8,2.0836512059640899e-7,7.471367329228912e-9,1.1033336043556027e-9,2.5186753783476603e-9,0
55732,3.546905867210879e-8,4.6279893437368995e-9,1.2179771269431572e-8,9.191775312051691e-8,2.0872665151216458e-7,7.50916068357255e-9,1.114688425032604e-9,2.534988068121662e-9,0
55733,3.583359333880931e-8,4.6759895388716075e-9,1.220350823504288e-8,9.170447139658174e-8,2.0908818242792017e-7,7.546954037916186e-9,1.1260432457096056e-9,2.5513007578956634e-9,0
55734,3.6198128005509836e-8,4.7239897340063155e-9,1.2227245200654185e-8,9.149118967264656e-8,2.0944971334367576e-7,7.584747392259823e-9,1.1373980663866072e-9,2.567613447669665e-9,0
55735,3.6562662672210356e-8,4.7719899291410235e-9,1.2250982166265493e-8,9.127790794871139e-8,2.0981124425943135e-7,7.622540746603459e-9,1.1487528870636085e-9,2.583926137443667e-9,0
55736,3.663169783304554e-8,4.771249292957891e-9,1.2238779733199596e-8,9.101146509648974e-8,2.090053145635076e-7,7.622540746603459e-9,1.147702230613257e-9,2.59025515575414e-9,0
55737,3.663135713504309e-8,4.902359323541657e-9,1.228272349361736e-8,9.073942280983887e-8,2.0863723317554002e-7,7.620967113141217e-9,1.147702230613257e-9,2.59025515575414e-9,0
55738,3.663101643704064e-8,5.033469354125424e-9,1.2326667254035125e-8,9.046738052318798e-8,2.0826915178757241e-7,7.619393479678973e-9,1.147702230613257e-9,2.59025515575414e-9,0
55739,3.6630675739038197e-8,5.16457938470919e-9,1.2370611014452889e-8,9.019533823653709e-8,2.0790107039960483e-7,7.61781984621673e-9,1.147702230613257e-9,2.59025515575414e-9,0
55740,3.6630335041035744e-8,5.2956894152929575e-9,1.2414554774870653e-8,8.99232959498862e-8,2.0753298901163725e-7,7.616246212754486e-9,1.147702230613257e-9,2.59025515575414e-9,0
55741,3.66299943430333e-8,5.426799445876724e-9,1.2458498535288417e-8,8.965125366323531e-8,2.0716490762366967e-7,7.614672579292242e-9,1.147702230613257e-9,2.59025515575414e-9,0
55742,3.662965364503085e-8,5.5579094764604905e-9,1.2502442295706182e-8,8.937921137658442e-8,2.0679682623570208e-7,7.613098945829998e-9,1.147702230613257e-9,2.59025515575414e-9,0
55743,3.66293129470284e-8,5.689019507044257e-9,1.2546386056123946e-8,8.910716908993355e-8,2.064287448477345e-7,7.611525312367755e-9,1.147702230613257e-9,2.59025515575414e-9,0
55744,3.6627046313443995e-8,5.820099563657315e-9,1.2577618905612506e-8,8.797346455946944e-8,2.0688404543215896e-7,7.606731216472242e-9,1.148530085612974e-9,2.5869444835050747e-9,0
55745,3.582494826345153e-8,5.951179620270372e-9,1.2624772955867291e-8,8.794047985615116e-8,2.073393460165834e-7,7.599482042046005e-9,1.149357940612691e-9,2.5852934519402362e-9,0
55746,3.502285021345905e-8,6.082259676883429e-9,1.2671927006122077e-8,8.79074951528329e-8,2.0779464660100786e-7,7.592232867619768e-9,1.150185795612408e-9,2.5836424203753977e-9,0
55747,3.422075216346658e-8,6.213339733496487e-9,1.2719081056376861e-8,8.787451044951462e-8,2.082499471854323e-7,7.58498369319353e-9,1.1510136506121253e-9,2.5819913888105592e-9,0
55748,3.349264753127651e-8,6.242584232287191e-9,1.275900075524562e-8,8.784152574619636e-8,2.0824091837047377e-7,7.582528614662806e-9,1.151066800828063e-9,2.58000498546112e-9,0
55749,3.2764542899086446e-8,6.271828731077896e-9,1.2798920454114378e-8,8.780854104287808e-8,2.0823188955551528e-7,7.580073536132084e-9,1.1511199510440008e-9,2.578018582111681e-9,0
55750,3.203643826689637e-8,6.301073229868601e-9,1.2838840152983137e-8,8.777555633955982e-8,2.0822286074055677e-7,7.57761845760136e-9,1.1511731012599386e-9,2.5760321787622417e-9,0
55751,3.130833363470631e-8,6.330317728659305e-9,1.2878759851851895e-8,8.774257163624154e-8,2.0821383192559825e-7,7.575163379070636e-9,1.1512262514758761e-9,2.574045775412802e-9,0
55752,3.0580229002516234e-8,6.35956222745001e-9,1.2918679550720654e-8,8.770958693292328e-8,2.0820480311063974e-7,7.572708300539913e-9,1.1512794016918139e-9,2.572059372063363e-9,0
55753,2.985212437032617e-8,6.388806726240714e-9,1.2958599249589412e-8,8.7676602229605e-8,2.0819577429568122e-7,7.570253222009189e-9,1.1513325519077516e-9,2.5700729687139238e-9,0
55754,2.9124019738136098e-8,6.418051225031419e-9,1.2998518948458171e-8,8.764361752628674e-8,2.081867454807227e-7,7.567798143478465e-9,1.1513857021236894e-9,2.5680865653644846e-9,0
55755,2.785955649153841e-8,6.4483082170418925e-9,1.3017229483913007e-8,8.585896871777807e-8,2.08033594932896e-7,7.569483659504803e-9,1.1513857021236894e-9,2.5680865653644846e-9,0
55756,2.797382013092467e-8,6.505831773659848e-9,1.3225654800801976e-8,8.588711773511686e-8,2.079508808450298e-7,7.58996704576376e-9,1.1550466251788352e-9,2.5479386228660446e-9,0
55757,2.8088083770310933e-8,6.563355330277804e-9,1.3434080117690945e-8,8.591526675245567e-8,2.078681667571636e-7,7.610450432022719e-9,1.158707548233981e-9,2.5277906803676046e-9,0
55758,2.8202347409697195e-8,6.620878886895759e-9,1.3642505434579915e-8,8.594341576979446e-8,2.077854526692974e-7,7.630933818281675e-9,1.1623684712891267e-9,2.507642737869164e-9,0
55759,2.8316611049083455e-8,6.678402443513715e-9,1.3850930751468884e-8,8.597156478713326e-8,2.077027385814312e-7,7.651417204540633e-9,1.1660293943442725e-9,2.487494795370724e-9,0
55760,2.8430874688469717e-8,6.73592600013167e-9,1.4059356068357851e-8,8.599971380447206e-8,2.07620024493565e-7,7.671900590799592e-9,1.1696903173994183e-9,2.467346852872284e-9,0
55761,2.8545138327855977e-8,6.793449556749626e-9,1.426778138524682e-8,8.602786282181086e-8,2.075373104056988e-7,7.69238397705855e-9,1.173351240454564e-9,2.447198910373844e-9,0
55762,2.865940196724224e-8,6.850973113367581e-9,1.447620670213579e-8,8.605601183914965e-8,2.074545963178326e-7,7.712867363317508e-9,1.1770121635097097e-9,2.427050967875404e-9,0
55763,2.8773665606628502e-8,6.908496669985537e-9,1.468463201902476e-8,8.608416085648846e-8,2.073718822299664e-7,7.733350749576464e-9,1.1806730865648555e-9,2.406903025376964e-9,0
55764,2.8857095530975813e-8,6.956317021295989e-9,1.490277572813969e-8,8.634316110700464e-8,2.0733999945394325e-7,7.75256999881567e-9,1.1843340096200011e-9,2.3949071232058306e-9,0
55765,2.8940525455323128e-8,7.00413737260644e-9,1.512091943725462e-8,8.660216135752081e-8,2.073081166779201e-7,7.771789248054875e-9,1.187994932675147e-9,2.382911221034697e-9,0
55766,2.902395537967044e-8,7.0519577239168916e-9,1.533906314636955e-8,8.686116160803699e-8,2.0727623390189697e-7,7.791008497294078e-9,1.1916558557302928e-9,2.3709153188635636e-9,0
55767,2.9107385304017754e-8,7.099778075227343e-9,1.555720685548448e-8,8.712016185855317e-8,2.0724435112587384e-7,7.8102277465332835e-09,1.1953167787854384e-9,2.35891941669243e-9,0
55768,2.919081522836507e-8,7.1475984265377944e-9,1.577535056459941e-8,8.737916210906935e-8,2.072124683498507e-7,7.829446995772487e-9,1.1989777018405842e-9,2.3469235145212966e-9,0
55769,2.927424515271238e-8,7.195418777848246e-9,1.599349427371434e-8,8.763816235958552e-8,2.0718058557382754e-7,7.848666245011692e-9,1.20263862489573e-9,2.334927612350163e-9,0
55770,2.9244497922135732e-8,7.199785568720021e-9,1.6097298132943043e-8,8.79353402998467e-8,2.0716065903724668e-7,7.84624985353628e-9,1.2033601794635716e-9,2.3229317101790295e-9,0
55771,2.921021742439028e-8,7.1841422869620965e-9,1.6093312970378435e-8,8.80989060147585e-8,2.0715512149410862e-7,7.843949523226801e-9,1.2041880344632886e-9,2.3101102922254768e-9,0
55772,2.9175936926644825e-8,7.168499005204173e-9,1.608932780781383e-8,8.826247172967029e-8,2.0714958395097056e-7,7.841649192917323e-9,1.2050158894630057e-9,2.297288874271924e-9,0
55773,2.9141656428899368e-8,7.152855723446249e-9,1.6085342645249223e-8,8.842603744458208e-8,2.071440464078325e-7,7.839348862607845e-9,1.205843744462723e-9,2.2844674563183712e-9,0
55774,2.9107375931153914e-8,7.137212441688325e-9,1.6081357482684618e-8,8.858960315949387e-8,2.0713850886469443e-7,7.837048532298365e-9,1.20667159946244e-9,2.2716460383648185e-9,0
55775,2.907309543340846e-8,7.121569159930402e-9,1.6077372320120014e-8,8.875316887440567e-8,2.0713297132155635e-7,7.834748201988887e-9,1.207499454462157e-9,2.2588246204112657e-9,0
55776,2.9038814935663007e-8,7.1059258781724775e-9,1.6073387157555406e-8,8.891673458931744e-8,2.0712743377841828e-7,7.83244787167941e-9,1.208327309461874e-9,2.246003202457713e-9,0
55777,2.900453443791755e-8,7.090282596414554e-9,1.60694019949908e-8,8.908030030422924e-8,2.0712189623528022e-7,7.830147541369932e-9,1.2091551644615913e-9,2.23318178450416e-9,0
55778,2.8985557231690755e-8,7.090539466465835e-9,1.6059402620781412e-8,8.908742876304692e-8,2.0711753764566431e-7,7.830684981542449e-9,1.2092614648934666e-9,2.22737734666906e-9,0
55779,2.896658002546396e-8,7.090796336517116e-9,1.6049403246572022e-8,8.90945572218646e-8,2.071131790560484e-7,7.831222421714967e-9,1.2093677653253421e-9,2.2215729088339596e-9,0
55780,2.895678760600751e-8,7.07092114675561e-9,1.603943790897398e-8,8.881161235921565e-8,2.0679244746084016e-7,7.831338482880901e-9,1.2101956203250594e-9,2.2195865054845205e-9,0
55781,2.895678760600751e-8,7.062245421653229e-9,1.6032712035451263e-8,8.905916959056603e-8,2.0584314858424426e-7,7.827081827157905e-9,1.2110234753247764e-9,2.217600102135081e-9,0
55782,2.895678760600751e-8,7.053569696550849e-9,1.6025986161928542e-8,8.930672682191643e-8,2.0489384970764837e-7,7.822825171434911e-9,1.2118513303244935e-9,2.2156136987856417e-9,0
55783,2.895678760600751e-8,7.044893971448468e-9,1.6019260288405824e-8,8.955428405326681e-8,2.0394455083105248e-7,7.818568515711915e-9,1.2126791853242105e-9,2.2136272954362025e-9,0
55784,2.895678760600751e-8,7.036218246346087e-9,1.6012534414883106e-8,8.98018412846172e-8,2.0299525195445659e-7,7.814311859988921e-9,1.2135070403239276e-9,2.2116408920867633e-9,0
55785,2.895678760600751e-8,7.027542521243706e-9,1.6005808541360385e-8,9.00493985159676e-8,2.020459530778607e-7,7.810055204265925e-9,1.2143348953236448e-9,2.2096544887373237e-9,0
55786,2.895678760600751e-8,7.018866796141325e-9,1.5999082667837667e-8,9.029695574731798e-8,2.010966542012648e-7,7.805798548542931e-9,1.2151627503233619e-9,2.2076680853878846e-9,0
55787,2.895678760600751e-8,7.010191071038944e-9,1.5992356794314946e-8,9.054451297866838e-8,2.001473553246689e-7,7.8015418928199355e-09,1.215990605323079e-9,2.2056816820384454e-9,0
55788,2.895678760600751e-8,7.0015153459365635e-9,1.598563092079223e-8,9.079207021001876e-8,1.9919805644807302e-7,7.79728523709694e-9,1.216818460322796e-9,2.2036952786890062e-9,0
55789,2.895678760600751e-8,6.9928396208341835e-9,1.5978905047269507e-8,9.103962744136916e-8,1.9824875757147712e-7,7.793028581373946e-9,1.2176463153225132e-9,2.2017088753395666e-9,0
55790,2.895678760600751e-8,6.984163895731803e-9,1.597217917374679e-8,9.128718467271954e-8,1.9729945869488123e-7,7.78877192565095e-9,1.2184741703222303e-9,2.1997224719901275e-9,0
55791,2.895678760600751e-8,6.975488170629422e-9,1.5965453300224068e-8,9.153474190406993e-8,1.9635015981828534e-7,7.784515269927956e-9,1.2193020253219473e-9,2.1977360686406883e-9,0
55792,2.8980367156289983e-8,7.002375878002535e-9,1.5976667951801653e-8,9.153129678480684e-8,1.9600621295490584e-7,7.782829753901618e-9,1.219355175537885e-9,2.196575181073668e-9,0
55793,2.898381393899649e-8,6.993443282848873e-9,1.597395155270879e-8,9.15595247197398e-8,1.9502952008034166e-7,7.780873428488102e-9,1.2200767301057266e-9,2.2062062625138183e-9,0
55794,2.8987260721702998e-8,6.984510687695212e-9,1.5971235153615923e-8,9.158775265467278e-8,1.940528272057775e-7,7.778917103074584e-9,1.2207982846735683e-9,2.2158373439539682e-9,0
55795,2.89861742372407e-8,6.984510687695212e-9,1.5928637954638703e-8,9.161870065547171e-8,1.9305117149977671e-7,7.768099282717276e-9,1.217858916186264e-9,2.2266293129611385e-9,0
55796,2.8963325258508983e-8,6.9783137411935106e-9,1.591894387427799e-8,9.145104814800071e-8,1.9299863481055295e-7,7.763687878773036e-9,1.2185804707541058e-9,2.2324423599156275e-9,0
55797,2.8940476279777265e-8,6.97211679469181e-9,1.5909249793917278e-8,9.128339564052972e-8,1.9294609812132916e-7,7.759276474828795e-9,1.2193020253219473e-9,2.2382554068701166e-9,0
55798,2.891762730104555e-8,6.96591984819011e-9,1.589955571355657e-8,9.111574313305871e-8,1.9289356143210536e-7,7.754865070884555e-9,1.2200235798897888e-9,2.2440684538246056e-9,0
55799,2.889477832231383e-8,6.959722901688409e-9,1.5889861633195857e-8,9.094809062558771e-8,1.9284102474288157e-7,7.750453666940315e-9,1.2207451344576306e-9,2.2498815007790947e-9,0
55800,2.8871929343582116e-8,6.953525955186709e-9,1.5880167552835145e-8,9.078043811811672e-8,1.927884880536578e-7,7.746042262996074e-9,1.2214666890254721e-9,2.2556945477335837e-9,0
55801,2.88490803648504e-8,6.947329008685008e-9,1.5870473472474433e-8,9.061278561064571e-8,1.9273595136443401e-7,7.741630859051834e-9,1.2221882435933136e-9,2.261507594688073e-9,0
55802,2.8826231386118682e-8,6.941132062183308e-9,1.5860779392113724e-8,9.044513310317471e-8,1.9268341467521022e-7,7.737219455107593e-9,1.2229097981611554e-9,2.267320641642562e-9,0
55803,2.8803382407386967e-8,6.934935115681607e-9,1.5851085311753012e-8,9.027748059570372e-8,1.9263087798598643e-7,7.732808051163353e-9,1.223631352728997e-9,2.273133688597051e-9,0
55804,2.8780533428655252e-8,6.928738169179907e-9,1.58413912313923e-8,9.010982808823271e-8,1.9257834129676266e-7,7.728396647219114e-9,1.2243529072968384e-9,2.27894673555154e-9,0
55805,2.8757684449923533e-8,6.9225412226782065e-9,1.583169715103159e-8,8.994217558076171e-8,1.9252580460753887e-7,7.723985243274874e-9,1.2250744618646802e-9,2.284759782506029e-9,0
55806,2.8734835471191818e-8,6.9163442761765054e-9,1.582200307067088e-8,8.977452307329072e-8,1.9247326791831508e-7,7.719573839330634e-9,1.2257960164325217e-9,2.290572829460518e-9,0
55807,2.8711986492460103e-8,6.910147329674805e-9,1.5812308990310167e-8,8.960687056581971e-8,1.924207312290913e-7,7.715162435386393e-9,1.2265175710003634e-9,2.296385876415007e-9,0
55808,2.869645606893981e-8,6.910147329674805e-9,1.576240936672422e-8,8.917158862715639e-8,1.9239333723112302e-7,7.716620007682703e-9,1.227239125568205e-9,2.3076679894199955e-9,0
55809,2.8665622353900863e-8,6.8978754238544925e-9,1.576240936672422e-8,8.91416009050482e-8,1.9178547761694992e-7,7.642490871291738e-9,1.2157780044593279e-9,2.319285474209585e-9,0
55810,2.8634788638861915e-8,6.88560351803418e-9,1.576240936672422e-8,8.911161318294003e-8,1.9117761800277682e-7,7.568361734900775e-9,1.204316883350451e-9,2.330902958999174e-9,0
55811,2.8603954923822967e-8,6.873331612213867e-9,1.576240936672422e-8,8.908162546083184e-8,1.9056975838860372e-7,7.494232598509811e-9,1.192855762241574e-9,2.3425204437887637e-9,0
55812,2.857312120878402e-8,6.861059706393555e-9,1.576240936672422e-8,8.905163773872365e-8,1.8996189877443062e-7,7.420103462118848e-9,1.181394641132697e-9,2.354137928578353e-9,0
55813,2.853895427703938e-8,6.864687952382447e-9,1.5760162546510262e-8,8.900484725082092e-8,1.894221397138123e-7,7.344710188708131e-9,1.1689891640053439e-9,2.3543013099109593e-9,0
55814,2.8504787345294742e-8,6.868316198371339e-9,1.5757915726296306e-8,8.895805676291817e-8,1.88882380653194e-7,7.269316915297415e-9,1.1565836868779907e-9,2.3544646912435653e-9,0
55815,2.8721522505710067e-8,6.8682112894738564e-9,1.57539208389856e-8,8.889904905489726e-8,1.8836770894234844e-7,7.19545858829363e-9,1.144401011201272e-9,2.3552902070259845e-9,0
55816,2.8938257666125394e-8,6.868106380576373e-9,1.5749925951674893e-8,8.884004134687637e-8,1.8785303723150288e-7,7.121600261289846e-9,1.1322183355245535e-9,2.356115722808404e-9,0
55817,2.9178004546819112e-8,6.880031494433277e-9,1.573200001369374e-8,8.883815948454751e-8,1.8785303723150288e-7,7.049095981221956e-9,1.1204077113593992e-9,2.3511368007557226e-9,0
55818,2.934577760995219e-8,6.889976582806707e-9,1.571407407571259e-8,8.864911567060765e-8,1.8745075417141478e-7,7.047410465195618e-9,1.118465849106509e-9,2.351962316538142e-9,0
55819,2.9513550673085263e-8,6.899921671180137e-9,1.569614813773144e-8,8.84600718566678e-8,1.870484711113267e-7,7.045724949169281e-9,1.1165239868536188e-9,2.352787832320561e-9,0
55820,2.968132373621834e-8,6.909866759553568e-9,1.567822219975029e-8,8.827102804272793e-8,1.866461880512386e-7,7.044039433142944e-9,1.1145821246007285e-9,2.3536133481029803e-9,0
55821,2.9849096799351414e-8,6.919811847926998e-9,1.5660296261769138e-8,8.808198422878809e-8,1.862439049911505e-7,7.042353917116606e-9,1.1126402623478386e-9,2.354438863885399e-9,0
55822,3.0016869862484494e-8,6.929756936300428e-9,1.5642370323787987e-8,8.789294041484823e-8,1.858416219310624e-7,7.040668401090268e-9,1.1106984000949483e-9,2.3552643796678184e-9,0
55823,3.018464292561757e-8,6.9397020246738586e-9,1.5624444385806832e-8,8.770389660090837e-8,1.854393388709743e-7,7.038982885063931e-9,1.1087565378420581e-9,2.3560898954502376e-9,0
55824,3.035241598875064e-8,6.949647113047289e-9,1.560651844782568e-8,8.751485278696851e-8,1.8503705581088622e-7,7.037297369037593e-9,1.106814675589168e-9,2.356915411232657e-9,0
55825,3.052018905188372e-8,6.959592201420719e-9,1.558859250984453e-8,8.732580897302866e-8,1.8463477275079812e-7,7.0356118530112555e-9,1.1048728133362777e-9,2.357740927015076e-9,0
55826,3.047448640798836e-8,6.959637162376783e-9,1.559861619591917e-8,8.71848970661527e-8,1.8414153925872458e-7,7.030779070060431e-9,1.1037588060831046e-9,2.3620749328567217e-9,0
55827,3.0399406505723665e-8,6.966347848981045e-9,1.5659192818981095e-8,8.85783120455006e-8,1.8380628031636668e-7,7.0718744395498e-9,1.1056904677491112e-9,2.364061336206161e-9,0
55828,3.037783134077385e-8,7.095873789601314e-9,1.5910506041576815e-8,8.871471133429858e-8,1.8358831703887934e-7,7.074329518080523e-9,1.1096273424708294e-9,2.3725229209599023e-9,0
55829,3.035625617582405e-8,7.225399730221582e-9,1.6161819264172534e-8,8.885111062309654e-8,1.8337035376139198e-7,7.076784596611247e-9,1.1135642171925474e-9,2.3809845057136438e-9,0
55830,3.033468101087424e-8,7.354925670841851e-9,1.6413132486768254e-8,8.898750991189452e-8,1.8315239048390464e-7,7.079239675141971e-9,1.1175010919142655e-9,2.389446090467385e-9,0
55831,3.031310584592443e-8,7.484451611462119e-9,1.6664445709363973e-8,8.912390920069248e-8,1.8293442720641727e-7,7.081694753672694e-9,1.1214379666359837e-9,2.3979076752211266e-9,0
55832,3.0366610583239324e-8,7.615216941382728e-9,1.6933684869940844e-8,8.920813147991786e-8,1.831941197213018e-7,7.088406487926413e-9,1.1272635533946543e-9,2.4063692599748676e-9,0
55833,3.042011532055422e-8,7.745982271303336e-9,1.7202924030517715e-8,8.929235375914322e-8,1.8345381223618633e-7,7.0951182221801314e-9,1.1330891401533247e-9,2.414830844728609e-9,0
55834,3.046036095436515e-8,7.868707603407213e-9,1.7474167928309512e-8,8.961779686188105e-8,1.836872010242978e-7,7.1023673966063684e-9,1.1350943532090362e-9,2.4104710115287977e-9,0
55835,3.0500606588176075e-8,7.991432935511093e-9,1.774541182610131e-8,8.994323996461888e-8,1.8392058981240933e-7,7.1096165710326055e-9,1.137099566264748e-9,2.4061111783289863e-9,0
55836,3.0540852221987e-8,8.11415826761497e-9,1.801665572389311e-8,9.02686830673567e-8,1.841539786005208e-7,7.1168657454588425e-9,1.1391047793204595e-9,2.401751345129175e-9,0
55837,3.058109785579793e-8,8.236883599718848e-9,1.828789962168491e-8,9.059412617009452e-8,1.8438736738863232e-7,7.1241149198850795e-9,1.141109992376171e-9,2.3973915119293637e-9,0
55838,3.062134348960885e-8,8.359608931822726e-9,1.8559143519476707e-8,9.091956927283235e-8,1.846207561767438e-7,7.1313640943113165e-9,1.1431152054318825e-9,2.3930316787295523e-9,0
55839,3.066158912341978e-8,8.482334263926604e-9,1.883038741726851e-8,9.124501237557017e-8,1.848541449648553e-7,7.1386132687375535e-9,1.145120418487594e-9,2.388671845529741e-9,0
55840,3.070183475723071e-8,8.605059596030482e-9,1.9101631315060307e-8,9.157045547830799e-8,1.850875337529668e-7,7.1458624431637906e-9,1.1471256315433057e-9,2.3843120123299296e-9,0
55841,3.074208039104164e-8,8.727784928134361e-9,1.9372875212852104e-8,9.189589858104581e-8,1.853209225410783e-7,7.153111617590028e-9,1.1491308445990173e-9,2.3799521791301183e-9,0
55842,3.0782326024852564e-8,8.850510260238239e-9,1.9644119110643906e-8,9.222134168378365e-8,1.855543113291898e-7,7.160360792016265e-9,1.1511360576547288e-9,2.375592345930307e-9,0
55843,3.082257165866349e-8,8.973235592342117e-9,1.9915363008435704e-8,9.254678478652147e-8,1.857877001173013e-7,7.167609966442502e-9,1.1531412707104403e-9,2.3712325127304956e-9,0
55844,3.0862817292474416e-8,9.095960924445995e-9,2.01866069062275e-8,9.287222788925929e-8,1.860210889054128e-7,7.174859140868739e-9,1.1551464837661518e-9,2.3668726795306843e-9,0
55845,3.090306292628534e-8,9.218686256549872e-9,2.04578508040193e-8,9.319767099199711e-8,1.862544776935243e-7,7.182108315294976e-9,1.1571516968218635e-9,2.362512846330873e-9,0
55846,3.094330856009627e-8,9.34141158865375e-9,2.07290947018111e-8,9.352311409473493e-8,1.8648786648163578e-7,7.189357489721213e-9,1.159156909877575e-9,2.3581530131310616e-9,0
55847,3.0983554193907194e-8,9.46413692075763e-9,2.10003385996029e-8,9.384855719747276e-8,1.867212552697473e-7,7.19660666414745e-9,1.1611621229332866e-9,2.3537931799312502e-9,0
55848,3.102379982771813e-8,9.586862252861507e-9,2.1271582497394696e-8,9.417400030021059e-8,1.8695464405785878e-7,7.203855838573687e-9,1.163167335988998e-9,2.349433346731439e-9,0
55849,3.101217045090761e-8,9.584036682297417e-9,2.1271582497394696e-8,9.434346767242784e-8,1.8719146718883916e-7,7.2052360367593735e-9,1.1612356743229916e-9,2.3482294135674756e-9,0
55850,3.1052416084718534e-8,9.578974216198575e-9,2.127755781005508e-8,9.464153296378136e-8,1.8728563309292766e-7,7.205197349704062e-9,1.1571393489534602e-9,2.335743367398524e-9,0
55851,3.109266171852946e-8,9.573911750099731e-9,2.1283533122715464e-8,9.493959825513487e-8,1.8737979899701615e-7,7.205158662648751e-9,1.153043023583929e-9,2.323257321229572e-9,0
55852,3.1132907352340386e-8,9.568849284000887e-9,2.1289508435375847e-8,9.523766354648838e-8,1.8747396490110465e-7,7.20511997559344e-9,1.1489466982143975e-9,2.3107712750606202e-09,0
55853,3.0918521961692095e-8,9.571796841748066e-9,2.1294728324800848e-8,9.543126759857255e-8,1.8736705845200252e-7,7.190845391869154e-9,1.1486707465478252e-9,2.310943265512615e-9,0
55854,3.0980075825769175e-8,9.559736845022969e-9,2.1291958439604435e-8,9.573071599913772e-8,1.8740223154708489e-7,7.180100767020628e-9,1.1483947948812528e-9,2.310109140610807e-9,0
55855,3.1041629689846256e-8,9.547676848297873e-9,2.128918855440802e-8,9.603016439970289e-8,1.8743740464216728e-7,7.1693561421721026e-9,1.1481188432146805e-9,2.309275015708999e-9,0
55856,3.1103183553923336e-8,9.535616851572778e-9,2.128641866921161e-8,9.632961280026807e-8,1.8747257773724967e-7,7.1586115173235766e-9,1.1478428915481081e-9,2.3084408908071914e-9,0
55857,3.116473741800042e-8,9.523556854847682e-9,2.1283648784015196e-8,9.662906120083324e-8,1.8750775083233206e-7,7.147866892475051e-9,1.1475669398815358e-9,2.3076067659053835e-9,0
55858,3.12262912820775e-8,9.511496858122586e-9,2.1280878898818783e-8,9.692850960139841e-8,1.8754292392741443e-7,7.1371222676265254e-9,1.1472909882149634e-9,2.3067726410035757e-9,0
55859,3.128784514615458e-8,9.49943686139749e-9,2.1278109013622366e-8,9.722795800196358e-8,1.8757809702249682e-7,7.1263776427779994e-9,1.147015036548391e-9,2.305938516101768e-9,0
55860,3.134939901023165e-8,9.487376864672395e-9,2.1275339128425953e-8,9.752740640252874e-8,1.876132701175792e-7,7.115633017929474e-9,1.1467390848818185e-9,2.30510439119996e-9,0
55861,3.141095287430873e-8,9.4753168679473e-9,2.127256924322954e-8,9.782685480309393e-8,1.876484432126616e-7,7.104888393080948e-9,1.1464631332152462e-9,2.3042702662981522e-9,0
55862,3.147250673838581e-8,9.463256871222204e-9,2.1269799358033127e-8,9.81263032036591e-8,1.8768361630774397e-7,7.094143768232422e-9,1.1461871815486738e-9,2.3034361413963444e-9,0
55863,3.153406060246289e-8,9.451196874497108e-9,2.1267029472836714e-8,9.842575160422426e-8,1.8771878940282636e-7,7.083399143383897e-9,1.1459112298821015e-9,2.302602016494536e-9,0
55864,3.1595614466539973e-8,9.439136877772012e-9,2.12642595876403e-8,9.872520000478943e-8,1.8775396249790875e-7,7.072654518535371e-9,1.1456352782155291e-9,2.3017678915927283e-9,0
55865,3.1657168330617054e-8,9.427076881046917e-9,2.126148970244389e-8,9.90246484053546e-8,1.8778913559299114e-7,7.061909893686845e-9,1.1453593265489568e-9,2.3009337666909205e-9,0
55866,3.1601125338602185e-8,9.382264035425061e-9,2.121163870258844e-8,9.901511255604979e-8,1.86347861107434e-7,7.061871206631534e-9,1.1453593265489568e-9,2.2818435942626153e-9,0
55867,3.154508234658731e-8,9.337451189803207e-9,2.1161787702732993e-8,9.900557670674496e-8,1.8490658662187688e-7,7.061832519576223e-9,1.1453593265489568e-9,2.2627534218343096e-9,0
55868,3.148903935457244e-8,9.29263834418135e-9,2.1111936702877542e-8,9.899604085744013e-8,1.8346531213631974e-7,7.061793832520911e-9,1.1453593265489568e-9,2.243663249406004e-9,0
55869,3.1373980753180466e-8,9.244122317643831e-9,2.1155662692161528e-8,9.86861722514757e-8,1.8189531784041115e-7,7.064902412390087e-9,1.146303682567433e-9,2.2267400798985215e-9,0
55870,3.1258922151788487e-8,9.19560629110631e-9,2.1199388681445515e-8,9.837630364551124e-8,1.8032532354450256e-7,7.068010992259263e-9,1.1472480385859092e-9,2.2098169103910387e-9,0
55871,3.1167507491133946e-8,9.159105300337822e-9,2.115555189323485e-8,9.810032494398478e-8,1.7874836054032376e-7,7.075685724293925e-9,1.1513443639554406e-9,2.1947253720197775e-9,0
55872,3.10760928304794e-8,9.122604309569333e-9,2.1111715105024183e-8,9.782434624245831e-8,1.7717139753614497e-7,7.0833604563285855e-9,1.1554406893249719e-9,2.1796338336485164e-9,0
55873,3.098467816982486e-8,9.086103318800843e-9,2.106787831681352e-8,9.754836754093184e-8,1.7559443453196617e-7,7.091035188363246e-9,1.1595370146945033e-9,2.1645422952772557e-9,0
55874,3.0887287844627664e-8,9.068118232610683e-9,2.1031271017615832e-8,9.718908961132708e-8,1.7547257524208455e-7,7.097136286935664e-9,1.1636333400640346e-9,2.168876301118901e-9,0
55875,3.0890004055783415e-8,9.074193191929294e-9,2.0962665720948096e-8,9.648882684724795e-8,1.741323825225685e-7,7.086546410308384e-9,1.1674537137669937e-9,2.1730469256279404e-9,0
55876,3.089272026693916e-8,9.080268151247907e-9,2.0894060424280363e-8,9.578856408316881e-8,1.7279218980305246e-7,7.075956533681103e-9,1.1712740874699525e-9,2.1772175501369796e-9,0
55877,3.089543647809491e-8,9.086343110566519e-9,2.0825455127612626e-8,9.508830131908966e-8,1.714519970835364e-7,7.0653666570538225e-9,1.1750944611729116e-9,2.1813881746460187e-9,0
55878,3.089815268925065e-8,9.09241806988513e-9,2.0756849830944893e-8,9.438803855501053e-8,1.7011180436402036e-7,7.054776780426542e-9,1.1789148348758705e-9,2.1855587991550582e-9,0
55879,3.09008689004064e-8,9.098493029203744e-9,2.0688244534277157e-8,9.368777579093139e-8,1.687716116445043e-7,7.044186903799262e-9,1.1827352085788296e-9,2.1897294236640974e-9,0
55880,3.090358511156215e-8,9.104567988522355e-9,2.061963923760942e-8,9.298751302685225e-8,1.6743141892498824e-7,7.0335970271719816e-9,1.1865555822817885e-9,2.1939000481731365e-9,0
55881,3.09063013227179e-8,9.110642947840967e-9,2.0551033940941687e-8,9.228725026277312e-8,1.660912262054722e-7,7.023007150544701e-9,1.1903759559847476e-9,2.198070672682176e-9,0
55882,3.090901753387364e-8,9.116717907159578e-9,2.048242864427395e-8,9.158698749869397e-8,1.6475103348595615e-7,7.01241727391742e-9,1.1941963296877065e-9,2.2022412971912152e-9,0
55883,3.091173374502939e-8,9.122792866478192e-9,2.0413823347606218e-8,9.088672473461483e-8,1.634108407664401e-7,7.00182739729014e-9,1.1980167033906656e-9,2.2064119217002543e-9,0
55884,3.0942226762065894e-8,9.122867801404964e-9,2.0333233389006365e-8,9.016535949942253e-8,1.620849955342548e-7,6.993765794702366e-9,1.199905415427618e-9,2.2062485403676483e-9,0
55885,3.097271977910239e-8,9.122942736331738e-9,2.0252643430406512e-8,8.944399426423023e-8,1.6075915030206948e-7,6.985704192114591e-9,1.2017941274645705e-9,2.2060851590350422e-9,0
55886,3.0970562025086885e-8,9.125768306895827e-9,2.017204860943361e-8,8.948387220107255e-8,1.596461424624926e-7,6.990231657224765e-9,1.203842290149336e-9,2.2067472934848554e-9,0
55887,3.0968404271071374e-8,9.128593877459917e-9,2.0091453788460708e-8,8.952375013791489e-8,1.5853313462291572e-7,6.9947591223349395e-9,1.2058904528341017e-9,2.2074094279346686e-9,0
55888,3.0972779483125426e-8,9.137359524474425e-9,2.0085478475800324e-8,8.999744798661471e-8,1.586598040793156e-7,7.017129817100471e-9,1.2058904528341017e-9,2.205732569011664e-9,0
55889,3.097715469517947e-8,9.144160132990815e-9,2.00608120771773e-8,9.07569939065499e-8,1.5888239766350234e-7,7.0385416926869e-9,1.206049903481915e-9,2.202912040760417e-9,0
55890,3.0981529907233516e-8,9.150960741507206e-9,2.003614567855428e-8,9.15165398264851e-8,1.5910499124768907e-7,7.059953568273329e-9,1.2062093541297283e-9,2.20009151250917e-9,0
55891,3.098590511928757e-8,9.157761350023597e-9,2.001147927993126e-8,9.227608574642029e-8,1.593275848318758e-7,7.081365443859758e-9,1.2063688047775416e-9,2.1972709842579226e-9,0
55892,3.099028033134161e-8,9.164561958539986e-9,1.998681288130824e-8,9.303563166635547e-8,1.5955017841606254e-7,7.102777319446187e-9,1.2065282554253548e-9,2.1944504560066756e-9,0
55893,3.099465554339566e-8,9.171362567056377e-9,1.996214648268522e-8,9.379517758629067e-8,1.5977277200024927e-7,7.124189195032615e-9,1.206687706073168e-9,2.1916299277554286e-9,0
55894,3.09990307554497e-8,9.178163175572768e-9,1.99374800840622e-8,9.455472350622586e-8,1.59995365584436e-7,7.145601070619044e-9,1.2068471567209812e-9,2.188809399504181e-9,0
55895,3.100340596750375e-8,9.184963784089159e-9,1.991281368543918e-8,9.531426942616104e-8,1.6021795916862274e-7,7.1670129462054725e-9,1.2070066073687945e-9,2.185988871252934e-9,0
55896,3.10077811795578e-8,9.191764392605548e-9,1.988814728681616e-8,9.607381534609623e-8,1.6044055275280947e-7,7.188424821791901e-9,1.2071660580166077e-9,2.183168343001687e-9,0
55897,3.101215639161184e-8,9.198565001121939e-9,1.9863480888193135e-8,9.683336126603143e-8,1.606631463369962e-7,7.20983669737833e-9,1.207325508664421e-9,2.1803478147504397e-9,0
55898,3.1016531603665894e-8,9.20536560963833e-9,1.9838814489570115e-8,9.759290718596661e-8,1.6088573992118293e-7,7.231248572964759e-9,1.2074849593122343e-9,2.1775272864991927e-9,0
55899,3.102090681571994e-8,9.21216621815472e-9,1.9814148090947094e-8,9.83524531059018e-8,1.6110833350536964e-7,7.252660448551188e-9,1.2076444099600474e-9,2.1747067582479457e-9,0
55900,3.1025282027773984e-8,9.218966826671111e-9,1.9789481692324074e-8,9.9111999025837e-8,1.6133092708955637e-7,7.274072324137617e-9,1.2078038606078606e-9,2.1718862299966983e-9,0
55901,3.102965723982803e-8,9.2257674351875e-9,1.9764815293701054e-8,9.987154494577218e-8,1.615535206737431e-7,7.295484199724046e-9,1.207963311255674e-9,2.1690657017454513e-9,0
55902,3.103403245188208e-8,9.232568043703891e-9,1.9740148895078033e-8,1.0063109086570737e-7,1.6177611425792984e-7,7.316896075310474e-9,1.2081227619034872e-9,2.1662451734942043e-9,0
55903,3.1038407663936125e-8,9.239368652220282e-9,1.9715482496455013e-8,1.0139063678564257e-7,1.6199870784211657e-7,7.338307950896903e-9,1.2082822125513005e-9,2.1634246452429573e-9,0
55904,3.104278287599017e-8,9.246169260736673e-9,1.9690816097831993e-8,1.0215018270557775e-7,1.622213014263033e-7,7.3597198264833315e-9,1.2084416631991135e-9,2.16060411699171e-9,0
55905,3.1047158088044215e-8,9.252969869253062e-9,1.966614969920897e-8,1.0290972862551294e-7,1.6244389501049004e-7,7.3811317020697604e-9,1.2086011138469268e-9,2.157783588740463e-9,0
55906,3.103276332453209e-8,9.251004830754944e-9,1.9643488037800876e-8,1.0298229497281314e-7,1.625318944298843e-7,7.379712816828762e-9,1.2073808061618784e-9,2.1541375447067966e-9,0
55907,3.102025000748797e-8,9.297765636589312e-9,1.9674720887289438e-8,1.031731998040566e-7,1.6261989384927858e-7,7.3959395473647244e-9,1.2061604984768297e-9,2.150826872457731e-9,0
55908,3.1007736690443856e-8,9.34452644242368e-9,1.9705953736778e-8,1.0336410463530007e-7,1.6270789326867285e-7,7.412166277900688e-9,1.2049401907917812e-9,2.1475162002086655e-9,0
55909,3.101043300025859e-8,9.377609004998241e-9,1.9698298430243567e-8,1.0353233481348245e-7,1.6277676270495946e-7,7.424979110726824e-9,1.1970664413483449e-9,2.1470260562108473e-9,0
55910,3.094520522147337e-8,9.390771416855235e-9,1.964452061630011e-8,1.0373466481386432e-7,1.6260751778630925e-7,7.338660312996544e-9,1.1822632984799487e-9,2.1415569901603475e-9,0
55911,3.0879977442688156e-8,9.403933828712228e-9,1.9590742802356658e-8,1.0393699481424619e-7,1.6243827286765904e-7,7.252341515266265e-9,1.1674601556115524e-9,2.136087924109848e-9,0
55912,3.081474966390293e-8,9.41709624056922e-9,1.9536964988413202e-8,1.0413932481462806e-7,1.622690279490088e-7,7.166022717535985e-9,1.1526570127431563e-9,2.1306188580593488e-9,0
55913,3.0749521885117716e-8,9.430258652426213e-9,1.948318717446975e-8,1.0434165481500994e-7,1.620997830303586e-7,7.079703919805706e-9,1.13785386987476e-9,2.1251497920088494e-9,0
55914,3.06842941063325e-8,9.443421064283206e-9,1.9429409360526292e-8,1.0454398481539181e-7,1.6193053811170836e-7,6.993385122075426e-9,1.1230507270063638e-9,2.1196807259583496e-9,0
55915,3.061906632754728e-8,9.456583476140198e-9,1.937563154658284e-8,1.0474631481577368e-7,1.6176129319305815e-7,6.907066324345147e-9,1.1082475841379674e-9,2.1142116599078503e-9,0
55916,3.055383854876206e-8,9.46974588799719e-9,1.9321853732639386e-8,1.0494864481615555e-7,1.6159204827440794e-7,6.820747526614867e-9,1.0934444412695713e-9,2.108742593857351e-9,0
55917,3.048861076997684e-8,9.482908299854183e-9,1.926807591869593e-8,1.0515097481653743e-7,1.614228033557577e-7,6.734428728884588e-9,1.078641298401175e-9,2.103273527806851e-9,0
55918,3.0423382991191625e-8,9.496070711711176e-9,1.9214298104752477e-8,1.0535330481691929e-7,1.612535584371075e-7,6.648109931154308e-9,1.0638381555327788e-9,2.0978044617563517e-9,0
55919,3.035815521240641e-8,9.509233123568168e-9,1.916052029080902e-8,1.0555563481730117e-7,1.6108431351845729e-7,6.561791133424029e-9,1.0490350126643825e-9,2.0923353957058523e-9,0
55920,3.0292927433621185e-8,9.52239553542516e-9,1.9106742476865567e-8,1.0575796481768305e-7,1.6091506859980705e-7,6.475472335693749e-9,1.0342318697959864e-9,2.0868663296553526e-9,0
55921,3.022769965483597e-8,9.535557947282153e-9,1.905296466292211e-8,1.0596029481806491e-7,1.6074582368115684e-7,6.38915353796347e-9,1.01942872692759e-9,2.081397263604853e-9,0
55922,3.01781603546858e-8,9.580520662757555e-9,1.907317145772857e-8,1.0608772400825788e-7,1.6077291012603239e-7,6.401618187291805e-9,1.0193224264957145e-9,2.0805631387030453e-9,0
55923,3.012862105453563e-8,9.625483378232958e-9,1.9093378252535027e-8,1.0621515319845083e-7,1.6079999657090793e-7,6.41408283662014e-9,1.0192161260638392e-9,2.0797290138012375e-9,0
55924,3.007908175438546e-8,9.67044609370836e-9,1.9113585047341487e-8,1.063425823886438e-7,1.6082708301578348e-7,6.4265474859484744e-09,1.0191098256319637e-9,2.0788948888994297e-9,0
55925,3.002539437418288e-8,9.682326246609199e-9,1.9093625197907106e-8,1.0626550641826348e-7,1.6132343513236527e-7,6.424242977037156e-9,1.0180591691816118e-9,2.07855090799544e-9,0
55926,2.997170699398029e-8,9.694206399510038e-9,1.9073665348472728e-8,1.0618843044788317e-7,1.6181978724894706e-7,6.421938468125838e-9,1.0170085127312602e-9,2.0782069270914508e-9,0
55927,2.9918360311780155e-8,9.691198893821442e-9,1.9053705499038346e-8,1.0614175757262723e-7,1.6175273546047548e-7,6.417333628905041e-9,1.0170085127312602e-9,2.0795398051104653e-9,0
55928,2.986501362958002e-8,9.688191388132845e-9,1.903374564960397e-8,1.060950846973713e-7,1.616856836720039e-7,6.412728789684244e-9,1.0170085127312602e-9,2.0808726831294803e-9,0
55929,2.9811666947379884e-8,9.685183882444249e-9,1.901378580016959e-8,1.0604841182211536e-7,1.616186318835323e-7,6.408123950463448e-9,1.0170085127312602e-9,2.0822055611484953e-9,0
55930,2.9758320265179748e-8,9.682176376755653e-9,1.899382595073521e-8,1.0600173894685942e-7,1.6155158009506074e-7,6.4035191112426505e-9,1.0170085127312602e-9,2.08353843916751e-9,0
55931,2.9700899266245994e-8,9.68096696142602e-9,1.900881285611667e-8,1.0602361708643391e-7,1.614048344081676e-7,6.3707132880710845e-9,1.0157350548302738e-9,2.0802363760378332e-9,0
55932,2.9643478267312236e-8,9.67975754609639e-9,1.902379976149813e-8,1.0604549522600842e-7,1.6125808872127442e-7,6.337907464899518e-9,1.0144615969292875e-9,2.0769343129081563e-9,0
55933,2.9586057268378478e-8,9.67854813076676e-9,1.9038786666879588e-8,1.0606737336558291e-7,1.6111134303438125e-7,6.305101641727951e-9,1.013188139028301e-9,2.0736322497784797e-9,0
55934,2.9528636269444723e-8,9.677338715437129e-9,1.9053773572261048e-8,1.0608925150515742e-7,1.6096459734748807e-7,6.272295818556384e-9,1.0119146811273149e-9,2.0703301866488027e-9,0
55935,2.9471215270510965e-8,9.676129300107499e-9,1.9068760477642507e-8,1.0611112964473191e-7,1.6081785166059493e-7,6.239489995384817e-9,1.0106412232263284e-9,2.0670281235191257e-9,0
55936,2.9413794271577207e-8,9.674919884777868e-9,1.9083747383023967e-8,1.0613300778430641e-7,1.6067110597370176e-7,6.2066841722132504e-9,1.0093677653253422e-9,2.063726060389449e-9,0
55937,2.9356373272643453e-8,9.673710469448238e-9,1.9098734288405427e-8,1.061548859238809e-7,1.6052436028680858e-7,6.173878349041684e-9,1.0080943074243558e-9,2.060423997259772e-9,0
55938,2.9298952273709695e-8,9.672501054118606e-9,1.9113721193786886e-8,1.0617676406345541e-7,1.603776145999154e-7,6.141072525870117e-9,1.0068208495233695e-9,2.0571219341300956e-9,0
55939,2.9250597809113548e-8,9.676476092070908e-9,1.9116728299609276e-8,1.0621088473068015e-7,1.6054527865952107e-7,6.110837842395207e-9,1.0047726868386038e-9,2.0524869929814036e-9,0
55940,2.919372005241094e-8,9.686526089341821e-9,1.9127938088813808e-8,1.062450053979049e-7,1.603997216788868e-7,6.091150169890428e-9,1.0026713739379003e-9,2.0468459364789096e-9,0
55941,2.9136842295708335e-8,9.696576086612733e-9,1.913914787801834e-8,1.0627912606512965e-7,1.6025416469825252e-7,6.071462497385647e-9,1.000570061037197e-9,2.041204879976415e-9,0
55942,2.9079964539005725e-8,9.706626083883647e-9,1.9150357667222875e-8,1.0631324673235439e-7,1.6010860771761825e-7,6.051774824880868e-9,9.984687481364936e-10,2.035563823473921e-9,0
55943,2.904956518662903e-8,9.693885398916837e-9,1.913759813256317e-8,1.06269725678499e-7,1.5952240111034903e-7,6.058181241293936e-9,9.984155979205558e-10,2.0099295966862042e-9,0
55944,2.9019165834252338e-8,9.681144713950026e-9,1.9124838597903467e-8,1.0622620462464363e-7,1.5893619450307982e-7,6.064587657707004e-9,9.98362447704618e-10,1.9842953698984873e-9,0
55945,2.8969655808307018e-8,9.687144738341865e-9,1.9137041030969365e-8,1.0625114674301083e-7,1.5875188855584976e-7,6.078243248546309e-9,9.962611348039146e-10,1.9844587512310933e-9,0
55946,2.8924432016187862e-8,9.68188535013316e-9,1.914927750064661e-8,1.0657861016574958e-7,1.5901732206179868e-7,6.079623446731996e-9,9.939370204525767e-10,1.9844587512310933e-9,0
55947,2.8879208224068703e-8,9.676625961924454e-9,1.9161513970323857e-8,1.0690607358848833e-7,1.5928275556774757e-7,6.0810036449176835e-9,9.916129061012386e-10,1.9844587512310933e-9,0
55948,2.8833984431949547e-8,9.67136657371575e-9,1.91737504400011e-8,1.0723353701122708e-7,1.595481890736965e-7,6.08238384310337e-9,9.892887917499006e-10,1.9844587512310933e-9,0
55949,2.878876063983039e-8,9.666107185507044e-9,1.918598690967835e-8,1.0756100043396584e-7,1.598136225796454e-7,6.083764041289057e-9,9.869646773985625e-10,1.9844587512310933e-9,0
55950,2.8743536847711232e-8,9.660847797298338e-9,1.9198223379355593e-8,1.0788846385670459e-7,1.600790560855943e-7,6.085144239474745e-9,9.846405630472244e-10,1.9844587512310933e-9,0
55951,2.8698313055592076e-8,9.655588409089633e-9,1.921045984903284e-8,1.0821592727944334e-7,1.6034448959154322e-7,6.0865244376604314e-9,9.823164486958864e-10,1.9844587512310933e-9,0
55952,2.865308926347292e-8,9.650329020880928e-9,1.9222696318710085e-8,1.0854339070218209e-7,1.6060992309749213e-7,6.087904635846119e-9,9.799923343445483e-10,1.9844587512310933e-9,0
55953,2.860786547135376e-8,9.645069632672222e-9,1.9234932788387332e-8,1.0887085412492084e-7,1.6087535660344105e-7,6.089284834031806e-9,9.776682199932102e-10,1.9844587512310933e-9,0
55954,2.8562641679234606e-8,9.639810244463517e-9,1.9247169258064576e-8,1.0919831754765959e-7,1.6114079010938994e-7,6.0906650322174926e-9,9.753441056418724e-10,1.9844587512310933e-9,0
55955,2.851741788711545e-8,9.634550856254812e-9,1.9259405727741824e-8,1.0952578097039834e-7,1.6140622361533886e-7,6.09204523040318e-9,9.730199912905343e-10,1.9844587512310933e-9,0
55956,2.847219409499629e-8,9.629291468046106e-9,1.927164219741907e-8,1.0985324439313709e-7,1.6167165712128778e-7,6.093425428588867e-9,9.706958769391962e-10,1.9844587512310933e-9,0
55957,2.8426970302877135e-8,9.6240320798374e-9,1.9283878667096316e-08,1.1018070781587584e-7,1.6193709062723667e-7,6.094805626774554e-9,9.683717625878581e-10,1.9844587512310933e-9,0
55958,2.838174651075798e-8,9.618772691628696e-9,1.9296115136773563e-8,1.1050817123861459e-7,1.622025241331856e-7,6.096185824960241e-9,9.6604764823652e-10,1.9844587512310933e-9,0
55959,2.833652271863882e-8,9.61351330341999e-9,1.9308351606450807e-8,1.1083563466135334e-7,1.624679576391345e-7,6.097566023145928e-9,9.63723533885182e-10,1.9844587512310933e-9,0
55960,2.8291298926519665e-8,9.608253915211285e-9,1.9320588076128055e-8,1.111630980840921e-7,1.627333911450834e-7,6.098946221331615e-9,9.61399419533844e-10,1.9844587512310933e-9,0
55961,2.825756635743728e-8,9.602238903834092e-9,1.932283975871506e-8,1.1118166956207557e-7,1.626400356298388e-7,6.109149227405783e-9,9.59075305182506e-10,1.9847941230156944e-9,0
55962,2.820805633149196e-8,9.62622401441609e-9,1.949148152318067e-8,1.1146341445823331e-7,1.6247980977341036e-7,6.109149227405783e-9,9.578018472815196e-10,1.985129494800295e-9,0
55963,2.8158546305546643e-8,9.65020912499809e-9,1.966012328764628e-8,1.1174515935439106e-7,1.6231958391698192e-7,6.109149227405783e-9,9.565283893805334e-10,1.985464866584896e-9,0
55964,2.8109036279601323e-8,9.674194235580089e-9,1.982876505211189e-8,1.1202690425054881e-7,1.621593580605535e-7,6.109149227405783e-9,9.55254931479547e-10,1.985800238369497e-9,0
55965,2.8059526253656006e-8,9.698179346162089e-9,1.9997406816577498e-8,1.1230864914670654e-7,1.6199913220412506e-7,6.109149227405783e-9,9.539814735785607e-10,1.986135610154098e-9,0
55966,2.80581435603052e-8,9.708304278359775e-9,2.0163811485575253e-8,1.1207542029308097e-7,1.6198776340012687e-7,6.1043551315102695e-9,9.528674663253876e-10,1.9856454661562794e-9,0
55967,2.805868680253635e-8,9.726289364549936e-9,2.0330216154573008e-8,1.1102063337278451e-7,1.6010094452172359e-7,6.090699540670964e-9,9.536421711091669e-10,1.9731594199873277e-9,0
55968,2.8059230044767498e-8,9.744274450740097e-9,2.049662082357076e-8,1.0996584645248804e-7,1.582141256433203e-7,6.077043949831659e-9,9.544168758929462e-10,1.9606733738183757e-9,0
55969,2.805977328699865e-8,9.762259536930258e-9,2.0663025492568514e-8,1.0891105953219157e-7,1.56327306764917e-7,6.063388358992354e-9,9.551915806767257e-10,1.948187327649424e-9,0
55970,2.8060316529229798e-8,9.780244623120419e-9,2.0829430161566266e-8,1.078562726118951e-7,1.5444048788651373e-7,6.049732768153049e-9,9.55966285460505e-10,1.935701281480472e-9,0
55971,2.8060859771460946e-8,9.79822970931058e-9,2.099583483056402e-8,1.0680148569159863e-7,1.5255366900811044e-7,6.036077177313744e-9,9.567409902442842e-10,1.9232152353115202e-9,0
55972,2.8061403013692097e-8,9.81621479550074e-9,2.1162239499561773e-8,1.0574669877130216e-7,1.5066685012970715e-7,6.0224215864744386e-09,9.575156950280637e-10,1.910729189142568e-9,0
55973,2.8061946255923245e-8,9.834199881690901e-9,2.1328644168559528e-8,1.046919118510057e-7,1.4878003125130387e-7,6.0087659956351334e-9,9.58290399811843e-10,1.8982431429736165e-9,0
55974,2.8062489498154397e-8,9.852184967881062e-9,2.149504883755728e-8,1.0363712493070923e-7,1.4689321237290058e-7,5.995110404795828e-9,9.590651045956223e-10,1.8857570968046644e-9,0
55975,2.8063032740385545e-8,9.870170054071221e-9,2.1661453506555034e-8,1.0258233801041275e-7,1.450063934944973e-7,5.981454813956523e-9,9.598398093794016e-10,1.8732710506357127e-9,0
55976,2.8063575982616693e-8,9.888155140261382e-9,2.1827858175552786e-8,1.0152755109011629e-7,1.43119574616094e-7,5.967799223117218e-9,9.60614514163181e-10,1.8607850044667608e-9,0
55977,2.8064119224847844e-08,9.906140226451543e-9,2.199426284455054e-8,1.0047276416981982e-7,1.4123275573769072e-7,5.954143632277913e-9,9.613892189469604e-10,1.848298958297809e-9,0
55978,2.8064662467078993e-8,9.924125312641704e-9,2.2160667513548293e-8,9.941797724952335e-8,1.3934593685928744e-7,5.940488041438608e-9,9.621639237307397e-10,1.835812912128857e-9,0
55979,2.8065205709310144e-8,9.942110398831865e-9,2.2327072182546048e-8,9.836319032922688e-8,1.3745911798088415e-7,5.9268324505993025e-9,9.629386285145192e-10,1.8233268659599052e-9,0
55980,2.8065748951541292e-8,9.960095485022026e-9,2.24934768515438e-8,9.730840340893041e-8,1.3557229910248087e-7,5.913176859759997e-9,9.637133332982984e-10,1.8108408197909533e-9,0
55981,2.806629219377244e-8,9.978080571212187e-9,2.2659881520541554e-8,9.625361648863395e-8,1.3368548022407758e-7,5.899521268920692e-9,9.644880380820777e-10,1.7983547736220014e-9,0
55982,2.806683543600359e-8,9.996065657402348e-9,2.2826286189539306e-8,9.519882956833747e-8,1.317986613456743e-7,5.885865678081387e-9,9.65262742865857e-10,1.7858687274530496e-9,0
55983,2.8092405312322976e-8,9.98403563464796e-9,2.2826286189539306e-8,9.384343743854411e-8,1.300483511274733e-7,5.873783720704325e-9,9.690831165688161e-10,1.7733826812840977e-9,0
55984,2.811797518864236e-8,9.972005611893575e-9,2.2826286189539306e-8,9.248804530875074e-8,1.282980409092723e-7,5.861701763327263e-9,9.72903490271775e-10,1.7608966351151458e-9,0
55985,2.8175396187576114e-8,9.963693757040209e-9,2.2836285563748696e-8,9.12918060384106e-8,1.264027196397691e-7,5.858249178562126e-9,9.73571894623679e-10,1.748075217161593e-9,0
55986,2.823170611427464e-8,9.937561672835584e-9,2.2818374212886696e-8,9.142749665632983e-8,1.2603005829625464e-7,5.792839324699229e-9,9.656981451802426e-10,1.7422707793264928e-9,0
55987,2.8274979383038913e-8,9.94053920455347e-9,2.283061068256394e-8,9.156046274587628e-8,1.2592341789413318e-7,5.8025048906008775e-9,9.656981451802426e-10,1.7402843759770534e-9,0
55988,2.8327570905915358e-8,9.942232386014954e-9,2.283385500901231e-8,9.123094177559293e-8,1.259404405943377e-7,5.812286517668461e-9,9.656981451802426e-10,1.731822791223312e-9,0
55989,2.8380162428791803e-8,9.943925567476437e-9,2.2837099335460682e-8,9.090142080530959e-8,1.2595746329454221e-7,5.8220681447360444e-9,9.656981451802426e-10,1.7233612064695708e-9,0
55990,2.843275395166825e-8,9.94561874893792e-9,2.284034366190905e-8,9.057189983502624e-8,1.259744859947467e-7,5.831849771803627e-9,9.656981451802426e-10,1.7148996217158293e-9,0
55991,2.8485345474544694e-8,9.947311930399404e-9,2.2843587988357423e-8,9.02423788647429e-8,1.2599150869495122e-7,5.8416313988712106e-9,9.656981451802426e-10,1.706438036962088e-9,0
55992,2.8537936997421142e-8,9.949005111860885e-9,2.2846832314805792e-8,8.991285789445956e-8,1.2600853139515574e-7,5.851413025938793e-9,9.656981451802426e-10,1.6979764522083465e-9,0
55993,2.8590528520297587e-8,9.950698293322368e-9,2.285007664125416e-8,8.958333692417621e-8,1.2602555409536026e-7,5.861194653006377e-9,9.656981451802426e-10,1.689514867454605e-9,0
55994,2.8643120043174033e-8,9.952391474783852e-9,2.2853320967702534e-8,8.925381595389287e-8,1.2604257679556477e-7,5.87097628007396e-9,9.656981451802426e-10,1.6810532827008636e-9,0
55995,2.8695711566050478e-8,9.954084656245335e-9,2.2856565294150903e-8,8.892429498360952e-8,1.2605959949576926e-7,5.880757907141543e-9,9.656981451802426e-10,1.6725916979471222e-9,0
55996,2.8748303088926923e-8,9.955777837706818e-9,2.2859809620599275e-8,8.859477401332618e-8,1.2607662219597378e-7,5.890539534209126e-9,9.656981451802426e-10,1.6641301131933808e-9,0
55997,2.8743132914867164e-8,9.955732876750753e-9,2.2851819845977862e-8,8.821310134100234e-8,1.260860610817226e-7,5.891498353388229e-9,9.68637513667547e-10,1.6593145724733058e-9,0
55998,2.873830343880985e-8,9.95346600724529e-9,2.2842827702748987e-8,8.779033438282655e-8,1.2653288853325732e-7,5.891614414554163e-9,9.679159590997052e-10,1.6520224844059731e-9,0
55999,2.8733473962752542e-8,9.951199137739826e-9,2.2833835559520112e-8,8.736756742465075e-8,1.2697971598479204e-7,5.891730475720097e-9,9.671944045318637e-10,1.6447303963386404e-9,0
56000,2.872864448669523e-8,9.948932268234364e-9,2.2824843416291237e-8,8.694480046647496e-8,1.2742654343632677e-7,5.8918465368860306e-9,9.664728499640221e-10,1.6374383082713077e-9,0
56001,2.8654991766895274e-8,9.946710359684964e-9,2.281588044730066e-8,8.67971442362496e-8,1.2785634818765697e-7,5.892383977058549e-9,9.664728499640221e-10,1.6384444236251104e-9,0
56002,2.858133904709532e-8,9.944488451135564e-9,2.2806917478310082e-8,8.664948800602422e-8,1.2828615293898717e-7,5.892921417231067e-9,9.664728499640221e-10,1.639450538978913e-9,0
56003,2.858022797486009e-8,9.932216545315252e-9,2.280291772862633e-8,8.667796308626238e-8,1.2630984813457472e-7,5.789533130951656e-9,9.578775459527443e-10,1.6406200356653218e-9,0
56004,2.8610059497232704e-8,9.919944639494939e-9,2.2814858629200995e-8,8.664307121308315e-8,1.2388697217287152e-7,5.685607404499727e-9,9.493353921574042e-10,1.6417895323517305e-9,0
56005,2.8639891019605317e-8,9.907672733674627e-9,2.2826799529775664e-8,8.660817933990391e-8,1.214640962111683e-7,5.581681678047798e-9,9.40793238362064e-10,1.6429590290381392e-9,0
56006,2.866972254197793e-8,9.895400827854313e-9,2.2838740430350332e-8,8.657328746672468e-8,1.1904122024946509e-7,5.477755951595868e-9,9.32251084566724e-10,1.644128525724548e-9,0
56007,2.8699554064350548e-8,9.883128922034002e-9,2.2850681330924997e-8,8.653839559354544e-8,1.1661834428776186e-7,5.373830225143939e-9,9.23708930771384e-10,1.6452980224109566e-9,0
56008,2.872938558672316e-8,9.87085701621369e-9,2.2862622231499666e-8,8.650350372036621e-8,1.1419546832605865e-7,5.26990449869201e-9,9.151667769760439e-10,1.6464675190973653e-9,0
56009,2.8759217109095775e-8,9.858585110393376e-9,2.2874563132074335e-8,8.646861184718697e-8,1.1177259236435544e-7,5.165978772240081e-9,9.066246231807038e-10,1.647637015783774e-9,0
56010,2.878904863146839e-8,9.846313204573065e-9,2.2886504032649003e-8,8.643371997400774e-8,1.0934971640265222e-7,5.0620530457881515e-9,8.980824693853637e-10,1.6488065124701828e-9,0
56011,2.8818880153841002e-8,9.834041298752751e-9,2.289844493322367e-8,8.63988281008285e-8,1.0692684044094901e-7,4.9581273193362225e-9,8.895403155900237e-10,1.6499760091565915e-9,0
56012,2.8848711676213616e-8,9.82176939293244e-9,2.2910385833798337e-8,8.636393622764927e-8,1.045039644792458e-7,4.8542015928842935e-9,8.809981617946836e-10,1.6511455058430004e-9,0
56013,2.8878543198586233e-8,9.809497487112126e-9,2.2922326734373006e-8,8.632904435447003e-8,1.0208108851754258e-7,4.7502758664323645e-9,8.724560079993435e-10,1.6523150025294091e-9,0
56014,2.8908374720958846e-8,9.797225581291814e-9,2.2934267634947674e-8,8.62941524812908e-8,9.965821255583937e-8,4.646350139980435e-9,8.639138542040033e-10,1.6534844992158178e-9,0
56015,2.893820624333146e-8,9.784953675471502e-9,2.294620853552234e-8,8.625926060811156e-8,9.723533659413614e-8,4.542424413528506e-9,8.553717004086632e-10,1.6546539959022266e-9,0
56016,2.8968037765704073e-8,9.772681769651189e-9,2.2958149436097008e-8,8.622436873493234e-8,9.481246063243293e-8,4.438498687076577e-9,8.468295466133232e-10,1.6558234925886353e-9,0
56017,2.8997869288076687e-8,9.760409863830877e-9,2.2970090336671677e-8,8.61894768617531e-8,9.238958467072972e-8,4.334572960624648e-9,8.382873928179831e-10,1.656992989275044e-9,0
56018,2.90277008104493e-8,9.748137958010563e-9,2.2982031237246345e-8,8.615458498857387e-8,8.99667087090265e-8,4.230647234172718e-9,8.29745239022643e-10,1.6581624859614527e-9,0
56019,2.9025977419096047e-8,9.73687854541002e-9,2.2982011787754144e-8,8.808022761655054e-8,8.754263020569372e-8,4.13439623975545e-9,8.209271335607306e-10,1.6581624859614527e-9,0
56020,2.9064519562894734e-8,9.760426942116481e-9,2.298423429610285e-8,8.85766298883504e-8,8.51197542439905e-8,4.035612792696836e-9,8.142736918023429e-10,1.669779970751042e-9,0
56021,2.9103061706693417e-8,9.783975338822943e-9,2.2986456804451557e-8,8.907303216015026e-8,8.269687828228729e-8,3.936829345638221e-9,8.076202500439554e-10,1.6813974555406315e-9,0
56022,2.9141603850492104e-8,9.807523735529405e-9,2.2988679312800263e-8,8.956943443195011e-8,8.027400232058408e-8,3.8380458985796076e-9,8.009668082855677e-10,1.6930149403302209e-9,0
56023,2.9180145994290787e-8,9.831072132235867e-9,2.299090182114897e-8,9.006583670374997e-8,7.785112635888087e-8,3.739262451520993e-9,7.943133665271801e-10,1.7046324251198104e-9,0
56024,2.9180145994290787e-8,9.860695488260943e-9,2.2984921646115536e-8,9.041431029248718e-8,7.784261013241023e-8,3.739610635018795e-9,7.943133665271801e-10,1.7126038658757334e-9,0
56025,2.8458691424989677e-8,9.894293882238318e-9,2.297096628357984e-8,9.094825750574962e-8,7.743733296615007e-8,3.737503739985873e-9,7.964780302307048e-10,1.71139993271177e-9,0
56026,2.7737236855688566e-8,9.927892276215692e-9,2.2957010921044147e-8,9.148220471901207e-8,7.70320557998899e-8,3.735396844952951e-9,7.986426939342296e-10,1.7101959995478067e-9,0
56027,2.7015782286387453e-8,9.961490670193068e-9,2.294305555850845e-8,9.20161519322745e-8,7.662677863362974e-8,3.733289949920029e-9,8.008073576377544e-10,1.7089920663838433e-9,0
56028,2.6294327717086343e-8,9.995089064170443e-9,2.2929100195972754e-8,9.255009914553694e-8,7.622150146736956e-8,3.731183054887107e-9,8.029720213412792e-10,1.70778813321988e-9,0
56029,2.557287314778523e-8,1.0028687458147819e-8,2.291514483343706e-8,9.30840463587994e-8,7.581622430110939e-8,3.729076159854185e-9,8.05136685044804e-10,1.7065842000559166e-9,0
56030,2.485141857848412e-8,1.0062285852125193e-8,2.2901189470901365e-8,9.361799357206183e-8,7.541094713484923e-8,3.726969264821263e-9,8.073013487483288e-10,1.7053802668919533e-9,0
56031,2.4129964009183005e-8,1.0095884246102568e-8,2.2887234108365667e-8,9.415194078532427e-8,7.500566996858905e-8,3.724862369788341e-9,8.094660124518536e-10,1.70417633372799e-9,0
56032,2.3408509439881895e-8,1.0129482640079944e-8,2.2873278745829972e-8,9.468588799858672e-8,7.460039280232889e-8,3.722755474755419e-9,8.116306761553784e-10,1.7029724005640266e-9,0
56033,2.2687054870580785e-8,1.016308103405732e-8,2.2859323383294277e-8,9.521983521184916e-8,7.419511563606872e-8,3.720648579722497e-9,8.137953398589033e-10,1.7017684674000634e-9,0
56034,2.196560030127967e-8,1.0196679428034693e-8,2.284536802075858e-8,9.57537824251116e-8,7.378983846980854e-8,3.718541684689575e-9,8.159600035624281e-10,1.7005645342361e-9,0
56035,2.2004142445078358e-8,1.0223567135407807e-8,2.285058791018358e-8,9.620938370892204e-8,7.369570023646142e-8,3.72368396408289e-9,8.178487155993805e-10,1.7113565032432702e-9,0
56036,2.2012853066504427e-8,1.0239120495253603e-8,2.2807898326118407e-8,9.554664950378707e-8,7.364569881893573e-8,3.725988472994208e-9,8.197374276363329e-10,1.7186399821912141e-9,0
56037,2.2021563687930497e-8,1.0254673855099397e-8,2.2765208742053235e-8,9.488391529865212e-8,7.359569740141003e-8,3.728292981905527e-9,8.216261396732853e-10,1.7259234611391583e-9,0
56038,2.203027430935657e-8,1.0270227214945193e-8,2.2722519157988062e-8,9.422118109351715e-8,7.354569598388434e-8,3.730597490816845e-9,8.235148517102378e-10,1.7332069400871022e-9,0
56039,2.203898493078264e-8,1.0285780574790989e-8,2.2679829573922893e-08,9.355844688838218e-8,7.349569456635864e-8,3.732901999728163e-9,8.254035637471902e-10,1.7404904190350463e-9,0
56040,2.204769555220871e-8,1.0301333934636785e-8,2.263713998985772e-8,9.289571268324723e-8,7.344569314883295e-8,3.735206508639482e-9,8.272922757841427e-10,1.7477738979829902e-9,0
56041,2.2019473855188533e-8,1.0281066991955805e-8,2.259046524322794e-8,9.172045680386447e-8,7.341699817417146e-8,3.737162834052998e-9,8.279606801360465e-10,1.743603273473951e-9,0
56042,2.1991252158168357e-8,1.0260800049274827e-8,2.2543790496598164e-8,9.054520092448171e-8,7.338830319950999e-8,3.739119159466515e-9,8.286290844879504e-10,1.7394326489649118e-9,0
56043,2.1970852455908732e-8,1.0240533106593848e-8,2.2575632898130612e-8,8.935831442070587e-8,7.338830319950999e-8,3.7393899688536934e-9,8.283531328213781e-10,1.7352620244558724e-9,0
56044,2.1885086821090143e-8,1.0228261200773536e-8,2.2400947747781917e-8,8.933643628113138e-8,7.32095722188961e-8,3.6966090833379874e-9,8.273024763710263e-10,1.7352620244558724e-9,0
56045,2.1799321186271553e-8,1.0215989294953222e-8,2.2226262597433226e-8,8.931455814155687e-8,7.303084123828222e-8,3.653828197822281e-9,8.262518199206746e-10,1.7352620244558724e-9,0
56046,2.1713555551452964e-8,1.020371738913291e-8,2.2051577447084532e-8,8.929268000198238e-8,7.285211025766832e-8,3.6110473123065746e-9,8.252011634703228e-10,1.7352620244558724e-9,0
56047,2.1627789916634375e-8,1.0191445483312599e-8,2.1876892296735838e-8,8.927080186240788e-8,7.267337927705444e-8,3.568266426790868e-9,8.241505070199712e-10,1.7352620244558724e-9,0
56048,2.1542024281815786e-8,1.0179173577492285e-8,2.1702207146387147e-8,8.924892372283339e-8,7.249464829644055e-8,3.5254855412751618e-9,8.230998505696195e-10,1.7352620244558724e-9,0
56049,2.1456258646997193e-8,1.0166901671671973e-8,2.1527521996038452e-8,8.922704558325888e-8,7.231591731582666e-8,3.4827046557594553e-9,8.220491941192677e-10,1.7352620244558724e-9,0
56050,2.1370493012178604e-8,1.015462976585166e-8,2.1352836845689758e-8,8.920516744368439e-8,7.213718633521278e-8,3.439923770243749e-9,8.20998537668916e-10,1.7352620244558724e-9,0
56051,2.1284727377360014e-8,1.0142357860031348e-8,2.1178151695341064e-8,8.918328930410988e-8,7.195845535459889e-8,3.3971428847280425e-9,8.199478812185643e-10,1.7352620244558724e-9,0
56052,2.1198961742541425e-8,1.0130085954211035e-8,2.1003466544992373e-8,8.916141116453539e-8,7.177972437398501e-8,3.354361999212336e-9,8.188972247682126e-10,1.7352620244558724e-9,0
56053,2.1113196107722836e-8,1.0117814048390723e-8,2.082878139464368e-8,8.913953302496089e-8,7.160099339337112e-8,3.3115811136966297e-9,8.178465683178609e-10,1.7352620244558724e-9,0
56054,2.1027430472904247e-8,1.010554214257041e-8,2.0654096244294984e-8,8.91176548853864e-8,7.142226241275724e-8,3.268800228180923e-9,8.167959118675092e-10,1.7352620244558724e-9,0
56055,2.0941664838085657e-8,1.0093270236750098e-8,2.0479411093946293e-8,8.909577674581189e-8,7.124353143214335e-8,3.2260193426652164e-9,8.157452554171575e-10,1.7352620244558724e-9,0
56056,2.0857800551076088e-8,1.0080998330929786e-8,2.0224223507712645e-8,8.935701469159524e-8,7.104668181002691e-8,3.180091190225023e-9,8.157452554171575e-10,1.7350986431232664e-9,0
56057,2.0773936264066522e-8,1.0068726425109472e-8,1.9969035921479e-8,8.961825263737857e-8,7.084983218791046e-8,3.1341630377848295e-9,8.157452554171575e-10,1.7349352617906603e-9,0
56058,2.0690071977056956e-8,1.005645451928916e-8,1.9713848335245352e-8,8.987949058316192e-8,7.065298256579403e-8,3.088234885344636e-9,8.157452554171575e-10,1.734771880458054e-9,0
56059,2.069768674115689e-8,1.004743200222337e-8,1.970787788495802e-8,8.993697372930122e-8,7.068127155229914e-8,3.0876587581168066e-9,8.165199602009368e-10,1.7137984221771948e-9,0
56060,2.0711108586207535e-8,1.0042429484065947e-8,1.995709502090433e-8,8.97028158345328e-8,7.088000799908405e-8,3.1007769087835935e-9,8.184086722378892e-10,1.6929883452289418e-9,0
56061,2.0726639009727824e-8,1.0026317423161524e-8,2.018762107088801e-8,8.931947121764162e-8,7.089402434521464e-8,3.114011120616314e-9,8.166896114356337e-10,1.6737261823486415e-9,0
56062,2.0742169433248114e-8,1.0010205362257103e-8,2.0418147120871683e-8,8.893612660075043e-8,7.090804069134522e-8,3.127245332449035e-9,8.149705506333781e-10,1.6544640194683413e-9,0
56063,2.0757699856768406e-8,9.994093301352682e-9,2.064867317085536e-8,8.855278198385925e-8,7.092205703747581e-8,3.1404795442817556e-9,8.132514898311226e-10,1.635201856588041e-9,0
56064,2.0773230280288695e-8,9.97798124044826e-9,2.0879199220839034e-8,8.816943736696806e-8,7.093607338360639e-8,3.1537137561144767e-9,8.11532429028867e-10,1.6159396937077407e-9,0
56065,2.0788760703808985e-8,9.961869179543838e-9,2.1109725270822708e-8,8.778609275007686e-8,7.095008972973698e-8,3.1669479679471974e-9,8.098133682266115e-10,1.5966775308274404e-9,0
56066,2.0804291127329274e-8,9.945757118639417e-9,2.1340251320806385e-8,8.740274813318568e-8,7.096410607586756e-8,3.180182179779918e-9,8.080943074243558e-10,1.5774153679471401e-9,0
56067,2.0819821550849566e-8,9.929645057734996e-9,2.157077737079006e-8,8.701940351629449e-8,7.097812242199814e-8,3.193416391612639e-9,8.063752466221003e-10,1.55815320506684e-9,0
56068,2.0835351974369856e-8,9.913532996830575e-9,2.1801303420773736e-8,8.663605889940331e-8,7.099213876812872e-8,3.2066506034453595e-9,8.046561858198447e-10,1.5388910421865398e-9,0
56069,2.0850882397890145e-8,9.897420935926154e-9,2.203182947075741e-8,8.625271428251211e-8,7.10061551142593e-8,3.2198848152780802e-9,8.029371250175892e-10,1.5196288793062395e-9,0
56070,2.0866412821410434e-8,9.881308875021731e-9,2.2262355520741088e-8,8.586936966562092e-8,7.102017146038989e-8,3.2331190271108013e-9,8.012180642153336e-10,1.5003667164259392e-9,0
56071,2.0881943244930727e-8,9.86519681411731e-9,2.249288157072476e-8,8.548602504872974e-8,7.103418780652048e-8,3.246353238943522e-9,7.994990034130781e-10,1.481104553545639e-9,0
56072,2.0897473668451016e-8,9.84908475321289e-9,2.272340762070844e-8,8.510268043183855e-8,7.104820415265106e-8,3.2595874507762428e-9,7.977799426108225e-10,1.4618423906653387e-9,0
56073,2.0913004091971305e-8,9.832972692308468e-9,2.2953933670692113e-8,8.471933581494736e-8,7.106222049878165e-8,3.2728216626089635e-9,7.960608818085669e-10,1.4425802277850384e-9,0
56074,2.0928534515491595e-8,9.816860631404046e-9,2.318445972067579e-8,8.433599119805617e-8,7.107623684491223e-8,3.286055874441684e-9,7.943418210063113e-10,1.4233180649047381e-9,0
56075,2.0944064939011887e-8,9.800748570499625e-9,2.3414985770659464e-8,8.395264658116499e-8,7.109025319104282e-8,3.299290086274405e-9,7.926227602040557e-10,1.4040559020244378e-9,0
56076,2.0959595362532176e-8,9.784636509595204e-9,2.3645511820643138e-8,8.35693019642738e-8,7.11042695371734e-8,3.312524298107126e-9,7.909036994018002e-10,1.3847937391441378e-9,0
56077,2.0969318705101754e-8,9.765516943002186e-9,2.3629590619876918e-8,8.32975232054465e-8,7.092153061361722e-8,3.31264035927306e-9,7.872959265625922e-10,1.3657035667158321e-9,0
56078,2.099754040212193e-8,9.7941577797782e-9,2.3685431519511897e-8,8.307794529621494e-8,7.078470464758545e-8,3.3127564204389937e-9,7.836881537233842e-10,1.3487803972083495e-9,0
56079,2.1025762099142106e-8,9.822798616554215e-9,2.374127241914688e-8,8.285836738698335e-8,7.06478786815537e-8,3.3128724816049275e-9,7.800803808841762e-10,1.3318572277008666e-9,0
56080,2.1003358011549815e-8,9.82258879875925e-9,2.38210340189156e-8,8.302301845073743e-8,7.067806016283007e-8,3.313409921777446e-9,7.803563325507486e-10,1.334196221073684e-9,0
56081,2.09475819542186e-8,9.867341696439685e-9,2.3885808713302854e-8,8.306435988189456e-8,7.068647795423705e-8,3.310838782080788e-9,7.806322842173209e-10,1.334196221073684e-9,0
56082,2.089180589688738e-8,9.912094594120122e-9,2.3950583407690113e-8,8.31057013130517e-8,7.069489574564404e-8,3.3082676423841306e-9,7.809082358838933e-10,1.334196221073684e-9,0
56083,2.0836029839556162e-8,9.956847491800558e-9,2.4015358102077372e-8,8.314704274420883e-8,7.070331353705104e-8,3.3056965026874734e-9,7.811841875504656e-10,1.334196221073684e-9,0
56084,2.0780253782224947e-8,1.0001600389480993e-8,2.408013279646463e-8,8.318838417536596e-8,7.071173132845804e-8,3.303125362990816e-9,7.81460139217038e-10,1.334196221073684e-9,0
56085,2.072447772489373e-8,1.004635328716143e-8,2.4144907490851886e-8,8.32297256065231e-8,7.072014911986503e-8,3.300554223294158e-9,7.817360908836103e-10,1.334196221073684e-9,0
56086,2.0668701667562513e-8,1.0091106184841866e-8,2.4209682185239145e-8,8.327106703768023e-8,7.072856691127203e-8,3.2979830835975006e-9,7.820120425501828e-10,1.334196221073684e-9,0
56087,2.0612925610231295e-8,1.0135859082522303e-8,2.4274456879626404e-8,8.331240846883736e-8,7.073698470267903e-8,3.2954119439008434e-9,7.822879942167551e-10,1.334196221073684e-9,0
56088,2.055714955290008e-8,1.0180611980202738e-8,2.4339231574013663e-8,8.33537498999945e-8,7.074540249408602e-8,3.292840804204186e-9,7.825639458833275e-10,1.334196221073684e-9,0
56089,2.050137349556886e-8,1.0225364877883175e-8,2.440400626840092e-8,8.339509133115165e-8,7.075382028549302e-8,3.2902696645075282e-9,7.828398975498998e-10,1.334196221073684e-9,0
56090,2.0445597438237645e-8,1.027011777556361e-8,2.4468780962788177e-8,8.343643276230878e-8,7.076223807690002e-8,3.2876985248108706e-9,7.831158492164722e-10,1.334196221073684e-9,0
56091,2.0389821380906427e-8,1.0314870673244046e-8,2.4533555657175436e-8,8.347777419346591e-8,7.077065586830701e-8,3.2851273851142134e-9,7.833918008830445e-10,1.334196221073684e-9,0
56092,2.0421489860633112e-8,1.0347743418023644e-8,2.4533555657175436e-8,8.324925742317725e-8,7.07465619421347e-8,3.272009234447426e-9,7.83667752549617e-10,1.3358730799966883e-9,0
56093,2.0453158340359794e-8,1.038061616280324e-8,2.4533555657175436e-8,8.302074065288858e-8,7.07224680159624e-8,3.2588910837806393e-9,7.839437042161893e-10,1.3375499389196928e-9,0
56094,2.048482682008648e-8,1.0413488907582836e-8,2.4533555657175436e-8,8.279222388259992e-8,7.06983740897901e-8,3.2457729331138524e-9,7.842196558827617e-10,1.3392267978426972e-9,0
56095,2.051649529981316e-8,1.0446361652362433e-8,2.4533555657175436e-8,8.256370711231127e-8,7.067428016361779e-8,3.2326547824470656e-9,7.84495607549334e-10,1.3409036567657014e-9,0
56096,2.0548163779539845e-8,1.047923439714203e-8,2.4533555657175436e-8,8.23351903420226e-8,7.065018623744549e-8,3.2195366317802787e-9,7.847715592159064e-10,1.3425805156887059e-9,0
56097,2.0579832259266527e-8,1.0512107141921627e-8,2.4533555657175436e-8,8.210667357173394e-8,7.062609231127319e-8,3.206418481113492e-9,7.850475108824787e-10,1.3442573746117103e-9,0
56098,2.0611500738993212e-8,1.0544979886701223e-8,2.4533555657175436e-8,8.187815680144527e-8,7.060199838510089e-8,3.193300330446705e-9,7.853234625490511e-10,1.3459342335347146e-9,0
56099,2.06127698663432e-8,1.0541351640712332e-8,2.445505309613236e-8,8.163151369622828e-8,7.059346832325958e-8,3.1824825100893965e-9,7.855994142156235e-10,1.3454440895368962e-9,0
56100,2.061403899369319e-8,1.0537723394723439e-8,2.4376550535089287e-8,8.138487059101129e-8,7.058493826141828e-8,3.171664689732088e-9,7.858753658821959e-10,1.3449539455390778e-9,0
56101,2.052644577438437e-8,1.0553623546532644e-8,2.439071880638571e-8,8.136806782521672e-8,7.032801939447115e-8,3.193412213010799e-9,7.850475108824787e-10,1.34193559947767e-9,0
56102,2.043885255507555e-8,1.0569523698341849e-8,2.4404887077682136e-8,8.135126505942216e-8,7.007110052752403e-8,3.21515973628951e-9,7.842196558827617e-10,1.3389172534162623e-9,0
56103,2.035125933576673e-8,1.0585423850151054e-8,2.441905534897856e-8,8.13344622936276e-8,6.981418166057691e-8,3.2369072595682208e-9,7.833918008830445e-10,1.3358989073548545e-9,0
56104,2.0263666116457913e-8,1.0601324001960258e-8,2.4433223620274984e-8,8.131765952783304e-8,6.95572627936298e-8,3.258654782846932e-9,7.825639458833275e-10,1.3328805612934465e-9,0
56105,2.0176072897149092e-8,1.0617224153769463e-8,2.4447391891571408e-8,8.130085676203846e-8,6.930034392668268e-8,3.280402306125643e-9,7.817360908836103e-10,1.3298622152320387e-9,0
56106,2.0088479677840275e-8,1.0633124305578666e-8,2.4461560162867832e-8,8.12840539962439e-8,6.904342505973555e-8,3.3021498294043535e-9,7.809082358838933e-10,1.3268438691706309e-9,0
56107,2.0000886458531454e-8,1.0649024457387871e-8,2.4475728434164256e-8,8.126725123044934e-8,6.878650619278843e-8,3.3238973526830646e-9,7.800803808841762e-10,1.3238255231092229e-9,0
56108,1.9913293239222637e-8,1.0664924609197076e-8,2.448989670546068e-8,8.125044846465477e-8,6.852958732584131e-8,3.3456448759617757e-9,7.792525258844591e-10,1.320807177047815e-9,0
56109,1.9825700019913816e-8,1.0680824761006281e-8,2.4504064976757105e-8,8.123364569886021e-8,6.82726684588942e-8,3.3673923992404867e-9,7.78424670884742e-10,1.3177888309864073e-9,0
56110,1.9738106800604995e-8,1.0696724912815486e-8,2.451823324805353e-8,8.121684293306563e-8,6.801574959194708e-8,3.3891399225191974e-9,7.775968158850249e-10,1.3147704849249993e-9,0
56111,1.9650513581296178e-8,1.071262506462469e-8,2.4532401519349953e-8,8.120004016727107e-8,6.775883072499995e-8,3.4108874457979084e-9,7.767689608853079e-10,1.3117521388635915e-9,0
56112,1.9548046746699035e-8,1.0716585115591638e-8,2.453236262036555e-8,8.170231432633746e-8,6.749773063309072e-8,3.4030192784866906e-9,7.759411058855907e-10,1.3059132645509365e-9,0
56113,1.9445579912101888e-8,1.0720545166558583e-8,2.4532323721381153e-8,8.220458848540383e-8,6.723663054118146e-8,3.3951511111754733e-9,7.751132508858737e-10,1.3000743902382815e-9,0
56114,1.9343113077504745e-8,1.072450521752553e-8,2.453228482239675e-8,8.270686264447021e-8,6.697553044927221e-8,3.3872829438642555e-9,7.742853958861565e-10,1.2942355159256265e-9,0
56115,1.9240646242907602e-8,1.0728465268492477e-8,2.4532245923412353e-8,8.320913680353658e-8,6.671443035736297e-8,3.3794147765530377e-9,7.734575408864395e-10,1.2883966416129715e-9,0
56116,1.9229377465440542e-8,1.0731442800210363e-8,2.4548186573670777e-8,8.364605792173043e-8,6.666189366813918e-8,3.38183116802845e-9,7.727359863185978e-10,1.2883966416129715e-9,0
56117,1.9218108687973482e-8,1.073442033192825e-8,2.45641272239292e-8,8.408297903992428e-8,6.66093569789154e-8,3.3842475595038625e-9,7.720144317507563e-10,1.2883966416129715e-9,0
56118,1.8853574021272962e-8,1.0685694487595764e-8,2.4532187574935754e-8,8.399898752348569e-8,6.538428754714727e-8,3.344880571697982e-9,7.596089546234031e-10,1.2760825858960145e-9,0
56119,1.848903935457244e-8,1.0636968643263278e-8,2.4500247925942305e-8,8.391499600704708e-8,6.415921811537913e-8,3.3055135838921022e-9,7.472034774960499e-10,1.2637685301790574e-9,0
56120,1.812450468787192e-8,1.0588242798930791e-8,2.446830827694886e-8,8.383100449060849e-8,6.293414868361101e-8,3.266146596086222e-9,7.347980003686967e-10,1.2514544744621002e-9,0
56121,1.7759970021171395e-8,1.0539516954598305e-8,2.4436368627955412e-8,8.374701297416989e-8,6.170907925184288e-8,3.226779608280342e-9,7.223925232413435e-10,1.2391404187451432e-9,0
56122,1.7395435354470872e-8,1.0490791110265818e-8,2.4404428978961967e-8,8.366302145773128e-8,6.048400982007474e-8,3.1874126204744616e-9,7.099870461139903e-10,1.2268263630281861e-9,0
56123,1.703090068777035e-8,1.0442065265933332e-8,2.437248932996852e-8,8.357902994129269e-8,5.925894038830661e-8,3.1480456326685817e-9,6.975815689866371e-10,1.2145123073112289e-9,0
56124,1.6666366021069828e-8,1.0393339421600845e-8,2.4340549680975074e-8,8.349503842485408e-8,5.8033870956538485e-8,3.1086786448627014e-9,6.851760918592839e-10,1.2021982515942718e-9,0
56125,1.6301831354369308e-8,1.034461357726836e-8,2.4308610031981626e-8,8.341104690841549e-8,5.680880152477035e-8,3.0693116570568215e-9,6.727706147319307e-10,1.1898841958773148e-9,0
56126,1.5937296687668784e-8,1.0295887732935874e-8,2.4276670382988177e-8,8.332705539197689e-8,5.558373209300222e-8,3.029944669250941e-9,6.603651376045775e-10,1.1775701401603578e-9,0
56127,1.5572762020968264e-8,1.0247161888603388e-8,2.4244730733994733e-8,8.324306387553828e-8,5.435866266123409e-8,2.990577681445061e-9,6.479596604772244e-10,1.1652560844434005e-9,0
56128,1.520822735426774e-8,1.0198436044270901e-8,2.4212791085001284e-8,8.315907235909969e-8,5.313359322946596e-8,2.951210693639181e-9,6.355541833498712e-10,1.1529420287264435e-9,0
56129,1.4843692687567219e-8,1.0149710199938415e-8,2.418085143600784e-8,8.307508084266109e-8,5.190852379769783e-8,2.9118437058333005e-9,6.23148706222518e-10,1.1406279730094864e-9,0
56130,1.4479158020866697e-8,1.0100984355605928e-8,2.414891178701439e-8,8.29910893262225e-8,5.06834543659297e-8,2.8724767180274206e-9,6.107432290951648e-10,1.1283139172925292e-9,0
56131,1.4114623354166175e-8,1.0052258511273442e-8,2.4116972138020946e-8,8.290709780978389e-8,4.945838493416157e-8,2.8331097302215403e-9,5.983377519678116e-10,1.1159998615755721e-9,0
56132,1.3750088687465654e-8,1.0003532666940956e-8,2.4085032489027498e-8,8.282310629334528e-8,4.8233315502393436e-8,2.7937427424156603e-9,5.859322748404584e-10,1.103685805858615e-9,0
56133,1.3385554020765132e-8,9.954806822608469e-9,2.4053092840034053e-8,8.273911477690669e-8,4.700824607062531e-8,2.75437575460978e-9,5.735267977131052e-10,1.0913717501416578e-9,0
56134,1.302029346894577e-8,9.917991105147532e-9,2.4017405249101977e-8,8.265859368726328e-8,4.573991122346517e-8,2.7165824002661434e-9,5.613972722523244e-10,1.0755492043654747e-9,0
56135,1.2674010123353206e-8,9.87302838967213e-9,2.4023578883403938e-8,8.257931724915948e-8,4.456452590339326e-8,2.6992724321814645e-9,5.499361511434474e-10,1.0597266585892913e-9,0
56136,1.2315663038287869e-8,9.826267583837762e-9,2.39938617427592e-8,8.269765573310275e-8,4.329813480985316e-8,2.660326823382169e-9,5.414143985218746e-10,1.0432419783632949e-9,0
56137,1.2252815459087868e-8,9.828247609321235e-9,2.400008400079166e-8,8.286915534533249e-8,4.3199204327992393e-08,2.6591745689265097e-9,5.45298123027655e-10,1.0367409696008269e-9,0
56138,1.2259343738725502e-8,9.698376968037809e-9,2.3950160065340463e-8,8.304625439199148e-8,4.266242553817547e-8,2.659595947933094e-9,5.481311910830837e-10,1.036568979148832e-9,0
56139,1.2265872018363134e-8,9.568506326754382e-9,2.3900236129889265e-8,8.322335343865046e-8,4.212564674835854e-8,2.6600173269396786e-9,5.509642591385123e-10,1.0363969886968374e-9,0
56140,1.2272400298000768e-8,9.438635685470955e-9,2.385031219443807e-8,8.340045248530946e-8,4.158886795854161e-8,2.660438705946263e-9,5.537973271939409e-10,1.0362249982448426e-9,0
56141,1.2278928577638402e-8,9.308765044187529e-9,2.380038825898687e-8,8.357755153196845e-8,4.105208916872468e-8,2.6608600849528475e-9,5.566303952493696e-10,1.0360530077928477e-9,0
56142,1.2285456857276034e-8,9.178894402904102e-9,2.3750464323535672e-8,8.375465057862744e-8,4.051531037890776e-8,2.661281463959432e-9,5.594634633047983e-10,1.0358810173408531e-9,0
56143,1.2291985136913668e-8,9.049023761620676e-9,2.3700540388084474e-8,8.393174962528642e-8,3.997853158909083e-8,2.661702842966016e-9,5.622965313602269e-10,1.0357090268888583e-9,0
56144,1.2298513416551302e-8,8.919153120337249e-9,2.3650616452633275e-8,8.410884867194541e-8,3.9441752799273905e-8,2.6621242219726004e-9,5.651295994156556e-10,1.0355370364368634e-9,0
56145,1.2305041696188934e-8,8.789282479053822e-9,2.3600692517182077e-8,8.428594771860439e-8,3.890497400945697e-8,2.662545600979185e-9,5.679626674710843e-10,1.0353650459848688e-9,0
56146,1.2311569975826568e-8,8.659411837770396e-9,2.3550768581730878e-08,8.446304676526338e-8,3.8368195219640046e-8,2.6629669799857693e-9,5.707957355265129e-10,1.035193055532874e-9,0
56147,1.2318098255464202e-8,8.52954119648697e-9,2.3500844646279683e-8,8.464014581192238e-8,3.783141642982312e-8,2.6633883589923538e-9,5.736288035819415e-10,1.0350210650808793e-9,0
56148,1.2324626535101834e-8,8.399670555203543e-9,2.3450920710828485e-8,8.481724485858136e-8,3.7294637640006194e-8,2.6638097379989382e-9,5.764618716373702e-10,1.0348490746288845e-9,0
56149,1.2257161396937065e-8,8.371635471742468e-9,2.3408231126763312e-8,8.499434390524035e-8,3.722218824957223e-8,2.6594370211100094e-9,5.800696444765782e-10,1.0350124559614906e-9,0
56150,1.2189696258772294e-8,8.343600388281395e-9,2.336554154269814e-8,8.517144295189934e-8,3.714973885913827e-8,2.65506430422108e-9,5.836774173157862e-10,1.0351758372940966e-9,0
56151,1.2122231120607524e-8,8.31556530482032e-9,2.3322851958632968e-8,8.534854199855832e-8,3.707728946870431e-8,2.6506915873321514e-9,5.872851901549942e-10,1.0353392186267029e-9,0
56152,1.2054765982442753e-8,8.287530221359246e-9,2.3280162374567796e-8,8.552564104521731e-8,3.700484007827035e-8,2.646318870443222e-9,5.908929629942022e-10,1.035502599959309e-9,0
56153,1.1987300844277984e-8,8.259495137898173e-9,2.3237472790502623e-8,8.57027400918763e-8,3.693239068783639e-8,2.6419461535542933e-9,5.945007358334102e-10,1.035665981291915e-9,0
56154,1.1919835706113215e-8,8.231460054437099e-9,2.3194783206437454e-8,8.587983913853529e-8,3.685994129740243e-8,2.6375734366653645e-9,5.981085086726182e-10,1.0358293626245212e-9,0
56155,1.1846182986313259e-8,8.202215555646394e-9,2.3148123046926826e-8,8.591282384185356e-8,3.7116775564656606e-8,2.634159538955538e-9,5.981085086726182e-10,1.0361647344091221e-9,0
56156,1.1772530266513303e-8,8.172971056855689e-9,2.3101462887416197e-8,8.594580854517183e-8,3.737360983191078e-8,2.630745641245712e-9,5.981085086726182e-10,1.0365001061937228e-9,0
56157,1.1654819844420537e-8,8.109507423787314e-9,2.2877343865640882e-8,8.560628720501224e-8,3.740431365441177e-8,2.6229245181934853e-9,5.983211095363692e-10,1.0368440870977125e-9,0
56158,1.1537109422327768e-8,8.04604379071894e-9,2.265322484386557e-8,8.526676586485267e-8,3.743501747691276e-8,2.615103395141258e-9,5.985337104001202e-10,1.037188068001702e-9,0
56159,1.1419399000235001e-8,7.982580157650564e-9,2.2429105822090254e-8,8.492724452469308e-8,3.746572129941376e-8,2.6072822720890315e-9,5.987463112638712e-10,1.0375320489056914e-9,0
56160,1.1301688578142233e-8,7.919116524582189e-9,2.2204986800314942e-8,8.45877231845335e-8,3.749642512191475e-8,2.599461149036805e-9,5.989589121276221e-10,1.037876029809681e-9,0
56161,1.1183978156049465e-8,7.855652891513813e-9,2.1980867778539627e-8,8.424820184437391e-8,3.752712894441574e-8,2.591640025984578e-9,5.991715129913732e-10,1.0382200107136705e-9,0
56162,1.1066267733956698e-8,7.792189258445437e-9,2.1756748756764312e-8,8.390868050421433e-8,3.755783276691673e-8,2.5838189029323515e-9,5.993841138551241e-10,1.03856399161766e-9,0
56163,1.094855731186393e-8,7.728725625377062e-9,2.1532629734989e-8,8.356915916405475e-8,3.758853658941772e-8,2.575997779880125e-9,5.995967147188751e-10,1.0389079725216495e-9,0
56164,1.0830846889771163e-8,7.665261992308688e-9,2.1308510713213684e-8,8.322963782389516e-8,3.761924041191871e-8,2.568176656827898e-9,5.998093155826261e-10,1.0392519534256392e-9,0
56165,1.0713136467678394e-8,7.601798359240312e-9,2.1084391691438372e-8,8.289011648373559e-8,3.76499442344197e-8,2.5603555337756715e-9,6.000219164463771e-10,1.0395959343296286e-9,0
56166,1.0595426045585626e-8,7.538334726171937e-9,2.0860272669663057e-8,8.2550595143576e-8,3.768064805692069e-8,2.5525344107234444e-9,6.00234517310128e-10,1.039939915233618e-9,0
56167,1.0477715623492859e-8,7.474871093103561e-9,2.0636153647887745e-8,8.221107380341642e-8,3.771135187942168e-8,2.5447132876712177e-9,6.004471181738791e-10,1.0402838961376076e-9,0
56168,1.036000520140009e-8,7.411407460035186e-9,2.041203462611243e-8,8.187155246325683e-8,3.774205570192268e-8,2.536892164618991e-9,6.0065971903763e-10,1.0406278770415972e-9,0
56169,1.024240834530814e-8,7.351706955823895e-9,2.0212630626690635e-8,8.194990285521569e-8,3.774085316029311e-8,2.5179437247669655e-9,5.978266509822015e-10,1.039802361259178e-9,0
56170,1.0162237874347723e-8,7.294258334132713e-9,1.99905017550111e-8,8.171058027655051e-8,3.791293273846625e-8,2.4964241452182827e-9,5.962670408277591e-10,1.0393122172613596e-9,0
56171,1.0195244558311268e-8,7.280263272880208e-9,1.9882712733217793e-8,8.143308000814032e-8,3.807305607719711e-8,2.4965402063842166e-9,5.97646799160621e-10,1.0388220732635413e-9,0
56172,1.0232784509443619e-8,7.286278284257401e-9,1.9882712733217793e-8,8.128919196507952e-8,3.821879042248518e-8,2.4965402063842166e-9,5.989202570616073e-10,1.0391574450481422e-9,0
56173,1.0270324460575971e-8,7.292293295634594e-9,1.9882712733217793e-8,8.114530392201874e-8,3.836452476777324e-8,2.4965402063842166e-9,6.001937149625936e-10,1.039492816832743e-9,0
56174,1.0307864411708322e-8,7.298308307011788e-9,1.9882712733217793e-8,8.100141587895795e-8,3.851025911306131e-8,2.4965402063842166e-9,6.0146717286358e-10,1.039828188617344e-9,0
56175,1.0345404362840672e-8,7.304323318388981e-9,1.9882712733217793e-8,8.085752783589715e-8,3.8655993458349373e-8,2.4965402063842166e-9,6.027406307645663e-10,1.0401635604019448e-9,0
56176,1.0360277978128998e-8,7.308086447246065e-9,1.9880475637749935e-8,8.102014219713188e-8,3.897672505355762e-8,2.498840536693695e-9,6.026343303326908e-10,1.040989076184364e-9,0
56177,1.0375151593417322e-8,7.3118495761031496e-9,1.987823854228208e-8,8.1182756558366615e-08,3.9297456648765865e-8,2.5011408670031733e-9,6.025280299008153e-10,1.0418145919667831e-9,0
56178,1.0390025208705646e-8,7.315612704960234e-9,1.9876001446814223e-8,8.134537091960134e-8,3.961818824397411e-8,2.5034411973126517e-9,6.024217294689397e-10,1.0426401077492024e-9,0
56179,1.040489882399397e-8,7.319375833817319e-9,1.9873764351346365e-8,8.150798528083608e-8,3.993891983918235e-8,2.5057415276221304e-9,6.023154290370642e-10,1.0434656235316216e-9,0
56180,1.0419772439282295e-8,7.323138962674403e-9,1.987152725587851e-8,8.16705996420708e-8,4.025965143439059e-8,2.5080418579316088e-9,6.022091286051888e-10,1.0442911393140409e-9,0
56181,1.043464605457062e-8,7.326902091531487e-9,1.9869290160410653e-8,8.183321400330553e-8,4.0580383029598835e-8,2.510342188241087e-9,6.021028281733133e-10,1.0451166550964601e-9,0
56182,1.0449519669858945e-8,7.3306652203885715e-9,1.9867053064942796e-8,8.199582836454027e-8,4.090111462480708e-8,2.5126425185505655e-9,6.019965277414378e-10,1.0459421708788792e-9,0
56183,1.0464393285147269e-8,7.3344283492456565e-9,1.986481596947494e-8,8.2158442725775e-8,4.1221846220015326e-8,2.5149428488600443e-9,6.018902273095622e-10,1.0467676866612984e-9,0
56184,1.0479266900435593e-8,7.338191478102741e-9,1.9862578874007084e-8,8.232105708700973e-8,4.154257781522357e-8,2.5172431791695226e-9,6.017839268776868e-10,1.0475932024437176e-9,0
56185,1.0494140515723917e-8,7.341954606959825e-9,1.9860341778539226e-8,8.248367144824446e-8,4.186330941043181e-8,2.519543509479001e-9,6.016776264458113e-10,1.0484187182261369e-9,0
56186,1.0509014131012243e-8,7.345717735816909e-9,1.9858104683071372e-8,8.264628580947918e-8,4.2184041005640054e-8,2.5218438397884794e-9,6.015713260139358e-10,1.0492442340085561e-9,0
56187,1.0523887746300567e-8,7.349480864673994e-9,1.9855867587603514e-8,8.280890017071392e-8,4.2504772600848296e-8,2.5241441700979577e-9,6.014650255820603e-10,1.0500697497909752e-9,0
56188,1.0538761361588892e-8,7.3532439935310784e-9,1.985363049213566e-8,8.297151453194865e-8,4.282550419605654e-8,2.5264445004074365e-9,6.013587251501849e-10,1.0508952655733944e-9,0
56189,1.0553634976877216e-8,7.357007122388163e-9,1.9851393396667802e-8,8.313412889318339e-8,4.314623579126478e-8,2.528744830716915e-9,6.012524247183093e-10,1.0517207813558137e-9,0
56190,1.056850859216554e-8,7.360770251245247e-9,1.9849156301199944e-8,8.329674325441811e-8,4.3466967386473024e-8,2.5310451610263932e-9,6.011461242864338e-10,1.052546297138233e-9,0
56191,1.0583382207453866e-8,7.364533380102332e-9,1.984691920573209e-8,8.345935761565284e-8,4.378769898168127e-8,2.5333454913358716e-9,6.010398238545583e-10,1.053371812920652e-9,0
56192,1.059825582274219e-8,7.36525902930011e-9,1.984493391800936e-8,8.323193065671331e-8,4.391061111928003e-8,2.5341882493490405e-9,6.021538311077315e-10,1.0553582162700913e-9,0
56193,1.0589549887748039e-8,7.330421246022395e-9,1.982500810518633e-8,8.325550604838726e-8,4.342817124366241e-8,2.5324598676655518e-9,6.040425431446838e-10,1.0565191038371115e-9,0
56194,1.0605080311268328e-8,7.334381296989341e-9,1.9819008480660697e-8,8.362828454470239e-8,4.342756997284762e-8,2.532730677052731e-9,6.033209885768423e-10,1.044901619047522e-9,0
56195,1.0620610734788619e-8,7.338341347956288e-9,1.9813008856135063e-8,8.400106304101752e-8,4.3426968702032843e-08,2.53300148643991e-9,6.025994340090006e-10,1.0332841342579326e-9,0
56196,1.063614115830891e-8,7.342301398923234e-9,1.980700923160943e-8,8.437384153733265e-8,4.342636743121806e-8,2.533272295827089e-9,6.01877879441159e-10,1.0216666494683431e-9,0
56197,1.0651671581829199e-8,7.346261449890181e-9,1.9801009607083796e-8,8.474662003364778e-8,4.342576616040327e-8,2.533543105214268e-9,6.011563248733175e-10,1.0100491646787538e-9,0
56198,1.066720200534949e-8,7.350221500857127e-9,1.9795009982558162e-8,8.511939852996292e-8,4.3425164889588484e-8,2.533813914601447e-9,6.004347703054759e-10,9.984316798891643e-10,0
56199,1.0682732428869779e-8,7.354181551824074e-9,1.9789010358032528e-8,8.549217702627805e-8,4.34245636187737e-8,2.534084723988626e-9,5.997132157376342e-10,9.86814195099575e-10,0
56200,1.069826285239007e-8,7.35814160279102e-9,1.9783010733506894e-8,8.586495552259318e-8,4.342396234795891e-8,2.5343555333758052e-9,5.989916611697927e-10,9.751967103099857e-10,0
56201,1.071379327591036e-8,7.362101653757966e-9,1.9777011108981263e-8,8.623773401890831e-8,4.342336107714413e-8,2.534626342762984e-9,5.982701066019511e-10,9.635792255203961e-10,0
56202,1.072932369943065e-8,7.366061704724913e-9,1.977101148445563e-8,8.661051251522344e-8,4.3422759806329345e-8,2.5348971521501633e-9,5.975485520341094e-10,9.519617407308068e-10,0
56203,1.074485412295094e-8,7.370021755691859e-9,1.9765011859929995e-8,8.698329101153858e-8,4.342215853551456e-8,2.535167961537342e-9,5.968269974662679e-10,9.403442559412173e-10,0
56204,1.076038454647123e-8,7.373981806658806e-9,1.975901223540436e-8,8.735606950785371e-8,4.342155726469977e-8,2.5354387709245214e-9,5.961054428984263e-10,9.28726771151628e-10,0
56205,1.077591496999152e-8,7.377941857625752e-9,1.9753012610878728e-8,8.772884800416885e-8,4.3420955993884986e-8,2.5357095803117e-9,5.953838883305846e-10,9.171092863620386e-10,0
56206,1.079144539351181e-8,7.381901908592699e-9,1.9747012986353094e-8,8.810162650048399e-8,4.34203547230702e-8,2.5359803896988794e-9,5.946623337627431e-10,9.054918015724491e-10,0
56207,1.08069758170321e-8,7.385861959559645e-9,1.974101336182746e-8,8.847440499679912e-8,4.341975345225541e-8,2.5362511990860587e-9,5.939407791949015e-10,8.938743167828597e-10,0
56208,1.082250624055239e-8,7.389822010526592e-9,1.9735013737301826e-8,8.884718349311425e-8,4.3419152181440633e-8,2.5365220084732375e-9,5.932192246270598e-10,8.822568319932703e-10,0
56209,1.083803666407268e-8,7.393782061493538e-9,1.9729014112776192e-8,8.921996198942938e-8,4.341855091062585e-8,2.5367928178604167e-9,5.924976700592182e-10,8.706393472036809e-10,0
56210,1.0853567087592971e-8,7.397742112460485e-9,1.9723014488250558e-8,8.959274048574451e-8,4.341794963981106e-8,2.5370636272475956e-9,5.917761154913767e-10,8.590218624140916e-10,0
56211,1.086499392017479e-8,7.417874172273271e-9,1.9719005013820703e-8,8.960803806717376e-8,4.349458025520715e-8,2.5357994902278422e-9,5.908317594729005e-10,8.493907809739414e-10,0
56212,1.0876420752756606e-8,7.438006232086058e-9,1.9714995539390845e-8,8.962333564860302e-8,4.3571210870603235e-8,2.5345353532080893e-9,5.898874034544242e-10,8.397596995337913e-10,0
56213,1.087481092740417e-8,7.438988751335117e-9,1.971098606496099e-8,8.993809948062482e-8,4.3731422891660994e-8,2.5330777809117794e-9,5.928267719417284e-10,8.289677305266211e-10,0
56214,1.0876534318757423e-8,7.424071118774972e-9,1.9709223410745092e-8,9.02696660784412e-8,4.3823534359163966e-8,2.5328843456352233e-9,5.967104964475087e-10,8.296298649764342e-10,0
56215,1.0878257710110676e-8,7.409153486214826e-9,1.970746075652919e-8,9.060123267625757e-8,4.391564582666694e-8,2.5326909103586667e-9,6.005942209532891e-10,8.302919994262473e-10,0
56216,1.0629079009303966e-8,7.397969008541056e-9,1.9707446169410043e-8,9.094501649419209e-8,4.398266994439714e-8,2.530962528675178e-9,6.042551440084348e-10,8.302919994262473e-10,0
56217,1.0379900308497256e-8,7.386784530867285e-9,1.970743158229089e-8,9.12888003121266e-8,4.4049694062127354e-8,2.5292341469916893e-9,6.079160670635806e-10,8.302919994262473e-10,0
56218,1.0130721607690545e-8,7.375600053193515e-9,1.9707416995171743e-8,9.163258413006113e-8,4.411671817985756e-8,2.5275057653082006e-9,6.115769901187264e-10,8.302919994262473e-10,0
56219,9.881542906883835e-9,7.364415575519745e-9,1.970740240805259e-8,9.197636794799565e-8,4.4183742297587765e-8,2.525777383624712e-9,6.152379131738721e-10,8.302919994262473e-10,0
56220,9.632364206077126e-9,7.353231097845974e-9,1.9707387820933443e-8,9.232015176593017e-8,4.425076641531798e-8,2.524049001941223e-9,6.188988362290178e-10,8.302919994262473e-10,0
56221,9.383185505270416e-9,7.342046620172204e-9,1.9707373233814292e-8,9.266393558386469e-8,4.431779053304818e-8,2.5223206202577345e-9,6.225597592841636e-10,8.302919994262473e-10,0
56222,9.13482166781043e-9,7.332101531798774e-9,1.970611419508865e-8,9.266128251558133e-8,4.423760763424612e-8,2.524354319781874e-9,6.24661072184867e-10,8.296298649764342e-10,0
56223,8.886457830350444e-9,7.322156443425344e-9,1.9704855156363007e-8,9.265862944729797e-8,4.415742473544406e-8,2.5263880193060127e-9,6.267623850855705e-10,8.289677305266211e-10,0
56224,8.638093992890458e-9,7.312211355051914e-9,1.9703596117637364e-8,9.265597637901462e-8,4.4077241836642e-8,2.528421718830152e-9,6.288636979862739e-10,8.28305596076808e-10,0
56225,8.389730155430472e-9,7.3022662666784835e-9,1.9702337078911722e-8,9.265332331073127e-8,4.399705893783994e-8,2.5304554183542913e-9,6.309650108869773e-10,8.276434616269949e-10,0
56226,8.141366317970486e-9,7.2923211783050525e-9,1.970107804018608e-8,9.265067024244792e-8,4.391687603903788e-8,2.5324891178784306e-9,6.330663237876807e-10,8.269813271771818e-10,0
56227,8.106478187538928e-9,7.292276217348989e-9,1.967186937740465e-8,9.259988526710067e-8,4.392764357222128e-8,2.537670084327057e-9,6.34339781688667e-10,8.228107026681425e-10,0
56228,8.10096731547672e-9,7.285565530744726e-9,1.959210777763593e-8,9.101477340552955e-8,4.378043655568901e-8,2.4969228983354895e-9,6.325675706704738e-10,8.209876806513094e-10,0
56229,8.041951706099618e-9,7.169837729267101e-9,1.934557890219765e-8,9.07792904741184e-8,4.3767360786841264e-8,2.4910539220949396e-9,6.328333217501625e-10,8.191904859926421e-10,0
56230,7.982936096722516e-9,7.054109927789475e-9,1.9099050026759373e-8,9.054380754270725e-8,4.375428501799352e-8,2.4851849458543898e-9,6.330990728298512e-10,8.173932913339749e-10,0
56231,7.923920487345414e-9,6.93838212631185e-9,1.8852521151321096e-8,9.030832461129611e-8,4.374120924914577e-8,2.47931596961384e-9,6.3336482390954e-10,8.155960966753077e-10,0
56232,7.864904877968311e-9,6.822654324834224e-9,1.8605992275882815e-8,9.007284167988495e-8,4.3728133480298034e-8,2.47344699337329e-9,6.336305749892287e-10,8.137989020166406e-10,0
56233,7.805889268591208e-9,6.706926523356598e-9,1.8359463400444538e-8,8.983735874847381e-8,4.371505771145029e-8,2.46757801713274e-9,6.338963260689174e-10,8.120017073579733e-10,0
56234,7.746873659214106e-9,6.591198721878973e-9,1.811293452500626e-8,8.960187581706265e-8,4.3701981942602544e-8,2.46170904089219e-9,6.341620771486061e-10,8.102045126993061e-10,0
56235,7.687858049837003e-9,6.475470920401347e-9,1.786640564956798e-8,8.936639288565151e-8,4.3688906173754805e-8,2.45584006465164e-9,6.344278282282949e-10,8.084073180406389e-10,0
56236,7.628842440459901e-9,6.359743118923722e-9,1.7619876774129703e-8,8.913090995424035e-8,4.367583040490706e-8,2.4499710884110903e-9,6.346935793079836e-10,8.066101233819717e-10,0
56237,7.569826831082799e-9,6.244015317446096e-9,1.7373347898691423e-8,8.889542702282921e-8,4.3662754636059314e-8,2.4441021121705405e-9,6.349593303876723e-10,8.048129287233045e-10,0
56238,7.510811221705697e-9,6.1282875159684704e-9,1.7126819023253146e-8,8.865994409141805e-8,4.364967886721157e-8,2.4382331359299907e-9,6.352250814673611e-10,8.030157340646373e-10,0
56239,7.451795612328595e-9,6.012559714490845e-9,1.688029014781487e-8,8.842446116000691e-8,4.363660309836383e-8,2.4323641596894404e-9,6.354908325470498e-10,8.0121853940597e-10,0
56240,7.392780002951492e-9,5.8968319130132194e-9,1.6633761272376588e-8,8.818897822859575e-8,4.3623527329516085e-8,2.4264951834488906e-9,6.357565836267386e-10,7.994213447473028e-10,0
56241,7.333764393574389e-9,5.781104111535594e-9,1.638723239693831e-8,8.795349529718461e-8,4.361045156066834e-8,2.4206262072083407e-9,6.360223347064273e-10,7.976241500886357e-10,0
56242,7.274748784197287e-9,5.6653763100579684e-9,1.614070352150003e-8,8.771801236577345e-8,4.3597375791820594e-8,2.414757230967791e-9,6.362880857861161e-10,7.958269554299684e-10,0
56243,7.215733174820185e-9,5.5496485085803425e-9,1.5894174646061754e-8,8.748252943436231e-8,4.3584300022972855e-8,2.408888254727241e-9,6.365538368658048e-10,7.940297607713012e-10,0
56244,7.156717565443082e-9,5.4339207071027174e-9,1.5647645770623476e-8,8.724704650295115e-8,4.357122425412511e-8,2.4030192784866908e-9,6.368195879454935e-10,7.92232566112634e-10,0
56245,7.095776020484025e-9,5.3044397274385126e-9,1.5385117896450172e-8,8.701597642699857e-8,4.411463244574419e-8,2.403444836095115e-9,6.309408509708852e-10,7.841063531434935e-10,0
56246,7.0341085904061295e-9,5.1737043714886135e-9,1.512259002227687e-8,8.66897159657489e-8,4.383652348900112e-8,2.3967331018413967e-9,6.248393125456424e-10,7.75980140174353e-10,0
56247,6.972441160328234e-9,5.0429690155387145e-9,1.486006214810357e-8,8.636345550449924e-8,4.3558414532258046e-8,2.390021367587678e-9,6.187377741203994e-10,7.678539272052124e-10,0
56248,6.910773730250337e-9,4.9122336595888154e-9,1.4597534273930268e-8,8.603719504324957e-8,4.328030557551497e-8,2.3833096333339592e-9,6.126362356951564e-10,7.597277142360719e-10,0
56249,6.849106300172441e-9,4.781498303638916e-9,1.4335006399756967e-8,8.57109345819999e-8,4.3002196618771895e-8,2.3765978990802405e-9,6.065346972699136e-10,7.516015012669314e-10,0
56250,6.839313880715991e-9,4.776313850356985e-9,1.4343722423375464e-8,8.554064985127081e-8,4.2720653319159944e-8,2.3757551410670716e-9,6.043700335663888e-10,7.403193882619428e-10,0
56251,6.7776464506380956e-9,4.773366292609806e-9,1.4346463134333578e-8,8.524176720140545e-8,4.258176724643988e-8,2.376331268294901e-9,6.043700335663888e-10,7.403193882619428e-10,0
56252,6.7159790205602e-9,4.770418734862629e-9,1.4349203845291691e-8,8.49428845515401e-8,4.244288117371981e-8,2.376907395522731e-9,6.043700335663888e-10,7.403193882619428e-10,0
56253,6.654311590482304e-9,4.767471177115451e-9,1.4351944556249804e-8,8.464400190167474e-8,4.2303995100999747e-8,2.3774835227505603e-9,6.043700335663888e-10,7.403193882619428e-10,0
56254,6.592644160404408e-9,4.764523619368273e-9,1.4354685267207918e-8,8.434511925180938e-8,4.2165109028279676e-8,2.3780596499783897e-9,6.043700335663888e-10,7.403193882619428e-10,0
56255,6.5309767303265124e-9,4.7615760616210956e-9,1.4357425978166031e-8,8.404623660194404e-8,4.2026222955559606e-8,2.3786357772062196e-9,6.043700335663888e-10,7.403193882619428e-10,0
56256,6.469309300248616e-9,4.758628503873917e-9,1.4360166689124144e-8,8.374735395207868e-8,4.188733688283954e-8,2.379211904434049e-9,6.043700335663888e-10,7.403193882619428e-10,0
56257,6.40764187017072e-9,4.75568094612674e-9,1.4362907400082258e-8,8.344847130221332e-8,4.174845081011947e-8,2.3797880316618785e-9,6.043700335663888e-10,7.403193882619428e-10,0
56258,6.345974440092824e-9,4.752733388379562e-9,1.4365648111040371e-8,8.314958865234797e-8,4.16095647373994e-8,2.3803641588897083e-9,6.043700335663888e-10,7.403193882619428e-10,0
56259,6.2843070100149284e-9,4.749785830632384e-9,1.4368388821998484e-8,8.285070600248261e-8,4.147067866467934e-8,2.3809402861175377e-9,6.043700335663888e-10,7.403193882619428e-10,0
56260,6.222639579937033e-9,4.7468382728852065e-9,1.4371129532956598e-8,8.255182335261725e-8,4.133179259195927e-8,2.381516413345367e-9,6.043700335663888e-10,7.403193882619428e-10,0
56261,6.160972149859137e-9,4.743890715138029e-9,1.4373870243914711e-8,8.22529407027519e-8,4.1192906519239204e-8,2.382092540573197e-9,6.043700335663888e-10,7.403193882619428e-10,0
56262,6.09930471978124e-9,4.740943157390851e-9,1.4376610954872825e-8,8.195405805288655e-8,4.1054020446519134e-8,2.3826686678010264e-9,6.043700335663888e-10,7.403193882619428e-10,0
56263,6.0376372897033445e-9,4.737995599643673e-9,1.4379351665830938e-8,8.165517540302119e-8,4.091513437379906e-8,2.383244795028856e-9,6.043700335663888e-10,7.403193882619428e-10,0
56264,5.975969859625449e-9,4.735048041896496e-9,1.4382092376789051e-8,8.135629275315584e-8,4.0776248301079e-8,2.3838209222566857e-9,6.043700335663888e-10,7.403193882619428e-10,0
56265,5.914302429547553e-9,4.732100484149317e-9,1.4384833087747166e-8,8.105741010329048e-8,4.063736222835893e-8,2.384397049484515e-9,6.043700335663888e-10,7.403193882619428e-10,0
56266,5.852634999469657e-9,4.72915292640214e-9,1.438757379870528e-8,8.075852745342512e-8,4.049847615563886e-8,2.3849731767123446e-9,6.043700335663888e-10,7.403193882619428e-10,0
56267,5.793619390092554e-9,4.755285010606765e-9,1.4381603348417945e-8,8.046760400840983e-8,4.0807811276107555e-8,2.392686595802317e-9,6.054206900167405e-10,7.411535131637507e-10,0
56268,5.734603780715452e-9,4.78141709481139e-9,1.4375632898130611e-8,8.017668056339454e-8,4.1117146396576244e-8,2.4004000148922898e-9,6.064713464670922e-10,7.419876380655586e-10,0
56269,5.678491711813707e-9,4.7784395630935025e-9,1.4381613073164046e-8,7.988049713436988e-8,4.0986049173707015e-8,2.408113433982262e-9,6.067472981336645e-10,7.43638669630397e-10,0
56270,5.6813952522890635e-9,4.779165212291281e-9,1.4294016259058044e-8,7.988464646200486e-8,4.0983671761189244e-8,2.4126795861477475e-9,6.060788937817607e-10,7.431226982744127e-10,0
56271,5.68429879276442e-9,4.779890861489059e-9,1.4206419444952045e-8,7.988879578963983e-8,4.0981294348671474e-8,2.417245738313233e-9,6.054104894298569e-10,7.426067269184284e-10,0
56272,5.663558392502348e-9,4.768601474917807e-9,1.4206385408340694e-8,7.985905521283683e-8,4.098588564442391e-8,2.417245738313233e-9,6.015901157268979e-10,7.402591244262223e-10,0
56273,5.642817992240276e-9,4.757312088346553e-9,1.4206351371729345e-8,7.982931463603383e-8,4.0990476940176354e-8,2.417245738313233e-9,5.977697420239389e-10,7.379115219340161e-10,0
56274,5.622077591978203e-9,4.7460227017753e-9,1.4206317335117994e-8,7.979957405923082e-8,4.09950682359288e-8,2.417245738313233e-9,5.939493683209799e-10,7.3556391944181e-10,0
56275,5.601337191716131e-9,4.734733315204046e-9,1.4206283298506645e-8,7.976983348242782e-8,4.0999659531681235e-8,2.417245738313233e-9,5.901289946180209e-10,7.332163169496039e-10,0
56276,5.580596791454059e-9,4.723443928632794e-9,1.4206249261895295e-8,7.974009290562482e-8,4.100425082743368e-8,2.417245738313233e-9,5.863086209150619e-10,7.308687144573978e-10,0
56277,5.559856391191987e-9,4.71215454206154e-9,1.4206215225283946e-8,7.971035232882181e-8,4.100884212318612e-8,2.417245738313233e-9,5.824882472121029e-10,7.285211119651918e-10,0
56278,5.539115990929915e-9,4.700865155490287e-9,1.4206181188672595e-8,7.968061175201882e-8,4.101343341893856e-8,2.417245738313233e-9,5.786678735091439e-10,7.261735094729857e-10,0
56279,5.518375590667842e-9,4.689575768919033e-9,1.4206147152061246e-8,7.965087117521582e-8,4.1018024714691e-8,2.417245738313233e-9,5.748474998061849e-10,7.238259069807795e-10,0
56280,5.49763519040577e-9,4.6782863823477805e-9,1.4206113115449895e-8,7.962113059841282e-8,4.1022616010443446e-8,2.417245738313233e-9,5.710271261032259e-10,7.214783044885734e-10,0
56281,5.471724616083938e-9,4.666271346578749e-9,1.4197876395456406e-8,7.963764006634484e-8,4.141049624171806e-8,2.4168201807048087e-9,5.678751567521708e-10,7.196466733523516e-10,0
56282,5.445814041762106e-9,4.654256310809717e-9,1.4189639675462916e-8,7.965414953427688e-8,4.1798376472992676e-8,2.4163946230963844e-9,5.647231874011157e-10,7.178150422161298e-10,0
56283,5.419903467440274e-9,4.6422412750406856e-9,1.4181402955469426e-8,7.967065900220891e-8,4.218625670426729e-8,2.4159690654879602e-09,5.615712180500605e-10,7.159834110799079e-10,0
56284,5.393992893118442e-9,4.630226239271654e-9,1.4173166235475936e-8,7.968716847014093e-8,4.2574136935541906e-8,2.415543507879536e-9,5.584192486990054e-10,7.141517799436861e-10,0
56285,5.340305512915858e-9,4.62421122789446e-9,1.4176914177414562e-8,7.972478040918612e-8,4.294766967948578e-8,2.4125896762316055e-9,5.571989410139568e-10,7.166541546491097e-10,0
56286,5.286618132713274e-9,4.6181962165172674e-9,1.418066211935319e-8,7.976239234823133e-8,4.332120242342966e-8,2.409635844583675e-9,5.559786333289082e-10,7.191565293545333e-10,0
56287,5.265581523562695e-9,4.609430569502758e-9,1.4184414923664868e-8,7.903876111524188e-8,4.3481897774765104e-8,2.394092945237796e-9,5.545988749960464e-10,7.208333882775376e-10,0
56288,5.244544914412117e-9,4.600664922488249e-9,1.4188167727976545e-8,7.831512988225245e-8,4.364259312610054e-8,2.3785500458919173e-9,5.532191166631845e-10,7.225102472005419e-10,0
56289,5.223508305261539e-9,4.59189927547374e-9,1.4191920532288223e-8,7.7591498649263e-8,4.380328847743599e-8,2.3630071465460383e-9,5.518393583303228e-10,7.241871061235464e-10,0
56290,5.206619776163375e-9,4.58509866695735e-9,1.4216586930911243e-8,7.698211910765763e-8,4.357455607929641e-8,2.3430528432559193e-9,5.495152439789847e-10,7.235249716737333e-10,0
56291,5.189731247065211e-9,4.578298058440959e-9,1.4241253329534263e-8,7.637273956605224e-8,4.334582368115682e-8,2.3230985399658e-9,5.471911296276466e-10,7.228628372239202e-10,0
56292,5.1728427179670475e-9,4.571497449924569e-9,1.4265919728157284e-8,7.576336002444686e-8,4.311709128301724e-8,2.303144236675681e-9,5.448670152763086e-10,7.222007027741071e-10,0
56293,5.155954188868884e-9,4.564696841408178e-9,1.4290586126780306e-8,7.515398048284148e-8,4.288835888487766e-8,2.283189933385562e-9,5.425429009249706e-10,7.21538568324294e-10,0
56294,5.13906565977072e-9,4.557896232891788e-9,1.4315252525403326e-8,7.45446009412361e-8,4.265962648673807e-8,2.2632356300954425e-9,5.402187865736325e-10,7.208764338744809e-10,0
56295,5.122177130672557e-9,4.5510956243753976e-9,1.4339918924026346e-8,7.393522139963073e-8,4.243089408859849e-8,2.2432813268053235e-9,5.378946722222944e-10,7.202142994246678e-10,0
56296,5.105288601574393e-9,4.5442950158590076e-9,1.4364585322649367e-8,7.332584185802534e-8,4.220216169045891e-8,2.2233270235152045e-9,5.355705578709565e-10,7.195521649748547e-10,0
56297,5.088400072476229e-9,4.537494407342617e-9,1.4389251721272389e-8,7.271646231641997e-8,4.1973429292319325e-8,2.203372720225085e-9,5.332464435196184e-10,7.188900305250416e-10,0
56298,5.071511543378065e-9,4.530693798826227e-9,1.4413918119895409e-8,7.210708277481459e-8,4.1744696894179744e-8,2.183418416934966e-9,5.309223291682803e-10,7.182278960752285e-10,0
56299,5.054623014279901e-9,4.523893190309836e-9,1.443858451851843e-8,7.14977032332092e-8,4.1515964496040164e-8,2.163464113644847e-9,5.285982148169423e-10,7.175657616254155e-10,0
56300,5.0377344851817375e-9,4.517092581793446e-9,1.446325091714145e-8,7.088832369160383e-8,4.1287232097900576e-8,2.143509810354728e-9,5.262741004656043e-10,7.169036271756024e-10,0
56301,5.020845956083574e-9,4.510291973277055e-9,1.4487917315764472e-8,7.027894414999846e-8,4.1058499699760996e-8,2.1235555070646087e-9,5.239499861142662e-10,7.162414927257893e-10,0
56302,5.00395742698541e-9,4.503491364760665e-9,1.4512583714387492e-8,6.966956460839307e-8,4.0829767301621416e-8,2.1036012037744897e-9,5.216258717629282e-10,7.155793582759762e-10,0
56303,4.9826491967192575e-9,4.494468847694875e-9,1.4513339137622877e-8,6.891001868845788e-8,4.0933451021048896e-8,2.0944647208416788e-9,5.193017574115902e-10,7.149172238261631e-10,0
56304,4.9630643578063576e-9,4.485446330629085e-9,1.451931445028326e-8,6.84285134801006e-8,4.0726025065773526e-8,2.071672647069563e-9,5.191423067637769e-10,7.149172238261631e-10,0
56305,4.941642561539389e-9,4.476680683614576e-9,1.4521319187498188e-8,6.783221466968257e-8,4.0498840185834356e-8,2.0536746691929607e-9,5.178688488627906e-10,7.152612047301526e-10,0
56306,4.92022076527242e-9,4.467915036600067e-9,1.4523323924713117e-8,6.723591585926453e-8,4.0271655305895186e-8,2.035676691316358e-9,5.165953909618043e-10,7.156051856341421e-10,0
56307,4.917568944571626e-9,4.467915036600067e-9,1.4523323924713117e-8,6.732659662148149e-8,4.017906459074847e-8,2.0405094742671828e-9,5.167016913936798e-10,7.167746823205508e-10,0
56308,4.913035677402821e-9,4.4191891922675815e-9,1.4469429413816462e-8,6.729893889975518e-8,4.008647387560176e-8,2.0276966414410465e-9,5.168079918255552e-10,7.176088072223587e-10,0
56309,4.9085024102340155e-9,4.370463347935095e-9,1.4415534902919809e-8,6.727128117802888e-8,3.9993883160455046e-8,2.01488380861491e-9,5.169142922574307e-10,7.184429321241665e-10,0
56310,4.90396914306521e-9,4.321737503602609e-9,1.4361640392023154e-8,6.724362345630256e-8,3.9901292445308337e-8,2.0020709757887736e-9,5.170205926893062e-10,7.192770570259744e-10,0
56311,4.899435875896404e-9,4.273011659270122e-9,1.4307745881126501e-8,6.721596573457625e-8,3.980870173016163e-8,1.9892581429626373e-9,5.171268931211817e-10,7.201111819277823e-10,0
56312,4.894902608727599e-9,4.224285814937636e-9,1.4253851370229846e-8,6.718830801284994e-8,3.971611101501491e-8,1.976445310136501e-9,5.172331935530572e-10,7.209453068295901e-10,0
56313,4.890369341558794e-9,4.175559970605149e-9,1.4199956859333193e-8,6.716065029112363e-8,3.96235202998682e-8,1.9636324773103644e-9,5.173394939849327e-10,7.217794317313979e-10,0
56314,4.885836074389988e-9,4.126834126272663e-9,1.4146062348436538e-8,6.713299256939731e-8,3.953092958472149e-8,1.950819644484228e-9,5.174457944168082e-10,7.226135566332058e-10,0
56315,4.881302807221183e-9,4.078108281940176e-9,1.4092167837539885e-8,6.710533484767101e-8,3.943833886957478e-8,1.938006811658092e-9,5.175520948486837e-10,7.234476815350137e-10,0
56316,4.876769540052378e-9,4.02938243760769e-9,1.403827332664323e-8,6.70776771259447e-8,3.934574815442806e-8,1.9251939788319552e-9,5.176583952805592e-10,7.242818064368215e-10,0
56317,4.8722362728835726e-9,3.980656593275204e-9,1.3984378815746577e-8,6.705001940421839e-8,3.925315743928135e-8,1.912381146005819e-9,5.177646957124346e-10,7.251159313386294e-10,0
56318,4.867703005714767e-9,3.931930748942718e-9,1.3930484304849922e-8,6.702236168249207e-8,3.9160566724134644e-8,1.8995683131796827e-9,5.178709961443102e-10,7.259500562404373e-10,0
56319,4.863169738545962e-9,3.8832049046102315e-9,1.3876589793953269e-8,6.699470396076576e-8,3.906797600898793e-8,1.8867554803535464e-9,5.179772965761857e-10,7.267841811422451e-10,0
56320,4.858636471377157e-9,3.834479060277745e-9,1.3822695283056614e-8,6.696704623903946e-8,3.897538529384122e-8,1.8739426475274098e-9,5.180835970080612e-10,7.276183060440529e-10,0
56321,4.8541032042083515e-9,3.785753215945259e-9,1.3768800772159961e-8,6.693938851731315e-8,3.88827945786945e-8,1.8611298147012735e-9,5.181898974399366e-10,7.284524309458608e-10,0
56322,4.849569937039546e-9,3.737027371612772e-9,1.3714906261263306e-8,6.691173079558684e-8,3.8790203863547794e-8,1.8483169818751373e-9,5.182961978718121e-10,7.292865558476687e-10,0
56323,4.845036669870741e-9,3.6883015272802857e-9,1.3661011750366653e-8,6.688407307386052e-8,3.869761314840108e-8,1.8355041490490008e-9,5.184024983036876e-10,7.301206807494765e-10,0
56324,4.840503402701936e-9,3.6395756829477997e-9,1.3607117239469998e-8,6.685641535213421e-8,3.860502243325437e-8,1.8226913162228645e-9,5.185087987355632e-10,7.309548056512843e-10,0
56325,4.83597013553313e-9,3.5908498386153133e-9,1.3553222728573345e-8,6.68287576304079e-8,3.851243171810766e-8,1.809878483396728e-9,5.186150991674386e-10,7.317889305530923e-10,0
56326,4.838236769117533e-9,3.5752065568573896e-9,1.3537243179330522e-8,6.69346019788889e-8,3.799209794578788e-8,1.808614346376975e-9,5.196657556177903e-10,7.30963414770673e-10,0
56327,4.840503402701936e-9,3.5595632750994654e-9,1.3521263630087698e-8,6.70404463273699e-8,3.7471764173468096e-8,1.8073502093572216e-9,5.207164120681421e-10,7.301378989882538e-10,0
56328,4.840162704699487e-9,3.5647477283813975e-9,1.3505531026216953e-8,6.713246850874801e-8,3.7480280399938715e-8,1.8081929673703905e-9,5.206101116362665e-10,7.279708960674312e-10,0
56329,4.839822006697039e-9,3.569932181663329e-9,1.3489798422346209e-8,6.722449069012613e-8,3.748879662640934e-8,1.8090357253835594e-9,5.20503811204391e-10,7.258038931466085e-10,0
56330,4.8394813086945905e-9,3.5751166349452613e-9,1.3474065818475464e-8,6.731651287150423e-8,3.7497312852879964e-8,1.809878483396728e-9,5.203975107725156e-10,7.236368902257858e-10,0
56331,4.839140610692142e-9,3.580301088227193e-9,1.3458333214604718e-8,6.740853505288234e-8,3.750582907935058e-8,1.810721241409897e-9,5.202912103406401e-10,7.214698873049631e-10,0
56332,4.838799912689694e-9,3.585485541509125e-9,1.3442600610733974e-8,6.750055723426046e-8,3.751434530582121e-8,1.8115639994230656e-9,5.201849099087646e-10,7.193028843841404e-10,0
56333,4.838459214687245e-9,3.5906699947910567e-9,1.342686800686323e-8,6.759257941563856e-8,3.752286153229183e-8,1.8124067574362345e-9,5.200786094768891e-10,7.171358814633177e-10,0
56334,4.838118516684797e-9,3.5958544480729888e-9,1.3411135402992485e-8,6.768460159701668e-8,3.753137775876246e-8,1.8132495154494032e-9,5.199723090450136e-10,7.14968878542495e-10,0
56335,4.8377778186823485e-9,3.6010389013549205e-9,1.3395402799121739e-8,6.777662377839479e-8,3.7539893985233076e-8,1.8140922734625721e-9,5.198660086131381e-10,7.128018756216723e-10,0
56336,4.8374371206799e-9,3.6062233546368525e-9,1.3379670195250994e-8,6.786864595977289e-8,3.75484102117037e-8,1.8149350314757408e-9,5.197597081812626e-10,7.106348727008496e-10,0
56337,4.837096422677452e-9,3.6114078079187842e-9,1.336393759138025e-8,6.796066814115101e-8,3.7556926438174325e-8,1.8157777894889097e-9,5.196534077493871e-10,7.084678697800269e-10,0
56338,4.836755724675003e-9,3.6165922612007163e-9,1.3348204987509504e-8,6.805269032252912e-8,3.7565442664644944e-8,1.8166205475020784e-9,5.195471073175116e-10,7.063008668592042e-10,0
56339,4.836415026672555e-9,3.621776714482648e-9,1.333247238363876e-8,6.814471250390723e-8,3.757395889111557e-8,1.8174633055152473e-9,5.194408068856362e-10,7.041338639383815e-10,0
56340,4.827891734566093e-9,3.6165922612007163e-9,1.337064887778382e-8,6.86818993811781e-8,3.7263142934134774e-8,1.8245577317202391e-9,5.213295189225886e-10,7.031277485845788e-10,0
56341,4.827891734566093e-9,3.6053328486001723e-9,1.3400622688546737e-8,6.921908625844896e-8,3.7265548017393913e-8,1.8211051469551015e-9,5.232713811754787e-10,7.031277485845788e-10,0
56342,4.827891734566093e-9,3.5940734359996286e-9,1.3430596499309657e-8,6.975627313571983e-8,3.726795310065306e-8,1.8176525621899638e-9,5.252132434283689e-10,7.031277485845788e-10,0
56343,4.827891734566093e-9,3.5828140233990846e-9,1.3460570310072574e-8,7.029346001299069e-8,3.72703581839122e-8,1.8141999774248262e-9,5.271551056812591e-10,7.031277485845788e-10,0
56344,4.827891734566093e-9,3.5715546107985405e-9,1.3490544120835494e-8,7.083064689026156e-8,3.7272763267171344e-8,1.8107473926596888e-9,5.290969679341493e-10,7.031277485845788e-10,0
56345,4.827891734566093e-9,3.560295198197997e-9,1.3520517931598413e-8,7.136783376753242e-8,3.727516835043048e-8,1.8072948078945511e-9,5.310388301870395e-10,7.031277485845788e-10,0
56346,4.827891734566093e-9,3.549035785597453e-9,1.355049174236133e-8,7.190502064480329e-8,3.727757343368962e-8,1.8038422231294135e-9,5.329806924399296e-10,7.031277485845788e-10,0
56347,4.823605500739932e-9,3.549035785597453e-9,1.35804315165129e-8,7.213968621770259e-8,3.68302390637698e-8,1.812665031017894e-9,5.351453561434544e-10,7.03291129917185e-10,0
56348,4.818163705564598e-9,3.5542951738061585e-9,1.3568441992207733e-8,7.180811961988622e-8,3.640061734719617e-8,1.8141226033142037e-9,5.353681575940891e-10,7.344116409941786e-10,0
56349,4.812721910389263e-9,3.5595545620148637e-9,1.3556452467902564e-8,7.147655302206986e-8,3.597099563062253e-8,1.8155801756105134e-9,5.355909590447237e-10,7.655321520711723e-10,0
56350,4.807280115213929e-9,3.564813950223569e-9,1.3544462943597397e-8,7.114498642425348e-8,3.5541373914048894e-8,1.817037747906823e-9,5.358137604953583e-10,7.966526631481659e-10,0
56351,4.801838320038595e-9,3.5700733384322746e-9,1.353247341929223e-8,7.081341982643711e-8,3.511175219747526e-8,1.8184953202031327e-9,5.36036561945993e-10,8.277731742251596e-10,0
56352,4.79639652486326e-9,3.57533272664098e-9,1.3520483894987062e-8,7.048185322862075e-8,3.4682130480901627e-8,1.8199528924994424e-9,5.362593633966276e-10,8.588936853021531e-10,0
56353,4.790954729687926e-9,3.580592114849685e-9,1.3508494370681895e-8,7.015028663080437e-8,3.425250876432799e-8,1.821410464795752e-9,5.364821648472622e-10,8.900141963791468e-10,0
56354,4.7855129345125916e-9,3.5858515030583903e-9,1.3496504846376727e-8,6.9818720032988e-8,3.382288704775436e-8,1.8228680370920615e-9,5.367049662978967e-10,9.211347074561404e-10,0
56355,4.780071139337257e-9,3.591110891267096e-9,1.348451532207156e-8,6.948715343517163e-8,3.3393265331180726e-8,1.8243256093883712e-9,5.369277677485314e-10,9.522552185331341e-10,0
56356,4.774629344161923e-9,3.5963702794758012e-9,1.3472525797766393e-8,6.915558683735526e-8,3.296364361460709e-8,1.8257831816846809e-9,5.37150569199166e-10,9.833757296101276e-10,0
56357,4.7691875489865886e-9,3.6016296676845065e-9,1.3460536273461225e-8,6.88240202395389e-8,3.253402189803345e-8,1.8272407539809906e-9,5.373733706498006e-10,1.0144962406871213e-9,0
56358,4.763745753811254e-9,3.606889055893212e-9,1.3448546749156058e-8,6.849245364172251e-8,3.210440018145982e-8,1.8286983262773002e-9,5.375961721004352e-10,1.045616751764115e-9,0
56359,4.75830395863592e-9,3.6121484441019174e-9,1.343655722485089e-8,6.816088704390615e-8,3.1674778464886184e-8,1.83015589857361e-9,5.378189735510699e-10,1.0767372628411087e-9,0
56360,4.7528621634605855e-9,3.6174078323106226e-9,1.3424567700545723e-8,6.782932044608978e-8,3.124515674831255e-8,1.8316134708699196e-9,5.380417750017045e-10,1.1078577739181022e-9,0
