time,channel1,channel2,channel3,channel4,channel5,channel6,channel7,channel8,class
40719,8.330022483147381e-10,2.1502560513840952e-9,6.362467871074751e-9,1.5265072328520196e-7,2.745421251773816e-7,9.475097522392462e-8,2.3698845594058045e-9,2.7808500284097874e-9,0
40720,8.327812874762286e-10,2.1523442186452943e-9,6.354661162068495e-9,1.5253172959583077e-7,2.728738503136639e-7,9.489346492670962e-8,2.3773724549808697e-9,2.7867672263948493e-9,0
40721,8.325603266377189e-10,2.154432385906493e-9,6.34685445306224e-9,1.5241273590645958e-7,2.712055754499461e-7,9.503595462949462e-8,2.384860350555935e-9,2.7926844243799108e-9,0
40722,8.323393657992094e-10,2.156520553167692e-9,6.339047744055984e-9,1.5229374221708837e-7,2.6953730058622834e-7,9.517844433227963e-8,2.392348246131e-9,2.7986016223649727e-9,0
40723,8.321184049606999e-10,2.1586087204288906e-9,6.331241035049728e-9,1.5217474852771718e-7,2.678690257225106e-7,9.532093403506463e-8,2.3998361417060654e-9,2.804518820350034e-9,0
40724,8.318974441221902e-10,2.1606968876900897e-9,6.323434326043473e-9,1.52055754838346e-7,2.6620075085879284e-7,9.546342373784964e-8,2.4073240372811307e-9,2.810436018335096e-9,0
40725,8.316764832836807e-10,2.1627850549512883e-9,6.315627617037218e-9,1.519367611489748e-7,2.6453247599507507e-7,9.560591344063464e-8,2.414811932856196e-9,2.8163532163201576e-9,0
40726,8.314555224451711e-10,2.1648732222124873e-9,6.307820908030962e-9,1.5181776745960362e-7,2.6286420113135735e-7,9.574840314341964e-8,2.422299828431261e-9,2.8222704143052195e-9,0
40727,8.312345616066615e-10,2.166961389473686e-9,6.300014199024707e-9,1.5169877377023243e-7,2.6119592626763957e-7,9.589089284620466e-8,2.4297877240063264e-9,2.828187612290281e-9,0
40728,8.310136007681519e-10,2.169049556734885e-9,6.2922074900184514e-9,1.5157978008086124e-7,2.595276514039218e-7,9.603338254898965e-8,2.4372756195813916e-9,2.834104810275343e-9,0
40729,8.3079263992964235e-10,2.1711377239960837e-9,6.284400781012195e-9,1.5146078639149003e-7,2.5785937654020407e-7,9.617587225177467e-8,2.444763515156457e-9,2.8400220082604044e-9,0
40730,8.297383022550405e-10,2.1690275706313167e-9,6.283262236262338e-9,1.5130000696271966e-7,2.580425278545107e-7,9.631126438945843e-8,2.4415831391821422e-9,2.84596181938594e-9,0
40731,8.274086660673274e-10,2.1711157378925153e-9,6.277960325705769e-9,1.5102054254579507e-7,2.582827093100336e-7,9.609731583405441e-8,2.4490710347572075e-9,2.836270053311115e-9,0
40732,8.250790298796142e-10,2.1732039051537144e-9,6.2726584151492e-9,1.5074107812887046e-7,2.5852289076555644e-7,9.588336727865041e-8,2.4565589303322727e-9,2.82657828723629e-9,0
40733,8.227493936919011e-10,2.175292072414913e-9,6.26735650459263e-9,1.5046161371194587e-7,2.587630722210793e-7,9.56694187232464e-8,2.464046825907338e-9,2.816886521161465e-9,0
40734,8.20419757504188e-10,2.177380239676112e-9,6.262054594036061e-9,1.5018214929502126e-7,2.5900325367660216e-7,9.545547016784239e-8,2.471534721482403e-9,2.8071947550866396e-9,0
40735,8.180901213164748e-10,2.1794684069373107e-9,6.256752683479492e-9,1.4990268487809664e-7,2.59243435132125e-7,9.524152161243838e-8,2.4790226170574684e-9,2.7975029890118147e-9,0
40736,8.157604851287616e-10,2.1815565741985098e-9,6.2514507729229216e-9,1.4962322046117206e-7,2.594836165876479e-7,9.502757305703436e-8,2.4865105126325337e-9,2.7878112229369893e-9,0
40737,8.134308489410485e-10,2.1853383034478556e-9,6.24537906508191e-9,1.4936546549515172e-7,2.5962987516044914e-7,9.477983720021257e-8,2.4862644354824106e-9,2.7722022588771025e-9,0
40738,8.111012127533353e-10,2.1891200326972014e-9,6.239307357240898e-9,1.4910771052913142e-7,2.5977613373325044e-7,9.453210134339077e-8,2.486018358332287e-9,2.756593294817216e-9,0
40739,8.087715765656222e-10,2.192901761946547e-9,6.233235649399886e-9,1.4884995556311109e-7,2.5992239230605175e-7,9.428436548656898e-8,2.485772281182164e-9,2.740984330757329e-9,0
40740,8.064419403779091e-10,2.1966834911958926e-9,6.227163941558874e-9,1.4859220059709075e-7,2.6006865087885306e-7,9.403662962974719e-8,2.485526204032041e-9,2.7253753666974423e-9,0
40741,8.041123041901959e-10,2.2004652204452384e-9,6.221092233717862e-9,1.4833444563107045e-7,2.6021490945165437e-7,9.378889377292539e-8,2.4852801268819173e-9,2.7097664026375555e-9,0
40742,8.017826680024827e-10,2.2042469496945842e-9,6.21502052587685e-9,1.480766906650501e-7,2.6036116802445563e-07,9.354115791610359e-8,2.4850340497317942e-9,2.6941574385776686e-9,0
40743,8.015617071639732e-10,2.2059405116827314e-9,6.1991581294244064e-9,1.4738257235582626e-7,2.588925638718092e-7,9.350737061468581e-8,2.4816724153033675e-9,2.6941800517181425e-9,0
40744,8.015617071639732e-10,2.209524938295551e-9,6.1991581294244064e-9,1.4738511175576488e-7,2.573411092730882e-7,9.172714225282121e-8,2.473938442578179e-9,2.688262853733081e-9,0
40745,8.015617071639732e-10,2.2131093649083707e-9,6.1991581294244064e-9,1.473876511557035e-7,2.5578965467436714e-7,8.994691389095663e-8,2.4662044698529904e-9,2.682345655748019e-9,0
40746,8.015617071639732e-10,2.2166937915211904e-9,6.1991581294244064e-9,1.4739019055564212e-7,2.5423820007564614e-7,8.816668552909203e-8,2.458470497127802e-9,2.6764284577629577e-9,0
40747,8.015617071639732e-10,2.2202782181340104e-9,6.1991581294244064e-9,1.4739272995558075e-7,2.5268674547692515e-7,8.638645716722745e-8,2.4507365244026138e-9,2.6705112597778957e-9,0
40748,8.015617071639732e-10,2.22386264474683e-9,6.1991581294244064e-9,1.4739526935551937e-7,2.511352908782041e-7,8.460622880536285e-8,2.443002551677425e-9,2.6645940617928342e-9,0
40749,8.015617071639732e-10,2.2274470713596498e-9,6.1991581294244064e-9,1.47397808755458e-7,2.495838362794831e-7,8.282600044349826e-8,2.4352685789522367e-9,2.6586768638077723e-9,0
40750,8.025023819581993e-10,2.23144808934909e-9,6.19984125627432e-9,1.4763356543547872e-7,2.4830335286786885e-7,8.106593571736484e-8,2.4277806833771714e-9,2.6535191020687583e-9,0
40751,8.034430567524255e-10,2.23544910733853e-9,6.200524383124235e-9,1.4786932211549944e-7,2.470228694562546e-7,7.930587099123143e-8,2.420292787802106e-9,2.6483613403297443e-9,0
40752,8.043837315466516e-10,2.23945012532797e-9,6.201207509974149e-9,1.4810507879552017e-7,2.457423860446404e-7,7.7545806265098e-8,2.412804892227041e-9,2.64320357859073e-9,0
40753,8.053244063408777e-10,2.2434511433174098e-9,6.201890636824064e-9,1.483408354755409e-7,2.4446190263302613e-7,7.578574153896458e-8,2.4053169966519757e-9,2.638045816851716e-9,0
40754,8.062650811351038e-10,2.24745216130685e-9,6.202573763673978e-9,1.4857659215556162e-7,2.4318141922141187e-7,7.402567681283117e-8,2.3978291010769105e-9,2.6328880551127014e-9,0
40755,8.0720575592933e-10,2.25145317929629e-9,6.203256890523893e-9,1.4881234883558235e-7,2.419009358097976e-7,7.226561208669774e-8,2.3903412055018452e-9,2.6277302933736874e-9,0
40756,8.081464307235561e-10,2.25545419728573e-9,6.203940017373807e-9,1.4904810551560307e-7,2.406204523981834e-7,7.050554736056432e-8,2.38285330992678e-9,2.622572531634673e-9,0
40757,8.090871055177823e-10,2.2594552152751698e-9,6.2046231442237215e-9,1.4928386219562383e-7,2.3933996898656915e-7,6.87454826344309e-8,2.3753654143517148e-9,2.617414769895659e-9,0
40758,8.129634675750625e-10,2.260359566717213e-9,6.20842879542867e-9,1.4926469214465814e-7,2.3765927084965006e-7,6.688415813641251e-8,2.372683791494607e-9,2.613447358098477e-9,0
40759,8.168398296323427e-10,2.261263918159256e-9,6.212234446633618e-9,1.4924552209369248e-7,2.3597857271273098e-7,6.502283363839412e-8,2.3700021686374994e-9,2.6094799463012953e-9,0
40760,8.207161916896229e-10,2.262168269601299e-9,6.216040097838567e-9,1.4922635204272683e-7,2.342978745758119e-7,6.316150914037574e-8,2.367320545780392e-9,2.6055125345041133e-9,0
40761,8.245925537469032e-10,2.263072621043342e-9,6.2198457490435154e-9,1.4920718199176117e-7,2.3261717643889282e-7,6.130018464235734e-8,2.3646389229232844e-9,2.6015451227069318e-9,0
40762,8.284689158041834e-10,2.263976972485385e-9,6.223651400248464e-9,1.491880119407955e-7,2.3093647830197372e-7,5.9438860144338956e-8,2.3619573000661765e-9,2.5975777109097498e-9,0
40763,8.323452778614636e-10,2.264881323927428e-9,6.227457051453412e-9,1.4916884188982985e-7,2.2925578016505463e-7,5.7577535646320565e-8,2.359275677209069e-9,2.5936102991125678e-9,0
40764,8.362216399187439e-10,2.265785675369471e-9,6.231262702658361e-9,1.491496718388642e-7,2.2757508202813555e-7,5.571621114830217e-8,2.3565940543519615e-9,2.589642887315386e-9,0
40765,8.400980019760241e-10,2.2666900268115145e-9,6.235068353863309e-9,1.4913050178789854e-7,2.2589438389121647e-7,5.385488665028379e-8,2.353912431494854e-9,2.585675475518204e-9,0
40766,8.430336892390781e-10,2.2653910700964193e-9,6.238104207783815e-9,1.472585149104871e-7,2.2570318010924836e-7,5.335879751927682e-8,2.2950145414193004e-9,2.5518400415531775e-9,0
40767,8.381029895071961e-10,2.2539087553488747e-9,6.212244683259929e-9,1.469530825812306e-7,2.2567391690896448e-7,5.322100085928345e-8,2.294399348543992e-9,2.541751913506668e-9,0
40768,8.331722897753142e-10,2.24242644060133e-9,6.1863851587360425e-9,1.4664765025197412e-7,2.2564465370868056e-7,5.308320419929008e-8,2.2937841556686844e-9,2.5316637854601582e-9,0
40769,8.282415900434321e-10,2.230944125853785e-9,6.160525634212157e-9,1.4634221792271764e-7,2.2561539050839668e-7,5.294540753929671e-8,2.2931689627933763e-9,2.521575657413648e-9,0
40770,8.233108903115501e-10,2.2194618111062404e-9,6.1346661096882705e-9,1.4603678559346115e-7,2.2558612730811276e-7,5.280761087930334e-8,2.292553769918068e-9,2.5114875293671385e-9,0
40771,8.18380190579668e-10,2.207979496358696e-9,6.108806585164384e-9,1.4573135326420467e-7,2.2555686410782888e-7,5.2669814219309974e-8,2.29193857704276e-9,2.5013994013206285e-9,0
40772,8.097940896290155e-10,2.1995938481585477e-9,6.079824536285464e-9,1.4598989206119258e-7,2.2549556585080733e-7,5.2575046503887586e-8,2.286517111449494e-9,2.495391750773671e-9,0
40773,8.012079886783628e-10,2.1912081999584e-9,6.050842487406543e-9,1.4624843085818046e-7,2.2543426759378581e-7,5.2480278788465205e-8,2.2810956458562286e-9,2.489384100226713e-9,0
40774,7.926218877277102e-10,2.1828225517582523e-9,6.021860438527624e-9,1.4650696965516836e-7,2.2537296933676427e-7,5.238551107304282e-8,2.2756741802629626e-9,2.4833764496797552e-9,0
40775,7.840357867770575e-10,2.1744369035581046e-9,5.9928783896487036e-9,1.4676550845215627e-7,2.2531167107974275e-7,5.229074335762043e-8,2.270252714669697e-9,2.4773687991327972e-9,0
40776,7.754496858264049e-10,2.166051255357957e-9,5.963896340769783e-9,1.4702404724914415e-7,2.252503728227212e-7,5.219597564219805e-8,2.2648312490764312e-9,2.4713611485858396e-9,0
40777,7.668635848757522e-10,2.157665607157809e-9,5.934914291890863e-9,1.4728258604613205e-7,2.2518907456569968e-7,5.210120792677566e-8,2.2594097834831653e-9,2.4653534980388816e-9,0
40778,7.582774839250995e-10,2.149279958957661e-9,5.905932243011943e-9,1.4754112484311993e-7,2.2512777630867814e-7,5.200644021135327e-8,2.2539883178899e-9,2.459345847491924e-9,0
40779,7.496913829744469e-10,2.1408943107575134e-9,5.876950194133022e-9,1.4779966364010784e-7,2.2506647805165662e-7,5.191167249593089e-8,2.248566852296634e-9,2.453338196944966e-9,0
40780,7.411052820237943e-10,2.1325086625573657e-9,5.847968145254102e-9,1.4805820243709571e-07,2.2500517979463508e-7,5.1816904780508504e-8,2.2431453867033684e-9,2.4473305463980084e-9,0
40781,7.325191810731417e-10,2.124123014357218e-9,5.8189860963751825e-9,1.4831674123408362e-7,2.2494388153761356e-7,5.1722137065086116e-8,2.2377239211101025e-9,2.4413228958510503e-9,0
40782,7.23933080122489e-10,2.11573736615707e-9,5.790004047496262e-9,1.485752800310715e-7,2.24882583280592e-7,5.162736934966373e-8,2.2323024555168366e-9,2.4353152453040927e-9,0
40783,7.153469791718364e-10,2.107351717956922e-9,5.761021998617342e-9,1.488338188280594e-7,2.248212850235705e-7,5.153260163424135e-8,2.226880989923571e-9,2.4293075947571347e-9,0
40784,7.067608782211837e-10,2.0989660697567745e-9,5.7320399497384215e-9,1.4909235762504728e-7,2.2475998676654895e-7,5.143783391881896e-8,2.2214595243303052e-9,2.423299944210177e-9,0
40785,6.981747772705311e-10,2.0905804215566268e-9,5.703057900859501e-9,1.493508964220352e-7,2.2469868850952743e-7,5.134306620339657e-8,2.2160380587370397e-9,2.417292293663219e-9,0
40786,6.895886763198784e-10,2.0821947733564787e-9,5.674075851980581e-9,1.496094352190231e-7,2.2463739025250588e-7,5.124829848797419e-8,2.210616593143774e-9,2.4112846431162615e-9,0
40787,6.810025753692257e-10,2.073809125156331e-9,5.6450938031016605e-9,1.4986797401601097e-7,2.2457609199548436e-7,5.1153530772551803e-8,2.205195127550508e-9,2.4052769925693034e-9,0
40788,6.802828614135093e-10,2.075606834988633e-9,5.639705222110563e-9,1.5042333480583063e-7,2.2458980614856824e-7,5.105665764635331e-8,2.2003888548325506e-9,2.4115679393855757e-9,0
40789,6.684832809211051e-10,2.0432700441107658e-9,5.472644197336186e-9,1.4828134209946422e-7,2.2445806572950555e-7,5.108779749344887e-8,2.1929009592574853e-9,2.387559950338219e-9,0
40790,6.566837004287009e-10,2.010933253232899e-9,5.305583172561809e-9,1.4613934939309778e-7,2.2432632531044285e-7,5.111893734054443e-8,2.18541306368242e-9,2.3635519612908615e-9,0
40791,6.448841199362969e-10,1.9785964623550317e-9,5.1385221477874304e-9,1.4399735668673136e-7,2.2419458489138015e-7,5.1150077187639986e-8,2.177925168107355e-9,2.339543972243504e-9,0
40792,6.330845394438927e-10,1.9462596714771645e-9,4.971461123013053e-9,1.4185536398036492e-7,2.2406284447231746e-7,5.1181217034735544e-8,2.1704372725322896e-9,2.315535983196147e-9,0
40793,6.212849589514886e-10,1.9139228805992977e-9,4.804400098238676e-9,1.3971337127399848e-7,2.2393110405325476e-7,5.1212356881831096e-8,2.1629493769572244e-9,2.2915279941487895e-9,0
40794,6.094853784590845e-10,1.8815860897214305e-9,4.637339073464298e-9,1.3757137856763207e-7,2.2379936363419207e-7,5.1243496728926654e-8,2.155461481382159e-9,2.267520005101432e-9,0
40795,5.98405511922397e-10,1.8461526322961663e-9,4.485110636554338e-9,1.3508916483274695e-7,2.2362443425173534e-7,5.13328674033362e-8,2.1477275086569704e-9,2.2412563204564067e-9,0
40796,5.863849705914833e-10,1.815591565147033e-9,4.3173664849300465e-9,1.3237995454143904e-7,2.2428065134007354e-7,5.132097830586078e-8,2.142863016059962e-9,2.210957384592777e-9,0
40797,5.743644292605696e-10,1.7850304979978996e-9,4.149622333305754e-9,1.2967074425013113e-7,2.2493686842841174e-7,5.130908920838535e-8,2.137998523462954e-9,2.1806584487291475e-9,0
40798,5.623438879296559e-10,1.754469430848766e-9,3.981878181681462e-9,1.269615339588232e-7,2.2559308551674994e-7,5.129720011090992e-8,2.133134030865946e-9,2.1503595128655175e-9,0
40799,5.503233465987421e-10,1.7239083636996327e-9,3.814134030057171e-9,1.242523236675153e-7,2.2624930260508814e-7,5.12853110134345e-8,2.1282695382689378e-9,2.120060577001888e-9,0
40800,5.383028052678284e-10,1.6933472965504994e-9,3.6463898784328788e-9,1.2154311337620739e-7,2.2690551969342634e-7,5.127342191595907e-8,2.1234050456719295e-9,2.0897616411382583e-9,0
40801,5.38025012989131e-10,1.699019890424518e-9,3.644481536398579e-9,1.215230225912164e-7,2.2706993593625006e-7,5.049523451941083e-8,2.124720046569438e-9,2.087483332400116e-9,0
40802,5.316485204235742e-10,1.6635262573622354e-9,3.6085823448233274e-9,1.2054249758615408e-7,2.2614516024999425e-7,4.9712431414622665e-8,2.1041415313719296e-9,2.0813054512862137e-9,0
40803,5.252720278580174e-10,1.628032624299953e-9,3.572683153248076e-9,1.1956197258109176e-7,2.2522038456373845e-7,4.89296283098345e-8,2.083563016174421e-9,2.0751275701723114e-9,0
40804,5.188955352924606e-10,1.5925389912376705e-9,3.5367839616728244e-9,1.1858144757602942e-7,2.2429560887748264e-7,4.814682520504633e-8,2.0629845009769127e-9,2.068949689058409e-9,0
40805,5.125190427269037e-10,1.5570453581753878e-9,3.5008847700975725e-9,1.176009225709671e-7,2.2337083319122682e-7,4.736402210025816e-8,2.0424059857794047e-9,2.0627718079445074e-9,0
40806,5.061425501613469e-10,1.5215517251131053e-9,3.464985578522321e-9,1.1662039756590477e-7,2.22446057504971e-7,4.6581218995469994e-8,2.0218274705818963e-9,2.056593926830605e-9,0
40807,4.9976605759579e-10,1.4860580920508228e-9,3.4290863869470695e-9,1.1563987256084244e-7,2.2152128181871518e-7,4.5798415890681826e-8,2.001248955384388e-9,2.050416045716703e-9,0
40808,4.933895650302332e-10,1.4505644589885403e-9,3.393187195371818e-9,1.1465934755578011e-7,2.2059650613245936e-7,4.501561278589366e-8,1.9806704401868794e-9,2.0442381646028006e-9,0
40809,4.908894345219566e-10,1.4090967815715581e-9,3.3770214523985256e-9,1.1381241161392017e-7,2.1885495106301779e-7,4.5463062420273914e-8,2.004364512662691e-9,2.0390804028637862e-9,0
40810,4.8838930401368e-10,1.367629104154576e-9,3.3608557094252328e-9,1.1296547567206022e-7,2.1711339599357618e-7,4.591051205465416e-8,2.028058585138503e-9,2.033922641124772e-9,0
40811,4.858891735054033e-10,1.3261614267375937e-9,3.3446899664519403e-9,1.1211853973020027e-7,2.1537184092413458e-7,4.635796168903442e-8,2.051752657614315e-9,2.028764879385758e-9,0
40812,4.833890429971267e-10,1.2846937493206115e-9,3.328524223478648e-9,1.1127160378834033e-7,2.1363028585469297e-7,4.680541132341467e-8,2.075446730090127e-9,2.0236071176467437e-9,0
40813,4.808889124888502e-10,1.2432260719036293e-9,3.3123584805053554e-9,1.1042466784648038e-7,2.1188873078525137e-7,4.725286095779493e-8,2.0991408025659388e-9,2.0184493559077297e-9,0
40814,4.783887819805735e-10,1.2017583944866471e-9,3.2961927375320626e-9,1.0957773190462045e-7,2.1014717571580976e-7,4.770031059217518e-8,2.122834875041751e-9,2.0132915941687153e-9,0
40815,4.758886514722969e-10,1.1602907170696652e-9,3.28002699455877e-9,1.087307959627605e-7,2.0840562064636819e-7,4.814776022655544e-8,2.146528947517563e-9,2.0081338324297013e-9,0
40816,4.697899511854375e-10,1.119020342289209e-9,3.2440844677662547e-9,1.0785130953484992e-7,2.0670014808722007e-7,4.737789892463075e-8,2.1246354314225454e-9,2.0021940213041654e-9,0
40817,4.6369125089857805e-10,1.0777499675087526e-9,3.208141940973739e-9,1.0697182310693933e-7,2.0499467552807195e-7,4.6608037622706056e-8,2.1027419153275284e-9,1.9962542101786296e-9,0
40818,4.5759255061171863e-10,1.0364795927282964e-9,3.1721994141812234e-9,1.0609233667902874e-7,2.0328920296892383e-7,4.583817632078137e-8,2.080848399232511e-9,1.990314399053094e-9,0
40819,4.5149385032485915e-10,9.952092179478403e-10,3.1362568873887075e-9,1.0521285025111815e-7,2.015837304097757e-7,4.506831501885668e-8,2.058954883137494e-9,1.9843745879275583e-9,0
40820,4.4539515003799973e-10,9.53938843167384e-10,3.100314360596192e-9,1.0433336382320757e-7,1.998782578506276e-7,4.429845371693199e-8,2.0370613670424766e-9,1.9784347768020225e-9,0
40821,4.392964497511403e-10,9.126684683869278e-10,3.0643718338036762e-9,1.0345387739529697e-7,1.9817278529147947e-7,4.35285924150073e-8,2.0151678509474596e-9,1.9724949656764867e-9,0
40822,4.331977494642809e-10,8.713980936064716e-10,3.0284293070111608e-9,1.0257439096738639e-7,1.9646731273233135e-7,4.2758731113082614e-8,1.9932743348524422e-9,1.9665551545509513e-9,0
40823,4.2709904917742147e-10,8.301277188260154e-10,2.9924867802186453e-9,1.0169490453947581e-7,1.9476184017318323e-7,4.198886981115792e-8,1.9713808187574252e-9,1.9606153434254154e-9,0
40824,4.2737684145611887e-10,8.300235709818604e-10,2.992443445001381e-9,1.0176562332929856e-7,1.942424387356464e-7,4.20018116140214e-8,1.9734988698013145e-9,1.960853413413782e-9,0
40825,4.2737684145611887e-10,8.278202628247223e-10,2.9885944585791687e-9,1.0182741932423468e-7,1.9377261923618208e-7,4.19439222083026e-8,1.974807271881863e-9,1.960853413413782e-9,0
40826,4.2737684145611887e-10,8.256169546675843e-10,2.984745472156956e-9,1.0188921531917082e-7,1.9330279973671776e-7,4.188603280258379e-8,1.9761156739624114e-9,1.960853413413782e-9,0
40827,4.2737684145611887e-10,8.234136465104462e-10,2.9808964857347435e-9,1.0195101131410695e-7,1.9283298023725348e-7,4.1828143396864984e-8,1.9774240760429594e-9,1.960853413413782e-9,0
40828,4.2737684145611887e-10,8.212103383533083e-10,2.9770474993125312e-9,1.0201280730904307e-7,1.9236316073778916e-7,4.1770253991146174e-8,1.978732478123508e-9,1.960853413413782e-9,0
40829,4.2737684145611887e-10,8.190070301961702e-10,2.9731985128903186e-9,1.0207460330397921e-7,1.9189334123832485e-7,4.171236458542737e-8,1.980040880204056e-9,1.960853413413782e-9,0
40830,4.2737684145611887e-10,8.168037220390321e-10,2.969349526468106e-9,1.0213639929891533e-7,1.9142352173886056e-7,4.165447517970857e-8,1.9813492822846043e-9,1.960853413413782e-9,0
40831,4.280397239716476e-10,8.23693110887559e-10,2.9691761855990497e-9,1.022425934481534e-7,1.9102974242768449e-7,4.185798396377403e-8,1.981103205134481e-9,1.9615902365193554e-9,0
40832,4.280397239716476e-10,8.22394154172464e-10,2.966053661244016e-9,1.0234269303753878e-7,1.9052384041792669e-7,4.183018169976272e-8,1.9859094778524385e-9,1.9635626358477092e-9,0
40833,4.280397239716476e-10,8.21095197457369e-10,2.9629311368889815e-9,1.0244279262692416e-7,1.9001793840816889e-7,4.1802379435751426e-8,1.9907157505703963e-9,1.965535035176063e-9,0
40834,4.280397239716476e-10,8.19796240742274e-10,2.9598086125339476e-9,1.0254289221630954e-7,1.8951203639841111e-7,4.177457717174012e-8,1.995522023288354e-9,1.967507434504417e-9,0
40835,4.280397239716476e-10,8.184972840271791e-10,2.9566860881789137e-9,1.0264299180569492e-7,1.8900613438865331e-7,4.174677490772882e-8,2.0003282960063118e-9,1.9694798338327707e-9,0
40836,4.280397239716476e-10,8.171983273120841e-10,2.9535635638238794e-9,1.027430913950803e-7,1.8850023237889554e-7,4.171897264371752e-8,2.0051345687242695e-9,1.971452233161125e-9,0
40837,4.280397239716476e-10,8.158993705969891e-10,2.9504410394688455e-9,1.0284319098446567e-7,1.8799433036913774e-7,4.1691170379706216e-8,2.009940841442227e-9,1.9734246324894788e-9,0
40838,4.280397239716476e-10,8.146004138818941e-10,2.947318515113811e-9,1.0294329057385106e-7,1.8748842835937994e-7,4.166336811569492e-8,2.0147471141601846e-9,1.9753970318178326e-9,0
40839,4.280397239716476e-10,8.133014571667991e-10,2.9441959907587773e-9,1.0304339016323645e-7,1.8698252634962217e-7,4.1635565851683615e-8,2.0195533868781423e-9,1.9773694311461864e-9,0
40840,4.280397239716476e-10,8.120025004517042e-10,2.9410734664037434e-9,1.0314348975262182e-7,1.8647662433986437e-7,4.160776358767231e-8,2.0243596595961e-9,1.9793418304745403e-9,0
40841,4.280397239716476e-10,8.107035437366092e-10,2.937950942048709e-9,1.0324358934200721e-7,1.859707223301066e-7,4.1579961323661013e-8,2.0291659323140574e-9,1.981314229802894e-9,0
40842,4.280397239716476e-10,8.094045870215142e-10,2.934828417693675e-9,1.0334368893139258e-7,1.854648203203488e-7,4.155215905964971e-8,2.033972205032015e-9,1.9832866291312484e-9,0
40843,4.280397239716476e-10,8.081056303064192e-10,2.931705893338641e-9,1.0344378852077797e-7,1.84958918310591e-7,4.152435679563841e-8,2.038778477749973e-9,1.985259028459602e-9,0
40844,4.280397239716476e-10,8.068066735913242e-10,2.928583368983607e-9,1.0354388811016334e-7,1.8445301630083322e-7,4.149655453162711e-8,2.0435847504679306e-9,1.987231427787956e-9,0
40845,4.280397239716476e-10,8.055077168762293e-10,2.925460844628573e-9,1.0364398769954873e-7,1.8394711429107542e-7,4.1468752267615804e-8,2.0483910231858884e-9,1.98920382711631e-9,0
40846,4.280965554118354e-10,8.063079204741172e-10,2.9202889397237956e-9,1.0251845921567569e-7,1.834180489756766e-7,4.1120648369989234e-8,2.024819989285138e-9,1.99043940333909e-9,0
40847,4.280965554118354e-10,8.065162161624273e-10,2.918933718887618e-9,1.0260484765777314e-7,1.8341385639293597e-7,4.1084281702494814e-8,2.0283178599225472e-9,1.99238918952697e-9,0
40848,4.280965554118354e-10,8.067245118507374e-10,2.9175784980514405e-9,1.0269123609987058e-7,1.8340966381019535e-7,4.1047915035000395e-8,2.0318157305599565e-9,1.99433897571485e-9,0
40849,4.280965554118354e-10,8.069328075390475e-10,2.9162232772152628e-9,1.0277762454196803e-7,1.8340547122745472e-7,4.101154836750597e-8,2.0353136011973663e-9,1.99628876190273e-9,0
40850,4.280965554118354e-10,8.071411032273577e-10,2.914868056379085e-9,1.0286401298406548e-7,1.834012786447141e-7,4.097518170001155e-8,2.0388114718347756e-9,1.9982385480906098e-9,0
40851,4.280965554118354e-10,8.073493989156678e-10,2.9135128355429077e-9,1.0295040142616291e-7,1.8339708606197346e-7,4.093881503251713e-8,2.042309342472185e-9,2.0001883342784897e-9,0
40852,4.280965554118354e-10,8.075576946039779e-10,2.91215761470673e-9,1.0303678986826036e-7,1.8339289347923283e-7,4.09024483650227e-8,2.045807213109594e-9,2.0021381204663696e-9,0
40853,4.280965554118354e-10,8.07765990292288e-10,2.9108023938705522e-9,1.0312317831035781e-7,1.833887008964922e-7,4.086608169752828e-8,2.0493050837470035e-9,2.0040879066542495e-9,0
40854,4.280965554118354e-10,8.11070952527995e-10,2.9148357540254725e-9,1.0332027169073417e-7,1.8358762785719307e-7,4.101102285583763e-8,2.072428985592637e-9,2.007862474744013e-9,0
40855,4.3169512519041823e-10,8.16672377713211e-10,2.928313121053712e-9,1.0361216091361698e-7,1.835653078763784e-7,4.155259140657271e-8,2.071120583512089e-9,2.0086219109900604e-9,0
40856,4.3529369496900107e-10,8.222738028984271e-10,2.9417904880819517e-9,1.0390405013649978e-7,1.8354298789556375e-7,4.2094159957307784e-8,2.0698121814315404e-9,2.009381347236108e-9,0
40857,4.3889226474758385e-10,8.278752280836431e-10,2.9552678551101916e-9,1.041959393593826e-7,1.8352066791474908e-7,4.2635728508042856e-8,2.0685037793509924e-9,2.0101407834821554e-9,0
40858,4.424908345261667e-10,8.33476653268859e-10,2.968745222138431e-9,1.044878285822654e-7,1.834983479339344e-7,4.317729705877793e-8,2.067195377270444e-9,2.010900219728203e-9,0
40859,4.460894043047495e-10,8.39078078454075e-10,2.9822225891666708e-9,1.0477971780514821e-7,1.8347602795311976e-7,4.3718865609513e-8,2.0658869751898955e-9,2.0116596559742503e-9,0
40860,4.4780662449488003e-10,8.452714115488689e-10,2.9941059935451102e-9,1.0476088759325601e-7,1.8159332545789605e-7,4.436082433645092e-8,2.06046550959663e-9,2.0104014666109957e-9,0
40861,4.495238446850106e-10,8.514647446436628e-10,3.0059893979235497e-9,1.0474205738136382e-7,1.7971062296267237e-7,4.500278306338884e-8,2.055044044003364e-9,2.0091432772477415e-9,0
40862,4.512410648751411e-10,8.576580777384567e-10,3.017872802301989e-9,1.0472322716947163e-7,1.7782792046744868e-7,4.5644741790326755e-8,2.0496225784100986e-9,2.007885087884487e-9,0
40863,4.529582850652716e-10,8.638514108332506e-10,3.0297562066804286e-9,1.0470439695757943e-7,1.7594521797222497e-7,4.628670051726468e-8,2.0442011128168327e-9,2.0066268985212322e-9,0
40864,4.5467550525540216e-10,8.700447439280445e-10,3.041639611058868e-9,1.0468556674568724e-7,1.7406251547700129e-7,4.692865924420259e-8,2.0387796472235668e-9,2.005368709157978e-9,0
40865,4.5639272544553266e-10,8.762380770228384e-10,3.0535230154373075e-9,1.0466673653379504e-7,1.7217981298177758e-7,4.7570617971140516e-8,2.0333581816303013e-9,2.0041105197947234e-9,0
40866,4.581099456356632e-10,8.824314101176323e-10,3.065406419815747e-9,1.0464790632190286e-7,1.702971104865539e-7,4.821257669807843e-8,2.0279367160370354e-9,2.0028523304314688e-9,0
40867,4.5982716582579373e-10,8.886247432124262e-10,3.0772898241941865e-9,1.0462907611001067e-7,1.6841440799133018e-7,4.885453542501635e-8,2.02251525044377e-9,2.0015941410682146e-9,0
40868,4.615443860159243e-10,8.948180763072201e-10,3.089173228572626e-9,1.0461024589811847e-7,1.665317054961065e-7,4.949649415195427e-8,2.017093784850504e-9,2.00033595170496e-9,0
40869,4.632616062060548e-10,9.01011409402014e-10,3.1010566329510654e-9,1.0459141568622628e-7,1.646490030008828e-7,5.0138452878892186e-8,2.011672319257238e-9,1.9990777623417053e-9,0
40870,4.649788263961853e-10,9.072047424968079e-10,3.112940037329505e-9,1.0457258547433408e-7,1.627663005056591e-7,5.07804116058301e-8,2.0062508536639726e-9,1.997819572978451e-9,0
40871,4.666960465863158e-10,9.133980755916018e-10,3.1248234417079443e-9,1.0455375526244189e-7,1.6088359801043542e-7,5.1422370332768025e-8,2.0008293880707067e-9,1.9965613836151965e-9,0
40872,4.684132667764464e-10,9.195914086863957e-10,3.1367068460863838e-9,1.045349250505497e-7,1.590008955152117e-7,5.206432905970594e-8,1.995407922477441e-9,1.995303194251942e-9,0
40873,4.701304869665769e-10,9.257847417811896e-10,3.1485902504648232e-9,1.045160948386575e-7,1.5711819301998802e-7,5.270628778664386e-8,1.9899864568841753e-9,1.9940450048886877e-9,0
40874,4.718477071567075e-10,9.319780748759834e-10,3.1604736548432627e-9,1.0449726462676532e-7,1.552354905247643e-7,5.334824651358178e-8,1.9845649912909094e-9,1.992786815525433e-9,0
40875,4.699095261280673e-10,9.358749450212685e-10,3.162696376262062e-9,1.0414367067765155e-7,1.5339222884997163e-7,5.364358107036696e-8,1.9800828120530072e-9,1.992718976104011e-9,0
40876,4.679713450994272e-10,9.376616618017863e-10,3.159020730708906e-9,1.0412484046575936e-7,1.5259158496766965e-7,5.363513631149724e-8,1.973540801650266e-9,1.990701350494709e-9,0
40877,4.660331640707871e-10,9.394483785823042e-10,3.1553450851557496e-9,1.0410601025386716e-7,1.5179094108536767e-7,5.3626691552627514e-8,1.9669987912475246e-9,1.988683724885407e-9,0
40878,4.64094983042147e-10,9.41235095362822e-10,3.151669439602593e-9,1.0408718004197497e-7,1.509902972030657e-7,5.3618246793757794e-8,1.9604567808447832e-9,1.986666099276105e-9,0
40879,4.6215680201350686e-10,9.430218121433399e-10,3.147993794049437e-9,1.0406834983008278e-7,1.5018965332076368e-7,5.360980203488807e-8,1.953914770442042e-9,1.9846484736668033e-9,0
40880,4.6215680201350686e-10,9.430218121433399e-10,3.147950458832173e-9,1.0413868314647948e-7,1.5105046499216988e-7,5.280217531533266e-8,1.9283619217063847e-9,1.954610220932014e-9,0
40881,4.613234251774147e-10,9.449126767680126e-10,3.1471373263304666e-9,1.0353404619363201e-7,1.5084001862699084e-7,5.2745748124842684e-8,1.928174064435312e-9,1.919096358464796e-9,0
40882,4.604900483413225e-10,9.468035413926855e-10,3.14632419382876e-9,1.0292940924078453e-7,1.5062957226181182e-7,5.2689320934352706e-8,1.927986207164239e-9,1.883582495997578e-9,0
40883,4.596566715052303e-10,9.486944060173584e-10,3.1455110613270533e-9,1.0232477228793706e-7,1.5041912589663278e-7,5.263289374386272e-8,1.9277983498931665e-9,1.84806863353036e-9,0
40884,4.5882329466913806e-10,9.505852706420313e-10,3.1446979288253467e-9,1.017201353350896e-7,1.5020867953145377e-7,5.257646655337274e-8,1.927610492622094e-9,1.812554771063142e-9,0
40885,4.5798991783304585e-10,9.524761352667042e-10,3.14388479632364e-9,1.0111549838224212e-7,1.4999823316627473e-7,5.2520039362882764e-8,1.9274226353510213e-9,1.777040908595924e-9,0
40886,4.5715654099695364e-10,9.54366999891377e-10,3.1430716638219338e-9,1.0051086142939465e-7,1.497877868010957e-7,5.2463612172392785e-8,1.9272347780799487e-9,1.7415270461287058e-9,0
40887,4.563231641608615e-10,9.5625786451605e-10,3.142258531320227e-9,9.990622447654718e-8,1.4957734043591667e-7,5.24071849819028e-8,1.9270469208088757e-9,1.7060131836614878e-9,0
40888,4.5548978732476926e-10,9.581487291407227e-10,3.1414453988185205e-9,9.93015875236997e-8,1.4936689407073766e-7,5.235075779141282e-8,1.926859063537803e-9,1.6704993211942698e-9,0
40889,4.5465641048867705e-10,9.600395937653956e-10,3.140632266316814e-9,9.869695057085223e-8,1.4915644770555862e-7,5.2294330600922844e-8,1.9266712062667306e-9,1.6349854587270518e-9,0
40890,4.5465641048867705e-10,9.600395937653956e-10,3.1486989866266536e-9,9.775181878337056e-8,1.478639427274579e-7,5.231768275415513e-8,1.926794244841792e-9,1.6001858062249332e-9,0
40891,4.5465641048867705e-10,9.600395937653956e-10,3.1567657069364938e-9,9.68066869958889e-8,1.4657143774935715e-7,5.234103490738743e-8,1.9269172834168537e-9,1.5653861537228146e-9,0
40892,4.5465641048867705e-10,9.600395937653956e-10,3.1648324272463335e-9,9.586155520840723e-8,1.452789327712564e-7,5.236438706061972e-8,1.927040321991915e-9,1.530586501220696e-9,0
40893,4.5465641048867705e-10,9.600395937653956e-10,3.1728991475561733e-9,9.491642342092557e-8,1.4398642779315569e-7,5.2387739213852015e-8,1.927163360566977e-9,1.4957868487185774e-9,0
40894,4.5465641048867705e-10,9.600395937653956e-10,3.180965867866013e-9,9.39712916334439e-8,1.4269392281505494e-7,5.241109136708431e-8,1.9272863991420387e-9,1.4609871962164588e-9,0
40895,4.5465641048867705e-10,9.600395937653956e-10,3.1890325881758528e-9,9.302615984596224e-8,1.4140141783695422e-7,5.24344435203166e-8,1.9274094377171003e-9,1.4261875437143402e-9,0
40896,4.5465641048867705e-10,9.600395937653956e-10,3.197099308485693e-9,9.208102805848057e-8,1.4010891285885348e-7,5.2457795673548897e-08,1.927532476292162e-9,1.3913878912122216e-9,0
40897,4.5465641048867705e-10,9.600395937653956e-10,3.2051660287955327e-9,9.11358962709989e-8,1.3881640788075273e-7,5.2481147826781186e-8,1.9276555148672234e-9,1.356588238710103e-9,0
40898,4.5465641048867705e-10,9.600395937653956e-10,3.2132327491053725e-9,9.019076448351724e-8,1.37523902902652e-7,5.250449998001348e-8,1.927778553442285e-9,1.3217885862079844e-9,0
40899,4.5465641048867705e-10,9.600395937653956e-10,3.221299469415212e-9,8.924563269603557e-8,1.3623139792455127e-7,5.252785213324577e-8,1.927901592017347e-9,1.2869889337058658e-9,0
40900,4.5465641048867705e-10,9.600395937653956e-10,3.229366189725052e-9,8.830050090855391e-8,1.3493889294645052e-7,5.255120428647807e-8,1.9280246305924084e-9,1.252189281203747e-9,0
40901,4.5465641048867705e-10,9.600395937653956e-10,3.237432910034892e-9,8.735536912107223e-8,1.336463879683498e-7,5.257455643971036e-8,1.92814766916747e-9,1.2173896287016284e-9,0
40902,4.5465641048867705e-10,9.600395937653956e-10,3.245499630344732e-9,8.641023733359058e-8,1.3235388299024906e-7,5.2597908592942653e-8,1.9282707077425315e-9,1.1825899761995098e-9,0
40903,4.5548978732476926e-10,9.560385757759557e-10,3.2484811161843225e-9,8.603158332205479e-8,1.3113627838668345e-7,5.256885300159236e-8,1.926152656698642e-9,1.1835648692934498e-9,0
40904,4.563231641608615e-10,9.559344279318006e-10,3.237584185176646e-9,8.409483745647985e-8,1.310743090906901e-7,5.230902378255837e-8,1.9222274504569973e-9,1.1782488155711175e-9,0
40905,4.5715654099695364e-10,9.558302800876456e-10,3.2266872541689693e-9,8.215809159090491e-8,1.310123397946968e-7,5.204919456352437e-8,1.9183022442153525e-9,1.172932761848785e-9,0
40906,4.5798991783304585e-10,9.557261322434905e-10,3.2157903231612923e-9,8.022134572532999e-8,1.3095037049870347e-7,5.178936534449038e-8,1.9143770379737076e-9,1.1676167081264526e-9,0
40907,4.5882329466913806e-10,9.556219843993355e-10,3.2048933921536157e-9,7.8284599859755055e-08,1.3088840120271015e-7,5.152953612545638e-8,1.9104518317320627e-9,1.1623006544041201e-9,0
40908,4.596566715052303e-10,9.555178365551804e-10,3.193996461145939e-9,7.634785399418012e-8,1.3082643190671683e-7,5.126970690642239e-8,1.9065266254904182e-9,1.1569846006817878e-9,0
40909,4.604900483413225e-10,9.554136887110253e-10,3.1830995301382625e-9,7.44111081286052e-8,1.3076446261072351e-7,5.1009877687388395e-8,1.9026014192487733e-9,1.1516685469594553e-9,0
40910,4.613234251774147e-10,9.553095408668703e-10,3.172202599130586e-9,7.247436226303026e-8,1.307024933147302e-7,5.07500484683544e-8,1.8986762130071284e-9,1.1463524932371227e-9,0
40911,4.6215680201350686e-10,9.552053930227152e-10,3.161305668122909e-9,7.053761639745532e-8,1.3064052401873688e-7,5.049021924932041e-8,1.8947510067654836e-9,1.1410364395147904e-9,0
40912,4.6426547736271046e-10,9.55797300932293e-10,3.1504087371152323e-9,6.862965755237569e-8,1.3078678259153819e-7,5.023957647428597e-8,1.920012756105888e-9,1.1357203857924579e-9,0
40913,4.6426547736271046e-10,9.565975045301812e-10,3.1306752885132732e-9,6.679462081522892e-8,1.3079406444577191e-7,5.035903429040302e-8,1.9452745054462924e-9,1.1454799912887052e-9,0
40914,4.6426547736271046e-10,9.573977081280691e-10,3.110941839911314e-9,6.495958407808214e-8,1.3080134630000564e-7,5.0478492106520066e-8,1.970536254786697e-9,1.1552395967849524e-9,0
40915,4.6426547736271046e-10,9.58197911725957e-10,3.0912083913093555e-9,6.312454734093537e-8,1.3080862815423937e-7,5.059794992263712e-8,1.9957980041271013e-9,1.1649992022811995e-9,0
40916,4.6426547736271046e-10,9.589981153238452e-10,3.0714749427073965e-9,6.128951060378859e-8,1.308159100084731e-7,5.071740773875416e-8,2.021059753467506e-9,1.1747588077774468e-9,0
40917,4.6232729633407037e-10,9.597983189217332e-10,3.0695666006730966e-9,6.138707992010586e-8,1.2752854985823108e-7,4.937157681009907e-8,2.0468136571081568e-9,1.1908093600899664e-9,0
40918,4.616075823783538e-10,9.607026703637762e-10,3.057769866729185e-9,6.149176331349623e-8,1.275106521746298e-7,4.9810369154933936e-8,2.0720754064485614e-9,1.205839793027598e-9,0
40919,4.608878684226372e-10,9.616070218058191e-10,3.045973132785274e-9,6.159644670688659e-8,1.2749275449102854e-7,5.02491614997688e-8,2.0973371557889657e-9,1.2208702259652294e-9,0
40920,4.6016815446692064e-10,9.625113732478623e-10,3.0341763988413624e-9,6.170113010027696e-8,1.274748568074273e-7,5.068795384460367e-8,2.1225989051293703e-9,1.235900658902861e-9,0
40921,4.594484405112041e-10,9.634157246899053e-10,3.0223796648974512e-9,6.180581349366732e-8,1.2745695912382604e-7,5.112674618943853e-8,2.1478606544697745e-9,1.2509310918404926e-9,0
40922,4.5872872655548753e-10,9.643200761319483e-10,3.0105829309535397e-9,6.191049688705769e-8,1.2743906144022477e-7,5.1565538534273395e-8,2.173122403810179e-9,1.2659615247781242e-9,0
40923,4.5800901259977096e-10,9.652244275739915e-10,2.9987861970096285e-9,6.201518028044805e-8,1.274211637566235e-7,5.2004330879108265e-8,2.1983841531505834e-9,1.2809919577157558e-9,0
40924,4.572892986440544e-10,9.661287790160345e-10,2.986989463065717e-9,6.211986367383841e-8,1.2740326607302227e-7,5.244312322394313e-8,2.223645902490988e-9,1.2960223906533874e-9,0
40925,4.5656958468833785e-10,9.670331304580775e-10,2.975192729121806e-9,6.222454706722878e-8,1.27385368389421e-7,5.2881915568778e-8,2.2489076518313923e-9,1.311052823591019e-9,0
40926,4.558498707326213e-10,9.679374819001205e-10,2.9633959951778943e-9,6.232923046061914e-8,1.2736747070581973e-7,5.332070791361286e-8,2.274169401171797e-9,1.3260832565286506e-9,0
40927,4.551301567769047e-10,9.688418333421637e-10,2.951599261233983e-9,6.243391385400951e-8,1.273495730222185e-7,5.3759500258447724e-8,2.2994311505122016e-9,1.341113689466282e-9,0
40928,4.544104428211881e-10,9.697461847842067e-10,2.9398025272900715e-9,6.253859724739987e-8,1.2733167533861723e-7,5.4198292603282594e-8,2.3246928998526058e-9,1.3561441224039136e-9,0
40929,4.536907288654716e-10,9.706505362262497e-10,2.9280057933461604e-9,6.264328064079023e-8,1.2731377765501596e-7,5.463708494811746e-8,2.3499546491930104e-9,1.3711745553415452e-9,0
40930,4.52971014909755e-10,9.715548876682927e-10,2.916209059402249e-9,6.27479640341806e-8,1.2729587997141472e-7,5.507587729295232e-8,2.3752163985334147e-9,1.3862049882791768e-9,0
40931,4.5225130095403844e-10,9.72459239110336e-10,2.9044123254583377e-9,6.285264742757096e-8,1.2727798228781345e-07,5.551466963778719e-8,2.4004781478738193e-9,1.4012354212168084e-9,0
40932,4.515315869983219e-10,9.73363590552379e-10,2.892615591514426e-9,6.295733082096133e-8,1.272600846042122e-7,5.5953461982622054e-8,2.4257398972142235e-9,1.41626585415444e-9,0
40933,4.5081187304260534e-10,9.74267941994422e-10,2.880818857570515e-9,6.306201421435169e-8,1.2724218692061092e-7,5.639225432745692e-8,2.451001646554628e-9,1.4312962870920716e-9,0
40934,4.5009215908688876e-10,9.74372089838577e-10,2.8934720592333967e-9,6.371449281410463e-8,1.2761503952697692e-7,5.655457913346987e-8,2.449194491356873e-9,1.4424164730970956e-9,0
40935,4.502058219672644e-10,9.779565164513968e-10,2.8937754057542452e-9,6.430439910244377e-8,1.2765814078980438e-7,5.6757239476884046e-8,2.4460789340785694e-9,1.441657036851048e-9,0
40936,4.5031948484764003e-10,9.815409430642167e-10,2.8940787522750937e-9,6.48943053907829e-8,1.277012420526318e-7,5.6959899820298224e-8,2.442963376800266e-9,1.4408976006050004e-9,0
40937,4.5043314772801567e-10,9.851253696770364e-10,2.894382098795942e-9,6.548421167912205e-8,1.2774434331545927e-7,5.71625601637124e-8,2.439847819521962e-9,1.440138164358953e-9,0
40938,4.512665245641079e-10,9.865064881327182e-10,2.9065255144779658e-9,6.580098218426148e-8,1.2757043265896207e-7,5.7004903602674416e-8,2.4213225366723324e-9,1.4342209663738913e-9,0
40939,4.523208622387097e-10,9.882000501208651e-10,2.912553887101714e-9,6.638529803549071e-8,1.275717535171805e-7,5.719270348494077e-8,2.4221321856356737e-9,1.4334615301278438e-9,0
40940,4.533751999133115e-10,9.898936121090119e-10,2.9185822597254614e-9,6.696961388671993e-8,1.2757307437539897e-7,5.7380503367207126e-8,2.422941834599015e-9,1.4327020938817963e-9,0
40941,4.5442953758791323e-10,9.915871740971588e-10,2.9246106323492095e-9,6.755392973794915e-8,1.275743952336174e-7,5.756830324947348e-8,2.4237514835623563e-9,1.4319426576357488e-9,0
40942,4.5548387526251503e-10,9.932807360853058e-10,2.930639004972957e-9,6.813824558917838e-8,1.2757571609183585e-7,5.775610313173984e-8,2.4245611325256976e-9,1.4311832213897014e-9,0
40943,4.5653821293711683e-10,9.949742980734528e-10,2.936667377596705e-9,6.87225614404076e-8,1.275770369500543e-7,5.79439030140062e-8,2.425370781489039e-9,1.4304237851436539e-9,0
40944,4.5759255061171863e-10,9.966678600615995e-10,2.9426957502204532e-9,6.930687729163682e-8,1.2757835780827275e-7,5.813170289627255e-8,2.42618043045238e-9,1.4296643488976064e-9,0
40945,4.586468882863204e-10,9.983614220497465e-10,2.948724122844201e-9,6.989119314286606e-8,1.275796786664912e-7,5.831950277853891e-8,2.4269900794157214e-9,1.428904912651559e-9,0
40946,4.597012259609222e-10,1.0000549840378935e-9,2.954752495467949e-9,7.047550899409527e-8,1.2758099952470963e-7,5.850730266080526e-8,2.4277997283790627e-9,1.4281454764055115e-9,0
40947,4.60755563635524e-10,1.0017485460260404e-9,2.9607808680916965e-9,7.10598248453245e-8,1.275823203829281e-7,5.8695102543071624e-8,2.428609377342404e-9,1.427386040159464e-9,0
40948,4.6180990131012577e-10,1.0034421080141872e-9,2.9668092407154446e-9,7.164414069655373e-8,1.2758364124114653e-7,5.888290242533798e-8,2.4294190263057453e-9,1.4266266039134165e-9,0
40949,4.628642389847275e-10,1.0051356700023341e-9,2.9728376133391922e-9,7.222845654778295e-8,1.2758496209936497e-7,5.9070702307604334e-8,2.4302286752690866e-9,1.4258671676673688e-9,0
40950,4.639185766593293e-10,1.0068292319904811e-9,2.9788659859629403e-9,7.281277239901217e-8,1.2758628295758343e-7,5.925850218987069e-8,2.431038324232428e-9,1.4251077314213214e-9,0
40951,4.649729143339311e-10,1.008522793978628e-9,2.984894358586688e-9,7.33970882502414e-8,1.2758760381580187e-7,5.9446302072137044e-8,2.431847973195769e-9,1.4243482951752739e-9,0
40952,4.660272520085329e-10,1.0102163559667748e-9,2.990922731210436e-9,7.398140410147062e-8,1.275889246740203e-7,5.96341019544034e-8,2.4326576221591105e-9,1.4235888589292264e-9,0
40953,4.670815896831347e-10,1.0119099179549218e-9,2.9969511038341836e-9,7.456571995269984e-8,1.2759024553223875e-7,5.982190183666975e-8,2.4334672711224517e-9,1.422829422683179e-9,0
40954,4.681359273577364e-10,1.0136034799430688e-9,3.0029794764579316e-9,7.515003580392907e-8,1.275915663904572e-7,6.000970171893611e-8,2.434276920085793e-9,1.4220699864371315e-9,0
40955,4.691902650323383e-10,1.0152970419312157e-9,3.0090078490816793e-9,7.573435165515829e-8,1.2759288724867565e-7,6.019750160120248e-8,2.4350865690491343e-9,1.421310550191084e-9,0
40956,4.7024460270694e-10,1.0169906039193625e-9,3.0150362217054273e-9,7.631866750638751e-8,1.2759420810689409e-7,6.038530148346883e-8,2.4358962180124756e-9,1.4205511139450365e-9,0
40957,4.704655635454497e-10,1.0150997392946898e-9,3.0086934696971798e-9,7.632950854153388e-8,1.274828894089671e-7,6.036551331345564e-8,2.438014269056365e-9,1.4205511139450365e-9,0
40958,4.714062383396758e-10,1.0223015716756816e-9,3.0322869375850025e-9,7.69763967041769e-8,1.279987936377388e-7,6.037839991716547e-8,2.4541556272611007e-9,1.419791677698989e-9,0
40959,4.723469131339019e-10,1.0295034040566737e-9,3.055880405472825e-9,7.762328486681992e-8,1.2851469786651055e-7,6.039128652087531e-8,2.470296985465836e-9,1.4190322414529416e-9,0
40960,4.732875879281281e-10,1.0367052364376658e-9,3.079473873360648e-9,7.827017302946295e-8,1.2903060209528226e-7,6.040417312458515e-8,2.4864383436705718e-9,1.418272805206894e-9,0
40961,4.720691208552045e-10,1.0448935820012875e-9,3.1091823843067465e-9,7.882806570473133e-8,1.2964220044171627e-7,6.040303944185955e-8,2.5020161300620894e-9,1.418295418347368e-9,0
40962,4.638617452191415e-10,1.0482095372887787e-9,3.108705696916842e-9,7.948316960350249e-8,1.3028936444088002e-7,6.04449135486741e-8,2.503000438662582e-9,1.4064157960962966e-9,0
40963,4.556543695830785e-10,1.0515254925762699e-9,3.1082290095269375e-9,8.013827350227365e-8,1.309365284400438e-7,6.048678765548863e-8,2.5039847472630754e-9,1.394536173845225e-9,0
40964,4.474469939470155e-10,1.054841447863761e-9,3.107752322137033e-9,8.079337740104481e-8,1.3158369243920754e-7,6.052866176230318e-8,2.504969055863568e-9,1.3826565515941536e-9,0
40965,4.392396183109525e-10,1.0581574031512523e-9,3.107275634747128e-9,8.144848129981598e-8,1.3223085643837128e-7,6.057053586911772e-8,2.505953364464061e-9,1.3707769293430822e-9,0
40966,4.3103224267488953e-10,1.0614733584387435e-9,3.1067989473572234e-9,8.210358519858713e-8,1.3287802043753503e-7,6.061240997593227e-8,2.5069376730645542e-9,1.3588973070920107e-9,0
40967,4.228248670388265e-10,1.0647893137262347e-9,3.1063222599673187e-9,8.27586890973583e-8,1.335251844366988e-7,6.065428408274681e-8,2.507921981665047e-9,1.3470176848409393e-9,0
40968,4.146174914027635e-10,1.0681052690137258e-9,3.105845572577414e-9,8.341379299612946e-8,1.3417234843586255e-7,6.069615818956135e-8,2.50890629026554e-9,1.3351380625898678e-9,0
40969,4.064101157667005e-10,1.071421224301217e-9,3.1053688851875093e-9,8.406889689490062e-8,1.348195124350263e-7,6.07380322963759e-8,2.5098905988660327e-9,1.3232584403387966e-9,0
40970,3.982027401306375e-10,1.0747371795887082e-9,3.104892197797605e-9,8.472400079367179e-8,1.3546667643419004e-7,6.077990640319043e-8,2.510874907466526e-9,1.311378818087725e-9,0
40971,3.8933248197904577e-10,1.0698647893125777e-9,3.07543346152878e-9,8.472474435991233e-8,1.354707813163641e-7,6.080319873411603e-8,2.5080570484004354e-9,1.2994991958366536e-9,0
40972,3.804053923872662e-10,1.064992399036447e-9,3.0452482631927767e-9,8.516997734916e-8,1.3611794531552783e-7,6.09774641939722e-8,2.501935774784969e-9,1.2876195735855822e-9,0
40973,3.7147830279548663e-10,1.0601200087603165e-9,3.0150630648567733e-9,8.561521033840766e-8,1.3676510931469158e-7,6.115172965382839e-8,2.4958145011695028e-9,1.2757399513345107e-9,0
40974,3.714214713552988e-10,1.0591334955776866e-9,3.0142499323550667e-9,8.6050703951564e-8,1.3679026763280144e-7,6.133214210576613e-8,2.49923435547698e-9,1.2750257413694113e-9,0
40975,3.71364639915111e-10,1.0581469823950567e-9,3.0134367998533604e-9,8.648619756472036e-8,1.368154259509113e-7,6.151255455770387e-8,2.502654209784457e-9,1.2743115314043119e-9,0
40976,3.7130780847492317e-10,1.057160469212427e-9,3.0126236673516538e-9,8.69216911778767e-8,1.3684058426902116e-7,6.169296700964163e-8,2.506074064091935e-9,1.2735973214392125e-9,0
40977,3.7125097703473536e-10,1.056173956029797e-9,3.011810534849947e-9,8.735718479103306e-8,1.3686574258713102e-7,6.187337946157937e-8,2.509493918399412e-9,1.272883111474113e-9,0
40978,3.7119414559454754e-10,1.0551874428471674e-9,3.0109974023482405e-9,8.77926784041894e-8,1.3689090090524088e-7,6.205379191351711e-8,2.5129137727068892e-9,1.2721689015090136e-9,0
40979,3.711373141543597e-10,1.0542009296645375e-9,3.010184269846534e-9,8.822817201734576e-8,1.369160592233507e-7,6.223420436545485e-8,2.5163336270143664e-9,1.271454691543914e-9,0
40980,3.710804827141719e-10,1.0532144164819076e-9,3.0093711373448276e-9,8.86636656305021e-8,1.3694121754146057e-7,6.241461681739261e-8,2.5197534813218436e-9,1.2707404815788146e-9,0
40981,3.710236512739841e-10,1.0522279032992779e-9,3.008558004843121e-9,8.909915924365845e-8,1.3696637585957043e-7,6.259502926933035e-8,2.5231733356293212e-9,1.2700262716137152e-9,0
40982,3.7019027443789187e-10,1.051241390116648e-9,2.944598633052486e-9,8.853107192866979e-8,1.350160972834956e-7,6.272628693964639e-8,2.5322091116180975e-9,1.2693120616486157e-9,0
40983,3.6935689760179966e-10,1.0502548769340182e-9,2.8806392612618513e-9,8.796298461368114e-8,1.3306581870742078e-7,6.285754460996242e-8,2.5412448876068737e-9,1.2685978516835163e-9,0
40984,3.6852352076570745e-10,1.0492683637513883e-9,2.8166798894712165e-9,8.739489729869248e-8,1.3111554013134595e-7,6.298880228027846e-8,2.55028066359565e-9,1.267883641718417e-9,0
40985,3.6769014392961523e-10,1.0482818505687586e-9,2.7527205176805817e-9,8.682680998370383e-8,1.2916526155527112e-7,6.31200599505945e-8,2.559316439584426e-9,1.2671694317533175e-9,0
40986,3.6685676709352307e-10,1.0472953373861287e-9,2.688761145889947e-9,8.625872266871518e-8,1.272149829791963e-7,6.325131762091054e-8,2.5683522155732024e-9,1.266455221788218e-9,0
40987,3.6602339025743086e-10,1.0463088242034988e-9,2.6248017740993124e-9,8.569063535372651e-8,1.2526470440312147e-7,6.338257529122658e-8,2.5773879915619787e-9,1.2657410118231186e-9,0
40988,3.6519001342133864e-10,1.0453223110208691e-9,2.5608424023086776e-9,8.512254803873786e-8,1.2331442582704664e-7,6.351383296154261e-8,2.586423767550755e-9,1.2650268018580192e-9,0
40989,3.6435663658524643e-10,1.0443357978382392e-9,2.4968830305180428e-9,8.455446072374921e-8,1.213641472509718e-7,6.364509063185865e-8,2.595459543539531e-9,1.2643125918929198e-9,0
40990,3.635232597491542e-10,1.0433492846556095e-9,2.432923658727408e-9,8.398637340876055e-8,1.1941386867489696e-7,6.37763483021747e-8,2.6044953195283074e-9,1.2635983819278204e-9,0
40991,3.62689882913062e-10,1.0423627714729796e-9,2.368964286936773e-9,8.34182860937719e-8,1.1746359009882215e-7,6.390760597249073e-8,2.6135310955170836e-9,1.262884171962721e-9,0
40992,3.6185650607696984e-10,1.0413762582903497e-9,2.3050049151461383e-9,8.285019877878324e-8,1.1551331152274731e-7,6.403886364280677e-8,2.62256687150586e-9,1.2621699619976216e-9,0
40993,3.6107996068106545e-10,1.0413762582903497e-9,2.24992539616705e-9,8.204292203042146e-8,1.1443083621394284e-7,6.451523731519919e-8,2.6222559756597253e-9,1.2862457904664009e-9,0
40994,3.6030341528516105e-10,1.0430698202784966e-9,2.1879177016279793e-9,8.136630034502687e-8,1.1233967331378568e-7,6.456635306516694e-8,2.6284870902163325e-9,1.2862457904664009e-9,0
40995,3.5952686988925666e-10,1.0447633822666436e-9,2.1259100070889082e-9,8.06896786596323e-8,1.1024851041362851e-7,6.461746881513467e-8,2.6347182047729397e-9,1.2862457904664009e-9,0
40996,3.5875032449335226e-10,1.0464569442547906e-9,2.0639023125498372e-9,8.001305697423772e-8,1.0815734751347135e-7,6.46685845651024e-8,2.6409493193295465e-9,1.2862457904664009e-9,0
40997,3.5265162420649284e-10,1.0500413708676102e-9,2.0651275277342227e-9,8.000366119446481e-8,1.082832055848621e-7,6.476806647834727e-8,2.647491329732288e-9,1.2869826135719744e-9,0
40998,3.5292941648519025e-10,1.051422489323292e-9,2.0515201550541906e-9,8.033687766835662e-8,1.0858059228912178e-7,6.475780155077576e-8,2.6446866683001188e-9,1.2869373872910264e-9,0
40999,3.5320720876388765e-10,1.0528036077789738e-9,2.037912782374159e-9,8.067009414224841e-8,1.0887797899338146e-7,6.474753662320426e-8,2.6418820068679493e-9,1.2868921610100783e-9,0
41000,3.5348500104258506e-10,1.0541847262346556e-9,2.024305409694127e-9,8.100331061614022e-8,1.0917536569764115e-7,6.473727169563274e-8,2.6390773454357803e-9,1.2868469347291302e-09,0
41001,3.5376279332128246e-10,1.0555658446903374e-9,2.010698037014095e-9,8.133652709003202e-8,1.0947275240190083e-7,6.472700676806122e-8,2.636272684003611e-9,1.2868017084481822e-9,0
41002,3.5404058559997986e-10,1.056946963146019e-9,1.9970906643340635e-9,8.166974356392382e-8,1.0977013910616052e-7,6.471674184048971e-8,2.6334680225714418e-9,1.2867564821672341e-9,0
41003,3.5431837787867727e-10,1.0583280816017008e-9,1.9834832916540314e-9,8.200296003781562e-8,1.100675258104202e-7,6.470647691291819e-8,2.6306633611392727e-9,1.286711255886286e-9,0
41004,3.5459617015737467e-10,1.0597092000573826e-9,1.9698759189739998e-9,8.233617651170742e-8,1.1036491251467988e-7,6.469621198534667e-8,2.6278586997071033e-9,1.286666029605338e-9,0
41005,3.548739624360721e-10,1.0610903185130644e-9,1.9562685462939677e-9,8.266939298559922e-8,1.1066229921893957e-7,6.468594705777516e-8,2.6250540382749342e-9,1.28662080332439e-9,0
41006,3.551517547147695e-10,1.0624714369687461e-9,1.942661173613936e-9,8.300260945949102e-8,1.1095968592319925e-7,6.467568213020364e-8,2.6222493768427648e-9,1.2865755770434417e-9,0
41007,3.554295469934669e-10,1.0638525554244277e-9,1.929053800933904e-9,8.333582593338282e-8,1.1125707262745895e-7,6.466541720263214e-8,2.6194447154105957e-9,1.2865303507624937e-9,0
41008,3.5565050783197647e-10,1.0623453030210227e-9,1.938421373999006e-9,8.333308735467344e-8,1.1146855893832264e-7,6.508413515501226e-8,2.6194447154105957e-9,1.2857483013759723e-9,0
41009,3.5565050783197647e-10,1.0602461427080397e-9,1.9347023932285857e-9,8.34422466420032e-8,1.1128012389752966e-7,6.559472679369409e-8,2.6194447154105957e-9,1.2847281820010842e-9,0
41010,3.5565050783197647e-10,1.0581469823950567e-9,1.9309834124581657e-9,8.355140592933296e-8,1.1109168885673668e-7,6.610531843237592e-8,2.6194447154105957e-9,1.2837080626261962e-9,0
41011,3.5565050783197647e-10,1.0560478220820739e-9,1.9272644316877453e-9,8.366056521666272e-8,1.109032538159437e-7,6.661591007105775e-8,2.6194447154105957e-9,1.2826879432513082e-9,0
41012,3.5565050783197647e-10,1.0539486617690909e-9,1.923545450917325e-9,8.376972450399247e-8,1.1071481877515072e-7,6.712650170973957e-8,2.6194447154105957e-9,1.2816678238764202e-9,0
41013,3.5565050783197647e-10,1.0518495014561078e-9,1.9198264701469046e-9,8.387888379132223e-8,1.1052638373435775e-7,6.76370933484214e-8,2.6194447154105957e-9,1.2806477045015322e-9,0
41014,3.5565050783197647e-10,1.0497503411431248e-9,1.916107489376484e-9,8.398804307865199e-8,1.1033794869356475e-7,6.814768498710323e-8,2.6194447154105957e-9,1.2796275851266442e-9,0
41015,3.5565050783197647e-10,1.0476511808301418e-9,1.912388508606064e-9,8.409720236598175e-8,1.1014951365277177e-7,6.865827662578506e-8,2.6194447154105957e-9,1.2786074657517562e-9,0
41016,3.5565050783197647e-10,1.0455520205171588e-9,1.9086695278356434e-9,8.420636165331152e-8,1.099610786119788e-7,6.916886826446689e-8,2.6194447154105957e-9,1.2775873463768682e-9,0
41017,3.5565050783197647e-10,1.043452860204176e-9,1.904950547065223e-9,8.431552094064128e-8,1.0977264357118582e-7,6.96794599031487e-8,2.6194447154105957e-9,1.2765672270019802e-9,0
41018,3.5565050783197647e-10,1.041353699891193e-9,1.9012315662948027e-9,8.442468022797102e-8,1.0958420853039284e-7,7.019005154183053e-8,2.6194447154105957e-9,1.2755471076270922e-9,0
41019,3.5565050783197647e-10,1.040761791981615e-9,1.9130283002387142e-9,8.431669185741551e-8,1.0912061001336498e-7,7.078173931666616e-8,2.6267315560806673e-9,1.2666373909387886e-9,0
41020,3.5459617015737467e-10,1.0410632424622961e-9,1.9227866864965337e-9,8.438553804133111e-8,1.0874321402199201e-7,7.114909032112703e-8,2.6267315560806673e-9,1.2603464441225163e-9,0
41021,3.5354183248277287e-10,1.0413646929429771e-9,1.9325450727543527e-9,8.445438422524671e-8,1.0836581803061904e-7,7.15164413255879e-8,2.6267315560806673e-9,1.2540554973062439e-9,0
41022,3.524874948081711e-10,1.0416661434236581e-9,1.942303459012172e-9,8.45232304091623e-8,1.0798842203924608e-7,7.188379233004877e-8,2.6267315560806673e-9,1.2477645504899716e-9,0
41023,3.5143315713356933e-10,1.0419675939043391e-9,1.9520618452699916e-9,8.45920765930779e-8,1.0761102604787311e-7,7.225114333450965e-8,2.6267315560806673e-9,1.2414736036736991e-9,0
41024,3.5037881945896753e-10,1.0422690443850201e-9,1.961820231527811e-9,8.46609227769935e-8,1.0723363005650014e-7,7.261849433897052e-8,2.6267315560806673e-9,1.2351826568574268e-9,0
41025,3.4932448178436573e-10,1.0425704948657011e-9,1.9715786177856305e-9,8.47297689609091e-8,1.0685623406512717e-7,7.298584534343138e-8,2.6267315560806673e-9,1.2288917100411546e-9,0
41026,3.4827014410976393e-10,1.0428719453463821e-9,1.98133700404345e-9,8.47986151448247e-8,1.0647883807375421e-7,7.335319634789225e-8,2.6267315560806673e-9,1.222600763224882e-9,0
41027,3.472158064351622e-10,1.0431733958270631e-9,1.991095390301269e-9,8.48674613287403e-8,1.0610144208238124e-7,7.372054735235312e-8,2.6267315560806673e-9,1.2163098164086098e-9,0
41028,3.461614687605604e-10,1.0434748463077441e-9,2.0008537765590884e-9,8.49363075126559e-8,1.0572404609100827e-7,7.408789835681399e-8,2.6267315560806673e-9,1.2100188695923373e-9,0
41029,3.451071310859586e-10,1.043776296788425e-9,2.010612162816908e-9,8.500515369657148e-8,1.053466500996353e-7,7.445524936127487e-8,2.6267315560806673e-9,1.203727922776065e-9,0
41030,3.4427375424986637e-10,1.043776296788425e-9,2.0123794663357644e-9,8.49613584482074e-8,1.0559596017739733e-7,7.612879246963913e-8,2.6822095918487433e-9,1.1974369759597926e-9,0
41031,3.453785584424143e-10,1.0446696551786841e-9,2.0191776362439547e-9,8.495194978431903e-8,1.0561613096433512e-7,7.587684943405095e-8,2.6766068678013653e-9,1.1934243378816627e-9,0
41032,3.464833626349622e-10,1.045563013568943e-9,2.025975806152145e-9,8.494254112043067e-8,1.0563630175127291e-7,7.562490639846278e-8,2.6710041437539874e-9,1.1894116998035329e-9,0
41033,3.464833626349622e-10,1.042258051333236e-9,2.0289572919917356e-9,8.495558547368713e-8,1.060343853871474e-7,7.562059246417496e-8,2.673873623882168e-9,1.166639286978956e-9,0
41034,3.464833626349622e-10,1.038953089097529e-9,2.0319387778313263e-9,8.49686298269436e-8,1.064324690230219e-7,7.561627852988713e-8,2.676743104010348e-9,1.1438668741543792e-9,0
41035,3.464833626349622e-10,1.035648126861822e-9,2.0349202636709173e-9,8.498167418020007e-8,1.0683055265889638e-7,7.56119645955993e-8,2.6796125841385285e-9,1.1210944613298024e-9,0
41036,3.464833626349622e-10,1.0323431646261149e-9,2.037901749510508e-9,8.499471853345654e-8,1.0722863629477088e-7,7.560765066131147e-8,2.6824820642667085e-9,1.0983220485052255e-9,0
41037,3.464833626349622e-10,1.0290382023904077e-9,2.0408832353500985e-9,8.500776288671301e-8,1.0762671993064537e-7,7.560333672702365e-8,2.685351544394889e-9,1.0755496356806487e-9,0
41038,3.464833626349622e-10,1.0257332401547007e-9,2.043864721189689e-9,8.502080723996948e-8,1.0802480356651987e-7,7.559902279273582e-8,2.688221024523069e-9,1.0527772228560718e-9,0
41039,3.464833626349622e-10,1.0224282779189936e-9,2.04684620702928e-9,8.503385159322595e-8,1.0842288720239436e-7,7.5594708858448e-8,2.6910905046512496e-9,1.030004810031495e-9,0
41040,3.464833626349622e-10,1.0191233156832866e-9,2.0559537687907978e-9,8.483252337478858e-8,1.0821890622967997e-7,7.548770698116918e-8,2.692405505548758e-9,1.0312629993947496e-9,0
41041,3.464833626349622e-10,1.0158183534475796e-9,2.0650613305523158e-9,8.463119515635122e-8,1.0801492525696557e-7,7.538070510389035e-8,2.693720506446267e-9,1.032521188758004e-9,0
41042,3.464833626349622e-10,1.0125133912118724e-9,2.0741688923138338e-9,8.442986693791386e-8,1.0781094428425119e-7,7.527370322661153e-8,2.6950355073437757e-9,1.0337793781212584e-9,0
41043,3.464833626349622e-10,1.0092084289761654e-9,2.0832764540753513e-9,8.422853871947649e-8,1.076069633115368e-7,7.51667013493327e-8,2.6963505082412847e-9,1.035037567484513e-9,0
41044,3.464833626349622e-10,1.0059034667404584e-9,2.0923840158368693e-9,8.402721050103914e-8,1.0740298233882242e-7,7.505969947205388e-8,2.6976655091387932e-9,1.0362957568477675e-9,0
41045,3.464833626349622e-10,1.0025985045047513e-9,2.1014915775983873e-9,8.382588228260176e-8,1.0719900136610802e-7,7.495269759477504e-8,2.698980510036302e-9,1.0375539462110219e-9,0
41046,3.464833626349622e-10,9.992935422690443e-10,2.110599139359905e-9,8.36245540641644e-8,1.0699502039339363e-7,7.484569571749622e-8,2.700295510933811e-9,1.0388121355742763e-9,0
41047,3.464833626349622e-10,9.959885800333371e-10,2.119706701121423e-9,8.342322584572705e-8,1.0679103942067925e-7,7.473869384021739e-8,2.7016105118313197e-9,1.040070324937531e-9,0
41048,3.464833626349622e-10,9.9268361779763e-10,2.1288142628829405e-9,8.322189762728968e-8,1.0658705844796485e-7,7.463169196293857e-8,2.7029255127288287e-9,1.0413285143007853e-9,0
41049,3.464833626349622e-10,9.89378655561923e-10,2.1379218246444585e-9,8.302056940885232e-8,1.0638307747525046e-7,7.452469008565974e-8,2.7042405136263372e-9,1.0425867036640397e-9,0
41050,3.464833626349622e-10,9.86073693326216e-10,2.1470293864059765e-9,8.281924119041495e-8,1.0617909650253608e-7,7.441768820838092e-8,2.705555514523846e-9,1.0438448930272944e-9,0
41051,3.464833626349622e-10,9.82768731090509e-10,2.156136948167494e-9,8.261791297197759e-8,1.0597511552982169e-7,7.431068633110209e-8,2.7068705154213547e-9,1.0451030823905488e-9,0
41052,3.445451816063221e-10,9.85065194040018e-10,2.1860731680635643e-9,8.256742187020358e-8,1.0538360026975887e-7,7.421029615489925e-8,2.7208938225822008e-9,1.0451030823905488e-9,0
41053,3.42607000577682e-10,9.87361656989527e-10,2.2160093879596346e-9,8.251693076842957e-8,1.0479208500969606e-7,7.41099059786964e-8,2.734917129743047e-9,1.0451030823905488e-9,0
41054,3.4066881954904185e-10,9.896581199390357e-10,2.245945607855705e-9,8.246643966665556e-8,1.0420056974963326e-7,7.400951580249356e-8,2.748940436903893e-9,1.0451030823905488e-9,0
41055,3.3873063852040176e-10,9.919545828885447e-10,2.2758818277517747e-9,8.241594856488155e-8,1.0360905448957044e-7,7.390912562629072e-8,2.762963744064739e-9,1.0451030823905488e-9,0
41056,3.380109245646852e-10,9.891593668218288e-10,2.2937502695366982e-9,8.246057864819136e-8,1.0363932424831203e-7,7.387624196467785e-8,2.772873987712868e-9,1.0438448930272944e-9,0
41057,3.380109245646852e-10,9.932535396036398e-10,2.323686489432768e-9,8.247392257579428e-8,1.036606648273388e-7,7.386514148554701e-8,2.788205696954262e-9,1.0425867036640397e-9,0
41058,3.380109245646852e-10,9.973477123854508e-10,2.3536227093288383e-9,8.248726650339719e-8,1.0368200540636558e-7,7.385404100641617e-8,2.8035374061956564e-9,1.0413285143007853e-9,0
41059,3.380109245646852e-10,1.0014418851672615e-9,2.3835589292249086e-9,8.250061043100011e-8,1.0370334598539236e-7,7.384294052728532e-8,2.8188691154370505e-9,1.040070324937531e-9,0
41060,3.380109245646852e-10,1.0055360579490725e-9,2.4134951491209784e-9,8.251395435860302e-8,1.0372468656441914e-7,7.383184004815448e-8,2.834200824678445e-9,1.0388121355742763e-9,0
41061,3.380109245646852e-10,1.0096302307308835e-9,2.4434313690170487e-9,8.252729828620594e-8,1.0374602714344592e-7,7.382073956902363e-8,2.8495325339198394e-9,1.0375539462110219e-9,0
41062,3.380109245646852e-10,1.0137244035126943e-9,2.473367588913119e-9,8.254064221380886e-8,1.037673677224727e-7,7.380963908989279e-8,2.8648642431612335e-9,1.0362957568477675e-9,0
41063,3.380109245646852e-10,1.0178185762945053e-9,2.5033038088091888e-9,8.255398614141177e-8,1.0378870830149949e-7,7.379853861076195e-8,2.880195952402628e-9,1.035037567484513e-9,0
41064,3.399491055933253e-10,1.0157194159815222e-9,2.507380504181373e-9,8.366573260789707e-8,1.0381004888052626e-7,7.496877902119044e-8,2.879263264864225e-9,1.032997328734737e-9,0
41065,3.4066881954904185e-10,1.0198135887633332e-9,2.5076515483486086e-9,8.349733497931083e-8,1.0401145743931129e-7,7.507053292303956e-8,2.889931536413605e-9,1.0316939130905344e-9,0
41066,3.4138853350475843e-10,1.023907761545144e-9,2.507922592515844e-9,8.332893735072461e-8,1.0421286599809633e-7,7.517228682488869e-8,2.900599807962985e-9,1.0303904974463319e-9,0
41067,3.42108247460475e-10,1.028001934326955e-9,2.5081936366830797e-9,8.316053972213837e-8,1.0441427455688136e-7,7.52740407267378e-8,2.9112680795123648e-9,1.0290870818021294e-9,0
41068,3.428279614161916e-10,1.032096107108766e-9,2.508464680850315e-9,8.299214209355213e-8,1.046156831156664e-7,7.537579462858692e-8,2.9219363510617442e-9,1.0277836661579267e-9,0
41069,3.435476753719081e-10,1.0361902798905767e-9,2.5087357250175503e-9,8.28237444649659e-8,1.0481709167445143e-7,7.547754853043604e-8,2.932604622611124e-9,1.0264802505137243e-9,0
41070,3.442673893276247e-10,1.0402844526723877e-9,2.509006769184786e-9,8.265534683637966e-8,1.0501850023323646e-7,7.557930243228515e-8,2.943272894160504e-9,1.0251768348695218e-9,0
41071,3.4498710328334126e-10,1.0443786254541987e-9,2.5092778133520214e-9,8.248694920779342e-8,1.052199087920215e-7,7.568105633413427e-8,2.953941165709884e-9,1.0238734192253191e-9,0
41072,3.4570681723905784e-10,1.0484727982360095e-9,2.509548857519257e-9,8.23185515792072e-8,1.0542131735080653e-7,7.578281023598339e-8,2.9646094372592638e-9,1.0225700035811167e-9,0
41073,3.4642653119477436e-10,1.0525669710178205e-9,2.5098199016864925e-9,8.215015395062096e-8,1.0562272590959156e-7,7.58845641378325e-8,2.9752777088086436e-9,1.0212665879369142e-9,0
41074,3.4714624515049094e-10,1.0566611437996315e-9,2.510090945853728e-9,8.198175632203473e-8,1.058241344683766e-7,7.598631803968162e-8,2.9859459803580235e-9,1.0199631722927115e-9,0
41075,3.478659591062075e-10,1.0607553165814422e-9,2.5103619900209636e-9,8.181335869344849e-8,1.0602554302716163e-7,7.608807194153074e-8,2.9966142519074034e-9,1.018659756648509e-9,0
41076,3.485856730619241e-10,1.0648494893632532e-9,2.510633034188199e-9,8.164496106486225e-8,1.0622695158594666e-7,7.618982584337985e-8,3.007282523456783e-9,1.0173563410043066e-9,0
41077,3.493053870176406e-10,1.0689436621450642e-9,2.5109040783554347e-9,8.147656343627602e-8,1.064283601447317e-7,7.629157974522897e-8,3.0179507950061627e-9,1.016052925360104e-9,0
41078,3.4791642562415365e-10,1.075241143084013e-9,2.5048323705144227e-9,8.141013424573737e-8,1.0634966295722611e-7,7.637677266184186e-8,3.0211311709804774e-9,1.0081181017657403e-9,0
41079,3.4652746423066663e-10,1.0815386240229621e-9,2.4987606626734107e-9,8.134370505519872e-8,1.0627096576972054e-7,7.646196557845477e-8,3.024311546954792e-9,1.0001832781713767e-9,0
41080,3.451385028371796e-10,1.087836104961911e-9,2.492688954832399e-9,8.127727586466007e-8,1.0619226858221495e-7,7.654715849506767e-8,3.0274919229291067e-9,9.92248454577013e-10,0
41081,3.437495414436926e-10,1.09413358590086e-9,2.486617246991387e-9,8.121084667412142e-8,1.0611357139470936e-7,7.663235141168056e-8,3.0306722989034213e-9,9.843136309826493e-10,0
41082,3.423605800502056e-10,1.1004310668398089e-9,2.480545539150375e-9,8.114441748358278e-8,1.0603487420720378e-7,7.671754432829347e-8,3.033852674877736e-9,9.763788073882857e-10,0
41083,3.409716186567186e-10,1.106728547778758e-9,2.474473831309363e-9,8.107798829304413e-8,1.059561770196982e-7,7.680273724490637e-8,3.0370330508520506e-9,9.68443983793922e-10,0
41084,3.3958265726323157e-10,1.1130260287177068e-9,2.468402123468351e-9,8.101155910250548e-8,1.0587747983219262e-7,7.688793016151927e-8,3.040213426826365e-9,9.605091601995584e-10,0
41085,3.4052333205745774e-10,1.1186274539029228e-9,2.4684454586856155e-9,8.093652870241263e-8,1.0589172301034211e-7,7.700931027870649e-8,3.0518143859141475e-9,9.614840532934983e-10,0
41086,3.414640068516839e-10,1.1242288790881388e-9,2.4684887939028795e-9,8.086149830231979e-8,1.0590596618849161e-7,7.713069039589371e-8,3.0634153450019302e-9,9.624589463874383e-10,0
41087,3.414640068516839e-10,1.12333552069788e-9,2.4806322095849035e-9,8.090089067170863e-8,1.0574014138688286e-7,7.71611014469514e-8,3.0643480325403335e-9,9.647372551255807e-10,0
41088,3.4168496769019344e-10,1.1284162066623206e-9,2.5160547137702503e-9,8.234948876897011e-8,1.0554793104645705e-7,7.716325841409531e-8,3.0643480325403335e-9,9.657121482195206e-10,0
41089,3.41905928528703e-10,1.1334968926267613e-9,2.551477217955597e-9,8.37980868662316e-8,1.0535572070603125e-7,7.716541538123922e-8,3.0643480325403335e-9,9.666870413134606e-10,0
41090,3.421268893672126e-10,1.1385775785912022e-9,2.5868997221409442e-9,8.524668496349308e-8,1.0516351036560545e-7,7.716757234838313e-8,3.0643480325403335e-9,9.676619344074006e-10,0
41091,3.423478502057222e-10,1.143658264555643e-9,2.622322226326291e-9,8.669528306075457e-8,1.0497130002517964e-7,7.716972931552704e-8,3.0643480325403335e-9,9.686368275013405e-10,0
41092,3.422910187655344e-10,1.1496323089103424e-9,2.656931598009931e-9,8.815248236757025e-8,1.0481882670049909e-7,7.711659277490657e-8,3.0551892179764953e-9,9.656669219385726e-10,0
41093,3.4223418732534656e-10,1.1556063532650421e-9,2.6915409696935717e-9,8.960968167438593e-8,1.0466635337581853e-7,7.70634562342861e-8,3.0460304034126575e-9,9.626970163758047e-10,0
41094,3.4217735588515874e-10,1.1615803976197418e-9,2.7261503413772123e-9,9.10668809812016e-8,1.0451388005113798e-7,7.701031969366563e-8,3.0368715888488197e-9,9.59727110813037e-10,0
41095,3.421205244449709e-10,1.1675544419744415e-9,2.7607597130608524e-9,9.252408028801728e-8,1.0436140672645742e-7,7.695718315304516e-8,3.027712774284982e-9,9.56757205250269e-10,0
41096,3.420636930047831e-10,1.173528486329141e-9,2.795369084744493e-9,9.398127959483296e-8,1.0420893340177687e-7,7.690404661242469e-8,3.018553959721144e-9,9.537872996875011e-10,0
41097,3.420068615645953e-10,1.1795025306838408e-9,2.829978456428133e-9,9.543847890164862e-8,1.0405646007709631e-7,7.685091007180422e-8,3.0093951451573063e-9,9.508173941247332e-10,0
41098,3.4195003012440747e-10,1.1854765750385405e-9,2.8645878281117737e-9,9.68956782084643e-8,1.0390398675241576e-7,7.679777353118375e-8,3.000236330593468e-9,9.478474885619655e-10,0
41099,3.4189319868421965e-10,1.19145061939324e-9,2.899197199795414e-9,9.835287751527998e-8,1.037515134277352e-7,7.674463699056328e-8,2.9910775160296303e-9,9.448775829991976e-10,0
41100,3.4183636724403183e-10,1.1950240529542757e-9,2.932538021077405e-9,9.986301229785817e-8,1.0315545819155652e-7,7.671727365736248e-8,2.9875214255131705e-9,9.45591792964297e-10,0
41101,3.41779535803844e-10,1.1985974865153114e-9,2.9658788423593957e-9,1.0137314708043636e-7,1.0255940295537785e-7,7.668991032416169e-8,2.9839653349967107e-9,9.463060029293964e-10,0
41102,3.417227043636562e-10,1.202170920076347e-9,2.999219663641387e-9,1.0288328186301455e-7,1.0196334771919917e-7,7.66625469909609e-8,2.9804092444802505e-9,9.470202128944958e-10,0
41103,3.416658729234684e-10,1.2057443536373826e-9,3.0325604849233775e-9,1.0439341664559274e-7,1.013672924830205e-7,7.663518365776011e-8,2.9768531539637906e-9,9.477344228595953e-10,0
41104,3.416090414832805e-10,1.2093177871984183e-9,3.0659013062053683e-9,1.0590355142817093e-7,1.0077123724684182e-7,7.660782032455931e-8,2.973297063447331e-9,9.484486328246947e-10,0
41105,3.415522100430927e-10,1.212891220759454e-9,3.0992421274873594e-9,1.0741368621074911e-7,1.0017518201066315e-7,7.658045699135852e-8,2.9697409729308706e-9,9.49162842789794e-10,0
41106,3.414953786029049e-10,1.2164646543204896e-9,3.13258294876935e-9,1.089238209933273e-7,9.957912677448447e-8,7.655309365815773e-8,2.9661848824144108e-9,9.498770527548935e-10,0
41107,3.4121758632420747e-10,1.2143654940075066e-9,3.1312277279331728e-9,1.0890684513360123e-7,9.897924474699946e-8,7.662392486674002e-8,2.9648698815169022e-9,9.49616369626053e-10,0
41108,3.4093979404551007e-10,1.2140530504750415e-9,3.1352610880880927e-9,1.0984060062533726e-7,9.842160255306898e-8,7.667572247953088e-8,3.040816591541346e-9,9.49593756485579e-10,0
41109,3.406620017668127e-10,1.2137406069425763e-9,3.1392944482430125e-9,1.1077435611707327e-7,9.786396035913851e-8,7.672752009232176e-8,3.11676330156579e-9,9.49571143345105e-10,0
41110,3.403842094881153e-10,1.2134281634101111e-9,3.1433278083979324e-9,1.117081116088093e-7,9.730631816520803e-8,7.677931770511264e-8,3.192710011590234e-9,9.49548530204631e-10,0
41111,3.401064172094179e-10,1.213115719877646e-9,3.1473611685528523e-9,1.1264186710054533e-7,9.674867597127757e-8,7.683111531790351e-8,3.268656721614678e-9,9.495259170641569e-10,0
41112,3.398286249307205e-10,1.2128032763451808e-9,3.151394528707772e-9,1.1357562259228136e-7,9.619103377734709e-8,7.688291293069439e-8,3.344603431639122e-9,9.49503303923683e-10,0
41113,3.395508326520231e-10,1.2124908328127156e-9,3.155427888862692e-9,1.1450937808401739e-7,9.563339158341662e-8,7.693471054348527e-8,3.420550141663566e-9,9.494806907832088e-10,0
41114,3.392730403733257e-10,1.2121783892802504e-9,3.159461249017612e-9,1.1544313357575342e-7,9.507574938948614e-8,7.698650815627615e-8,3.49649685168801e-9,9.494580776427347e-10,0
41115,3.382187026987239e-10,1.2142665565414493e-9,3.163494609172532e-9,1.1596945716232888e-7,9.504570934521734e-8,7.656122543603478e-8,3.573758562609963e-9,9.487212545371613e-10,0
41116,3.382187026987239e-10,1.2142665565414493e-9,3.1687965197291015e-9,1.1691569060886559e-7,9.47837459861687e-8,7.649813961125408e-8,3.6448407800373987e-9,9.427814434116255e-10,0
41117,3.382187026987239e-10,1.2142665565414493e-9,3.174098430285671e-9,1.1786192405540231e-7,9.452178262712004e-8,7.643505378647336e-8,3.7159229974648344e-9,9.368416322860899e-10,0
41118,3.382187026987239e-10,1.2142665565414493e-9,3.17940034084224e-9,1.1880815750193903e-7,9.42598192680714e-8,7.637196796169266e-8,3.7870052148922705e-9,9.309018211605542e-10,0
41119,3.382187026987239e-10,1.2142665565414493e-9,3.1847022513988094e-9,1.1975439094847574e-7,9.399785590902274e-8,7.630888213691195e-8,3.858087432319706e-9,9.249620100350184e-10,0
41120,3.382187026987239e-10,1.2142665565414493e-9,3.190004161955379e-9,1.2070062439501247e-7,9.37358925499741e-8,7.624579631213124e-8,3.929169649747142e-9,9.190221989094827e-10,0
41121,3.382187026987239e-10,1.2142665565414493e-9,3.1953060725119484e-9,1.216468578415492e-7,9.347392919092545e-8,7.618271048735054e-8,4.000251867174578e-9,9.13082387783947e-10,0
41122,3.4209506475600413e-10,1.2121783892802504e-9,3.2003913069821976e-9,1.222721498329791e-7,9.322512691850389e-8,7.654126340262177e-8,3.998185437192778e-9,9.079246260449327e-10,0
41123,3.4237285703470154e-10,1.2142885426450176e-9,3.2032538200336474e-9,1.222676519280537e-7,9.322713692014066e-8,7.668630669329951e-8,3.990697541617713e-9,9.02007428059871e-10,0
41124,3.4265064931339894e-10,1.2163986960097848e-9,3.2061163330850967e-9,1.2226315402312833e-7,9.322914692177743e-8,7.683134998397725e-8,3.983209646042648e-9,8.960902300748094e-10,0
41125,3.4292844159209634e-10,1.2185088493745518e-9,3.2089788461365465e-9,1.2225865611820295e-7,9.323115692341419e-8,7.6976393274655e-8,3.975721750467582e-9,8.901730320897477e-10,0
41126,3.432062338707937e-10,1.220619002739319e-9,3.2118413591879963e-9,1.2225415821327757e-7,9.323316692505096e-8,7.712143656533272e-8,3.968233854892517e-9,8.84255834104686e-10,0
41127,3.434840261494911e-10,1.2227291561040862e-9,3.214703872239446e-9,1.222496603083522e-7,9.323517692668772e-8,7.726647985601047e-8,3.960745959317452e-9,8.783386361196243e-10,0
41128,3.437618184281885e-10,1.2248393094688532e-9,3.217566385290896e-9,1.222451624034268e-7,9.323718692832449e-8,7.741152314668821e-8,3.953258063742387e-9,8.724214381345626e-10,0
41129,3.440396107068859e-10,1.2269494628336204e-9,3.2204288983423456e-9,1.2224066449850143e-7,9.323919692996126e-8,7.755656643736594e-8,3.945770168167321e-9,8.665042401495009e-10,0
41130,3.443174029855833e-10,1.2290596161983876e-9,3.2232914113937954e-9,1.2223616659357605e-7,9.324120693159802e-8,7.770160972804368e-8,3.938282272592256e-9,8.605870421644392e-10,0
41131,3.445951952642807e-10,1.2311697695631546e-9,3.2261539244452448e-9,1.2223166868865067e-7,9.324321693323479e-8,7.784665301872142e-8,3.930794377017191e-9,8.546698441793775e-10,0
41132,3.448729875429781e-10,1.2332799229279217e-9,3.2290164374966946e-9,1.222271707837253e-7,9.324522693487155e-8,7.799169630939915e-8,3.923306481442126e-9,8.487526461943158e-10,0
41133,3.4515077982167553e-10,1.235390076292689e-9,3.2318789505481444e-9,1.222226728787999e-7,9.324723693650832e-8,7.813673960007689e-8,3.91581858586706e-9,8.428354482092541e-10,0
41134,3.4542857210037293e-10,1.237500229657456e-9,3.234741463599594e-9,1.2221817497387453e-7,9.324924693814507e-8,7.828178289075463e-8,3.9083306902919954e-9,8.369182502241925e-10,0
41135,3.4570636437907034e-10,1.2396103830222231e-9,3.237603976651044e-9,1.2221367706894915e-7,9.325125693978185e-8,7.842682618143236e-8,3.90084279471693e-9,8.310010522391308e-10,0
41136,3.4598415665776774e-10,1.2417205363869903e-9,3.2404664897024937e-9,1.2220917916402377e-7,9.325326694141862e-8,7.85718694721101e-8,3.893354899141865e-9,8.250838542540691e-10,0
41137,3.4626194893646514e-10,1.2438306897517573e-9,3.2433290027539435e-9,1.222046812590984e-7,9.325527694305537e-8,7.871691276278785e-8,3.885867003566799e-9,8.191666562690074e-10,0
41138,3.4653974121516255e-10,1.2442472811283775e-9,3.2469613130898355e-9,1.2217847390326873e-7,9.33512098274137e-8,7.889574335488337e-8,3.886113080716922e-9,8.191666562690074e-10,0
41139,3.4681753349385995e-10,1.2446638725049978e-9,3.2505936234257276e-9,1.2215226654743907e-7,9.344714271177202e-8,7.907457394697889e-8,3.8863591578670455e-9,8.191666562690074e-10,0
41140,3.4709532577255736e-10,1.245080463881618e-9,3.25422593376162e-9,1.221260591916094e-7,9.354307559613034e-8,7.925340453907441e-8,3.886605235017169e-9,8.191666562690074e-10,0
41141,3.4737311805125476e-10,1.2454970552582382e-9,3.257858244097512e-9,1.2209985183577975e-7,9.363900848048866e-8,7.943223513116993e-8,3.8868513121672925e-9,8.191666562690074e-10,0
41142,3.4765091032995217e-10,1.2459136466348585e-9,3.2614905544334046e-9,1.220736444799501e-7,9.373494136484698e-8,7.961106572326545e-8,3.887097389317416e-9,8.191666562690074e-10,0
41143,3.4792870260864957e-10,1.2463302380114787e-9,3.2651228647692967e-9,1.2204743712412043e-7,9.383087424920529e-8,7.978989631536098e-8,3.887343466467539e-9,8.191666562690074e-10,0
41144,3.482064948873469e-10,1.246746829388099e-9,3.2687551751051887e-9,1.2202122976829077e-7,9.392680713356362e-8,7.996872690745651e-8,3.887589543617662e-9,8.191666562690074e-10,0
41145,3.484274557258565e-10,1.2432665506194341e-9,3.2706635171394886e-9,1.2223860935518392e-7,9.389726895769062e-8,8.000251420887429e-8,3.886902933229382e-9,8.189059731401669e-10,0
41146,3.494817934004583e-10,1.2432665506194341e-9,3.286525913591933e-9,1.2298733656730669e-7,9.380804052610549e-8,7.990419175653893e-8,3.886216322841102e-9,8.188833599996929e-10,0
41147,3.505361310750601e-10,1.2432665506194341e-9,3.302388310044377e-9,1.2373606377942943e-7,9.371881209452037e-8,7.980586930420355e-8,3.885529712452823e-9,8.188607468592188e-10,0
41148,3.515904687496619e-10,1.2432665506194341e-9,3.3182507064968213e-9,1.244847909915522e-7,9.362958366293525e-8,7.970754685186819e-8,3.884843102064543e-9,8.188381337187448e-10,0
41149,3.5264480642426366e-10,1.2432665506194341e-9,3.3341131029492653e-9,1.2523351820367494e-7,9.354035523135013e-8,7.960922439953283e-8,3.884156491676264e-9,8.188155205782708e-10,0
41150,3.5369914409886545e-10,1.2432665506194341e-9,3.3499754994017096e-9,1.2598224541579769e-7,9.3451126799765e-8,7.951090194719745e-8,3.883469881287984e-9,8.187929074377967e-10,0
41151,3.538128069792411e-10,1.2428499592428139e-9,3.3651547690042392e-9,1.2649775534783835e-7,9.309092718107311e-8,7.939241585913092e-8,3.882537193749581e-9,8.180108580512752e-10,0
41152,3.5392646985961673e-10,1.2424333678661937e-9,3.380334038606769e-9,1.27013265279879e-7,9.273072756238123e-8,7.927392977106438e-8,3.8816045062111786e-9,8.172288086647536e-10,0
41153,3.5404013273999236e-10,1.2420167764895734e-9,3.3955133082092988e-9,1.2752877521191963e-7,9.237052794368932e-8,7.915544368299785e-8,3.880671818672775e-9,8.164467592782321e-10,0
41154,3.54153795620368e-10,1.2416001851129532e-9,3.4106925778118284e-9,1.2804428514396027e-7,9.201032832499744e-8,7.903695759493131e-8,3.879739131134372e-9,8.156647098917106e-10,0
41155,3.542674585007437e-10,1.241183593736333e-9,3.4258718474143584e-9,1.285597950760009e-7,9.165012870630555e-8,7.891847150686477e-8,3.878806443595969e-9,8.148826605051891e-10,0
41156,3.543811213811193e-10,1.2407670023597127e-9,3.441051117016888e-9,1.2907530500804158e-7,9.128992908761366e-8,7.879998541879824e-8,3.877873756057566e-9,8.141006111186676e-10,0
41157,3.5449478426149496e-10,1.2403504109830927e-9,3.456230386619418e-9,1.2959081494008222e-7,9.092972946892177e-8,7.86814993307317e-8,3.8769410685191635e-9,8.13318561732146e-10,0
41158,3.546084471418706e-10,1.2399338196064725e-9,3.4714096562219475e-9,1.3010632487212286e-7,9.056952985022988e-8,7.856301324266515e-8,3.876008380980761e-9,8.125365123456245e-10,0
41159,3.5178642275919215e-10,1.2426138947772491e-9,3.483466401469443e-9,1.3087676153514988e-7,9.060954495684282e-8,7.854578692648359e-8,3.8702694207244005e-9,8.105641130172707e-10,0
41160,3.489643983765137e-10,1.2452939699480258e-9,3.495523146716939e-9,1.3164719819817693e-7,9.064956006345576e-8,7.852856061030203e-8,3.8645304604680395e-9,8.085917136889167e-10,0
41161,3.461423739938353e-10,1.2479740451188027e-9,3.5075798919644346e-9,1.3241763486120395e-7,9.068957517006871e-8,7.851133429412045e-8,3.858791500211679e-9,8.066193143605628e-10,0
41162,3.4332034961115684e-10,1.2506541202895794e-9,3.5196366372119302e-9,1.3318807152423097e-7,9.072959027668166e-8,7.849410797793889e-8,3.853052539955318e-9,8.04646915032209e-10,0
41163,3.404983252284784e-10,1.253334195460356e-9,3.5316933824594263e-9,1.3395850818725802e-7,9.07696053832946e-8,7.847688166175731e-8,3.847313579698958e-9,8.02674515703855e-10,0
41164,3.376763008458e-10,1.256014270631133e-9,3.543750127706922e-9,1.3472894485028505e-7,9.080962048990755e-8,7.845965534557575e-8,3.841574619442597e-9,8.007021163755011e-10,0
41165,3.3485427646312157e-10,1.2586943458019096e-9,3.5558068729544177e-9,1.354993815133121e-7,9.084963559652049e-8,7.844242902939418e-8,3.835835659186237e-9,7.987297170471473e-10,0
41166,3.3125570668453874e-10,1.2578941422040216e-9,3.5527710190339117e-9,1.356075250406664e-7,9.114650262155036e-8,7.853250734481076e-8,3.8299088416588035e-9,7.987297170471473e-10,0
41167,3.276571369059559e-10,1.2570939386061335e-9,3.5786305435577977e-9,1.3560862669972145e-7,9.119776838760957e-8,7.853250734481076e-8,3.836632110515657e-9,8.055646432615747e-10,0
41168,3.2472144964290183e-10,1.2597740137769104e-9,3.580896600193861e-9,1.3566593767384767e-7,9.114110403782767e-8,7.854439644228619e-8,3.831016188834358e-9,8.056324826829967e-10,0
41169,3.2178576237984775e-10,1.262454088947687e-9,3.5831626568299247e-9,1.3572324864797388e-7,9.108443968804579e-8,7.855628553976161e-8,3.82540026715306e-9,8.057003221044188e-10,0
41170,3.188500751167937e-10,1.2651341641184637e-9,3.585428713465988e-9,1.357805596221001e-7,9.10277753382639e-8,7.856817463723704e-8,3.8197843454717606e-9,8.05768161525841e-10,0
41171,3.159143878537396e-10,1.2678142392892406e-9,3.5876947701020513e-9,1.358378705962263e-7,9.097111098848201e-8,7.858006373471247e-8,3.8141684237904615e-9,8.058360009472631e-10,0
41172,3.1297870059068553e-10,1.2704943144600172e-9,3.589960826738115e-9,1.3589518157035253e-7,9.091444663870012e-8,7.859195283218789e-8,3.8085525021091625e-9,8.059038403686852e-10,0
41173,3.136984145464021e-10,1.270077723083397e-9,3.5953494077292127e-9,1.3538852141823438e-7,9.088981734565587e-8,7.856081298509233e-8,3.807742853145821e-9,8.018912022905552e-10,0
41174,3.144181285021187e-10,1.2696611317067768e-9,3.60073798872031e-9,1.3488186126611623e-7,9.08651880526116e-8,7.852967313799678e-8,3.80693320418248e-9,7.978785642124254e-10,0
41175,3.1513784245783526e-10,1.2692445403301565e-9,3.6061265697114075e-9,1.3437520111399806e-7,9.084055875956736e-8,7.849853329090122e-8,3.806123555219138e-9,7.938659261342955e-10,0
41176,3.158575564135518e-10,1.2688279489535363e-9,3.611515150702505e-9,1.338685409618799e-7,9.081592946652311e-8,7.846739344380566e-8,3.805313906255797e-9,7.898532880561656e-10,0
41177,3.1657727036926836e-10,1.268411357576916e-9,3.6169037316936027e-9,1.3336188080976174e-7,9.079130017347884e-8,7.84362535967101e-8,3.804504257292456e-9,7.858406499780357e-10,0
41178,3.1729698432498494e-10,1.267994766200296e-9,3.6222923126847e-9,1.328552206576436e-7,9.07666708804346e-8,7.840511374961454e-8,3.803694608329115e-9,7.818280118999058e-10,0
41179,3.1801669828070146e-10,1.2675781748236758e-9,3.6276808936757976e-9,1.3234856050552544e-7,9.074204158739033e-8,7.837397390251898e-8,3.802884959365773e-9,7.778153738217759e-10,0
41180,3.1801669828070146e-10,1.2633798541977098e-9,3.642513481540215e-9,1.319934992900522e-7,9.091806211359274e-8,7.837397390251898e-8,3.806000516644077e-9,7.73802735743646e-10,0
41181,3.1801669828070146e-10,1.2591815335717437e-9,3.6573460694046323e-9,1.3163843807457898e-7,9.109408263979514e-8,7.837397390251898e-8,3.80911607392238e-9,7.697900976655161e-10,0
41182,3.1801669828070146e-10,1.254983212945778e-9,3.6721786572690494e-9,1.3128337685910577e-7,9.127010316599755e-8,7.837397390251898e-8,3.812231631200684e-9,7.657774595873863e-10,0
41183,3.1801669828070146e-10,1.2507848923198119e-9,3.687011245133467e-9,1.3092831564363254e-7,9.144612369219995e-8,7.837397390251898e-8,3.8153471884789875e-9,7.617648215092563e-10,0
41184,3.1801669828070146e-10,1.2465865716938458e-9,3.701843832997884e-9,1.3057325442815933e-7,9.162214421840235e-8,7.837397390251898e-8,3.818462745757291e-9,7.577521834311265e-10,0
41185,3.1801669828070146e-10,1.24238825106788e-9,3.7166764208623013e-9,1.302181932126861e-7,9.179816474460476e-8,7.837397390251898e-8,3.821578303035595e-9,7.537395453529965e-10,0
41186,3.1801669828070146e-10,1.238189930441914e-9,3.731509008726719e-9,1.298631319972129e-7,9.197418527080716e-8,7.837397390251898e-8,3.824693860313898e-9,7.497269072748666e-10,0
41187,3.1801669828070146e-10,1.2339916098159481e-9,3.746341596591136e-9,1.2950807078173966e-7,9.215020579700957e-8,7.837397390251898e-8,3.827809417592202e-9,7.457142691967368e-10,0
41188,3.1801669828070146e-10,1.229793289189982e-9,3.761174184455553e-9,1.2915300956626646e-7,9.232622632321197e-8,7.837397390251898e-8,3.830924974870505e-9,7.417016311186068e-10,0
41189,3.199548793093416e-10,1.232089752139491e-9,3.7663460893603306e-9,1.2863519592054e-7,9.228303735981794e-8,7.832177966897929e-8,3.855357278796687e-9,7.417016311186068e-10,0
41190,3.218930603379817e-10,1.234386215089e-9,3.771517994265108e-9,1.2811738227481358e-7,9.223984839642391e-8,7.826958543543959e-8,3.8797895827228686e-9,7.417016311186068e-10,0
41191,3.238312413666218e-10,1.236682678038509e-9,3.776689899169885e-9,1.2759956862908713e-7,9.219665943302988e-8,7.821739120189989e-8,3.90422188664905e-9,7.417016311186068e-10,0
41192,3.2576942239526194e-10,1.238979140988018e-9,3.781861804074662e-9,1.270817549833607e-7,9.215347046963584e-8,7.81651969683602e-8,3.928654190575231e-9,7.417016311186068e-10,0
41193,3.2770760342390203e-10,1.2412756039375269e-9,3.7870337089794395e-9,1.2656394133763426e-7,9.211028150624181e-8,7.811300273482051e-8,3.953086494501413e-9,7.417016311186068e-10,0
41194,3.2964578445254213e-10,1.2435720668870358e-9,3.792205613884217e-9,1.2604612769190784e-7,9.206709254284777e-8,7.806080850128081e-8,3.977518798427595e-9,7.417016311186068e-10,0
41195,3.3158396548118227e-10,1.2458685298365446e-9,3.797377518788994e-9,1.2552831404618139e-7,9.202390357945374e-8,7.800861426774112e-8,4.0019511023537765e-9,7.417016311186068e-10,0
41196,3.328024325541058e-10,1.2512616593334507e-9,3.7877168358293535e-9,1.2535072142897363e-7,9.202390357945374e-8,7.789818920688742e-8,4.026629483430081e-9,7.439573267162753e-10,0
41197,3.3496157442125547e-10,1.251782398554226e-9,3.793571867584046e-9,1.2540012536818868e-7,9.119275710865881e-8,7.788902391791872e-8,4.048438384378206e-9,7.502482735325476e-10,0
41198,3.371207162884052e-10,1.252303137775001e-9,3.799426899338737e-9,1.2544952930740373e-7,9.036161063786388e-8,7.787985862895e-8,4.070247285326331e-9,7.5653922034882e-10,0
41199,3.392798581555549e-10,1.2528238769957763e-9,3.8052819310934286e-9,1.2549893324661875e-7,8.953046416706893e-8,7.787069333998128e-8,4.092056186274455e-9,7.628301671650924e-10,0
41200,3.4143900002270456e-10,1.2533446162165516e-9,3.81113696284812e-9,1.255483371858338e-7,8.8699317696274e-8,7.786152805101257e-8,4.11386508722258e-9,7.691211139813647e-10,0
41201,3.4359814188985424e-10,1.2538653554373269e-9,3.816991994602812e-9,1.2559774112504885e-7,8.786817122547907e-8,7.785236276204386e-8,4.135673988170704e-9,7.754120607976371e-10,0
41202,3.4575728375700397e-10,1.2543860946581022e-9,3.822847026357504e-9,1.256471450642639e-7,8.703702475468413e-8,7.784319747307514e-8,4.157482889118829e-9,7.817030076139095e-10,0
41203,3.466979585512301e-10,1.2505002175646013e-9,3.831683543951786e-9,1.2579857971723953e-7,8.62000081037191e-8,7.781367717273044e-8,4.160280951734038e-9,7.839134769306298e-10,0
41204,3.4763863334545625e-10,1.2466143404711007e-9,3.8405200615460685e-9,1.2595001437021514e-7,8.536299145275407e-8,7.778415687238573e-8,4.163079014349246e-9,7.861239462473503e-10,0
41205,3.499682695331694e-10,1.2427284633775998e-9,3.8563824579985125e-9,1.259506264030235e-7,8.455097893849084e-8,7.775550616772316e-8,4.167943506946255e-9,7.863620162357167e-10,0
41206,3.5229790572088257e-10,1.238842586284099e-9,3.8722448544509565e-9,1.2595123843583189e-7,8.373896642422763e-8,7.772685546306057e-8,4.172807999543263e-9,7.866000862240832e-10,0
41207,3.546275419085957e-10,1.2349567091905983e-9,3.8881072509034004e-9,1.2595185046864025e-7,8.29269539099644e-8,7.769820475839799e-8,4.177672492140271e-9,7.868381562124497e-10,0
41208,3.5695717809630883e-10,1.2310708320970974e-9,3.903969647355845e-9,1.259524625014486e-7,8.211494139570117e-8,7.76695540537354e-8,4.182536984737279e-9,7.870762262008161e-10,0
41209,3.59286814284022e-10,1.2271849550035965e-9,3.919832043808289e-9,1.2595307453425697e-7,8.130292888143796e-8,7.764090334907282e-8,4.187401477334287e-9,7.873142961891826e-10,0
41210,3.577400884144549e-10,1.2292731222647954e-9,3.9159609916587745e-9,1.2582009750386293e-7,8.130769575036052e-8,7.638199990524182e-8,4.147993382257976e-9,7.865322468026611e-10,0
41211,3.5619336254488786e-10,1.2313612895259942e-9,3.912089939509259e-9,1.256871204734689e-7,8.131246261928307e-8,7.512309646141082e-8,4.108585287181663e-9,7.857501974161396e-10,0
41212,3.546466366753208e-10,1.233449456787193e-9,3.908218887359744e-9,1.255541434430749e-7,8.131722948820565e-8,7.386419301757982e-8,4.069177192105351e-9,7.84968148029618e-10,0
41213,3.5309991080575375e-10,1.235537624048392e-9,3.90434783521023e-9,1.2542116641268087e-7,8.13219963571282e-8,7.26052895737488e-8,4.029769097029039e-9,7.841860986430965e-10,0
41214,3.5155318493618665e-10,1.2376257913095908e-9,3.900476783060715e-9,1.2528818938228685e-7,8.132676322605076e-8,7.13463861299178e-8,3.990361001952727e-9,7.83404049256575e-10,0
41215,3.500064590666196e-10,1.2397139585707896e-9,3.8966057309111995e-9,1.2515521235189284e-7,8.133153009497334e-8,7.00874826860868e-8,3.9509529068764145e-9,7.826219998700535e-10,0
41216,3.4845973319705254e-10,1.2418021258319884e-9,3.892734678761685e-9,1.2502223532149882e-7,8.13362969638959e-8,6.88285792422558e-8,3.911544811800102e-9,7.81839950483532e-10,0
41217,3.5051157710606827e-10,1.2436929904566613e-9,3.9086404104313935e-9,1.2492180877715543e-7,8.130498132252497e-8,6.878698673472973e-8,3.91772430529462e-9,7.81839950483532e-10,0
41218,3.5256342101508405e-10,1.2455838550813343e-9,3.9245461421011014e-9,1.2482138223281205e-7,8.127366568115406e-8,6.874539422720367e-8,3.923903798789137e-9,7.81839950483532e-10,0
41219,3.546152649240998e-10,1.2474747197060072e-9,3.940451873770809e-9,1.247209556884687e-7,8.124235003978313e-8,6.870380171967761e-8,3.9300832922836535e-9,7.81839950483532e-10,0
41220,3.566671088331155e-10,1.2493655843306799e-9,3.956357605440518e-9,1.246205291441253e-7,8.121103439841222e-8,6.866220921215155e-8,3.93626278577817e-9,7.81839950483532e-10,0
41221,3.587189527421313e-10,1.2512564489553528e-9,3.972263337110226e-9,1.2452010259978192e-7,8.11797187570413e-8,6.862061670462549e-8,3.942442279272687e-9,7.81839950483532e-10,0
41222,3.60770796651147e-10,1.2531473135800257e-9,3.988169068779934e-9,1.2441967605543853e-7,8.114840311567038e-8,6.857902419709943e-8,3.948621772767205e-9,7.81839950483532e-10,0
41223,3.628226405601628e-10,1.2550381782046986e-9,4.004074800449643e-9,1.2431924951109517e-7,8.111708747429946e-8,6.853743168957338e-8,3.9548012662617215e-9,7.81839950483532e-10,0
41224,3.6487448446917853e-10,1.2569290428293715e-9,4.0199805321193506e-9,1.242188229667518e-7,8.108577183292853e-8,6.849583918204732e-8,3.960980759756238e-9,7.81839950483532e-10,0
41225,3.655373669847073e-10,1.2576250985831044e-9,4.039757315938574e-9,1.24190761258756e-7,8.140741328018745e-8,6.846238867907165e-8,3.971201899250501e-9,7.81862563624006e-10,0
41226,3.6631391238061163e-10,1.2585294500251476e-9,4.039800651155838e-9,1.2408884758193153e-7,8.136002268182952e-8,6.849109920604093e-8,3.96964742001983e-9,7.825993867295795e-10,0
41227,3.662570809404238e-10,1.2586335978693024e-9,4.043476296708994e-9,1.2398918285756973e-7,8.131263208347159e-8,6.847296098411555e-8,3.971454575217585e-9,7.833362098351529e-10,0
41228,3.66200249500236e-10,1.2587377457134575e-9,4.047151942262151e-9,1.2388951813320793e-7,8.126524148511366e-8,6.845482276219017e-8,3.97326173041534e-9,7.840730329407264e-10,0
41229,3.661434180600482e-10,1.2588418935576125e-9,4.050827587815307e-9,1.2378985340884615e-7,8.121785088675573e-8,6.843668454026478e-8,3.9750688856130954e-9,7.848098560462998e-10,0
41230,3.6608658661986036e-10,1.2589460414017676e-9,4.054503233368463e-9,1.2369018868448435e-7,8.11704602883978e-8,6.84185463183394e-8,3.9768760408108506e-9,7.855466791518732e-10,0
41231,3.6602975517967254e-10,1.2590501892459226e-9,4.05817887892162e-9,1.2359052396012257e-7,8.112306969003987e-8,6.840040809641403e-8,3.978683196008606e-9,7.862835022574467e-10,0
41232,3.6531004122395597e-10,1.250061640084413e-9,4.05817887892162e-9,1.2344646108145882e-7,8.09996389033937e-8,6.812087168470438e-8,3.982044830437033e-9,7.862835022574467e-10,0
41233,3.6525320978376815e-10,1.2492614364865248e-9,4.061128062407597e-9,1.2330849276264779e-7,8.098833081532925e-8,6.80726463210715e-8,3.980354114997379e-9,7.850479260346663e-10,0
41234,3.6519637834358033e-10,1.2484612328886369e-9,4.064077245893575e-9,1.2317052444383675e-7,8.09770227272648e-8,6.802442095743861e-8,3.9786633995577246e-9,7.838123498118858e-10,0
41235,3.651395469033925e-10,1.247661029290749e-9,4.067026429379553e-9,1.230325561250257e-7,8.096571463920036e-8,6.797619559380573e-8,3.97697268411807e-9,7.825767735891054e-10,0
41236,3.650827154632047e-10,1.246860825692861e-9,4.06997561286553e-9,1.2289458780621467e-7,8.095440655113591e-8,6.792797023017285e-8,3.975281968678416e-9,7.813411973663249e-10,0
41237,3.650258840230169e-10,1.2460606220949728e-9,4.0729247963515085e-9,1.2275661948740363e-7,8.094309846307147e-8,6.787974486653995e-8,3.973591253238762e-9,7.801056211435446e-10,0
41238,3.6496905258282906e-10,1.2460606220949728e-9,4.084038403445505e-9,1.226195080145243e-7,8.092369546789532e-8,6.780806521730639e-8,3.973591253238762e-9,7.778951518268241e-10,0
41239,3.6491222114264124e-10,1.2460606220949728e-9,4.095152010539502e-9,1.2248239654164494e-7,8.090429247271917e-8,6.773638556807282e-8,3.973591253238762e-9,7.756846825101038e-10,0
41240,3.648553897024534e-10,1.2460606220949728e-9,4.1062656176335e-9,1.223452850687656e-7,8.088488947754303e-8,6.766470591883926e-8,3.973591253238762e-9,7.734742131933834e-10,0
41241,3.647985582622656e-10,1.2460606220949728e-9,4.117379224727496e-9,1.2220817359588627e-7,8.086548648236689e-8,6.75930262696057e-8,3.973591253238762e-9,7.71263743876663e-10,0
41242,3.647417268220778e-10,1.2460606220949728e-9,4.128492831821493e-9,1.2207106212300694e-7,8.084608348719074e-8,6.752134662037213e-8,3.973591253238762e-9,7.690532745599427e-10,0
41243,3.6468489538188997e-10,1.2460606220949728e-9,4.13960643891549e-9,1.219339506501276e-7,8.082668049201459e-8,6.744966697113856e-8,3.973591253238762e-9,7.668428052432223e-10,0
41244,3.6462806394170215e-10,1.2460606220949728e-9,4.1507200460094875e-9,1.2179683917724828e-7,8.080727749683844e-8,6.7377987321905e-8,3.973591253238762e-9,7.646323359265019e-10,0
41245,3.6457123250151433e-10,1.2460606220949728e-9,4.161833653103484e-9,1.2165972770436894e-7,8.07878745016623e-8,6.730630767267144e-8,3.973591253238762e-9,7.624218666097815e-10,0
41246,3.645144010613265e-10,1.2460606220949728e-9,4.172947260197481e-9,1.215226162314896e-7,8.076847150648616e-8,6.723462802343787e-8,3.973591253238762e-9,7.602113972930612e-10,0
41247,3.6656624497034224e-10,1.2458523264066627e-9,4.1719930891803315e-9,1.2140569056955137e-7,8.078978492884314e-8,6.717437276268533e-8,3.968784980520805e-9,7.589758210702807e-10,0
41248,3.68618088879358e-10,1.2456440307183526e-9,4.171038918163181e-9,1.2128876490761315e-7,8.081109835120012e-8,6.711411750193277e-8,3.963978707802847e-9,7.577402448475003e-10,0
41249,3.7066993278837375e-10,1.2454357350300425e-9,4.170084747146032e-9,1.211718392456749e-7,8.08324117735571e-8,6.705386224118022e-8,3.959172435084889e-9,7.565046686247198e-10,0
41250,3.727217766973895e-10,1.2452274393417324e-9,4.169130576128881e-9,1.210549135837367e-7,8.085372519591407e-8,6.699360698042768e-8,3.954366162366931e-9,7.552690924019394e-10,0
41251,3.7477362060640526e-10,1.2450191436534223e-9,4.168176405111732e-9,1.2093798792179845e-7,8.087503861827106e-8,6.693335171967512e-8,3.949559889648974e-9,7.54033516179159e-10,0
41252,3.76825464515421e-10,1.2448108479651124e-9,4.1672222340945815e-9,1.2082106225986024e-7,8.089635204062805e-8,6.687309645892257e-8,3.9447536169310165e-9,7.527979399563785e-10,0
41253,3.788773084244368e-10,1.2446025522768022e-9,4.166268063077432e-9,1.20704136597922e-7,8.091766546298502e-8,6.681284119817002e-8,3.939947344213058e-9,7.515623637335981e-10,0
41254,3.809291523334525e-10,1.2443942565884921e-9,4.165313892060282e-9,1.2058721093598378e-7,8.0938978885342e-8,6.675258593741747e-8,3.935141071495101e-9,7.503267875108176e-10,0
41255,3.8298099624246823e-10,1.241089294352785e-9,4.158971140052034e-9,1.2035958033576663e-7,8.07571727642575e-8,6.651102285086115e-8,3.910708767568919e-9,7.472664293861537e-10,0
41256,3.814342703729012e-10,1.235487869167569e-9,4.143184381170467e-9,1.2003715389304304e-7,8.07966135846885e-8,6.58728323718791e-8,3.910708767568919e-9,7.472212031052056e-10,0
41257,3.7988754450333413e-10,1.229886443982353e-9,4.1273976222889e-9,1.1971472745031945e-7,8.083605440511952e-8,6.523464189289705e-8,3.910708767568919e-9,7.471759768242576e-10,0
41258,3.7834081863376707e-10,1.224285018797137e-9,4.111610863407333e-9,1.1939230100759587e-7,8.087549522555054e-8,6.459645141391501e-8,3.910708767568919e-9,7.471307505433094e-10,0
41259,3.7679409276419997e-10,1.218683593611921e-9,4.095824104525766e-9,1.1906987456487228e-7,8.091493604598154e-8,6.395826093493296e-8,3.910708767568919e-9,7.470855242623613e-10,0
41260,3.752473668946329e-10,1.213082168426705e-9,4.080037345644199e-9,1.187474481221487e-7,8.095437686641256e-8,6.332007045595092e-8,3.910708767568919e-9,7.470402979814133e-10,0
41261,3.724253425119545e-10,1.2103691141005758e-9,4.068327282134815e-9,1.1840147613009575e-7,8.096406478566573e-8,6.267174295994965e-8,3.9447602157479766e-9,7.482306479232457e-10,0
41262,3.6960331812927604e-10,1.2076560597744466e-9,4.056617218625432e-9,1.180555041380428e-7,8.09737527049189e-8,6.202341546394837e-8,3.978811663927034e-9,7.494209978650781e-10,0
41263,3.6666763086622196e-10,1.2053595968249377e-9,4.041058168693836e-9,1.1771390764435354e-7,8.105170332038797e-8,6.143591469321551e-8,4.059596471280644e-9,7.52436129708794e-10,0
41264,3.637319436031679e-10,1.2030631338754287e-9,4.0254991187622404e-9,1.173723111506643e-7,8.112965393585704e-8,6.084841392248265e-8,4.140381278634254e-9,7.554512615525099e-10,0
41265,3.607962563401138e-10,1.2007666709259197e-09,4.009940068830645e-9,1.1703071465697505e-7,8.120760455132611e-8,6.026091315174978e-8,4.221166085987864e-9,7.584663933962259e-10,0
41266,3.5786056907705974e-10,1.1984702079764108e-9,3.994381018899049e-9,1.1668911816328581e-7,8.128555516679518e-8,5.967341238101692e-8,4.301950893341474e-9,7.614815252399417e-10,0
41267,3.5492488181400566e-10,1.1961737450269018e-9,3.978821968967453e-9,1.1634752166959655e-7,8.136350578226426e-8,5.908591161028406e-8,4.382735700695085e-9,7.644966570836577e-10,0
41268,3.519891945509516e-10,1.1938772820773929e-9,3.963262919035858e-9,1.1600592517590731e-7,8.144145639773333e-8,5.8498410839551195e-8,4.463520508048695e-9,7.675117889273737e-10,0
41269,3.490535072878975e-10,1.191580819127884e-9,3.9477038691042614e-9,1.1566432868221807e-7,8.15194070132024e-8,5.7910910068818336e-8,4.544305315402305e-9,7.705269207710896e-10,0
41270,3.4611782002484344e-10,1.1892843561783751e-9,3.932144819172666e-9,1.1532273218852882e-7,8.159735762867146e-8,5.732340929808547e-8,4.6250901227559155e-9,7.735420526148055e-10,0
41271,3.4318213276178936e-10,1.1869878932288662e-9,3.9165857692410705e-9,1.1498113569483957e-7,8.167530824414053e-8,5.6735908527352605e-8,4.7058749301095256e-9,7.765571844585214e-10,0
41272,3.402464454987353e-10,1.1846914302793572e-9,3.901026719309474e-9,1.1463953920115032e-7,8.17532588596096e-8,5.6148407756619745e-8,4.786659737463136e-9,7.795723163022374e-10,0
41273,3.373107582356812e-10,1.1823949673298483e-9,3.885467669377879e-9,1.1429794270746108e-7,8.183120947507867e-8,5.556090698588688e-8,4.867444544816746e-9,7.825874481459532e-10,0
41274,3.3437507097262714e-10,1.1800985043803393e-9,3.869908619446283e-9,1.1395634621377182e-7,8.190916009054775e-8,5.4973406215154014e-8,4.948229352170356e-9,7.856025799896692e-10,0
41275,3.3143938370957306e-10,1.1778020414308303e-9,3.854349569514687e-9,1.1361474972008258e-7,8.198711070601682e-8,5.4385905444421155e-8,5.029014159523966e-9,7.886177118333851e-10,0
41276,3.3215909766528964e-10,1.1778020414308303e-9,3.8484512025427315e-9,1.136079169636149e-7,8.202562050105487e-8,5.4145028843841024e-8,5.108859680522213e-9,7.904424937352687e-10,0
41277,3.328788116210062e-10,1.1799121947955973e-9,3.8484512025427315e-9,1.1326632046992566e-7,8.102151250360223e-8,5.42079315589158e-8,5.190765032685299e-9,7.942170618250321e-10,0
41278,3.335985255767228e-10,1.1820223481603645e-9,3.8484512025427315e-9,1.1292472397623642e-7,8.00174045061496e-8,5.4270834273990585e-8,5.272670384848384e-9,7.979916299147955e-10,0
41279,3.343182395324393e-10,1.1841325015251317e-9,3.8484512025427315e-9,1.1258312748254717e-7,7.901329650869696e-8,5.433373698906536e-8,5.35457573701147e-9,8.01766198004559e-10,0
41280,3.350379534881559e-10,1.1862426548898987e-9,3.8484512025427315e-9,1.1224153098885792e-7,7.800918851124433e-8,5.439663970414014e-8,5.436481089174556e-9,8.055407660943224e-10,0
41281,3.3575766744387247e-10,1.188352808254666e-9,3.8484512025427315e-9,1.1189993449516867e-7,7.700508051379169e-8,5.4459542419214915e-8,5.5183864413376415e-9,8.093153341840857e-10,0
41282,3.3647738139958905e-10,1.1904629616194331e-9,3.8484512025427315e-9,1.1155833800147943e-7,7.600097251633904e-8,5.45224451342897e-8,5.600291793500727e-9,8.130899022738492e-10,0
41283,3.3625642056107946e-10,1.1925731149842e-9,3.84917766460991e-9,1.1121674150779017e-7,7.492860182267051e-8,5.454749781161038e-8,5.606218611028161e-9,8.151075278831512e-10,0
41284,3.360354597225699e-10,1.1913783061132603e-9,3.853026651032123e-9,1.1087624667315598e-7,7.384831755996812e-8,5.4549330869404127e-8,5.607093078687513e-9,8.158669641291987e-10,0
41285,3.360354597225699e-10,1.1892901388520614e-9,3.855108333935479e-9,1.1053201575357799e-7,7.276486849270791e-8,5.4555477861485696e-8,5.613019896214946e-9,8.195510796570659e-10,0
41286,3.360354597225699e-10,1.1872019715908626e-9,3.857190016838834e-9,1.1018778483400001e-7,7.168141942544771e-8,5.4561624853567266e-8,5.618946713742379e-9,8.232351951849332e-10,0
41287,3.360354597225699e-10,1.1851138043296637e-9,3.859271699742191e-9,1.0984355391442202e-7,7.05979703581875e-8,5.4567771845648835e-8,5.624873531269813e-9,8.269193107128005e-10,0
41288,3.360354597225699e-10,1.1830256370684649e-9,3.861353382645546e-9,1.0949932299484403e-7,6.951452129092729e-8,5.4573918837730404e-8,5.630800348797246e-9,8.306034262406678e-10,0
41289,3.360354597225699e-10,1.180937469807266e-9,3.863435065548903e-9,1.0915509207526604e-7,6.843107222366708e-8,5.458006582981197e-8,5.636727166324679e-9,8.342875417685351e-10,0
41290,3.360354597225699e-10,1.1788493025460672e-9,3.8655167484522585e-9,1.0881086115568805e-7,6.734762315640687e-8,5.458621282189354e-8,5.642653983852112e-9,8.379716572964024e-10,0
41291,3.3520208288647767e-10,1.1786519999095413e-9,3.858718578544069e-9,1.0880712507074426e-7,6.734623270206837e-8,5.451258047025284e-8,5.648269905533411e-9,8.409415628591703e-10,0
41292,3.3436870605038545e-10,1.1784546972730153e-9,3.851920408635878e-9,1.0880338898580047e-7,6.734484224772987e-8,5.443894811861213e-8,5.65388582721471e-9,8.439114684219381e-10,0
41293,3.3353532921429324e-10,1.1782573946364894e-9,3.845122238727688e-9,1.0879965290085668e-7,6.734345179339137e-8,5.436531576697143e-8,5.659501748896009e-9,8.46881373984706e-10,0
41294,3.3270195237820103e-10,1.1780600919999634e-9,3.838324068819497e-9,1.0879591681591288e-7,6.734206133905287e-8,5.429168341533072e-8,5.665117670577308e-9,8.498512795474738e-10,0
41295,3.3186857554210887e-10,1.1778627893634373e-9,3.831525898911307e-9,1.0879218073096908e-7,6.734067088471437e-8,5.421805106369002e-8,5.670733592258607e-9,8.528211851102416e-10,0
41296,3.3103519870601665e-10,1.1776654867269114e-9,3.8247277290031166e-9,1.087884446460253e-7,6.733928043037587e-8,5.414441871204931e-8,5.676349513939906e-9,8.557910906730095e-10,0
41297,3.2998086103141485e-10,1.1785698381689546e-9,3.819696862613783e-9,1.0878296748860654e-7,6.739262890947049e-8,5.406463936832704e-8,5.676226475364844e-9,8.550542675674361e-10,0
41298,3.2892652335681305e-10,1.1794741896109975e-9,3.814665996224449e-9,1.0877749033118778e-7,6.744597738856509e-8,5.398486002460477e-8,5.676103436789782e-9,8.543174444618627e-10,0
41299,3.278721856822113e-10,1.1803785410530405e-9,3.809635129835115e-9,1.0877201317376902e-7,6.749932586765971e-8,5.3905080680882496e-8,5.675980398214721e-9,8.535806213562892e-10,0
41300,3.268178480076095e-10,1.1812828924950835e-9,3.8046042634457815e-9,1.0876653601635026e-7,6.755267434675433e-8,5.382530133716022e-8,5.675857359639659e-9,8.528437982507158e-10,0
41301,3.257635103330077e-10,1.1821872439371267e-9,3.799573397056447e-9,1.087610588589315e-7,6.760602282584893e-8,5.3745521993437947e-8,5.675734321064598e-9,8.521069751451422e-10,0
41302,3.247091726584059e-10,1.1830915953791697e-9,3.794542530667113e-9,1.0875558170151273e-7,6.765937130494355e-8,5.366574264971567e-8,5.675611282489536e-9,8.513701520395688e-10,0
41303,3.2365483498380416e-10,1.1839959468212127e-9,3.7895116642777795e-9,1.0875010454409397e-7,6.771271978403817e-8,5.3585963305993404e-8,5.675488243914475e-9,8.506333289339953e-10,0
41304,3.2260049730920236e-10,1.184900298263256e-9,3.784480797888446e-9,1.0874462738667521e-7,6.776606826313278e-8,5.350618396227113e-8,5.675365205339413e-9,8.498965058284219e-10,0
41305,3.2154615963460056e-10,1.185804649705299e-9,3.779449931499112e-9,1.0873915022925645e-7,6.78194167422274e-8,5.3426404618548855e-8,5.675242166764351e-9,8.491596827228484e-10,0
41306,3.2049182195999876e-10,1.185908797549454e-9,3.771383211189272e-9,1.0873355066527602e-7,6.781814114512528e-8,5.334662527482658e-8,5.676991102083056e-9,8.48445472757749e-10,0
41307,3.19437484285397e-10,1.186012945393609e-9,3.7633164908794324e-9,1.0872795110129559e-7,6.781686554802317e-8,5.3266845931104306e-8,5.67874003740176e-9,8.477312627926496e-10,0
41308,3.183831466107952e-10,1.186117093237764e-9,3.755249770569593e-9,1.0872235153731515e-7,6.781558995092106e-8,5.318706658738204e-8,5.680488972720465e-9,8.470170528275502e-10,0
41309,3.173288089361934e-10,1.1862212410819192e-9,3.747183050259752e-9,1.0871675197333472e-7,6.781431435381894e-8,5.310728724365976e-8,5.6822379080391704e-9,8.463028428624508e-10,0
41310,3.1627447126159167e-10,1.1863253889260742e-9,3.739116329949912e-9,1.0871115240935429e-7,6.781303875671682e-8,5.302750789993749e-8,5.683986843357875e-9,8.455886328973513e-10,0
41311,3.1522013358698987e-10,1.1864295367702293e-9,3.731049609640073e-9,1.0870555284537386e-7,6.781176315961472e-8,5.2947728556215214e-8,5.68573577867658e-9,8.448744229322519e-10,0
41312,3.1416579591238807e-10,1.1865336846143843e-9,3.722982889330233e-9,1.0869995328139343e-7,6.78104875625126e-8,5.286794921249294e-8,5.687484713995284e-9,8.441602129671525e-10,0
41313,3.1183615972467494e-10,1.1859417767048063e-9,3.714916169020393e-9,1.086655666969177e-7,6.760098409661587e-8,5.277898342477111e-8,5.6600466937319395e-9,8.434460030020531e-10,0
41314,3.1161519888616535e-10,1.1851415731069184e-9,3.7156859663048358e-9,1.0855825800450911e-7,6.753045734928671e-8,5.2319917045897795e-8,5.632608673468595e-9,8.27656133818374e-10,0
41315,3.1139423804765576e-10,1.1843413695090304e-9,3.716455763589278e-9,1.0845094931210052e-7,6.745993060195755e-8,5.186085066702448e-8,5.605170653205251e-9,8.118662646346949e-10,0
41316,3.111732772091462e-10,1.1835411659111423e-9,3.7172255608737208e-9,1.0834364061969194e-7,6.738940385462839e-8,5.140178428815117e-8,5.577732632941906e-9,7.960763954510159e-10,0
41317,3.109523163706366e-10,1.1827409623132543e-9,3.717995358158163e-9,1.0823633192728334e-7,6.731887710729923e-8,5.094271790927785e-8,5.550294612678562e-9,7.802865262673368e-10,0
41318,3.10731355532127e-10,1.1819407587153664e-9,3.7187651554426057e-9,1.0812902323487475e-7,6.724835035997007e-8,5.0483651530404536e-8,5.522856592415217e-9,7.644966570836577e-10,0
41319,3.105103946936174e-10,1.1811405551174783e-9,3.719534952727048e-9,1.0802171454246616e-7,6.717782361264092e-8,5.002458515153122e-8,5.495418572151872e-9,7.487067878999786e-10,0
41320,3.1244857572225756e-10,1.1803403515195903e-9,3.719491617509784e-9,1.0793138170978365e-7,6.730094915174958e-8,4.958506401065847e-8,5.470156822811468e-9,7.349345443256016e-10,0
41321,3.1438675675089766e-10,1.1795401479217024e-9,3.71944828229252e-9,1.0784104887710113e-7,6.742407469085824e-8,4.914554286978572e-8,5.4448950734710635e-9,7.211623007512245e-10,0
41322,3.1416579591238807e-10,1.1786357964796594e-9,3.7191772381252846e-9,1.0773386259125422e-7,6.735659789085052e-8,4.8686476490912407e-8,5.419141169830413e-9,7.051117484387049e-10,0
41323,3.139448350738785e-10,1.1777314450376162e-9,3.718906193958049e-9,1.076266763054073e-7,6.728912109084279e-8,4.822741011203909e-8,5.393387266189762e-9,6.890611961261853e-10,0
41324,3.137238742353689e-10,1.1768270935955732e-9,3.7186351497908135e-9,1.0751949001956039e-7,6.722164429083507e-8,4.7768343733165774e-8,5.367633362549111e-9,6.730106438136657e-10,0
41325,3.135029133968593e-10,1.1759227421535302e-9,3.718364105623578e-9,1.0741230373371346e-7,6.715416749082735e-8,4.7309277354292464e-8,5.341879458908459e-9,6.569600915011461e-10,0
41326,3.132819525583497e-10,1.175018390711487e-9,3.7180930614563424e-9,1.0730511744786655e-7,6.708669069081962e-8,4.685021097541915e-8,5.3161255552678085e-9,6.409095391886266e-10,0
41327,3.130609917198402e-10,1.174114039269444e-9,3.717822017289107e-9,1.0719793116201963e-7,6.70192138908119e-8,4.639114459654583e-8,5.290371651627158e-9,6.24858986876107e-10,0
41328,3.128400308813306e-10,1.173209687827401e-9,3.7175509731218713e-9,1.0709074487617272e-7,6.695173709080418e-8,4.5932078217672514e-8,5.264617747986507e-9,6.088084345635874e-10,0
41329,3.12619070042821e-10,1.172305336385358e-9,3.7172799289546357e-9,1.0698355859032581e-7,6.688426029079645e-8,4.54730118387992e-8,5.238863844345856e-9,5.927578822510679e-10,0
41330,3.1239810920431143e-10,1.1714009849433148e-9,3.7170088847874e-9,1.0687637230447888e-7,6.681678349078873e-8,4.501394545992589e-8,5.213109940705205e-9,5.767073299385483e-10,0
41331,3.1217714836580184e-10,1.1704966335012718e-9,3.7167378406201646e-9,1.0676918601863197e-7,6.674930669078101e-8,4.455487908105257e-8,5.187356037064554e-9,5.606567776260287e-10,0
41332,3.1195618752729226e-10,1.1695922820592288e-9,3.7164667964529295e-9,1.0666199973278505e-7,6.668182989077328e-8,4.4095812702179255e-8,5.1616021334239034e-9,5.446062253135092e-10,0
41333,3.1173522668878267e-10,1.1686879306171858e-9,3.716195752285694e-9,1.0655481344693814e-7,6.661435309076556e-8,4.363674632330594e-8,5.135848229783253e-9,5.285556730009896e-10,0
41334,3.115142658502731e-10,1.1677835791751426e-9,3.7159247081184584e-9,1.0644762716109123e-7,6.654687629075784e-8,4.317767994443262e-8,5.110094326142602e-9,5.1250512068847e-10,0
41335,3.112933050117635e-10,1.1676794313309876e-9,3.6912037283444295e-9,1.0579264566888173e-7,6.608864920078287e-8,4.299508110438123e-8,5.11140932704011e-9,5.003648153085581e-10,0
41336,3.1023896733716175e-10,1.164095004718168e-9,3.678832603712434e-9,1.0520023648808604e-7,6.596017345434644e-8,4.27721467269286e-8,5.114032730018167e-9,5.001041321797175e-10,0
41337,3.0918462966255995e-10,1.160510578105348e-9,3.6664614790804388e-9,1.0460782730729035e-7,6.583169770791001e-8,4.2549212349475975e-8,5.116656132996224e-9,4.99843449050877e-10,0
41338,3.0813029198795815e-10,1.1569261514925282e-9,3.6540903544484436e-9,1.0401541812649466e-7,6.57032219614736e-8,4.232627797202334e-8,5.119279535974281e-9,4.995827659220366e-10,0
41339,3.0707595431335635e-10,1.1533417248797085e-9,3.6417192298164484e-9,1.0342300894569897e-7,6.557474621503716e-8,4.210334359457072e-8,5.121902938952339e-9,4.99322082793196e-10,0
41340,3.060216166387546e-10,1.1497572982668886e-9,3.6293481051844532e-9,1.0283059976490327e-7,6.544627046860073e-8,4.1880409217118086e-8,5.124526341930396e-9,4.990613996643555e-10,0
41341,3.049672789641528e-10,1.146172871654069e-9,3.6169769805524576e-9,1.0223806817754591e-7,6.531462991760648e-8,4.166133695405082e-8,5.123593654391993e-9,4.990613996643555e-10,0
41342,3.03912941289551e-10,1.1423911424047232e-9,3.6056466973721407e-9,1.0165113615416899e-7,6.518420753509616e-8,4.1440478566404565e-8,5.122784005428651e-9,4.990387865238815e-10,0
41343,3.0285860361494926e-10,1.1386094131553773e-9,3.5935466169073807e-9,1.010598560130399e-7,6.505550207418696e-8,4.121962017875831e-8,5.121851317890248e-9,5.009885727117614e-10,0
41344,3.0180426594034746e-10,1.1348276839060315e-9,3.581446536442621e-9,1.0046857587191081e-7,6.492679661327775e-8,4.0998761791112046e-8,5.1209186303518454e-9,5.029383588996412e-10,0
41345,3.0074992826574566e-10,1.131045954656686e-9,3.5693464559778614e-9,9.987729573078172e-8,6.479809115236856e-8,4.077790340346579e-8,5.119985942813443e-9,5.048881450875211e-10,0
41346,2.9969559059114386e-10,1.1272642254073401e-9,3.5572463755131014e-9,9.928601558965264e-8,6.466938569145936e-8,4.055704501581953e-8,5.11905325527504e-9,5.068379312754009e-10,0
41347,2.986412529165421e-10,1.1234824961579943e-9,3.5451462950483417e-9,9.869473544852355e-8,6.454068023055015e-8,4.0336186628173277e-8,5.118120567736637e-9,5.087877174632808e-10,0
41348,2.975869152419403e-10,1.1197007669086485e-9,3.533046214583582e-9,9.810345530739446e-8,6.441197476964096e-8,4.0115328240527014e-8,5.117187880198234e-9,5.107375036511607e-10,0
41349,2.965325775673385e-10,1.115919037659303e-9,3.520946134118822e-9,9.751217516626537e-8,6.428326930873175e-8,3.989446985288076e-8,5.116255192659831e-9,5.126872898390405e-10,0
41350,2.954782398927367e-10,1.112137308409957e-9,3.5088460536540624e-9,9.692089502513629e-8,6.415456384782255e-8,3.96736114652345e-8,5.115322505121428e-9,5.146370760269204e-10,0
41351,2.9442390221813497e-10,1.1083555791606113e-9,3.4967459731893028e-9,9.63296148840072e-8,6.402585838691336e-8,3.945275307758824e-8,5.114389817583025e-9,5.165868622148002e-10,0
41352,2.9336956454353317e-10,1.1045738499112657e-9,3.4846458927245427e-9,9.573833474287811e-8,6.389715292600415e-8,3.923189468994198e-8,5.113457130044622e-9,5.185366484026801e-10,0
41353,2.9231522686893137e-10,1.1007921206619199e-9,3.472545812259783e-9,9.514705460174902e-8,6.376844746509495e-8,3.9011036302295725e-8,5.112524442506219e-9,5.2048643459056e-10,0
41354,2.9126088919432957e-10,1.097903749802833e-9,3.462484079481115e-9,9.45552665806322e-8,6.363692177133709e-8,3.878872858851259e-8,5.112524442506219e-9,5.202257514617195e-10,0
41355,2.902065515197278e-10,1.095015378943746e-9,3.4524223467024477e-9,9.39634785595154e-8,6.350539607757922e-8,3.856642087472946e-8,5.112524442506219e-9,5.19965068332879e-10,0
41356,2.89152213845126e-10,1.0921270080846593e-9,3.4423606139237797e-9,9.337169053839858e-8,6.337387038382136e-8,3.834411316094633e-8,5.112524442506219e-9,5.197043852040384e-10,0
41357,2.880978761705242e-10,1.0892386372255725e-9,3.4322988811451122e-9,9.277990251728178e-8,6.32423446900635e-8,3.8121805447163195e-8,5.112524442506219e-9,5.19443702075198e-10,0
41358,2.8787691533201463e-10,1.0899346929793054e-9,3.4346082729984395e-9,9.276158931224783e-8,6.322345855245109e-8,3.8107085785659616e-8,5.111216040425671e-9,5.1842358270031e-10,0
41359,2.869362405377885e-10,1.0815380517273735e-9,3.406981444955697e-9,9.210722897971722e-8,6.257734948813995e-8,3.8059691350433e-8,5.095884331184277e-9,5.181628995714695e-10,0
41360,2.8599556574356236e-10,1.0731414104754414e-9,3.3793546169129543e-9,9.14528686471866e-8,6.19312404238288e-8,3.8012296915206386e-8,5.080552621942882e-9,5.179022164426289e-10,0
41361,2.850548909493362e-10,1.0647447692235096e-9,3.3517277888702117e-9,9.079850831465599e-8,6.128513135951766e-8,3.796490247997977e-8,5.065220912701488e-9,5.176415333137885e-10,0
41362,2.841142161551101e-10,1.0563481279715777e-9,3.324100960827469e-9,9.014414798212538e-8,6.063902229520651e-8,3.7917508044753156e-8,5.049889203460094e-9,5.17380850184948e-10,0
41363,2.834513336395813e-10,1.0473595788100678e-9,3.295205582383077e-9,8.948978764959478e-8,5.999823628155333e-8,3.7869486945857045e-8,5.0354967805740625e-9,5.173582370444739e-10,0
41364,2.8278845112405256e-10,1.038371029648558e-9,3.2663102039386847e-9,8.883542731706417e-8,5.9357450267900154e-8,3.7821465846960934e-8,5.021104357688032e-9,5.173356239039999e-10,0
41365,2.8212556860852386e-10,1.0293824804870482e-9,3.2374148254942927e-9,8.818106698453355e-8,5.871666425424697e-8,3.777344474806482e-8,5.006711934802001e-9,5.173130107635259e-10,0
41366,2.814626860929951e-10,1.0203939313255383e-9,3.2085194470499007e-9,8.752670665200294e-8,5.807587824059379e-8,3.772542364916871e-8,4.99231951191597e-9,5.172903976230518e-10,0
41367,2.8079980357746634e-10,1.0114053821640286e-9,3.1796240686055087e-9,8.687234631947233e-8,5.743509222694061e-8,3.7677402550272595e-8,4.977927089029939e-9,5.172677844825778e-10,0
41368,2.8013692106193763e-10,1.0024168330025187e-9,3.1507286901611167e-9,8.621798598694173e-8,5.679430621328743e-8,3.7629381451376484e-8,4.963534666143908e-9,5.172451713421038e-10,0
41369,2.7947403854640887e-10,9.93428283841009e-10,3.1218333117167243e-9,8.556362565441112e-8,5.615352019963425e-8,3.758136035248037e-8,4.9491422432578775e-9,5.172225582016298e-10,0
41370,2.788111560308801e-10,9.84439734679499e-10,3.0929379332723322e-9,8.49092653218805e-8,5.551273418598107e-8,3.753333925358426e-8,4.934749820371846e-9,5.171999450611556e-10,0
41371,2.781482735153514e-10,9.754511855179892e-10,3.0640425548279402e-9,8.425490498934989e-8,5.487194817232789e-8,3.748531815468815e-8,4.920357397485815e-9,5.171773319206816e-10,0
41372,2.781482735153514e-10,9.746509819201012e-10,3.064129225262468e-9,8.425490498934989e-8,5.487422127566441e-8,3.745587883168099e-8,4.9097671422663675e-9,5.171547187802076e-10,0
41373,2.782051049555392e-10,9.738507783222133e-10,3.0649423577641748e-9,8.381041556634279e-8,5.4233435262011235e-8,3.7275466379743244e-8,4.902480301596296e-9,5.171321056397335e-10,0
41374,2.7826193639572704e-10,9.730505747243251e-10,3.0657554902658814e-9,8.336592614333567e-8,5.3592649248358053e-8,3.7095053927805496e-8,4.895193460926224e-9,5.171094924992595e-10,0
41375,2.7831876783591486e-10,9.722503711264372e-10,3.066568622767588e-9,8.292143672032857e-8,5.295186323470487e-8,3.691464147586775e-8,4.887906620256153e-9,5.170868793587855e-10,0
41376,2.783755992761027e-10,9.714501675285493e-10,3.0673817552692947e-9,8.247694729732147e-8,5.231107722105169e-8,3.6734229023930004e-8,4.880619779586081e-9,5.170642662183115e-10,0
41377,2.784324307162905e-10,9.706499639306611e-10,3.068194887771001e-9,8.203245787431435e-8,5.167029120739851e-8,3.655381657199226e-8,4.87333293891601e-9,5.170416530778374e-10,0
41378,2.784892621564783e-10,9.706499639306611e-10,3.0682382229882653e-9,8.158734729162836e-8,5.1029505193745326e-8,3.637332314271697e-8,4.8639862670811e-9,5.177558630429369e-10,0
41379,2.7854609359666613e-10,9.706499639306611e-10,3.0682815582055293e-9,8.114223670894238e-8,5.0388719180092144e-8,3.6192829713441684e-8,4.854639595246189e-9,5.184700730080363e-10,0
41380,2.7860292503685395e-10,9.706499639306611e-10,3.0683248934227932e-9,8.069712612625638e-8,4.974793316643896e-8,3.60123362841664e-8,4.845292923411278e-9,5.191842829731357e-10,0
41381,2.7865975647704177e-10,9.706499639306611e-10,3.068368228640057e-9,8.02520155435704e-8,4.910714715278578e-8,3.5831842854891106e-8,4.835946251576368e-9,5.198984929382351e-10,0
41382,2.787165879172296e-10,9.706499639306611e-10,3.0684115638573215e-9,7.980690496088441e-8,4.8466361139132604e-8,3.565134942561582e-8,4.826599579741457e-9,5.206127029033345e-10,0
