"time" "channel1" "channel2" "channel3" "channel4" "channel5" "channel6" "channel7" "channel8"
"1" 9409 1.90761636221455e-08 1.11680507447895e-08 2.5552659864167e-09 6.43107271620381e-09 1.63676239080096e-08 8.74792884346443e-09 1.87907917732894e-08 1.24289386939268e-08
"2" 9410 1.91025935735065e-08 1.1132105146801e-08 2.54712029970447e-09 6.43107271620381e-09 1.63043751384775e-08 8.74585399670075e-09 1.87462461422868e-08 1.24085234414419e-08
"3" 9411 1.91290235248676e-08 1.10961595488125e-08 2.53897461299223e-09 6.43107271620381e-09 1.62411263689453e-08 8.74377914993708e-09 1.87017005112842e-08 1.23881081889569e-08
"4" 9412 1.91554534762286e-08 1.1060213950824e-08 2.53082892628e-09 6.43107271620381e-09 1.61778775994132e-08 8.74170430317340e-09 1.86571548802816e-08 1.2367692936472e-08
"5" 9413 1.92150134690002e-08 1.10595926778607e-08 2.52160291491489e-09 6.42513448998935e-09 1.61132718850592e-08 8.74317051905164e-09 1.86546972927001e-08 1.24959425515807e-08
"6" 9414 1.92745734617718e-08 1.10589714048974e-08 2.51237690354979e-09 6.4191962637749e-09 1.60486661707052e-08 8.74463673492988e-09 1.86522397051187e-08 1.26241921666895e-08
"7" 9415 1.93341334545434e-08 1.10583501319341e-08 2.50315089218468e-09 6.41325803756044e-09 1.59840604563511e-08 8.74610295080812e-09 1.86497821175373e-08 1.27524417817982e-08
"8" 9416 1.9393693447315e-08 1.10577288589707e-08 2.49392488081957e-09 6.40731981134598e-09 1.59194547419971e-08 8.74756916668637e-09 1.86473245299558e-08 1.28806913969069e-08
"9" 9417 1.94532534400866e-08 1.10571075860074e-08 2.48469886945447e-09 6.40138158513153e-09 1.58548490276431e-08 8.74903538256461e-09 1.86448669423744e-08 1.30089410120156e-08
"10" 9418 1.95128134328582e-08 1.10564863130441e-08 2.47547285808936e-09 6.39544335891707e-09 1.57902433132891e-08 8.75050159844285e-09 1.86424093547929e-08 1.31371906271244e-08
"11" 9419 1.95723734256297e-08 1.10558650400808e-08 2.46624684672425e-09 6.38950513270262e-09 1.5725637598935e-08 8.7519678143211e-09 1.86399517672115e-08 1.32654402422331e-08
"12" 9420 1.95742262203401e-08 1.10237377495918e-08 2.45731162112698e-09 6.38330972806422e-09 1.5661031884581e-08 8.76210254525494e-09 1.86532904402086e-08 1.32395401121316e-08
"13" 9421 1.95760790150506e-08 1.09916104591028e-08 2.44837639552971e-09 6.37711432342582e-09 1.5596426170227e-08 8.77223727618878e-09 1.86666291132056e-08 1.32136399820301e-08
"14" 9422 1.9577931809761e-08 1.09954287666022e-08 2.44866718129754e-09 6.37484652880238e-09 1.56027290347744e-08 8.78090579124438e-09 1.87163695281579e-08 1.32136399820301e-08
"15" 9423 1.95797846044714e-08 1.09992470741017e-08 2.44895796706538e-09 6.37257873417893e-09 1.56090318993219e-08 8.78957430629998e-09 1.87661099431102e-08 1.32136399820301e-08
"16" 9424 1.95816373991818e-08 1.10030653816012e-08 2.44924875283321e-09 6.37031093955549e-09 1.56153347638693e-08 8.79824282135558e-09 1.88158503580625e-08 1.32136399820301e-08
"17" 9425 1.95834901938922e-08 1.10068836891006e-08 2.44953953860104e-09 6.36804314493204e-09 1.56216376284167e-08 8.80691133641118e-09 1.88655907730147e-08 1.32136399820301e-08
"18" 9426 1.95853429886026e-08 1.10107019966001e-08 2.44983032436888e-09 6.36577535030859e-09 1.56279404929642e-08 8.81557985146678e-09 1.8915331187967e-08 1.32136399820301e-08
"19" 9427 1.9587195783313e-08 1.10145203040996e-08 2.45012111013671e-09 6.36350755568515e-09 1.56342433575116e-08 8.82424836652238e-09 1.89650716029193e-08 1.32136399820301e-08
"20" 9428 1.95890485780234e-08 1.1018338611599e-08 2.45041189590454e-09 6.3612397610617e-09 1.5640546222059e-08 8.83291688157799e-09 1.90148120178716e-08 1.32136399820301e-08
"21" 9429 1.95909013727338e-08 1.10221569190985e-08 2.45070268167238e-09 6.35897196643826e-09 1.56468490866065e-08 8.84158539663358e-09 1.90645524328238e-08 1.32136399820301e-08
"22" 9430 1.95838506931019e-08 1.10015716974044e-08 2.44887330604047e-09 6.22723120983979e-09 1.54550637407297e-08 8.82347061582443e-09 1.90467611597765e-08 1.32246798012497e-08
"23" 9431 1.957680001347e-08 1.09809864757103e-08 2.44704393040856e-09 6.09549045324131e-09 1.52632783948529e-08 8.80535583501527e-09 1.90289698867291e-08 1.32357196204694e-08
"24" 9432 1.95697493338381e-08 1.09604012540162e-08 2.44521455477666e-09 5.96374969664283e-09 1.50714930489761e-08 8.78724105420612e-09 1.90111786136818e-08 1.3246759439689e-08
"25" 9433 1.95626986542062e-08 1.09398160323221e-08 2.44338517914475e-09 5.83200894004436e-09 1.48797077030994e-08 8.76912627339696e-09 1.89933873406344e-08 1.32577992589086e-08
"26" 9434 1.95556479745743e-08 1.0919230810628e-08 2.44155580351284e-09 5.70026818344589e-09 1.46879223572226e-08 8.75101149258781e-09 1.89755960675871e-08 1.32688390781283e-08
"27" 9435 1.95485972949424e-08 1.08986455889339e-08 2.43972642788093e-09 5.56852742684741e-09 1.44961370113458e-08 8.73289671177865e-09 1.89578047945397e-08 1.32798788973479e-08
"28" 9436 1.95379111438061e-08 1.08780603672398e-08 2.4468322778463e-09 5.43678667024894e-09 1.43603881138424e-08 8.7061134159139e-09 1.91273193517823e-08 1.32821064737151e-08
"29" 9437 1.95379111438061e-08 1.08838408888134e-08 2.49416965086207e-09 5.32531563168539e-09 1.41579920513396e-08 8.68743979504078e-09 1.90454948981567e-08 1.32885566389182e-08
"30" 9438 1.95379111438061e-08 1.0889621410387e-08 2.54150702387783e-09 5.21384459312183e-09 1.39555959888368e-08 8.66876617416766e-09 1.8963670444531e-08 1.32950068041214e-08
"31" 9439 1.95379111438061e-08 1.08954019319606e-08 2.5888443968936e-09 5.10237355455828e-09 1.37531999263339e-08 8.65009255329455e-09 1.88818459909054e-08 1.33014569693245e-08
"32" 9440 1.95379111438061e-08 1.09011824535341e-08 2.63618176990936e-09 4.99090251599473e-09 1.35508038638311e-08 8.63141893242143e-09 1.88000215372798e-08 1.33079071345277e-08
"33" 9441 1.95379111438061e-08 1.09069629751077e-08 2.68351914292513e-09 4.87943147743118e-09 1.33484078013283e-08 8.61274531154831e-09 1.87181970836542e-08 1.33143572997308e-08
"34" 9442 1.95379111438061e-08 1.09127434966813e-08 2.73085651594089e-09 4.76796043886763e-09 1.31460117388254e-08 8.59407169067519e-09 1.86363726300286e-08 1.3320807464934e-08
"35" 9443 1.95379111438061e-08 1.09185240182549e-08 2.77819388895666e-09 4.65648940030408e-09 1.29436156763226e-08 8.57539806980207e-09 1.8554548176403e-08 1.33272576301371e-08
"36" 9444 1.95342776542273e-08 1.09487598417689e-08 2.82657109871929e-09 4.66073660366568e-09 1.29021262912413e-08 8.57860004791650e-09 1.84818687358596e-08 1.33339403592386e-08
"37" 9445 1.94380222664573e-08 1.09307037592105e-08 2.86039980705802e-09 4.6509175786283e-09 1.28269098602612e-08 8.58841544167093e-09 1.84675759702336e-08 1.33372312858085e-08
"38" 9446 1.93417668786873e-08 1.0912647676652e-08 2.89422851539674e-09 4.64109855359092e-09 1.27516934292811e-08 8.59823083542537e-09 1.84532832046076e-08 1.33405222123785e-08
"39" 9447 1.92455114909172e-08 1.08945915940935e-08 2.92805722373547e-09 4.63127952855353e-09 1.26764769983011e-08 8.6080462291798e-09 1.84389904389817e-08 1.33438131389484e-08
"40" 9448 1.91492561031472e-08 1.0876535511535e-08 2.96188593207419e-09 4.62146050351615e-09 1.2601260567321e-08 8.61786162293424e-09 1.84246976733557e-08 1.33471040655183e-08
"41" 9449 1.90530007153772e-08 1.08584794289766e-08 2.99571464041291e-09 4.61164147847877e-09 1.25260441363409e-08 8.62767701668867e-09 1.84104049077297e-08 1.33503949920882e-08
"42" 9450 1.89691420556954e-08 1.0810187522904e-08 2.98245443099125e-09 4.5825346379102e-09 1.24765330899377e-08 8.70706889274472e-09 1.85083641536794e-08 1.35678205392154e-08
"43" 9451 1.88617738635139e-08 1.0781638650532e-08 2.98665242327828e-09 4.57257517929674e-09 1.24270220435346e-08 8.70602159568883e-09 1.84940713880534e-08 1.35642956420744e-08
"44" 9452 1.87544056713324e-08 1.07530897781599e-08 2.99085041556531e-09 4.56261572068328e-09 1.23775109971314e-08 8.70497429863294e-09 1.84797786224274e-08 1.35607707449334e-08
"45" 9453 1.86470374791509e-08 1.07245409057879e-08 2.99504840785234e-09 4.55265626206981e-09 1.23279999507282e-08 8.70392700157705e-09 1.84654858568014e-08 1.35572458477924e-08
"46" 9454 1.85396692869694e-08 1.06959920334158e-08 2.99924640013937e-09 4.54269680345635e-09 1.22784889043251e-08 8.70287970452117e-09 1.84511930911754e-08 1.35537209506514e-08
"47" 9455 1.84323010947879e-08 1.06674431610438e-08 3.0034443924264e-09 4.53273734484289e-09 1.22289778579219e-08 8.70183240746528e-09 1.84369003255495e-08 1.35501960535105e-08
"48" 9456 1.83249329026064e-08 1.06388942886717e-08 3.00764238471343e-09 4.52277788622942e-09 1.21794668115187e-08 8.70078511040939e-09 1.84226075599235e-08 1.35466711563695e-08
"49" 9457 1.82175647104248e-08 1.06103454162997e-08 3.01184037700046e-09 4.51281842761596e-09 1.21299557651156e-08 8.6997378133535e-09 1.84083147942975e-08 1.35431462592285e-08
"50" 9458 1.81101965182433e-08 1.05817965439276e-08 3.01603836928749e-09 4.50285896900249e-09 1.20804447187124e-08 8.69869051629761e-09 1.83940220286715e-08 1.35396213620875e-08
"51" 9459 1.80028283260618e-08 1.05532476715556e-08 3.02023636157452e-09 4.49289951038903e-09 1.20309336723092e-08 8.69764321924173e-09 1.83797292630455e-08 1.35360964649465e-08
"52" 9460 1.78954601338803e-08 1.05246987991836e-08 3.02443435386155e-09 4.48294005177557e-09 1.19814226259061e-08 8.69659592218584e-09 1.83654364974195e-08 1.35325715678055e-08
"53" 9461 1.77880919416988e-08 1.04961499268115e-08 3.02863234614858e-09 4.4729805931621e-09 1.19319115795029e-08 8.69554862512995e-09 1.83511437317935e-08 1.35290466706645e-08
"54" 9462 1.76807237495173e-08 1.04676010544395e-08 3.0328303384356e-09 4.46302113454864e-09 1.18824005330997e-08 8.69450132807406e-09 1.83368509661675e-08 1.35255217735235e-08
"55" 9463 1.75733555573357e-08 1.04390521820674e-08 3.03702833072263e-09 4.45306167593517e-09 1.18328894866966e-08 8.69345403101818e-09 1.83225582005416e-08 1.35219968763825e-08
"56" 9464 1.74659873651542e-08 1.04105033096954e-08 3.04122632300966e-09 4.44310221732171e-09 1.17833784402934e-08 8.69240673396229e-09 1.83082654349156e-08 1.35184719792415e-08
"57" 9465 1.73586191729727e-08 1.03819544373233e-08 3.04542431529669e-09 4.43314275870825e-09 1.17338673938902e-08 8.6913594369064e-09 1.82939726692896e-08 1.35149470821006e-08
"58" 9466 1.72512509807912e-08 1.03534055649513e-08 3.04962230758372e-09 4.42318330009478e-09 1.16843563474871e-08 8.69031213985051e-09 1.82796799036636e-08 1.35114221849596e-08
"59" 9467 1.72459088961858e-08 1.03248566925792e-08 3.04492556217948e-09 4.35343588233918e-09 1.12795569823863e-08 8.49476057830671e-09 1.82552482365214e-08 1.33821764702892e-08
"60" 9468 1.72251015010961e-08 1.03356903421143e-08 3.0647523805433e-09 4.37356516679803e-09 1.12892142175895e-08 8.47129943444989e-09 1.81318561993946e-08 1.33725012224844e-08
"61" 9469 1.72042941060063e-08 1.03465239916494e-08 3.08457919890711e-09 4.39369445125687e-09 1.12988714527927e-08 8.44783829059307e-09 1.80084641622677e-08 1.33628259746797e-08
"62" 9470 1.71834867109166e-08 1.03573576411845e-08 3.10440601727092e-09 4.41382373571571e-09 1.13085286879959e-08 8.42437714673624e-09 1.78850721251409e-08 1.3353150726875e-08
"63" 9471 1.71626793158268e-08 1.03681912907196e-08 3.12423283563473e-09 4.43395302017455e-09 1.13181859231991e-08 8.40091600287942e-09 1.77616800880141e-08 1.33434754790703e-08
"64" 9472 1.71450767751152e-08 1.03601076953504e-08 3.12805722373547e-09 4.43419459486782e-09 1.1304042323306e-08 8.39693627406704e-09 1.76748536320146e-08 1.33382553839999e-08
"65" 9473 1.71274742344036e-08 1.03548613004436e-08 3.13042584039059e-09 4.44046801815959e-09 1.12986048905584e-08 8.37260724909213e-09 1.75564635972617e-08 1.33382553839999e-08
"66" 9474 1.7109871693692e-08 1.03496149055368e-08 3.13279445704571e-09 4.44674144145137e-09 1.12931674578107e-08 8.34827822411722e-09 1.74380735625088e-08 1.33382553839999e-08
"67" 9475 1.70922691529804e-08 1.034436851063e-08 3.13516307370083e-09 4.45301486474315e-09 1.1287730025063e-08 8.32394919914231e-09 1.73196835277559e-08 1.33382553839999e-08
"68" 9476 1.70746666122688e-08 1.03391221157233e-08 3.13753169035595e-09 4.45928828803492e-09 1.12822925923154e-08 8.29962017416739e-09 1.7201293493003e-08 1.33382553839999e-08
"69" 9477 1.70570640715572e-08 1.03338757208165e-08 3.13990030701107e-09 4.4655617113267e-09 1.12768551595677e-08 8.27529114919248e-09 1.70829034582501e-08 1.33382553839999e-08
"70" 9478 1.70394615308456e-08 1.03286293259097e-08 3.1422689236662e-09 4.47183513461848e-09 1.127141772682e-08 8.25096212421757e-09 1.69645134234972e-08 1.33382553839999e-08
"71" 9479 1.7021858990134e-08 1.02760177840656e-08 3.14048187854674e-09 4.47584076328681e-09 1.12829819248689e-08 8.24195452463447e-09 1.69736692899808e-08 1.33241557954359e-08
"72" 9480 1.70042564494224e-08 1.02234062422215e-08 3.13869483342729e-09 4.47984639195514e-09 1.12945461229178e-08 8.23294692505136e-09 1.69828251564645e-08 1.33100562068719e-08
"73" 9481 1.69866539087108e-08 1.01707947003774e-08 3.13690778830783e-09 4.48385202062347e-09 1.13061103209667e-08 8.22393932546826e-09 1.69919810229481e-08 1.3295956618308e-08
"74" 9482 1.69690513679992e-08 1.01181831585333e-08 3.13512074318838e-09 4.4878576492918e-09 1.13176745190157e-08 8.21493172588516e-09 1.70011368894318e-08 1.3281857029744e-08
"75" 9483 1.69514488272876e-08 1.00655716166893e-08 3.13333369806892e-09 4.49186327796014e-09 1.13292387170646e-08 8.20592412630205e-09 1.70102927559154e-08 1.32677574411801e-08
"76" 9484 1.6933846286576e-08 1.00129600748452e-08 3.13154665294947e-09 4.49586890662847e-09 1.13408029151135e-08 8.19691652671895e-09 1.70194486223991e-08 1.32536578526161e-08
"77" 9485 1.69162437458644e-08 9.96034853300108e-09 3.12975960783001e-09 4.4998745352968e-09 1.13523671131624e-08 8.18790892713584e-09 1.70286044888828e-08 1.32395582640521e-08
"78" 9486 1.68986412051528e-08 9.90773699115699e-09 3.12797256271056e-09 4.50388016396513e-09 1.13639313112113e-08 8.17890132755274e-09 1.70377603553664e-08 1.32254586754882e-08
"79" 9487 1.66341677629766e-08 9.81239057462879e-09 3.11841159245872e-09 4.50122284233921e-09 1.13771726945881e-08 8.17890132755274e-09 1.6827425054474e-08 1.28980398466839e-08
"80" 9488 1.66005330226724e-08 9.7910805344775e-09 3.11433874910261e-09 4.44353103678309e-09 1.13462940261328e-08 8.16989372796964e-09 1.68133142170224e-08 1.29051218596137e-08
"81" 9489 1.65668982823682e-08 9.76977049432621e-09 3.11026590574649e-09 4.38583923122696e-09 1.13154153576775e-08 8.16088612838653e-09 1.67992033795708e-08 1.29122038725435e-08
"82" 9490 1.6533263542064e-08 9.74846045417491e-09 3.10619306239037e-09 4.32814742567084e-09 1.12845366892222e-08 8.15187852880343e-09 1.67850925421192e-08 1.29192858854733e-08
"83" 9491 1.64996288017599e-08 9.72715041402362e-09 3.10212021903426e-09 4.27045562011472e-09 1.1253658020767e-08 8.14287092922033e-09 1.67709817046676e-08 1.29263678984031e-08
"84" 9492 1.64659940614557e-08 9.70584037387233e-09 3.09804737567814e-09 4.21276381455859e-09 1.12227793523117e-08 8.13386332963722e-09 1.6756870867216e-08 1.29334499113329e-08
"85" 9493 1.64323593211515e-08 9.68453033372103e-09 3.09397453232202e-09 4.15507200900247e-09 1.11919006838564e-08 8.12485573005412e-09 1.67427600297644e-08 1.29405319242627e-08
"86" 9494 1.63987245808474e-08 9.66322029356974e-09 3.08990168896591e-09 4.09738020344634e-09 1.11610220154011e-08 8.11584813047102e-09 1.67286491923128e-08 1.29476139371925e-08
"87" 9495 1.63711489597171e-08 9.64412875607241e-09 3.08558039035441e-09 4.04234571951614e-09 1.11634645160805e-08 8.1075487434163e-09 1.67654220262177e-08 1.29795355433664e-08
"88" 9496 1.63340950474344e-08 9.62125428462519e-09 3.08150754699830e-09 4.0143843374912e-09 1.12221828961113e-08 8.19728396491489e-09 1.67765584339683e-08 1.29837581322024e-08
"89" 9497 1.62970411351517e-08 9.59837981317797e-09 3.07743470364218e-09 3.98642295546626e-09 1.1280901276142e-08 8.28701918641349e-09 1.6787694841719e-08 1.29879807210384e-08
"90" 9498 1.62599872228691e-08 9.57550534173075e-09 3.07336186028606e-09 3.95846157344131e-09 1.13396196561728e-08 8.37675440791209e-09 1.67988312494696e-08 1.29922033098744e-08
"91" 9499 1.62229333105864e-08 9.55263087028354e-09 3.06928901692995e-09 3.93050019141637e-09 1.13983380362035e-08 8.46648962941069e-09 1.68099676572203e-08 1.29964258987104e-08
"92" 9500 1.61858793983037e-08 9.52975639883632e-09 3.06521617357383e-09 3.90253880939143e-09 1.14570564162343e-08 8.55622485090928e-09 1.68211040649709e-08 1.30006484875464e-08
"93" 9501 1.6148825486021e-08 9.5068819273891e-09 3.06114333021771e-09 3.87457742736649e-09 1.1515774796265e-08 8.64596007240788e-09 1.68322404727216e-08 1.30048710763824e-08
"94" 9502 1.60306269430194e-08 9.44577775851e-09 3.0574845789539e-09 3.88049253111714e-09 1.16132638450033e-08 8.7407626593734e-09 1.67710215004726e-08 1.30002814223659e-08
"95" 9503 1.59124284000177e-08 9.38467358963089e-09 3.05382582769009e-09 3.88640763486779e-09 1.17107528937415e-08 8.83556524633892e-09 1.67098025282237e-08 1.29956917683494e-08
"96" 9504 1.57942298570161e-08 9.32356942075179e-09 3.05016707642627e-09 3.89232273861844e-09 1.18082419424797e-08 8.93036783330444e-09 1.66485835559747e-08 1.29911021143329e-08
"97" 9505 1.56760313140144e-08 9.26246525187268e-09 3.04650832516246e-09 3.8982378423691e-09 1.1905730991218e-08 9.02517042026996e-09 1.65873645837258e-08 1.29865124603164e-08
"98" 9506 1.55578327710128e-08 9.20136108299358e-09 3.04284957389864e-09 3.90415294611975e-09 1.20032200399562e-08 9.11997300723547e-09 1.65261456114768e-08 1.29819228062999e-08
"99" 9507 1.54396342280111e-08 9.14025691411447e-09 3.03919082263483e-09 3.9100680498704e-09 1.21007090886945e-08 9.21477559420099e-09 1.64649266392279e-08 1.29773331522835e-08
"100" 9508 1.53280636752171e-08 9.07915274523536e-09 3.03528361611563e-09 3.88096120930183e-09 1.20986236132375e-08 9.21984295966791e-09 1.63862766324799e-08 1.30095839782992e-08
"101" 9509 1.5216493122423e-08 9.01804857635626e-09 3.03137640959644e-09 3.85185436873327e-09 1.20965381377806e-08 9.22491032513484e-09 1.63076266257319e-08 1.3041834804315e-08
"102" 9510 1.52249758892665e-08 9.01400677867166e-09 3.0232307228842e-09 3.85185436873327e-09 1.20776295441382e-08 9.25651118745668e-09 1.64946807514873e-08 1.30364802079624e-08
"103" 9511 1.52174244745919e-08 9.01646517070811e-09 3.01782909961983e-09 3.85999797464846e-09 1.20844263350728e-08 9.44930973318179e-09 1.64946807514873e-08 1.30215834584145e-08
"104" 9512 1.52098730599173e-08 9.01892356274457e-09 3.01242747635546e-09 3.86814158056366e-09 1.20912231260074e-08 9.6421082789069e-09 1.64946807514873e-08 1.30066867088667e-08
"105" 9513 1.52023216452427e-08 9.02138195478102e-09 3.00702585309109e-09 3.87628518647886e-09 1.2098019916942e-08 9.83490682463201e-09 1.64946807514873e-08 1.29917899593188e-08
"106" 9514 1.51947702305681e-08 9.02384034681747e-09 3.00162422982672e-09 3.88442879239406e-09 1.21048167078766e-08 1.00277053703571e-08 1.64946807514873e-08 1.2976893209771e-08
"107" 9515 1.51872188158936e-08 9.02629873885392e-09 2.99622260656235e-09 3.89257239830926e-09 1.21116134988112e-08 1.02205039160822e-08 1.64946807514873e-08 1.29619964602231e-08
"108" 9516 1.5179667401219e-08 9.02875713089038e-09 2.99082098329797e-09 3.90071600422445e-09 1.21184102897458e-08 1.04133024618073e-08 1.64946807514873e-08 1.29470997106753e-08
"109" 9517 1.51721159865444e-08 9.03121552292683e-09 2.9854193600336e-09 3.90885961013965e-09 1.21252070806804e-08 1.06061010075324e-08 1.64946807514873e-08 1.29322029611274e-08
"110" 9518 1.51645645718698e-08 9.03367391496328e-09 2.98001773676923e-09 3.91700321605485e-09 1.2132003871615e-08 1.07988995532576e-08 1.64946807514873e-08 1.29173062115796e-08
"111" 9519 1.51570131571952e-08 9.03613230699974e-09 2.97461611350486e-09 3.92514682197005e-09 1.21388006625496e-08 1.09916980989827e-08 1.64946807514873e-08 1.29024094620317e-08
"112" 9520 1.51494617425207e-08 9.03859069903619e-09 2.96921449024049e-09 3.93329042788525e-09 1.21455974534842e-08 1.11844966447078e-08 1.64946807514873e-08 1.28875127124839e-08
"113" 9521 1.51419103278461e-08 9.04104909107264e-09 2.96381286697612e-09 3.94143403380045e-09 1.21523942444188e-08 1.13772951904329e-08 1.64946807514873e-08 1.2872615962936e-08
"114" 9522 1.51343589131715e-08 9.04350748310909e-09 2.95841124371175e-09 3.94957763971564e-09 1.21591910353534e-08 1.1570093736158e-08 1.64946807514873e-08 1.28577192133882e-08
"115" 9523 1.51268074984969e-08 9.04596587514555e-09 2.95300962044737e-09 3.95772124563084e-09 1.21659878262879e-08 1.17628922818831e-08 1.64946807514873e-08 1.28428224638403e-08
"116" 9524 1.51272341517722e-08 9.05090163357067e-09 2.94490442164115e-09 3.96369067930665e-09 1.21659878262879e-08 1.19584438434269e-08 1.65229639289983e-08 1.28385004057154e-08
"117" 9525 1.50966640300132e-08 9.05972387143957e-09 2.94843802397405e-09 3.97358772299741e-09 1.21943238776156e-08 1.21431327141604e-08 1.633099462808e-08 1.27040388159928e-08
"118" 9526 1.52366754020409e-08 9.07212452742544e-09 2.94835520555559e-09 3.97233303833905e-09 1.21946417047565e-08 1.21867036512952e-08 1.6147307730778e-08 1.27158757961963e-08
"119" 9527 1.53766867740686e-08 9.08452518341131e-09 2.94827238713713e-09 3.9710783536807e-09 1.21949595318975e-08 1.223027458843e-08 1.59636208334761e-08 1.27277127763998e-08
"120" 9528 1.55166981460962e-08 9.09692583939718e-09 2.94818956871867e-09 3.96982366902234e-09 1.21952773590385e-08 1.22738455255648e-08 1.57799339361741e-08 1.27395497566034e-08
"121" 9529 1.56567095181239e-08 9.10932649538306e-09 2.94810675030021e-09 3.96856898436399e-09 1.21955951861794e-08 1.23174164626996e-08 1.55962470388721e-08 1.27513867368069e-08
"122" 9530 1.57967208901516e-08 9.12172715136893e-09 2.94802393188175e-09 3.96731429970563e-09 1.21959130133204e-08 1.23609873998344e-08 1.54125601415701e-08 1.27632237170104e-08
"123" 9531 1.59367322621793e-08 9.1341278073548e-09 2.94794111346329e-09 3.96605961504728e-09 1.21962308404613e-08 1.24045583369692e-08 1.52288732442682e-08 1.2775060697214e-08
"124" 9532 1.60767436342069e-08 9.14652846334067e-09 2.94785829504483e-09 3.96480493038892e-09 1.21965486676023e-08 1.2448129274104e-08 1.50451863469662e-08 1.27868976774175e-08
"125" 9533 1.62167550062346e-08 9.15892911932654e-09 2.94777547662637e-09 3.96355024573057e-09 1.21968664947432e-08 1.24917002112388e-08 1.48614994496642e-08 1.2798734657621e-08
"126" 9534 1.63567663782623e-08 9.17132977531241e-09 2.94769265820791e-09 3.96229556107221e-09 1.21971843218842e-08 1.25352711483736e-08 1.46778125523623e-08 1.28105716378246e-08
"127" 9535 1.649677775029e-08 9.18373043129828e-09 2.94760983978945e-09 3.96104087641386e-09 1.21975021490251e-08 1.25788420855085e-08 1.44941256550603e-08 1.28224086180281e-08
"128" 9536 1.66367891223177e-08 9.19613108728415e-09 2.94752702137099e-09 3.9597861917555e-09 1.21978199761661e-08 1.26224130226433e-08 1.43104387577583e-08 1.28342455982316e-08
"129" 9537 1.67768004943453e-08 9.20853174327002e-09 2.94744420295253e-09 3.95853150709715e-09 1.2198137803307e-08 1.26659839597781e-08 1.41267518604564e-08 1.28460825784351e-08
"130" 9538 1.68826102369606e-08 9.2047652085175e-09 2.92230042234925e-09 3.95954461706224e-09 1.21852142470712e-08 1.27058541656812e-08 1.41442046017581e-08 1.2869257785725e-08
"131" 9539 1.69884199795759e-08 9.20099867376498e-09 2.89715664174597e-09 3.96055772702733e-09 1.21722906908354e-08 1.27457243715844e-08 1.41616573430599e-08 1.28924329930149e-08
"132" 9540 1.70942297221912e-08 9.19723213901245e-09 2.87201286114270e-09 3.96157083699242e-09 1.21593671345996e-08 1.27855945774876e-08 1.41791100843617e-08 1.29156082003047e-08
"133" 9541 1.72000394648065e-08 9.19346560425993e-09 2.84686908053942e-09 3.9625839469575e-09 1.21464435783637e-08 1.28254647833908e-08 1.41965628256635e-08 1.29387834075946e-08
"134" 9542 1.73058492074218e-08 9.1896990695074e-09 2.82172529993614e-09 3.96359705692259e-09 1.21335200221279e-08 1.2865334989294e-08 1.42140155669653e-08 1.29619586148844e-08
"135" 9543 1.74116589500371e-08 9.18593253475488e-09 2.79658151933286e-09 3.96461016688768e-09 1.21205964658921e-08 1.29052051951972e-08 1.42314683082671e-08 1.29851338221743e-08
"136" 9544 1.75174686926524e-08 9.18216600000236e-09 2.77143773872959e-09 3.96562327685277e-09 1.21076729096562e-08 1.29450754011003e-08 1.42489210495688e-08 1.30083090294641e-08
"137" 9545 1.76232784352677e-08 9.17839946524983e-09 2.74629395812631e-09 3.96663638681786e-09 1.20947493534204e-08 1.29849456070035e-08 1.42663737908706e-08 1.3031484236754e-08
"138" 9546 1.7729088177883e-08 9.17463293049731e-09 2.72115017752303e-09 3.96764949678295e-09 1.20818257971846e-08 1.30248158129067e-08 1.42838265321724e-08 1.30546594440438e-08
"139" 9547 1.77157640614768e-08 9.17790071213263e-09 2.67306006831534e-09 3.9684054283241e-09 1.19689218399895e-08 1.30678279099775e-08 1.43153901109258e-08 1.3189685630852e-08
"140" 9548 1.75322870864847e-08 9.16981711676343e-09 2.62476199175828e-09 3.9691301524039e-09 1.18557000556534e-08 1.30562467105135e-08 1.4340637356128e-08 1.31839331573439e-08
"141" 9549 1.73644156578099e-08 9.16095950534495e-09 2.58839350210818e-09 3.9698548764837e-09 1.17470134875488e-08 1.30448251796393e-08 1.4340637356128e-08 1.31751209144914e-08
"142" 9550 1.71965442291351e-08 9.15210189392647e-09 2.55202501245808e-09 3.97057960056349e-09 1.16383269194442e-08 1.3033403648765e-08 1.4340637356128e-08 1.31663086716389e-08
"143" 9551 1.70286728004603e-08 9.14324428250799e-09 2.51565652280797e-09 3.97130432464329e-09 1.15296403513396e-08 1.30219821178907e-08 1.4340637356128e-08 1.31574964287865e-08
"144" 9552 1.68608013717855e-08 9.13438667108951e-09 2.47928803315787e-09 3.97202904872309e-09 1.1420953783235e-08 1.30105605870164e-08 1.4340637356128e-08 1.3148684185934e-08
"145" 9553 1.66929299431108e-08 9.12552905967103e-09 2.44291954350777e-09 3.97275377280288e-09 1.13122672151304e-08 1.29991390561421e-08 1.4340637356128e-08 1.31398719430815e-08
"146" 9554 1.6525058514436e-08 9.11667144825255e-09 2.40655105385767e-09 3.97347849688268e-09 1.12035806470258e-08 1.29877175252678e-08 1.4340637356128e-08 1.3131059700229e-08
"147" 9555 1.63571870857612e-08 9.10781383683407e-09 2.37018256420757e-09 3.97420322096248e-09 1.10948940789212e-08 1.29762959943935e-08 1.4340637356128e-08 1.31222474573766e-08
"148" 9556 1.61893156570864e-08 9.09895622541559e-09 2.33381407455746e-09 3.97492794504227e-09 1.09862075108166e-08 1.29648744635193e-08 1.4340637356128e-08 1.31134352145241e-08
"149" 9557 1.60214442284116e-08 9.09009861399711e-09 2.29744558490736e-09 3.97565266912207e-09 1.0877520942712e-08 1.2953452932645e-08 1.4340637356128e-08 1.31046229716716e-08
"150" 9558 1.58535727997368e-08 9.08124100257864e-09 2.26107709525726e-09 3.97637739320187e-09 1.07688343746074e-08 1.29420314017707e-08 1.4340637356128e-08 1.30958107288192e-08
"151" 9559 1.5685701371062e-08 9.07238339116016e-09 2.22470860560716e-09 3.97710211728166e-09 1.06601478065028e-08 1.29306098708964e-08 1.4340637356128e-08 1.30869984859667e-08
"152" 9560 1.55178299423872e-08 9.06352577974168e-09 2.18834011595706e-09 3.97782684136146e-09 1.05514612383982e-08 1.29191883400221e-08 1.4340637356128e-08 1.30781862431142e-08
"153" 9561 1.53339243321944e-08 9.06352577974168e-09 2.14648349941123e-09 3.97983745756096e-09 1.04480800286067e-08 1.29780807025487e-08 1.43314814896444e-08 1.30818106095441e-08
"154" 9562 1.51899871073691e-08 9.05827938483489e-09 2.10421279077311e-09 3.98577568377542e-09 1.03351760714116e-08 1.29697315246725e-08 1.4343953935375e-08 1.31176549900146e-08
"155" 9563 1.51185132842227e-08 9.04976520829279e-09 2.09394878526758e-09 3.95596724159086e-09 1.0297767174256e-08 1.28846147063451e-08 1.42455719101177e-08 1.30416483909668e-08
"156" 9564 1.51353987903658e-08 9.04754670563883e-09 2.09976818583714e-09 3.96114953626417e-09 1.02603582771005e-08 1.28393277543222e-08 1.41903669176789e-08 1.30863050142899e-08
"157" 9565 1.51522842965089e-08 9.04532820298487e-09 2.1055875864067e-09 3.96633183093748e-09 1.02229493799449e-08 1.27940408022993e-08 1.41351619252401e-08 1.31309616376129e-08
"158" 9566 1.5169169802652e-08 9.04310970033091e-09 2.11140698697627e-09 3.97151412561078e-09 1.01855404827894e-08 1.27487538502765e-08 1.40799569328014e-08 1.31756182609359e-08
"159" 9567 1.51860553087951e-08 9.04089119767695e-09 2.11722638754583e-09 3.97669642028409e-09 1.01481315856338e-08 1.27034668982536e-08 1.40247519403626e-08 1.32202748842589e-08
"160" 9568 1.52029408149382e-08 9.03867269502299e-09 2.12304578811539e-09 3.9818787149574e-09 1.01107226884783e-08 1.26581799462307e-08 1.39695469479238e-08 1.32649315075819e-08
"161" 9569 1.52198263210813e-08 9.03645419236903e-09 2.12886518868496e-09 3.98706100963071e-09 1.00733137913227e-08 1.26128929942078e-08 1.3914341955485e-08 1.3309588130905e-08
"162" 9570 1.52367118272244e-08 9.03423568971507e-09 2.13468458925452e-09 3.99224330430402e-09 1.00359048941672e-08 1.25676060421849e-08 1.38591369630462e-08 1.3354244754228e-08
"163" 9571 1.52535973333675e-08 9.03201718706111e-09 2.14050398982408e-09 3.99742559897732e-09 9.99849599701163e-09 1.2522319090162e-08 1.38039319706074e-08 1.3398901377551e-08
"164" 9572 1.52704828395106e-08 9.02979868440715e-09 2.14632339039365e-09 4.00260789365063e-09 9.96108709985608e-09 1.24770321381391e-08 1.37487269781686e-08 1.3443558000874e-08
"165" 9573 1.52873683456537e-08 9.02758018175319e-09 2.15214279096321e-09 4.00779018832394e-09 9.92367820270053e-09 1.24317451861162e-08 1.36935219857298e-08 1.3488214624197e-08
"166" 9574 1.53042538517968e-08 9.02536167909923e-09 2.15796219153277e-09 4.01297248299725e-09 9.88626930554498e-09 1.23864582340934e-08 1.3638316993291e-08 1.35328712475201e-08
"167" 9575 1.53211393579398e-08 9.02314317644527e-09 2.16378159210233e-09 4.01815477767055e-09 9.84886040838943e-09 1.23411712820705e-08 1.35831120008522e-08 1.35775278708431e-08
"168" 9576 1.53380248640829e-08 9.02092467379131e-09 2.1696009926719e-09 4.02333707234386e-09 9.81145151123388e-09 1.22958843300476e-08 1.35279070084134e-08 1.36221844941661e-08
"169" 9577 1.5354910370226e-08 9.01870617113735e-09 2.17542039324146e-09 4.02851936701717e-09 9.77404261407833e-09 1.22505973780247e-08 1.34727020159746e-08 1.36668411174891e-08
"170" 9578 1.53717958763691e-08 9.01648766848339e-09 2.18123979381102e-09 4.03370166169048e-09 9.73663371692278e-09 1.22053104260018e-08 1.34174970235358e-08 1.37114977408121e-08
"171" 9579 1.53886813825122e-08 9.01426916582943e-09 2.18705919438059e-09 4.03888395636379e-09 9.69922481976723e-09 1.21600234739789e-08 1.3362292031097e-08 1.37561543641352e-08
"172" 9580 1.54055668886553e-08 9.01205066317547e-09 2.19287859495015e-09 4.04406625103709e-09 9.66181592261168e-09 1.2114736521956e-08 1.33070870386582e-08 1.38008109874582e-08
"173" 9581 1.54224523947984e-08 9.00983216052151e-09 2.19869799551971e-09 4.0492485457104e-09 9.62440702545613e-09 1.20694495699331e-08 1.32518820462194e-08 1.38454676107812e-08
"174" 9582 1.54393379009415e-08 9.00761365786755e-09 2.20451739608928e-09 4.05443084038371e-09 9.58699812830058e-09 1.20241626179103e-08 1.31966770537806e-08 1.38901242341042e-08
"175" 9583 1.54223723672546e-08 8.9910676587032e-09 2.17991469911566e-09 4.03036586091237e-09 9.56087962686454e-09 1.19866865959502e-08 1.30628871750021e-08 1.38141176350564e-08
"176" 9584 1.53633792635912e-08 8.97914935663717e-09 2.18161892581665e-09 4.01419539392983e-09 9.54025706317788e-09 1.19930605087056e-08 1.30573936551119e-08 1.37751476412732e-08
"177" 9585 1.52922077132909e-08 8.99383926237617e-09 2.18822786527126e-09 4.02988271152584e-09 9.52261977809938e-09 1.20401330137862e-08 1.32180174834557e-08 1.37822632795235e-08
"178" 9586 1.52210361629906e-08 9.00852916811516e-09 2.19483680472586e-09 4.04557002912184e-09 9.50498249302089e-09 1.20872055188667e-08 1.33786413117996e-08 1.37893789177739e-08
"179" 9587 1.51498646126903e-08 9.02321907385416e-09 2.20144574418046e-09 4.06125734671785e-09 9.48734520794239e-09 1.21342780239472e-08 1.35392651401435e-08 1.37964945560242e-08
"180" 9588 1.507869306239e-08 9.03790897959315e-09 2.20805468363507e-09 4.07694466431386e-09 9.46970792286389e-09 1.21813505290278e-08 1.36998889684873e-08 1.38036101942745e-08
"181" 9589 1.50075215120897e-08 9.05259888533215e-09 2.21466362308967e-09 4.09263198190986e-09 9.45207063778540e-09 1.22284230341083e-08 1.38605127968312e-08 1.38107258325249e-08
"182" 9590 1.49363499617894e-08 9.06728879107114e-09 2.22127256254428e-09 4.10831929950587e-09 9.4344333527069e-09 1.22754955391889e-08 1.40211366251751e-08 1.38178414707752e-08
"183" 9591 1.48651784114891e-08 9.08197869681014e-09 2.22788150199888e-09 4.12400661710187e-09 9.4167960676284e-09 1.23225680442694e-08 1.41817604535189e-08 1.38249571090255e-08
"184" 9592 1.47940068611888e-08 9.09666860254914e-09 2.23449044145348e-09 4.13969393469788e-09 9.3991587825499e-09 1.23696405493499e-08 1.43423842818628e-08 1.38320727472759e-08
"185" 9593 1.47228353108885e-08 9.11135850828813e-09 2.24109938090809e-09 4.15538125229389e-09 9.38152149747141e-09 1.24167130544305e-08 1.45030081102066e-08 1.38391883855262e-08
"186" 9594 1.46516637605882e-08 9.12604841402713e-09 2.24770832036269e-09 4.17106856988989e-09 9.36388421239291e-09 1.2463785559511e-08 1.46636319385505e-08 1.38463040237765e-08
"187" 9595 1.45804922102879e-08 9.14073831976612e-09 2.25431725981729e-09 4.1867558874859e-09 9.34624692731442e-09 1.25108580645915e-08 1.48242557668944e-08 1.38534196620269e-08
"188" 9596 1.45093206599876e-08 9.15542822550512e-09 2.2609261992719e-09 4.2024432050819e-09 9.32860964223592e-09 1.25579305696721e-08 1.49848795952382e-08 1.38605353002772e-08
"189" 9597 1.44381491096873e-08 9.17011813124411e-09 2.2675351387265e-09 4.21813052267791e-09 9.31097235715742e-09 1.26050030747526e-08 1.51455034235821e-08 1.38676509385275e-08
"190" 9598 1.4366977559387e-08 9.18480803698311e-09 2.27414407818111e-09 4.23381784027392e-09 9.29333507207893e-09 1.26520755798332e-08 1.5306127251926e-08 1.38747665767779e-08
"191" 9599 1.42958060090867e-08 9.1994979427221e-09 2.28075301763571e-09 4.24950515786992e-09 9.27569778700043e-09 1.26991480849137e-08 1.54667510802698e-08 1.38818822150282e-08
"192" 9600 1.42246344587864e-08 9.2141878484611e-09 2.28736195709031e-09 4.26519247546593e-09 9.25806050192193e-09 1.27462205899942e-08 1.56273749086137e-08 1.38889978532785e-08
"193" 9601 1.41534629084861e-08 9.22887775420009e-09 2.29397089654492e-09 4.28087979306194e-09 9.24042321684344e-09 1.27932930950748e-08 1.57879987369575e-08 1.38961134915289e-08
"194" 9602 1.40822913581858e-08 9.24356765993909e-09 2.30057983599952e-09 4.29656711065794e-09 9.22278593176494e-09 1.28403656001553e-08 1.59486225653014e-08 1.39032291297792e-08
"195" 9603 1.40111198078855e-08 9.25825756567809e-09 2.30718877545412e-09 4.31225442825395e-09 9.20514864668644e-09 1.28874381052358e-08 1.61092463936453e-08 1.39103447680295e-08
"196" 9604 1.39399482575852e-08 9.27294747141708e-09 2.31379771490873e-09 4.32794174584996e-09 9.18751136160795e-09 1.29345106103164e-08 1.62698702219891e-08 1.39174604062799e-08
"197" 9605 1.38687767072849e-08 9.28763737715608e-09 2.32040665436333e-09 4.34362906344596e-09 9.16987407652945e-09 1.29815831153969e-08 1.6430494050333e-08 1.39245760445302e-08
"198" 9606 1.38509697586002e-08 9.25460230188403e-09 2.32531136711694e-09 4.36354798067289e-09 9.19258935576814e-09 1.29202064385071e-08 1.65492117634301e-08 1.39785758824707e-08
"199" 9607 1.38670039401183e-08 9.28590380357683e-09 2.33404046797129e-09 4.39540576525143e-09 9.24318837139385e-09 1.29693537903513e-08 1.67028675193349e-08 1.40246615145043e-08
"200" 9608 1.38830381216363e-08 9.31720530526962e-09 2.34276956882563e-09 4.42726354982998e-09 9.29378738701956e-09 1.30185011421955e-08 1.68565232752397e-08 1.40707471465379e-08
"201" 9609 1.38990723031543e-08 9.34850680696241e-09 2.35149866967998e-09 4.45912133440852e-09 9.34438640264526e-09 1.30676484940397e-08 1.70101790311445e-08 1.41168327785714e-08
"202" 9610 1.39151064846724e-08 9.3798083086552e-09 2.36022777053432e-09 4.49097911898706e-09 9.39498541827097e-09 1.3116795845884e-08 1.71638347870493e-08 1.4162918410605e-08
"203" 9611 1.39311406661904e-08 9.411109810348e-09 2.36895687138867e-09 4.52283690356561e-09 9.44558443389668e-09 1.31659431977282e-08 1.73174905429541e-08 1.42090040426385e-08
"204" 9612 1.39471748477085e-08 9.44241131204079e-09 2.37768597224301e-09 4.55469468814415e-09 9.49618344952239e-09 1.32150905495724e-08 1.74711462988589e-08 1.42550896746721e-08
"205" 9613 1.39531618670404e-08 9.43718131633137e-09 2.38151036034375e-09 4.55469468814415e-09 9.48076854106554e-09 1.32158785963956e-08 1.75499348201758e-08 1.42680558490468e-08
"206" 9614 1.39591488863724e-08 9.43195132062195e-09 2.38533474844448e-09 4.55469468814415e-09 9.4653536326087e-09 1.32166666432189e-08 1.76287233414926e-08 1.42810220234214e-08
"207" 9615 1.39651359057043e-08 9.42672132491252e-09 2.38915913654522e-09 4.55469468814415e-09 9.44993872415186e-09 1.32174546900421e-08 1.77075118628095e-08 1.42939881977961e-08
"208" 9616 1.39711229250363e-08 9.4214913292031e-09 2.39298352464595e-09 4.55469468814415e-09 9.43452381569502e-09 1.32182427368653e-08 1.77863003841264e-08 1.43069543721707e-08
"209" 9617 1.39771099443682e-08 9.41626133349367e-09 2.39680791274669e-09 4.55469468814415e-09 9.41910890723818e-09 1.32190307836886e-08 1.78650889054432e-08 1.43199205465454e-08
"210" 9618 1.39830969637002e-08 9.41103133778425e-09 2.40063230084742e-09 4.55469468814415e-09 9.40369399878134e-09 1.32198188305118e-08 1.79438774267601e-08 1.433288672092e-08
"211" 9619 1.39287368377755e-08 9.31816228764473e-09 2.39992558038084e-09 4.51913526451324e-09 9.36538288510956e-09 1.31992600749381e-08 1.78258150703514e-08 1.43374763749365e-08
"212" 9620 1.38743767118509e-08 9.2252932375052e-09 2.40823690392999e-09 4.49559272688733e-09 9.32992980234134e-09 1.31943420819356e-08 1.77222237899426e-08 1.43314254935617e-08
"213" 9621 1.38200165859263e-08 9.13242418736568e-09 2.41654822747915e-09 4.47205018926142e-09 9.29447671957312e-09 1.31894240889331e-08 1.76186325095338e-08 1.43253746121868e-08
"214" 9622 1.37656564600017e-08 9.03955513722616e-09 2.4248595510283e-09 4.44850765163551e-09 9.2590236368049e-09 1.31845060959306e-08 1.7515041229125e-08 1.4319323730812e-08
"215" 9623 1.37112963340771e-08 8.94668608708663e-09 2.43317087457745e-09 4.4249651140096e-09 9.22357055403668e-09 1.31795881029281e-08 1.74114499487162e-08 1.43132728494372e-08
"216" 9624 1.36569362081524e-08 8.85381703694711e-09 2.44148219812661e-09 4.40142257638369e-09 9.18811747126847e-09 1.31746701099256e-08 1.73078586683074e-08 1.43072219680623e-08
"217" 9625 1.36025760822278e-08 8.76094798680759e-09 2.44979352167576e-09 4.37788003875778e-09 9.15266438850025e-09 1.31697521169231e-08 1.72042673878986e-08 1.43011710866875e-08
"218" 9626 1.35482159563032e-08 8.66807893666806e-09 2.45810484522491e-09 4.35433750113186e-09 9.11721130573203e-09 1.31648341239206e-08 1.71006761074898e-08 1.42951202053126e-08
"219" 9627 1.34938558303786e-08 8.57520988652854e-09 2.46641616877407e-09 4.33079496350595e-09 9.08175822296381e-09 1.31599161309181e-08 1.6997084827081e-08 1.42890693239378e-08
"220" 9628 1.34394957044539e-08 8.48234083638902e-09 2.47472749232322e-09 4.30725242588004e-09 9.04630514019559e-09 1.31549981379156e-08 1.68934935466723e-08 1.4283018442563e-08
"221" 9629 1.33851355785293e-08 8.38947178624949e-09 2.48303881587237e-09 4.28370988825413e-09 9.01085205742737e-09 1.31500801449131e-08 1.67899022662635e-08 1.42769675611881e-08
"222" 9630 1.33307754526047e-08 8.29660273610997e-09 2.49135013942152e-09 4.26016735062822e-09 8.97539897465915e-09 1.31451621519106e-08 1.66863109858547e-08 1.42709166798133e-08
"223" 9631 1.32764153266801e-08 8.20373368597045e-09 2.49966146297068e-09 4.23662481300231e-09 8.93994589189094e-09 1.31402441589081e-08 1.65827197054459e-08 1.42648657984384e-08
"224" 9632 1.32220552007554e-08 8.11086463583092e-09 2.50797278651983e-09 4.2130822753764e-09 8.90449280912272e-09 1.31353261659056e-08 1.64791284250371e-08 1.42588149170636e-08
"225" 9633 1.31676950748308e-08 8.0179955856914e-09 2.51628411006898e-09 4.18953973775049e-09 8.8690397263545e-09 1.31304081729031e-08 1.63755371446283e-08 1.42527640356888e-08
"226" 9634 1.31133349489062e-08 7.92512653555188e-09 2.52459543361814e-09 4.16599720012457e-09 8.83358664358628e-09 1.31254901799006e-08 1.62719458642195e-08 1.42467131543139e-08
"227" 9635 1.30589748229816e-08 7.83225748541235e-09 2.53290675716729e-09 4.14245466249866e-09 8.79813356081806e-09 1.31205721868981e-08 1.61683545838107e-08 1.42406622729391e-08
"228" 9636 1.3004614697057e-08 7.73938843527283e-09 2.54121808071644e-09 4.11891212487275e-09 8.76268047804984e-09 1.31156541938956e-08 1.60647633034019e-08 1.42346113915642e-08
"229" 9637 1.29502545711323e-08 7.64651938513331e-09 2.5495294042656e-09 4.09536958724684e-09 8.72722739528162e-09 1.31107362008931e-08 1.59611720229931e-08 1.42285605101894e-08
"230" 9638 1.28958944452077e-08 7.55365033499378e-09 2.55784072781475e-09 4.07182704962093e-09 8.6917743125134e-09 1.31058182078906e-08 1.58575807425843e-08 1.42225096288146e-08
"231" 9639 1.28415343192831e-08 7.46078128485426e-09 2.5661520513639e-09 4.04828451199502e-09 8.65632122974519e-09 1.31009002148881e-08 1.57539894621755e-08 1.42164587474397e-08
"232" 9640 1.28416765370415e-08 7.42466396942758e-09 2.57300944607389e-09 4.04028885838903e-09 8.66053861883567e-09 1.31156233055198e-08 1.57672955749685e-08 1.4176590716711e-08
"233" 9641 1.28250013846478e-08 7.38854665400091e-09 2.58194467167116e-09 4.05034193938655e-09 8.65047550686843e-09 1.31310546086798e-08 1.57003277604943e-08 1.41729005063127e-08
"234" 9642 1.28083262322542e-08 7.35242933857424e-09 2.59087989726843e-09 4.06039502038407e-09 8.64041239490119e-09 1.31464859118398e-08 1.56333599460202e-08 1.41692102959145e-08
"235" 9643 1.27982790700681e-08 7.39121213702513e-09 2.63327206962458e-09 4.06219526935166e-09 8.63034928293395e-09 1.31486405928984e-08 1.55514186846284e-08 1.41777885681959e-08
"236" 9644 1.27965645292652e-08 7.37340976789165e-09 2.63900865177568e-09 4.06224208054369e-09 8.62268947356462e-09 1.31548651331894e-08 1.55102258108774e-08 1.41971082518303e-08
"237" 9645 1.27948499884622e-08 7.35560739875817e-09 2.64474523392679e-09 4.06228889173571e-09 8.61502966419529e-09 1.31610896734804e-08 1.54690329371264e-08 1.42164279354646e-08
"238" 9646 1.27931354476593e-08 7.33780502962468e-09 2.65048181607789e-09 4.06233570292774e-09 8.60736985482596e-09 1.31673142137715e-08 1.54278400633753e-08 1.4235747619099e-08
"239" 9647 1.27914209068564e-08 7.3200026604912e-09 2.65621839822899e-09 4.06238251411977e-09 8.59971004545663e-09 1.31735387540625e-08 1.53866471896243e-08 1.42550673027334e-08
"240" 9648 1.27897063660535e-08 7.30220029135772e-09 2.66195498038010e-09 4.0624293253118e-09 8.5920502360873e-09 1.31797632943536e-08 1.53454543158733e-08 1.42743869863677e-08
"241" 9649 1.27879918252505e-08 7.28439792222423e-09 2.6676915625312e-09 4.06247613650382e-09 8.58439042671797e-09 1.31859878346446e-08 1.53042614421222e-08 1.42937066700021e-08
"242" 9650 1.27862772844476e-08 7.26659555309075e-09 2.6734281446823e-09 4.06252294769585e-09 8.57673061734864e-09 1.31922123749356e-08 1.52630685683712e-08 1.43130263536364e-08
"243" 9651 1.27845627436447e-08 7.24879318395726e-09 2.6791647268334e-09 4.06256975888788e-09 8.56907080797931e-09 1.31984369152267e-08 1.52218756946202e-08 1.43323460372708e-08
"244" 9652 1.27828482028418e-08 7.23099081482378e-09 2.68490130898451e-09 4.06261657007991e-09 8.56141099860998e-09 1.32046614555177e-08 1.51806828208691e-08 1.43516657209052e-08
"245" 9653 1.27811336620388e-08 7.2131884456903e-09 2.69063789113561e-09 4.06266338127193e-09 8.55375118924065e-09 1.32108859958088e-08 1.51394899471181e-08 1.43709854045395e-08
"246" 9654 1.27794191212359e-08 7.19538607655681e-09 2.69637447328671e-09 4.06271019246396e-09 8.54609137987132e-09 1.32171105360998e-08 1.50982970733671e-08 1.43903050881739e-08
"247" 9655 1.2777704580433e-08 7.17758370742333e-09 2.70211105543781e-09 4.06275700365599e-09 8.53843157050199e-09 1.32233350763908e-08 1.5057104199616e-08 1.44096247718082e-08
"248" 9656 1.27759900396301e-08 7.15978133828984e-09 2.70784763758892e-09 4.06280381484802e-09 8.53077176113266e-09 1.32295596166819e-08 1.5015911325865e-08 1.44289444554426e-08
"249" 9657 1.27742754988271e-08 7.14197896915636e-09 2.71358421974002e-09 4.06285062604004e-09 8.52311195176333e-09 1.32357841569729e-08 1.4974718452114e-08 1.4448264139077e-08
"250" 9658 1.27725609580242e-08 7.12417660002288e-09 2.71932080189112e-09 4.06289743723207e-09 8.515452142394e-09 1.32420086972639e-08 1.49335255783629e-08 1.44675838227113e-08
"251" 9659 1.27708464172213e-08 7.10637423088939e-09 2.72505738404223e-09 4.0629442484241e-09 8.50779233302467e-09 1.3248233237555e-08 1.48923327046119e-08 1.44869035063457e-08
"252" 9660 1.27691318764184e-08 7.08857186175591e-09 2.73079396619333e-09 4.06299105961613e-09 8.50013252365534e-09 1.3254457777846e-08 1.48511398308609e-08 1.450622318998e-08
"253" 9661 1.27674173356155e-08 7.07076949262243e-09 2.73653054834443e-09 4.06303787080815e-09 8.49247271428601e-09 1.32606823181371e-08 1.48099469571098e-08 1.45255428736144e-08
"254" 9662 1.27657027948125e-08 7.05296712348894e-09 2.74226713049553e-09 4.06308468200018e-09 8.48481290491668e-09 1.32669068584281e-08 1.47687540833588e-08 1.45448625572488e-08
"255" 9663 1.27639882540096e-08 7.07355234518304e-09 2.74185303840323e-09 4.05307841219469e-09 8.44763137191396e-09 1.32646028049052e-08 1.47787580881066e-08 1.45249810898743e-08
"256" 9664 1.27657689488781e-08 7.06464296101761e-09 2.7258524507466e-09 4.01707456537173e-09 8.4168431664468e-09 1.32356055859376e-08 1.47294140897072e-08 1.45271091969526e-08
"257" 9665 1.27824441012717e-08 7.0618739324995e-09 2.70985186308997e-09 3.98132789697272e-09 8.38365165838173e-09 1.3200383826679e-08 1.46584417790936e-08 1.45448303386009e-08
"258" 9666 1.27991192536654e-08 7.05910490398139e-09 2.69385127543334e-09 3.9455812285737e-09 8.35046015031667e-09 1.31651620674203e-08 1.45874694684799e-08 1.45625514802493e-08
"259" 9667 1.28157944060591e-08 7.05633587546328e-09 2.67785068777671e-09 3.90983456017468e-09 8.3172686422516e-09 1.31299403081617e-08 1.45164971578663e-08 1.45802726218977e-08
"260" 9668 1.28324695584527e-08 7.05356684694517e-09 2.66185010012008e-09 3.87408789177567e-09 8.28407713418654e-09 1.30947185489031e-08 1.44455248472526e-08 1.45979937635461e-08
"261" 9669 1.28491447108464e-08 7.05079781842706e-09 2.64584951246345e-09 3.83834122337665e-09 8.25088562612147e-09 1.30594967896445e-08 1.4374552536639e-08 1.46157149051945e-08
"262" 9670 1.28658198632401e-08 7.04802878990895e-09 2.62984892480682e-09 3.80259455497763e-09 8.21769411805641e-09 1.30242750303859e-08 1.43035802260253e-08 1.46334360468429e-08
"263" 9671 1.28824950156337e-08 7.04525976139084e-09 2.61384833715018e-09 3.76684788657862e-09 8.18450260999134e-09 1.29890532711273e-08 1.42326079154117e-08 1.46511571884913e-08
"264" 9672 1.28991701680274e-08 7.04249073287274e-09 2.59784774949355e-09 3.7311012181796e-09 8.15131110192627e-09 1.29538315118687e-08 1.4161635604798e-08 1.46688783301397e-08
"265" 9673 1.2915845320421e-08 7.03972170435462e-09 2.58184716183692e-09 3.69535454978058e-09 8.11811959386121e-09 1.291860975261e-08 1.40906632941844e-08 1.46865994717881e-08
"266" 9674 1.29325204728147e-08 7.03695267583652e-09 2.56584657418029e-09 3.65960788138157e-09 8.08492808579614e-09 1.28833879933514e-08 1.40196909835707e-08 1.47043206134365e-08
"267" 9675 1.29491956252084e-08 7.0341836473184e-09 2.54984598652366e-09 3.62386121298255e-09 8.05173657773108e-09 1.28481662340928e-08 1.39487186729571e-08 1.47220417550849e-08
"268" 9676 1.29563924864496e-08 7.038225445003e-09 2.54922208447554e-09 3.61784496811472e-09 8.04643121941805e-09 1.28462510559188e-08 1.39453840047078e-08 1.47118341288424e-08
"269" 9677 1.29442140398127e-08 7.03848430873772e-09 2.5484325455905e-09 3.61182872324688e-09 8.05037721954416e-09 1.28167250403607e-08 1.39478741524934e-08 1.4732714509124e-08
"270" 9678 1.29320355931758e-08 7.03874317247243e-09 2.54764300670546e-09 3.60581247837905e-09 8.05432321967026e-09 1.27871990248025e-08 1.3950364300279e-08 1.47535948894056e-08
"271" 9679 1.29198571465389e-08 7.03900203620715e-09 2.54685346782042e-09 3.59979623351121e-09 8.05826921979637e-09 1.27576730092444e-08 1.39528544480645e-08 1.47744752696872e-08
"272" 9680 1.29076786999019e-08 7.03926089994186e-09 2.54606392893538e-09 3.59377998864338e-09 8.06221521992248e-09 1.27281469936862e-08 1.39553445958501e-08 1.47953556499689e-08
"273" 9681 1.2895500253265e-08 7.03951976367658e-09 2.54527439005034e-09 3.58776374377554e-09 8.06616122004858e-09 1.2698620978128e-08 1.39578347436357e-08 1.48162360302505e-08
"274" 9682 1.28833218066281e-08 7.03977862741129e-09 2.5444848511653e-09 3.5817474989077e-09 8.07010722017469e-09 1.26690949625699e-08 1.39603248914213e-08 1.48371164105321e-08
"275" 9683 1.28711433599912e-08 7.040037491146e-09 2.54369531228026e-09 3.57573125403987e-09 8.07405322030079e-09 1.26395689470117e-08 1.39628150392068e-08 1.48579967908137e-08
"276" 9684 1.28589649133542e-08 7.04029635488072e-09 2.54290577339521e-09 3.56971500917203e-09 8.0779992204269e-09 1.26100429314536e-08 1.39653051869924e-08 1.48788771710953e-08
"277" 9685 1.28467864667173e-08 7.04055521861543e-09 2.54211623451017e-09 3.5636987643042e-09 8.08194522055301e-09 1.25805169158954e-08 1.3967795334778e-08 1.48997575513769e-08
"278" 9686 1.28346080200804e-08 7.04081408235015e-09 2.54132669562513e-09 3.55768251943636e-09 8.08589122067911e-09 1.25509909003372e-08 1.39702854825636e-08 1.49206379316585e-08
"279" 9687 1.28633293109799e-08 7.07719026151154e-09 2.54132669562513e-09 3.55367689076803e-09 8.0885659122414e-09 1.25276894250701e-08 1.40134950755862e-08 1.49299475209555e-08
"280" 9688 1.28351166828249e-08 7.07136054234588e-09 2.54261498762738e-09 3.64731012822441e-09 8.3324634266507e-09 1.30011452096387e-08 1.40138263717308e-08 1.49487348261521e-08
"281" 9689 1.29138455935762e-08 7.08993435237378e-09 2.54390327962963e-09 3.6658963421396e-09 8.39308152943209e-09 1.30719587010593e-08 1.40204703836262e-08 1.49566490320591e-08
"282" 9690 1.29925745043275e-08 7.10850816240169e-09 2.54519157163188e-09 3.68448255605479e-09 8.45369963221349e-09 1.31427721924798e-08 1.40271143955215e-08 1.4964563237966e-08
"283" 9691 1.30713034150788e-08 7.12708197242959e-09 2.54647986363412e-09 3.70306876996999e-09 8.51431773499488e-09 1.32135856839004e-08 1.40337584074168e-08 1.4972477443873e-08
"284" 9692 1.31500323258301e-08 7.1456557824575e-09 2.54776815563637e-09 3.72165498388518e-09 8.57493583777628e-09 1.3284399175321e-08 1.40404024193121e-08 1.49803916497799e-08
"285" 9693 1.32287612365814e-08 7.1642295924854e-09 2.54905644763862e-09 3.74024119780037e-09 8.63555394055768e-09 1.33552126667416e-08 1.40470464312075e-08 1.49883058556869e-08
"286" 9694 1.33074901473327e-08 7.18280340251331e-09 2.55034473964087e-09 3.75882741171557e-09 8.69617204333907e-09 1.34260261581622e-08 1.40536904431028e-08 1.49962200615938e-08
"287" 9695 1.3386219058084e-08 7.20137721254121e-09 2.55163303164311e-09 3.77741362563076e-09 8.75679014612047e-09 1.34968396495827e-08 1.40603344549981e-08 1.50041342675008e-08
"288" 9696 1.34649479688352e-08 7.21995102256912e-09 2.55292132364536e-09 3.79599983954595e-09 8.81740824890187e-09 1.35676531410033e-08 1.40669784668935e-08 1.50120484734077e-08
"289" 9697 1.35436768795865e-08 7.23852483259702e-09 2.55420961564761e-09 3.81458605346115e-09 8.87802635168326e-09 1.36384666324239e-08 1.40736224787888e-08 1.50199626793147e-08
"290" 9698 1.36224057903378e-08 7.25709864262493e-09 2.55549790764986e-09 3.83317226737634e-09 8.93864445446466e-09 1.37092801238445e-08 1.40802664906841e-08 1.50278768852217e-08
"291" 9699 1.36987772074851e-08 7.21752285377253e-09 2.55142506429374e-09 3.85701879461822e-09 8.95986347435173e-09 1.37973302188308e-08 1.40716057595172e-08 1.49387317651783e-08
"292" 9700 1.36682070857261e-08 7.1837275864937e-09 2.54735222093762e-09 3.85701879461822e-09 8.92250584210281e-09 1.37908661756552e-08 1.40621258324898e-08 1.48469597849395e-08
"293" 9701 1.36425523952972e-08 7.12557798761339e-09 2.54111872827576e-09 3.85701879461822e-09 8.88310675920848e-09 1.37785767636629e-08 1.40488197196969e-08 1.47502997428175e-08
"294" 9702 1.36168977048684e-08 7.06742838873308e-09 2.53488523561390e-09 3.85701879461822e-09 8.84370767631416e-09 1.37662873516705e-08 1.40355136069039e-08 1.46536397006955e-08
"295" 9703 1.35912430144395e-08 7.00927878985278e-09 2.52865174295203e-09 3.85701879461822e-09 8.80430859341984e-09 1.37539979396781e-08 1.4022207494111e-08 1.45569796585736e-08
"296" 9704 1.35655883240107e-08 6.95112919097247e-09 2.52241825029017e-09 3.85701879461822e-09 8.76490951052551e-09 1.37417085276857e-08 1.4008901381318e-08 1.44603196164516e-08
"297" 9705 1.35399336335818e-08 6.89297959209216e-09 2.5161847576283e-09 3.85701879461822e-09 8.72551042763119e-09 1.37294191156934e-08 1.39955952685251e-08 1.43636595743296e-08
"298" 9706 1.3514278943153e-08 6.83482999321186e-09 2.50995126496644e-09 3.85701879461822e-09 8.68611134473686e-09 1.3717129703701e-08 1.39822891557321e-08 1.42669995322076e-08
"299" 9707 1.34886242527241e-08 6.77668039433155e-09 2.50371777230457e-09 3.85701879461822e-09 8.64671226184254e-09 1.37048402917086e-08 1.39689830429392e-08 1.41703394900856e-08
"300" 9708 1.34629695622952e-08 6.71853079545125e-09 2.49748427964271e-09 3.85701879461822e-09 8.60731317894821e-09 1.36925508797162e-08 1.39556769301462e-08 1.40736794479636e-08
"301" 9709 1.34373148718664e-08 6.66038119657094e-09 2.49125078698084e-09 3.85701879461822e-09 8.56791409605389e-09 1.36802614677239e-08 1.39423708173532e-08 1.39770194058417e-08
"302" 9710 1.34116601814375e-08 6.60223159769063e-09 2.48501729431898e-09 3.85701879461822e-09 8.52851501315956e-09 1.36679720557315e-08 1.39290647045603e-08 1.38803593637197e-08
"303" 9711 1.33860054910087e-08 6.54408199881033e-09 2.47878380165711e-09 3.85701879461822e-09 8.48911593026524e-09 1.36556826437391e-08 1.39157585917673e-08 1.37836993215977e-08
"304" 9712 1.33603508005798e-08 6.48593239993002e-09 2.47255030899525e-09 3.85701879461822e-09 8.44971684737091e-09 1.36433932317467e-08 1.39024524789744e-08 1.36870392794757e-08
"305" 9713 1.33346961101509e-08 6.42778280104971e-09 2.46631681633338e-09 3.85701879461822e-09 8.41031776447659e-09 1.36311038197544e-08 1.38891463661814e-08 1.35903792373537e-08
"306" 9714 1.33090414197221e-08 6.36963320216941e-09 2.46008332367152e-09 3.85701879461822e-09 8.37091868158226e-09 1.3618814407762e-08 1.38758402533885e-08 1.34937191952317e-08
"307" 9715 1.32833867292932e-08 6.3114836032891e-09 2.45384983100965e-09 3.85701879461822e-09 8.33151959868794e-09 1.36065249957696e-08 1.38625341405955e-08 1.33970591531098e-08
"308" 9716 1.32577320388644e-08 6.25333400440879e-09 2.44761633834779e-09 3.85701879461822e-09 8.29212051579361e-09 1.35942355837772e-08 1.38492280278026e-08 1.33003991109878e-08
"309" 9717 1.32320773484355e-08 6.19518440552849e-09 2.44138284568592e-09 3.85701879461822e-09 8.25272143289929e-09 1.35819461717849e-08 1.38359219150096e-08 1.32037390688658e-08
"310" 9718 1.32064226580066e-08 6.13703480664818e-09 2.43514935302406e-09 3.85701879461822e-09 8.21332235000496e-09 1.35696567597925e-08 1.38226158022167e-08 1.31070790267438e-08
"311" 9719 1.31807679675778e-08 6.07888520776787e-09 2.42891586036219e-09 3.85701879461822e-09 8.17392326711064e-09 1.35573673478001e-08 1.38093096894237e-08 1.30104189846218e-08
"312" 9720 1.3182905197805e-08 6.06031139773997e-09 2.42891586036219e-09 3.85576410995986e-09 8.15297322282292e-09 1.35554521696261e-08 1.38076459730996e-08 1.30110508323485e-08
"313" 9721 1.31878206291352e-08 6.06536710085634e-09 2.42496816593699e-09 3.85275598752595e-09 8.13642149360193e-09 1.35140359135499e-08 1.3803819787334e-08 1.29967859305273e-08
"314" 9722 1.31927360604653e-08 6.07042280397272e-09 2.42102047151179e-09 3.84974786509203e-09 8.11986976438095e-09 1.34726196574736e-08 1.37999936015684e-08 1.2982521028706e-08
"315" 9723 1.31976514917954e-08 6.07547850708909e-09 2.41707277708658e-09 3.84673974265811e-09 8.10331803515997e-09 1.34312034013973e-08 1.37961674158029e-08 1.29682561268848e-08
"316" 9724 1.32025669231255e-08 6.08053421020546e-09 2.41312508266138e-09 3.84373162022419e-09 8.08676630593898e-09 1.3389787145321e-08 1.37923412300373e-08 1.29539912250636e-08
"317" 9725 1.32074823544557e-08 6.08558991332184e-09 2.40917738823618e-09 3.84072349779028e-09 8.070214576718e-09 1.33483708892448e-08 1.37885150442718e-08 1.29397263232424e-08
"318" 9726 1.32123977857858e-08 6.09064561643821e-09 2.40522969381097e-09 3.83771537535636e-09 8.05366284749702e-09 1.33069546331685e-08 1.37846888585062e-08 1.29254614214212e-08
"319" 9727 1.32173132171159e-08 6.09570131955458e-09 2.40128199938577e-09 3.83470725292244e-09 8.03711111827603e-09 1.32655383770922e-08 1.37808626727406e-08 1.29111965196e-08
"320" 9728 1.3222228648446e-08 6.10075702267096e-09 2.39733430496057e-09 3.83169913048852e-09 8.02055938905505e-09 1.32241221210159e-08 1.37770364869751e-08 1.28969316177788e-08
"321" 9729 1.32271440797762e-08 6.10581272578733e-09 2.39338661053537e-09 3.8286910080546e-09 8.00400765983407e-09 1.31827058649397e-08 1.37732103012095e-08 1.28826667159576e-08
"322" 9730 1.32320595111063e-08 6.1108684289037e-09 2.38943891611016e-09 3.82568288562069e-09 7.98745593061308e-09 1.31412896088634e-08 1.3769384115444e-08 1.28684018141364e-08
"323" 9731 1.32369749424364e-08 6.11592413202008e-09 2.38549122168496e-09 3.82267476318677e-09 7.9709042013921e-09 1.30998733527871e-08 1.37655579296784e-08 1.28541369123152e-08
"324" 9732 1.32418903737665e-08 6.12097983513645e-09 2.38154352725976e-09 3.81966664075285e-09 7.95435247217112e-09 1.30584570967108e-08 1.37617317439128e-08 1.2839872010494e-08
"325" 9733 1.32468058050967e-08 6.12603553825282e-09 2.37759583283455e-09 3.81665851831893e-09 7.93780074295013e-09 1.30170408406346e-08 1.37579055581473e-08 1.28256071086727e-08
"326" 9734 1.32505815124339e-08 6.123007646e-09 2.35723161605397e-09 3.81767162828402e-09 7.92379163085679e-09 1.30161729595165e-08 1.37514181498231e-08 1.28244765078289e-08
"327" 9735 1.32272843156091e-08 6.08059723184004e-09 2.35361519530261e-09 3.80975399333142e-09 7.87781829445065e-09 1.28835441250356e-08 1.373395455512e-08 1.27963459880148e-08
"328" 9736 1.32039871187843e-08 6.03818681768009e-09 2.34999877455125e-09 3.80183635837881e-09 7.83184495804451e-09 1.27509152905547e-08 1.37164909604168e-08 1.27682154682007e-08
"329" 9737 1.31806899219594e-08 5.99577640352014e-09 2.34638235379989e-09 3.7939187234262e-09 7.78587162163836e-09 1.26182864560739e-08 1.36990273657136e-08 1.27400849483866e-08
"330" 9738 1.31573927251346e-08 5.95336598936018e-09 2.34276593304852e-09 3.78600108847359e-09 7.73989828523222e-09 1.2485657621593e-08 1.36815637710105e-08 1.27119544285725e-08
"331" 9739 1.31283969083456e-08 5.90701732300951e-09 2.34276593304852e-09 3.81288694561074e-09 7.72167178404839e-09 1.23653181991045e-08 1.36862200060379e-08 1.2691338830837e-08
"332" 9740 1.31013240041834e-08 5.85955120573319e-09 2.36429329290044e-09 3.81623026512198e-09 7.70694138141507e-09 1.22412179584376e-08 1.36795506695394e-08 1.26643389118667e-08
"333" 9741 1.30742511000213e-08 5.81208508845686e-09 2.38582065275236e-09 3.81957358463322e-09 7.69221097878174e-09 1.21171177177708e-08 1.36728813330408e-08 1.26373389928965e-08
"334" 9742 1.30478211486603e-08 5.76573642210619e-09 2.38802363257056e-09 3.84645944177037e-09 7.78538493534629e-09 1.20048381794524e-08 1.38466365816042e-08 1.27613968311443e-08
"335" 9743 1.30213911972993e-08 5.71938775575553e-09 2.39022661238876e-09 3.87334529890752e-09 7.87855889191084e-09 1.18925586411341e-08 1.40203918301675e-08 1.28854546693921e-08
"336" 9744 1.29949612459382e-08 5.67303908940486e-09 2.39242959220696e-09 3.90023115604466e-09 7.9717328484754e-09 1.17802791028158e-08 1.41941470787308e-08 1.300951250764e-08
"337" 9745 1.29659654291492e-08 5.64069088388557e-09 2.40917738823618e-09 3.91631608564069e-09 7.92575951206926e-09 1.16719792933098e-08 1.41746848537584e-08 1.29936504705055e-08
"338" 9746 1.29369696123602e-08 5.60834267836628e-09 2.4259251842654e-09 3.93240101523673e-09 7.87978617566311e-09 1.15636794838039e-08 1.41552226287859e-08 1.29777884333711e-08
"339" 9747 1.29079737955712e-08 5.57599447284699e-09 2.44267298029462e-09 3.94848594483276e-09 7.83381283925697e-09 1.14553796742979e-08 1.41357604038135e-08 1.29619263962366e-08
"340" 9748 1.28789779787822e-08 5.5436462673277e-09 2.45942077632384e-09 3.96457087442879e-09 7.78783950285083e-09 1.1347079864792e-08 1.4116298178841e-08 1.29460643591021e-08
"341" 9749 1.28499821619932e-08 5.51129806180841e-09 2.47616857235305e-09 3.98065580402482e-09 7.74186616644469e-09 1.1238780055286e-08 1.40968359538686e-08 1.29302023219677e-08
"342" 9750 1.28209863452041e-08 5.47894985628912e-09 2.49291636838227e-09 3.99674073362085e-09 7.69589283003855e-09 1.11304802457801e-08 1.40773737288961e-08 1.29143402848332e-08
"343" 9751 1.27919905284151e-08 5.44660165076983e-09 2.50966416441149e-09 4.01282566321688e-09 7.6499194936324e-09 1.10221804362741e-08 1.40579115039237e-08 1.28984782476988e-08
"344" 9752 1.27629947116261e-08 5.41425344525054e-09 2.52641196044071e-09 4.02891059281291e-09 7.60394615722626e-09 1.09138806267682e-08 1.40384492789512e-08 1.28826162105643e-08
"345" 9753 1.27339988948371e-08 5.38190523973125e-09 2.54315975646993e-09 4.04499552240894e-09 7.55797282082012e-09 1.08055808172622e-08 1.40189870539788e-08 1.28667541734299e-08
"346" 9754 1.27050030780481e-08 5.34955703421196e-09 2.55990755249915e-09 4.06108045200497e-09 7.51199948441398e-09 1.06972810077563e-08 1.39995248290063e-08 1.28508921362954e-08
"347" 9755 1.26760072612591e-08 5.31720882869267e-09 2.57665534852837e-09 4.077165381601e-09 7.46602614800784e-09 1.05889811982503e-08 1.39800626040339e-08 1.2835030099161e-08
"348" 9756 1.26138814030595e-08 5.32727103733334e-09 2.59307187088375e-09 4.09590763282295e-09 7.46208014788173e-09 1.06047816294112e-08 1.39780639737646e-08 1.28479304295673e-08
"349" 9757 1.24425167206388e-08 5.34111617992389e-09 2.61152389361396e-09 4.11696448986037e-09 7.45731998086249e-09 1.06254897574494e-08 1.3977896516792e-08 1.27485468713064e-08
"350" 9758 1.22711520382181e-08 5.35496132251444e-09 2.62997591634417e-09 4.1380213468978e-09 7.45255981384325e-09 1.06461978854875e-08 1.39777290598195e-08 1.26491633130455e-08
"351" 9759 1.21023532212254e-08 5.35673284479813e-09 2.62814654071227e-09 4.14308689672324e-09 7.46435137604499e-09 1.06978784976139e-08 1.40892569764981e-08 1.25681999948007e-08
"352" 9760 1.19335544042326e-08 5.35850436708183e-09 2.62631716508036e-09 4.14815244654869e-09 7.47614293824673e-09 1.07495591097404e-08 1.42007848931767e-08 1.24872366765559e-08
"353" 9761 1.17647555872399e-08 5.36027588936553e-09 2.62448778944845e-09 4.15321799637414e-09 7.48793450044848e-09 1.08012397218668e-08 1.43123128098553e-08 1.24062733583111e-08
"354" 9762 1.15959567702472e-08 5.36204741164922e-09 2.62265841381654e-09 4.15828354619959e-09 7.49972606265022e-09 1.08529203339933e-08 1.44238407265339e-08 1.23253100400663e-08
"355" 9763 1.14271579532544e-08 5.36381893393292e-09 2.62082903818464e-09 4.16334909602504e-09 7.51151762485196e-09 1.09046009461197e-08 1.45353686432125e-08 1.22443467218216e-08
"356" 9764 1.12583591362617e-08 5.36559045621661e-09 2.61899966255273e-09 4.16841464585049e-09 7.5233091870537e-09 1.09562815582462e-08 1.46468965598911e-08 1.21633834035768e-08
"357" 9765 1.1089560319269e-08 5.36736197850031e-09 2.61717028692082e-09 4.17348019567594e-09 7.53510074925545e-09 1.10079621703726e-08 1.47584244765697e-08 1.2082420085332e-08
"358" 9766 1.09207615022762e-08 5.369133500784e-09 2.61534091128892e-09 4.17854574550139e-09 7.54689231145719e-09 1.10596427824991e-08 1.48699523932483e-08 1.20014567670872e-08
"359" 9767 1.07519626852835e-08 5.3709050230677e-09 2.61351153565701e-09 4.18361129532684e-09 7.55868387365893e-09 1.11113233946255e-08 1.49814803099268e-08 1.19204934488424e-08
"360" 9768 1.05831638682908e-08 5.3726765453514e-09 2.6116821600251e-09 4.18867684515229e-09 7.57047543586067e-09 1.11630040067519e-08 1.50930082266054e-08 1.18395301305976e-08
"361" 9769 1.0414365051298e-08 5.37444806763509e-09 2.60985278439319e-09 4.19374239497773e-09 7.58226699806241e-09 1.12146846188784e-08 1.5204536143284e-08 1.17585668123529e-08
"362" 9770 1.02455662343053e-08 5.37621958991879e-09 2.60802340876129e-09 4.19880794480318e-09 7.59405856026415e-09 1.12663652310048e-08 1.53160640599626e-08 1.16776034941081e-08
"363" 9771 1.00767674173126e-08 5.37799111220248e-09 2.60619403312938e-09 4.20387349462863e-09 7.6058501224659e-09 1.13180458431313e-08 1.54275919766412e-08 1.15966401758633e-08
"364" 9772 9.90796860031984e-09 5.37976263448618e-09 2.60436465749747e-09 4.20893904445408e-09 7.61764168466764e-09 1.13697264552577e-08 1.55391198933198e-08 1.15156768576185e-08
"365" 9773 9.73916978332711e-09 5.38153415676988e-09 2.60253528186556e-09 4.21400459427953e-09 7.62943324686938e-09 1.14214070673842e-08 1.56506478099984e-08 1.14347135393737e-08
"366" 9774 9.57037096633438e-09 5.38330567905357e-09 2.60070590623366e-09 4.21907014410498e-09 7.64122480907112e-09 1.14730876795106e-08 1.5762175726677e-08 1.13537502211289e-08
"367" 9775 9.40157214934165e-09 5.38507720133727e-09 2.59887653060175e-09 4.22413569393043e-09 7.65301637127287e-09 1.15247682916371e-08 1.58737036433556e-08 1.12727869028842e-08
"368" 9776 9.23277333234891e-09 5.38684872362096e-09 2.59704715496984e-09 4.22920124375588e-09 7.66480793347461e-09 1.15764489037635e-08 1.59852315600342e-08 1.11918235846394e-08
"369" 9777 9.06397451535618e-09 5.38862024590466e-09 2.59521777933794e-09 4.23426679358133e-09 7.67659949567635e-09 1.162812951589e-08 1.60967594767128e-08 1.11108602663946e-08
"370" 9778 9.06532855694938e-09 5.39054708642918e-09 2.59459387728981e-09 4.24227805091799e-09 7.68680192217332e-09 1.16836404843643e-08 1.61931501073017e-08 1.1142180836817e-08
"371" 9779 9.06711123374331e-09 5.38581841899183e-09 2.59488466305765e-09 4.25130241821974e-09 7.70226568217176e-09 1.1703720234169e-08 1.62313830225536e-08 1.11523884630595e-08
"372" 9780 9.06889391053724e-09 5.38108975155447e-09 2.59517544882548e-09 4.2603267855215e-09 7.7177294421702e-09 1.17237999839736e-08 1.62696159378056e-08 1.1162596089302e-08
"373" 9781 9.07067658733117e-09 5.37636108411712e-09 2.59546623459332e-09 4.26935115282325e-09 7.73319320216865e-09 1.17438797337782e-08 1.63078488530575e-08 1.11728037155444e-08
"374" 9782 9.07245926412511e-09 5.37163241667976e-09 2.59575702036115e-09 4.278375520125e-09 7.74865696216709e-09 1.17639594835828e-08 1.63460817683094e-08 1.11830113417869e-08
"375" 9783 9.07424194091904e-09 5.36690374924241e-09 2.59604780612898e-09 4.28739988742676e-09 7.76412072216554e-09 1.17840392333874e-08 1.63843146835613e-08 1.11932189680294e-08
"376" 9784 9.07602461771297e-09 5.36217508180505e-09 2.59633859189682e-09 4.29642425472851e-09 7.77958448216398e-09 1.1804118983192e-08 1.64225475988132e-08 1.12034265942719e-08
"377" 9785 9.0778072945069e-09 5.35744641436770e-09 2.59662937766465e-09 4.30544862203026e-09 7.79504824216242e-09 1.18241987329966e-08 1.64607805140652e-08 1.12136342205143e-08
"378" 9786 9.07958997130083e-09 5.35271774693034e-09 2.59692016343248e-09 4.31447298933202e-09 7.81051200216086e-09 1.18442784828012e-08 1.64990134293171e-08 1.12238418467568e-08
"379" 9787 9.08137264809476e-09 5.34798907949298e-09 2.59721094920032e-09 4.32349735663377e-09 7.82597576215931e-09 1.18643582326058e-08 1.6537246344569e-08 1.12340494729993e-08
"380" 9788 9.10958527624973e-09 5.36905665510692e-09 2.60643696056542e-09 4.32451046659886e-09 7.83223218853017e-09 1.18856354968332e-08 1.64637838861698e-08 1.1256459737953e-08
"381" 9789 9.11713669092431e-09 5.3641208966818e-09 2.61836654747238e-09 4.3446397510577e-09 7.88419056234280e-09 1.18566382778656e-08 1.64819028375613e-08 1.12378069340386e-08
"382" 9790 9.12468810559889e-09 5.35918513825667e-09 2.63029613437934e-09 4.36476903551654e-09 7.93614893615542e-09 1.1827641058898e-08 1.65000217889529e-08 1.12191541301241e-08
"383" 9791 9.13223952027347e-09 5.35424937983154e-09 2.6422257212863e-09 4.38489831997538e-09 7.98810730996805e-09 1.17986438399305e-08 1.65181407403444e-08 1.12005013262097e-08
"384" 9792 9.13979093494805e-09 5.34931362140642e-09 2.65415530819326e-09 4.40502760443422e-09 8.04006568378067e-09 1.17696466209629e-08 1.6536259691736e-08 1.11818485222952e-08
"385" 9793 9.11912972146767e-09 5.35292483791811e-09 2.66500457044735e-09 4.41896148425467e-09 8.07910291472249e-09 1.17757913269591e-08 1.66150482130528e-08 1.11675514018262e-08
"386" 9794 9.09846850798728e-09 5.35653605442981e-09 2.67585383270144e-09 4.43289536407511e-09 8.11814014566431e-09 1.17819360329552e-08 1.66938367343697e-08 1.11532542813572e-08
"387" 9795 9.08457552054743e-09 5.36035436192927e-09 2.68399951941367e-09 4.42892094286813e-09 8.10476668785288e-09 1.17854770955972e-08 1.6696348588958e-08 1.11408190787476e-08
"388" 9796 9.07068253310758e-09 5.36417266942874e-09 2.6921452061259e-09 4.42494652166115e-09 8.09139323004144e-09 1.17890181582391e-08 1.66988604435464e-08 1.11283838761379e-08
"389" 9797 9.05678954566773e-09 5.36799097692821e-09 2.70029089283813e-09 4.42097210045417e-09 8.07801977223001e-09 1.1792559220881e-08 1.67013722981347e-08 1.11159486735283e-08
"390" 9798 9.04289655822788e-09 5.37180928442767e-09 2.70843657955037e-09 4.41699767924719e-09 8.06464631441857e-09 1.17961002835229e-08 1.6703884152723e-08 1.11035134709187e-08
"391" 9799 9.02900357078803e-09 5.37562759192714e-09 2.7165822662626e-09 4.41302325804021e-09 8.05127285660713e-09 1.17996413461649e-08 1.67063960073114e-08 1.1091078268309e-08
"392" 9800 9.01511058334818e-09 5.3794458994266e-09 2.72472795297483e-09 4.40904883683323e-09 8.0378993987957e-09 1.18031824088068e-08 1.67089078618997e-08 1.10786430656994e-08
"393" 9801 9.00121759590833e-09 5.38326420692607e-09 2.73287363968706e-09 4.40507441562625e-09 8.02452594098426e-09 1.18067234714487e-08 1.6711419716488e-08 1.10662078630897e-08
"394" 9802 8.9725783144781e-09 5.38403822297535e-09 2.73208410080202e-09 4.40283782846416e-09 8.03826366411323e-09 1.18128681774449e-08 1.6722745288014e-08 1.10607229854732e-08
"395" 9803 8.94393903304788e-09 5.38481223902464e-09 2.73129456191698e-09 4.40060124130207e-09 8.0520013872422e-09 1.18190128834411e-08 1.67340708595399e-08 1.10552381078566e-08
"396" 9804 8.91529975161765e-09 5.38558625507392e-09 2.73050502303194e-09 4.39836465413997e-09 8.06573911037116e-09 1.18251575894373e-08 1.67453964310659e-08 1.10497532302401e-08
"397" 9805 8.88666047018743e-09 5.3863602711232e-09 2.7297154841469e-09 4.39612806697788e-09 8.07947683350013e-09 1.18313022954335e-08 1.67567220025919e-08 1.10442683526235e-08
"398" 9806 8.8580211887572e-09 5.38713428717248e-09 2.72892594526186e-09 4.39389147981578e-09 8.0932145566291e-09 1.18374470014296e-08 1.67680475741178e-08 1.1038783475007e-08
"399" 9807 8.82938190732697e-09 5.38790830322176e-09 2.72813640637682e-09 4.39165489265369e-09 8.10695227975806e-09 1.18435917074258e-08 1.67793731456438e-08 1.10332985973904e-08
"400" 9808 8.80074262589675e-09 5.38868231927105e-09 2.72734686749178e-09 4.3894183054916e-09 8.12069000288703e-09 1.1849736413422e-08 1.67906987171697e-08 1.10278137197739e-08
"401" 9809 8.77210334446652e-09 5.38945633532033e-09 2.72655732860674e-09 4.3871817183295e-09 8.134427726016e-09 1.18558811194182e-08 1.68020242886957e-08 1.10223288421573e-08
"402" 9810 8.7434640630363e-09 5.39023035136961e-09 2.7257677897217e-09 4.38494513116741e-09 8.14816544914497e-09 1.18620258254144e-08 1.68133498602217e-08 1.10168439645408e-08
"403" 9811 8.71482478160607e-09 5.39100436741889e-09 2.72497825083666e-09 4.38270854400532e-09 8.16190317227393e-09 1.18681705314106e-08 1.68246754317476e-08 1.10113590869242e-08
"404" 9812 8.68618550017585e-09 5.39177838346817e-09 2.72418871195162e-09 4.38047195684322e-09 8.1756408954029e-09 1.18743152374068e-08 1.68360010032736e-08 1.10058742093077e-08
"405" 9813 8.65754621874562e-09 5.39255239951746e-09 2.72339917306657e-09 4.37823536968113e-09 8.18937861853187e-09 1.1880459943403e-08 1.68473265747995e-08 1.10003893316911e-08
"406" 9814 8.59577689590484e-09 5.35800209054157e-09 2.72368995883441e-09 4.38193700873349e-09 8.20447328648272e-09 1.18830635867572e-08 1.68165641029044e-08 1.08462395864809e-08
"407" 9815 8.53400757306405e-09 5.32345178156568e-09 2.72398074460224e-09 4.38563864778586e-09 8.21956795443358e-09 1.18856672301115e-08 1.67858016310092e-08 1.06920898412707e-08
"408" 9816 8.47223825022327e-09 5.28890147258979e-09 2.72427153037008e-09 4.38934028683822e-09 8.23466262238444e-09 1.18882708734658e-08 1.6755039159114e-08 1.05379400960605e-08
"409" 9817 8.41046892738249e-09 5.2543511636139e-09 2.72456231613791e-09 4.39304192589058e-09 8.2497572903353e-09 1.189087451682e-08 1.67242766872188e-08 1.03837903508502e-08
"410" 9818 8.3486996045417e-09 5.21980085463801e-09 2.72485310190574e-09 4.39674356494294e-09 8.26485195828616e-09 1.18934781601743e-08 1.66935142153236e-08 1.022964060564e-08
"411" 9819 8.28693028170092e-09 5.18525054566212e-09 2.72514388767358e-09 4.40044520399531e-09 8.27994662623702e-09 1.18960818035285e-08 1.66627517434284e-08 1.00754908604298e-08
"412" 9820 8.22516095886014e-09 5.15070023668623e-09 2.72543467344141e-09 4.40414684304767e-09 8.29504129418787e-09 1.18986854468828e-08 1.66319892715332e-08 9.92134111521957e-09
"413" 9821 8.22109883408054e-09 5.14765594523605e-09 2.72543467344141e-09 4.40810566052397e-09 8.31013596213873e-09 1.18926205751815e-08 1.65854305390595e-08 9.92134111521957e-09
"414" 9822 8.21703670930094e-09 5.14461165378586e-09 2.72543467344141e-09 4.41206447800028e-09 8.32523063008959e-09 1.18865557034801e-08 1.65388718065857e-08 9.92134111521957e-09
"415" 9823 8.21297458452134e-09 5.14156736233568e-09 2.72543467344141e-09 4.41602329547658e-09 8.34032529804045e-09 1.18804908317788e-08 1.6492313074112e-08 9.92134111521957e-09
"416" 9824 8.20891245974173e-09 5.13852307088549e-09 2.72543467344141e-09 4.41998211295289e-09 8.35541996599131e-09 1.18744259600775e-08 1.64457543416383e-08 9.92134111521957e-09
"417" 9825 8.20485033496213e-09 5.13547877943531e-09 2.72543467344141e-09 4.42394093042919e-09 8.37051463394217e-09 1.18683610883761e-08 1.63991956091646e-08 9.92134111521957e-09
"418" 9826 8.20078821018253e-09 5.13243448798513e-09 2.72543467344141e-09 4.42789974790549e-09 8.38560930189303e-09 1.18622962166748e-08 1.63526368766908e-08 9.92134111521957e-09
"419" 9827 8.19672608540293e-09 5.12939019653494e-09 2.72543467344141e-09 4.4318585653818e-09 8.40070396984388e-09 1.18562313449735e-08 1.63060781442171e-08 9.92134111521957e-09
"420" 9828 8.19266396062333e-09 5.12634590508476e-09 2.72543467344141e-09 4.4358173828581e-09 8.41579863779474e-09 1.18501664732721e-08 1.62595194117434e-08 9.92134111521957e-09
"421" 9829 8.18860183584373e-09 5.12330161363457e-09 2.72543467344141e-09 4.43977620033441e-09 8.4308933057456e-09 1.18441016015708e-08 1.62129606792697e-08 9.92134111521957e-09
"422" 9830 8.18453971106413e-09 5.12025732218439e-09 2.72543467344141e-09 4.44373501781071e-09 8.44598797369646e-09 1.18380367298695e-08 1.61664019467959e-08 9.92134111521957e-09
"423" 9831 8.18047758628453e-09 5.1172130307342e-09 2.72543467344141e-09 4.44769383528702e-09 8.46108264164732e-09 1.18319718581681e-08 1.61198432143222e-08 9.92134111521957e-09
"424" 9832 8.17641546150493e-09 5.11416873928402e-09 2.72543467344141e-09 4.45165265276332e-09 8.47617730959818e-09 1.18259069864668e-08 1.60732844818485e-08 9.92134111521957e-09
"425" 9833 8.20335011175957e-09 5.12211341560975e-09 2.72896827577431e-09 4.46381749107753e-09 8.47753425442007e-09 1.18157722555329e-08 1.605748822127e-08 9.92682599283612e-09
"426" 9834 8.23028476201422e-09 5.13005809193548e-09 2.73250187810721e-09 4.47598232939173e-09 8.47889119924196e-09 1.18056375245991e-08 1.60416919606914e-08 9.93231087045267e-09
"427" 9835 8.25721941226887e-09 5.1380027682612e-09 2.73603548044011e-09 4.48814716770594e-09 8.48024814406385e-09 1.17955027936653e-08 1.60258957001129e-08 9.93779574806922e-09
"428" 9836 8.28415406252351e-09 5.14594744458694e-09 2.73956908277302e-09 4.50031200602014e-09 8.48160508888574e-09 1.17853680627314e-08 1.60100994395344e-08 9.94328062568577e-09
"429" 9837 8.3147241842825e-09 5.15389212091266e-09 2.73416745950864e-09 4.51247684433435e-09 8.42692558533425e-09 1.17839018468532e-08 1.58069973486659e-08 9.9575777461548e-09
"430" 9838 8.33460815490524e-09 5.13547105397073e-09 2.68853431319387e-09 4.50437196461363e-09 8.43889324678219e-09 1.17743259559833e-08 1.58552342686657e-08 9.96765227778783e-09
"431" 9839 8.35449212552798e-09 5.11704998702879e-09 2.6429011668791e-09 4.49626708489291e-09 8.45086090823014e-09 1.17647500651134e-08 1.59034711886654e-08 9.97772680942087e-09
"432" 9840 8.37437609615072e-09 5.09862892008685e-09 2.59726802056433e-09 4.48816220517219e-09 8.46282856967808e-09 1.17551741742435e-08 1.59517081086651e-08 9.98780134105391e-09
"433" 9841 8.37252726529125e-09 5.06911533987512e-09 2.5480184534982e-09 4.46814966556121e-09 8.46142277331458e-09 1.17455982833736e-08 1.59462254421763e-08 9.99066076514771e-09
"434" 9842 8.37067843443178e-09 5.03960175966338e-09 2.49876888643206e-09 4.44813712595023e-09 8.46001697695109e-09 1.17360223925038e-08 1.59407427756875e-08 9.99352018924152e-09
"435" 9843 8.36882960357231e-09 5.01008817945164e-09 2.44951931936593e-09 4.42812458633925e-09 8.45861118058759e-09 1.17264465016339e-08 1.59352601091987e-08 9.99637961333532e-09
"436" 9844 8.36698077271284e-09 4.9805745992399e-09 2.4002697522998e-09 4.40811204672826e-09 8.4572053842241e-09 1.1716870610764e-08 1.59297774427099e-08 9.99923903742913e-09
"437" 9845 8.36513194185338e-09 4.95106101902817e-09 2.35102018523366e-09 4.38809950711728e-09 8.4557995878606e-09 1.17072947198941e-08 1.59242947762211e-08 1.00020984615229e-08
"438" 9846 8.3632831109939e-09 4.92154743881643e-09 2.30177061816753e-09 4.3680869675063e-09 8.45439379149711e-09 1.16977188290242e-08 1.59188121097322e-08 1.00049578856167e-08
"439" 9847 8.36143428013444e-09 4.89203385860469e-09 2.2525210511014e-09 4.34807442789531e-09 8.45298799513361e-09 1.16881429381544e-08 1.59133294432434e-08 1.00078173097105e-08
"440" 9848 8.35958544927497e-09 4.86252027839296e-09 2.20327148403526e-09 4.32806188828433e-09 8.45158219877012e-09 1.16785670472845e-08 1.59078467767546e-08 1.00106767338043e-08
"441" 9849 8.3577366184155e-09 4.83300669818122e-09 2.15402191696913e-09 4.30804934867335e-09 8.45017640240662e-09 1.16689911564146e-08 1.59023641102658e-08 1.00135361578982e-08
"442" 9850 8.35588778755603e-09 4.80349311796948e-09 2.104772349903e-09 4.28803680906237e-09 8.44877060604313e-09 1.16594152655447e-08 1.5896881443777e-08 1.0016395581992e-08
"443" 9851 8.34164222860833e-09 4.80421536127182e-09 2.10261170059725e-09 4.28731208498257e-09 8.42165942510273e-09 1.15802628923732e-08 1.57791467657124e-08 9.80512038552854e-09
"444" 9852 8.35090620216036e-09 4.78519457087365e-09 2.08299284958281e-09 4.26743997894767e-09 8.39454824416232e-09 1.15815496923137e-08 1.57736640992236e-08 9.81479563333326e-09
"445" 9853 8.35176149063636e-09 4.77405028485691e-09 2.06528619261874e-09 4.2535841177806e-09 8.39804434271283e-09 1.15843027081324e-08 1.57695102351139e-08 9.85542860639809e-09
"446" 9854 8.35261677911235e-09 4.76290599884017e-09 2.04757953565467e-09 4.23972825661354e-09 8.40154044126333e-09 1.1587055723951e-08 1.57653563710041e-08 9.89606157946291e-09
"447" 9855 8.35347206758834e-09 4.75176171282342e-09 2.0298728786906e-09 4.22587239544648e-09 8.40503653981383e-09 1.15898087397697e-08 1.57612025068944e-08 9.93669455252774e-09
"448" 9856 8.35432735606434e-09 4.74061742680668e-09 2.01216622172653e-09 4.21201653427941e-09 8.40853263836433e-09 1.15925617555884e-08 1.57570486427846e-08 9.97732752559256e-09
"449" 9857 8.35518264454033e-09 4.72947314078994e-09 1.99445956476246e-09 4.19816067311235e-09 8.41202873691484e-09 1.15953147714071e-08 1.57528947786749e-08 1.00179604986574e-08
"450" 9858 8.35603793301632e-09 4.7183288547732e-09 1.97675290779839e-09 4.18430481194528e-09 8.41552483546534e-09 1.15980677872258e-08 1.57487409145651e-08 1.00585934717222e-08
"451" 9859 8.35689322149232e-09 4.70718456875645e-09 1.95904625083432e-09 4.17044895077822e-09 8.41902093401584e-09 1.16008208030445e-08 1.57445870504554e-08 1.0099226444787e-08
"452" 9860 8.35774850996831e-09 4.69604028273971e-09 1.94133959387025e-09 4.15659308961115e-09 8.42251703256634e-09 1.16035738188632e-08 1.57404331863456e-08 1.01398594178519e-08
"453" 9861 8.3586037984443e-09 4.68489599672297e-09 1.92363293690618e-09 4.14273722844409e-09 8.42601313111685e-09 1.16063268346819e-08 1.57362793222359e-08 1.01804923909167e-08
"454" 9862 8.3594590869203e-09 4.67375171070622e-09 1.90592627994211e-09 4.12888136727702e-09 8.42950922966735e-09 1.16090798505005e-08 1.57321254581261e-08 1.02211253639815e-08
"455" 9863 8.36031437539629e-09 4.66260742468948e-09 1.88821962297804e-09 4.11502550610996e-09 8.43300532821785e-09 1.16118328663192e-08 1.57279715940164e-08 1.02617583370463e-08
"456" 9864 8.36116966387228e-09 4.65146313867274e-09 1.87051296601397e-09 4.10116964494289e-09 8.43650142676835e-09 1.16145858821379e-08 1.57238177299066e-08 1.03023913101112e-08
"457" 9865 8.36202495234828e-09 4.640318852656e-09 1.8528063090499e-09 4.08731378377583e-09 8.43999752531885e-09 1.16173388979566e-08 1.57196638657969e-08 1.0343024283176e-08
"458" 9866 8.36288024082427e-09 4.62917456663925e-09 1.83509965208583e-09 4.07345792260876e-09 8.44349362386936e-09 1.16200919137753e-08 1.57155100016871e-08 1.03836572562408e-08
"459" 9867 8.36373552930026e-09 4.61803028062251e-09 1.81739299512176e-09 4.0596020614417e-09 8.44698972241986e-09 1.1622844929594e-08 1.57113561375773e-08 1.04242902293056e-08
"460" 9868 8.36459081777626e-09 4.60688599460577e-09 1.79968633815769e-09 4.04574620027464e-09 8.45048582097036e-09 1.16255979454127e-08 1.57072022734676e-08 1.04649232023704e-08
"461" 9869 8.36544610625225e-09 4.59574170858902e-09 1.78197968119362e-09 4.03189033910757e-09 8.45398191952086e-09 1.16283509612313e-08 1.57030484093578e-08 1.05055561754353e-08
"462" 9870 8.36630139472824e-09 4.58459742257228e-09 1.76427302422954e-09 4.0180344779405e-09 8.45747801807137e-09 1.163110397705e-08 1.56988945452481e-08 1.05461891485001e-08
"463" 9871 8.36715668320424e-09 4.57345313655554e-09 1.74656636726547e-09 4.00417861677344e-09 8.46097411662187e-09 1.16338569928687e-08 1.56947406811383e-08 1.05868221215649e-08
"464" 9872 8.36801197168023e-09 4.5623088505388e-09 1.7288597103014e-09 3.99032275560638e-09 8.46447021517237e-09 1.16366100086874e-08 1.56905868170286e-08 1.06274550946297e-08
"465" 9873 8.36566240577808e-09 4.57008180942634e-09 1.72715548360041e-09 3.99635460420489e-09 8.49176714881908e-09 1.16198816094616e-08 1.56498673717916e-08 1.06636329149602e-08
"466" 9874 8.36331283987594e-09 4.57501756785146e-09 1.72690702834503e-09 3.99635460420489e-09 8.51035791532044e-09 1.16235025063984e-08 1.56407115053079e-08 1.06945906402203e-08
"467" 9875 8.36096327397379e-09 4.57995332627659e-09 1.72665857308965e-09 3.99635460420489e-09 8.5289486818218e-09 1.16271234033352e-08 1.56315556388242e-08 1.07255483654804e-08
"468" 9876 8.36887122400716e-09 4.57629033701795e-09 1.7244979237839e-09 4.06228363806026e-09 8.77606366572214e-09 1.17258662244169e-08 1.56223997723406e-08 1.07396479540444e-08
"469" 9877 8.37677917404053e-09 4.57262734775931e-09 1.72233727447815e-09 4.12821267191564e-09 9.02317864962248e-09 1.18246090454986e-08 1.56132439058569e-08 1.07537475426084e-08
"470" 9878 8.38468712407389e-09 4.56896435850068e-09 1.7201766251724e-09 4.19414170577102e-09 9.27029363352282e-09 1.19233518665803e-08 1.56040880393733e-08 1.07678471311723e-08
"471" 9879 8.39259507410726e-09 4.56530136924204e-09 1.71801597586665e-09 4.26007073962639e-09 9.51740861742316e-09 1.2022094687662e-08 1.55949321728896e-08 1.07819467197363e-08
"472" 9880 8.40050302414063e-09 4.5616383799834e-09 1.7158553265609e-09 4.32599977348177e-09 9.76452360132349e-09 1.21208375087437e-08 1.55857763064059e-08 1.07960463083002e-08
"473" 9881 8.40841097417399e-09 4.55797539072476e-09 1.71369467725516e-09 4.39192880733715e-09 1.00116385852238e-08 1.22195803298254e-08 1.55766204399223e-08 1.08101458968642e-08
"474" 9882 8.41631892420736e-09 4.55431240146612e-09 1.71153402794941e-09 4.45785784119252e-09 1.02587535691242e-08 1.23183231509071e-08 1.55674645734386e-08 1.08242454854281e-08
"475" 9883 8.42422687424073e-09 4.55064941220749e-09 1.70937337864366e-09 4.5237868750479e-09 1.05058685530245e-08 1.24170659719888e-08 1.5558308706955e-08 1.08383450739921e-08
"476" 9884 8.43213482427410e-09 4.54698642294885e-09 1.70721272933791e-09 4.58971590890328e-09 1.07529835369248e-08 1.25158087930705e-08 1.55491528404713e-08 1.08524446625561e-08
"477" 9885 8.46576956457827e-09 4.54542199165292e-09 1.70721272933791e-09 4.58442438811524e-09 1.07403313696534e-08 1.25409361609939e-08 1.55399969739876e-08 1.08453626496263e-08
"478" 9886 8.46235039259976e-09 4.55035775007805e-09 1.70505208003216e-09 4.57916407478855e-09 1.07270899862766e-08 1.2549943760577e-08 1.56106235172548e-08 1.08569334406109e-08
"479" 9887 8.49954057686445e-09 4.54647127063428e-09 1.70480362477678e-09 4.59775028870375e-09 1.07325274190243e-08 1.25861235313739e-08 1.5607463541579e-08 1.09446831772643e-08
"480" 9888 8.53673076112914e-09 4.54258479119051e-09 1.7045551695214e-09 4.61633650261894e-09 1.0737964851772e-08 1.26223033021707e-08 1.56043035659032e-08 1.10324329139176e-08
"481" 9889 8.57392094539383e-09 4.53869831174674e-09 1.70430671426602e-09 4.63492271653413e-09 1.07434022845196e-08 1.26584830729675e-08 1.56011435902274e-08 1.11201826505709e-08
"482" 9890 8.61111112965852e-09 4.53481183230297e-09 1.70405825901064e-09 4.65350893044932e-09 1.07488397172673e-08 1.26946628437644e-08 1.55979836145516e-08 1.12079323872243e-08
"483" 9891 8.64830131392321e-09 4.5309253528592e-09 1.70380980375526e-09 4.67209514436452e-09 1.0754277150015e-08 1.27308426145612e-08 1.55948236388758e-08 1.12956821238776e-08
"484" 9892 8.6854914981879e-09 4.52703887341543e-09 1.70356134849988e-09 4.69068135827971e-09 1.07597145827626e-08 1.2767022385358e-08 1.55916636632e-08 1.1383431860531e-08
"485" 9893 8.72268168245259e-09 4.52315239397166e-09 1.70331289324450e-09 4.7092675721949e-09 1.07651520155103e-08 1.28032021561549e-08 1.55885036875242e-08 1.14711815971843e-08
"486" 9894 8.75987186671728e-09 4.51926591452789e-09 1.70306443798911e-09 4.7278537861101e-09 1.0770589448258e-08 1.28393819269517e-08 1.55853437118484e-08 1.15589313338376e-08
"487" 9895 8.79706205098197e-09 4.51537943508412e-09 1.70281598273373e-09 4.74644000002529e-09 1.07760268810057e-08 1.28755616977486e-08 1.55821837361726e-08 1.1646681070491e-08
"488" 9896 8.82819311607276e-09 4.50927445298639e-09 1.70281598273373e-09 4.76236889231456e-09 1.07481431446187e-08 1.2911033256017e-08 1.55281400891404e-08 1.17095912139001e-08
"489" 9897 8.86880247231595e-09 4.50695240483854e-09 1.70256752747835e-09 4.75122468269857e-09 1.06639835288803e-08 1.28484702057321e-08 1.54997328682623e-08 1.18002003746473e-08
"490" 9898 8.86944344319158e-09 4.50872392712224e-09 1.7004068781726e-09 4.71547801429956e-09 1.05680836158468e-08 1.28050288937137e-08 1.54694836206862e-08 1.17990375551556e-08
"491" 9899 8.88077056520345e-09 4.50856860888141e-09 1.70406562943642e-09 4.69960345193544e-09 1.04705945671086e-08 1.270715395375e-08 1.54803212924963e-08 1.1846587227893e-08
"492" 9900 8.89209768721532e-09 4.50841329064058e-09 1.70772438070023e-09 4.68372888957132e-09 1.03731055183703e-08 1.26092790137864e-08 1.54911589643064e-08 1.18941369006303e-08
"493" 9901 8.90342480922719e-09 4.50825797239975e-09 1.71138313196405e-09 4.66785432720721e-09 1.02756164696321e-08 1.25114040738228e-08 1.55019966361165e-08 1.19416865733677e-08
"494" 9902 8.91475193123906e-09 4.50810265415892e-09 1.71504188322786e-09 4.65197976484309e-09 1.01781274208939e-08 1.24135291338592e-08 1.55128343079267e-08 1.19892362461051e-08
"495" 9903 8.92607905325093e-09 4.5079473359181e-09 1.71870063449168e-09 4.63610520247898e-09 1.00806383721556e-08 1.23156541938956e-08 1.55236719797368e-08 1.20367859188424e-08
"496" 9904 8.9374061752628e-09 4.50779201767727e-09 1.72235938575549e-09 4.62023064011486e-09 9.98314932341737e-09 1.2217779253932e-08 1.55345096515469e-08 1.20843355915798e-08
"497" 9905 8.94873329727468e-09 4.50763669943644e-09 1.72601813701931e-09 4.60435607775074e-09 9.88566027467912e-09 1.21199043139684e-08 1.55453473233571e-08 1.21318852643172e-08
"498" 9906 8.96006041928655e-09 4.50748138119561e-09 1.72967688828312e-09 4.58848151538663e-09 9.78817122594088e-09 1.20220293740048e-08 1.55561849951672e-08 1.21794349370545e-08
"499" 9907 8.97138754129842e-09 4.50732606295478e-09 1.73333563954693e-09 4.57260695302251e-09 9.69068217720263e-09 1.19241544340411e-08 1.55670226669773e-08 1.22269846097919e-08
"500" 9908 8.98271466331029e-09 4.50717074471395e-09 1.73699439081075e-09 4.55673239065840e-09 9.59319312846439e-09 1.18262794940775e-08 1.55778603387875e-08 1.22745342825293e-08
"501" 9909 8.98741379511458e-09 4.50701542647312e-09 1.74090159732994e-09 4.5758797726135e-09 9.59527860392134e-09 1.18181397756125e-08 1.56061290450966e-08 1.22852434752344e-08
"502" 9910 8.99211292691887e-09 4.5068601082323e-09 1.74480880384914e-09 4.5950271545686e-09 9.5973640793783e-09 1.18100000571475e-08 1.56343977514058e-08 1.22959526679395e-08
"503" 9911 8.98676489653708e-09 4.50670478999147e-09 1.7497558471152e-09 4.61113520662844e-09 9.60008279575214e-09 1.1775646179007e-08 1.54601473675257e-08 1.23406429165831e-08
"504" 9912 8.99745104767332e-09 4.50004928202959e-09 1.7519588269334e-09 4.61909965277307e-09 9.57709612754906e-09 1.15800946174632e-08 1.5472951109401e-08 1.23948753184219e-08
"505" 9913 9.00813719880956e-09 4.49339377406771e-09 1.7541618067516e-09 4.62706409891771e-09 9.55410945934599e-09 1.13845430559194e-08 1.54857548512763e-08 1.24491077202608e-08
"506" 9914 9.0188233499458e-09 4.48673826610583e-09 1.75636478656981e-09 4.63502854506234e-09 9.53112279114292e-09 1.11889914943756e-08 1.54985585931515e-08 1.25033401220996e-08
"507" 9915 9.02950950108205e-09 4.48008275814395e-09 1.75856776638801e-09 4.64299299120698e-09 9.50813612293985e-09 1.09934399328318e-08 1.55113623350268e-08 1.25575725239385e-08
"508" 9916 9.04019565221829e-09 4.47342725018207e-09 1.76077074620621e-09 4.65095743735162e-09 9.48514945473678e-09 1.0797888371288e-08 1.55241660769021e-08 1.26118049257773e-08
"509" 9917 9.05088180335453e-09 4.46677174222019e-09 1.76297372602441e-09 4.65892188349625e-09 9.46216278653371e-09 1.06023368097442e-08 1.55369698187774e-08 1.26660373276162e-08
"510" 9918 9.06156795449078e-09 4.46011623425831e-09 1.76517670584261e-09 4.66688632964089e-09 9.43917611833064e-09 1.04067852482004e-08 1.55497735606527e-08 1.2720269729455e-08
"511" 9919 9.07225410562702e-09 4.45346072629643e-09 1.76737968566081e-09 4.67485077578552e-09 9.41618945012757e-09 1.02112336866566e-08 1.5562577302528e-08 1.27745021312939e-08
"512" 9920 9.08294025676326e-09 4.44680521833455e-09 1.76958266547901e-09 4.68281522193016e-09 9.3932027819245e-09 1.00156821251128e-08 1.55753810444033e-08 1.28287345331327e-08
"513" 9921 9.09362640789951e-09 4.44014971037267e-09 1.77178564529721e-09 4.69077966807480e-09 9.37021611372143e-09 9.82013056356901e-09 1.55881847862785e-08 1.28829669349716e-08
"514" 9922 9.10431255903575e-09 4.43349420241079e-09 1.77398862511542e-09 4.69874411421943e-09 9.34722944551836e-09 9.62457900202521e-09 1.56009885281538e-08 1.29371993368104e-08
"515" 9923 9.11499871017199e-09 4.42683869444891e-09 1.77619160493362e-09 4.70670856036407e-09 9.32424277731529e-09 9.42902744048142e-09 1.56137922700291e-08 1.29914317386493e-08
"516" 9924 9.12568486130824e-09 4.42018318648703e-09 1.77839458475182e-09 4.7146730065087e-09 9.30125610911221e-09 9.23347587893762e-09 1.56265960119044e-08 1.30456641404881e-08
"517" 9925 9.13637101244448e-09 4.41352767852515e-09 1.78059756457002e-09 4.72263745265334e-09 9.27826944090914e-09 9.03792431739382e-09 1.56393997537797e-08 1.3099896542327e-08
"518" 9926 9.14705716358072e-09 4.40687217056327e-09 1.78280054438822e-09 4.73060189879798e-09 9.25528277270607e-09 8.84237275585003e-09 1.5652203495655e-08 1.31541289441658e-08
"519" 9927 8.9871618209303e-09 4.39663824448441e-09 1.78861994495778e-09 4.74971807329173e-09 9.26031432868969e-09 8.78793912790489e-09 1.5656724833914e-08 1.30620627760785e-08
"520" 9928 8.81836300393757e-09 4.38812406794231e-09 1.78932666542436e-09 4.75490036796503e-09 9.25990603856061e-09 8.73479229990021e-09 1.56229843145174e-08 1.29813320217321e-08
"521" 9929 8.65846766128715e-09 4.38208725778889e-09 1.79514606599393e-09 4.76008266263834e-09 9.33743530915047e-09 8.68164547189552e-09 1.56275056527764e-08 1.28499302013537e-08
"522" 9930 8.49857231863673e-09 4.37605044763546e-09 1.80096546656349e-09 4.76526495731165e-09 9.41496457974033e-09 8.62849864389083e-09 1.56320269910354e-08 1.27185283809754e-08
"523" 9931 8.33867697598631e-09 4.37001363748203e-09 1.80678486713305e-09 4.77044725198496e-09 9.49249385033018e-09 8.57535181588614e-09 1.56365483292943e-08 1.25871265605971e-08
"524" 9932 8.17878163333589e-09 4.36397682732861e-09 1.81260426770262e-09 4.77562954665827e-09 9.57002312092004e-09 8.52220498788146e-09 1.56410696675533e-08 1.24557247402188e-08
"525" 9933 8.01888629068547e-09 4.35794001717518e-09 1.81842366827218e-09 4.78081184133157e-09 9.6475523915099e-09 8.46905815987677e-09 1.56455910058123e-08 1.23243229198405e-08
"526" 9934 7.85899094803505e-09 4.35190320702175e-09 1.82424306884174e-09 4.78599413600488e-09 9.72508166209976e-09 8.41591133187208e-09 1.56501123440713e-08 1.21929210994621e-08
"527" 9935 7.69909560538463e-09 4.34586639686833e-09 1.83006246941131e-09 4.79117643067819e-09 9.80261093268961e-09 8.36276450386739e-09 1.56546336823303e-08 1.20615192790838e-08
"528" 9936 7.5321495831023e-09 4.34228797875135e-09 1.83093482671481e-09 4.82616716753606e-09 9.8533052380335e-09 8.33698901036233e-09 1.56157417925896e-08 1.19264930922756e-08
"529" 9937 7.36520356081998e-09 4.33870956063438e-09 1.83180718401831e-09 4.86115790439393e-09 9.90399954337739e-09 8.31121351685727e-09 1.55768499028488e-08 1.17914669054674e-08
"530" 9938 7.19825753853765e-09 4.3351311425174e-09 1.83267954132181e-09 4.89614864125179e-09 9.95469384872127e-09 8.28543802335221e-09 1.5537958013108e-08 1.16564407186592e-08
"531" 9939 7.03131151625533e-09 4.33155272440043e-09 1.83355189862531e-09 4.93113937810966e-09 1.00053881540652e-08 8.25966252984716e-09 1.54990661233673e-08 1.1521414531851e-08
"532" 9940 6.864365493973e-09 4.32797430628346e-09 1.83442425592881e-09 4.96613011496753e-09 1.0056082459409e-08 8.2338870363421e-09 1.54601742336265e-08 1.13863883450428e-08
"533" 9941 6.69741947169068e-09 4.32439588816648e-09 1.83529661323231e-09 5.0011208518254e-09 1.01067767647529e-08 8.20811154283704e-09 1.54212823438857e-08 1.12513621582346e-08
"534" 9942 6.53047344940835e-09 4.32081747004951e-09 1.83616897053581e-09 5.03611158868327e-09 1.01574710700968e-08 8.18233604933198e-09 1.5382390454145e-08 1.11163359714264e-08
"535" 9943 6.36352742712603e-09 4.31723905193253e-09 1.83704132783931e-09 5.07110232554113e-09 1.02081653754407e-08 8.15656055582692e-09 1.53434985644042e-08 1.09813097846182e-08
"536" 9944 6.1965814048437e-09 4.31366063381556e-09 1.83791368514282e-09 5.106093062399e-09 1.02588596807846e-08 8.13078506232186e-09 1.53046066746634e-08 1.084628359781e-08
"537" 9945 6.02963538256138e-09 4.31008221569859e-09 1.83878604244632e-09 5.14108379925687e-09 1.03095539861285e-08 8.1050095688168e-09 1.52657147849227e-08 1.07112574110018e-08
"538" 9946 5.86268936027905e-09 4.30650379758161e-09 1.83965839974982e-09 5.17607453611474e-09 1.03602482914724e-08 8.07923407531174e-09 1.52268228951819e-08 1.05762312241936e-08
"539" 9947 5.69574333799673e-09 4.30292537946464e-09 1.84053075705332e-09 5.2110652729726e-09 1.04109425968163e-08 8.05345858180668e-09 1.51879310054411e-08 1.04412050373854e-08
"540" 9948 5.5287973157144e-09 4.29934696134766e-09 1.84140311435682e-09 5.24605600983047e-09 1.04616369021601e-08 8.02768308830162e-09 1.51490391157004e-08 1.03061788505771e-08
"541" 9949 5.53200415201801e-09 4.30711992023521e-09 1.84248343900969e-09 5.28107795414969e-09 1.0512649034645e-08 8.05650089133140e-09 1.51164635595107e-08 1.03119313240853e-08
"542" 9950 5.51960544200431e-09 4.31566689517203e-09 1.83163417675561e-09 5.31609989846891e-09 1.05591259508984e-08 8.08515902577147e-09 1.51091352485233e-08 1.03207435669378e-08
"543" 9951 5.50720673199061e-09 4.32421387010885e-09 1.82078491450152e-09 5.35112184278813e-09 1.06056028671518e-08 8.11381716021154e-09 1.5101806937536e-08 1.03295558097902e-08
"544" 9952 5.49480802197691e-09 4.33276084504567e-09 1.80993565224744e-09 5.38614378710735e-09 1.06520797834052e-08 8.14247529465161e-09 1.50944786265486e-08 1.03383680526427e-08
"545" 9953 5.48240931196321e-09 4.34130781998249e-09 1.79908638999335e-09 5.42116573142657e-09 1.06985566996586e-08 8.17113342909168e-09 1.50871503155612e-08 1.03471802954952e-08
"546" 9954 5.47001060194952e-09 4.34985479491932e-09 1.78823712773927e-09 5.45618767574579e-09 1.0745033615912e-08 8.19979156353175e-09 1.50798220045738e-08 1.03559925383477e-08
"547" 9955 5.45761189193582e-09 4.35840176985614e-09 1.77738786548518e-09 5.49120962006501e-09 1.07915105321654e-08 8.22844969797182e-09 1.50724936935864e-08 1.03648047812001e-08
"548" 9956 5.44521318192212e-09 4.36694874479296e-09 1.76653860323109e-09 5.52623156438423e-09 1.08379874484188e-08 8.2571078324119e-09 1.5065165382599e-08 1.03736170240526e-08
"549" 9957 5.43281447190842e-09 4.37549571972978e-09 1.75568934097701e-09 5.56125350870345e-09 1.08844643646722e-08 8.28576596685197e-09 1.50578370716116e-08 1.03824292669051e-08
"550" 9958 5.42041576189472e-09 4.3840426946666e-09 1.74484007872292e-09 5.59627545302267e-09 1.09309412809256e-08 8.31442410129204e-09 1.50505087606242e-08 1.03912415097576e-08
"551" 9959 5.40801705188102e-09 4.39258966960343e-09 1.73399081646884e-09 5.63129739734189e-09 1.0977418197179e-08 8.34308223573211e-09 1.50431804496369e-08 1.040005375261e-08
"552" 9960 5.39561834186732e-09 4.40113664454025e-09 1.72314155421475e-09 5.66631934166111e-09 1.10238951134324e-08 8.37174037017218e-09 1.50358521386495e-08 1.04088659954625e-08
"553" 9961 5.38321963185363e-09 4.40968361947707e-09 1.71229229196067e-09 5.70134128598033e-09 1.10703720296858e-08 8.40039850461226e-09 1.50285238276621e-08 1.0417678238315e-08
"554" 9962 5.38685510335796e-09 4.40937298299541e-09 1.7069311566023e-09 5.73507733817984e-09 1.11115435876262e-08 8.35874274565142e-09 1.50303513831584e-08 1.04140538718851e-08
"555" 9963 5.35052218949474e-09 4.41430874142054e-09 1.70198411333624e-09 5.7648857803644e-09 1.11622378929701e-08 8.3843285270934e-09 1.50105506264403e-08 1.03782094914145e-08
"556" 9964 5.31418927563151e-09 4.41924449984567e-09 1.69703707007018e-09 5.79469422254896e-09 1.1212932198314e-08 8.40991430853538e-09 1.49907498697223e-08 1.0342365110944e-08
"557" 9965 5.27785636176828e-09 4.42418025827080e-09 1.69209002680412e-09 5.82450266473352e-09 1.12636265036578e-08 8.43550008997736e-09 1.49709491130043e-08 1.03065207304735e-08
"558" 9966 5.24152344790506e-09 4.42911601669592e-09 1.68714298353805e-09 5.85431110691808e-09 1.13143208090017e-08 8.46108587141934e-09 1.49511483562863e-08 1.02706763500029e-08
"559" 9967 5.20519053404183e-09 4.43405177512105e-09 1.68219594027199e-09 5.88411954910264e-09 1.13650151143456e-08 8.48667165286131e-09 1.49313475995683e-08 1.02348319695324e-08
"560" 9968 5.1688576201786e-09 4.43898753354618e-09 1.67724889700593e-09 5.9139279912872e-09 1.14157094196895e-08 8.51225743430329e-09 1.49115468428502e-08 1.01989875890618e-08
"561" 9969 5.13252470631537e-09 4.4439232919713e-09 1.67230185373987e-09 5.94373643347176e-09 1.14664037250334e-08 8.53784321574527e-09 1.48917460861322e-08 1.01631432085913e-08
"562" 9970 5.09619179245215e-09 4.44885905039643e-09 1.6673548104738e-09 5.97354487565632e-09 1.15170980303773e-08 8.56342899718725e-09 1.48719453294142e-08 1.01272988281207e-08
"563" 9971 5.05544021845053e-09 4.44729461910051e-09 1.66369605920999e-09 5.98324715584584e-09 1.15506930018414e-08 8.5616434441296e-09 1.48672890943868e-08 1.00969393252667e-08
"564" 9972 5.01468864444892e-09 4.44573018780458e-09 1.66003730794618e-09 5.99294943603537e-09 1.15842879733055e-08 8.55985789107195e-09 1.48626328593594e-08 1.00665798224127e-08
"565" 9973 4.9739370704473e-09 4.44416575650866e-09 1.65637855668236e-09 6.00265171622489e-09 1.16178829447696e-08 8.5580723380143e-09 1.4857976624332e-08 1.00362203195587e-08
"566" 9974 4.93318549644569e-09 4.44260132521273e-09 1.65271980541855e-09 6.01235399641441e-09 1.16514779162337e-08 8.55628678495665e-09 1.48533203893045e-08 1.00058608167047e-08
"567" 9975 4.89243392244408e-09 4.44103689391681e-09 1.64906105415473e-09 6.02205627660393e-09 1.16850728876977e-08 8.55450123189900e-09 1.48486641542771e-08 9.97550131385074e-09
"568" 9976 4.85168234844246e-09 4.43947246262088e-09 1.64540230289092e-09 6.03175855679345e-09 1.17186678591618e-08 8.55271567884135e-09 1.48440079192497e-08 9.94514181099675e-09
"569" 9977 4.81093077444085e-09 4.43790803132496e-09 1.6417435516271e-09 6.04146083698298e-09 1.17522628306259e-08 8.55093012578370e-09 1.48393516842223e-08 9.91478230814275e-09
"570" 9978 4.77017920043923e-09 4.43634360002903e-09 1.63808480036329e-09 6.0511631171725e-09 1.178585780209e-08 8.54914457272604e-09 1.48346954491949e-08 9.88442280528876e-09
"571" 9979 4.72942762643762e-09 4.43477916873311e-09 1.63442604909947e-09 6.06086539736202e-09 1.18194527735541e-08 8.54735901966840e-09 1.48300392141674e-08 9.85406330243476e-09
"572" 9980 4.68867605243601e-09 4.43321473743719e-09 1.63076729783566e-09 6.07056767755154e-09 1.18530477450182e-08 8.54557346661074e-09 1.482538297914e-08 9.82370379958077e-09
"573" 9981 4.68512060847549e-09 4.43149498790043e-09 1.62473992991672e-09 6.08039478758647e-09 1.18791662464543e-08 8.54142377308339e-09 1.48928459289309e-08 9.82695969415743e-09
"574" 9982 4.68790673728024e-09 4.44377569919506e-09 1.62108117865291e-09 6.11644544560146e-09 1.20029523092398e-08 8.53939871714118e-09 1.48690587650757e-08 9.80095587474886e-09
"575" 9983 4.65677567218945e-09 4.44625306558373e-09 1.61596849854993e-09 6.11918078588076e-09 1.2071912313849e-08 8.56058585094843e-09 1.48492580083577e-08 9.77495205534029e-09
"576" 9984 4.62564460709866e-09 4.44873043197241e-09 1.61085581844694e-09 6.12191612616006e-09 1.21408723184582e-08 8.58177298475568e-09 1.48294572516397e-08 9.74894823593173e-09
"577" 9985 4.60626929922047e-09 4.42520446432201e-09 1.60794611816216e-09 6.12688805360145e-09 1.21438575970664e-08 8.59837175886511e-09 1.48334436587769e-08 9.76191441030638e-09
"578" 9986 4.5990724379792e-09 4.3750702888666e-09 1.60013170512377e-09 6.1000021964643e-09 1.21438575970664e-08 8.57427194064948e-09 1.467131271768e-08 9.72879495264748e-09
"579" 9987 4.59187557673794e-09 4.32493611341119e-09 1.59231729208538e-09 6.07311633932715e-09 1.21438575970664e-08 8.55017212243384e-09 1.45091817765832e-08 9.69567549498857e-09
"580" 9988 4.58467871549668e-09 4.27480193795578e-09 1.58450287904699e-09 6.04623048219001e-09 1.21438575970664e-08 8.5260723042182e-09 1.43470508354863e-08 9.66255603732967e-09
"581" 9989 4.57748185425541e-09 4.22466776250036e-09 1.5766884660086e-09 6.01934462505286e-09 1.21438575970664e-08 8.50197248600256e-09 1.41849198943894e-08 9.62943657967077e-09
"582" 9990 4.57028499301415e-09 4.17453358704495e-09 1.56887405297021e-09 5.99245876791571e-09 1.21438575970664e-08 8.47787266778692e-09 1.40227889532926e-08 9.59631712201186e-09
"583" 9991 4.56308813177289e-09 4.12439941158954e-09 1.56105963993181e-09 5.96557291077856e-09 1.21438575970664e-08 8.45377284957128e-09 1.38606580121957e-08 9.56319766435296e-09
"584" 9992 4.55589127053162e-09 4.07426523613413e-09 1.55324522689342e-09 5.93868705364141e-09 1.21438575970664e-08 8.42967303135564e-09 1.36985270710989e-08 9.53007820669406e-09
"585" 9993 4.54869440929036e-09 4.02413106067871e-09 1.54543081385503e-09 5.91180119650426e-09 1.21438575970664e-08 8.40557321314e-09 1.3536396130002e-08 9.49695874903515e-09
"586" 9994 4.56087285592729e-09 3.96785652957599e-09 1.53907032965581e-09 5.87598459444941e-09 1.20791149815476e-08 8.35642586129579e-09 1.33794165592493e-08 9.4427263471963e-09
"587" 9995 4.5508256937412e-09 3.91772235412058e-09 1.54285054463765e-09 5.84243578701801e-09 1.20097466868093e-08 8.34965277706607e-09 1.32172856181524e-08 9.38849394535745e-09
"588" 9996 4.54077853155512e-09 3.86758817866516e-09 1.54663075961948e-09 5.8088869795866e-09 1.1940378392071e-08 8.34287969283635e-09 1.30551546770556e-08 9.3342615435186e-09
"589" 9997 4.53073136936903e-09 3.81745400320975e-09 1.55041097460132e-09 5.7753381721552e-09 1.18710100973327e-08 8.33610660860663e-09 1.28930237359587e-08 9.28002914167975e-09
"590" 9998 4.52068420718295e-09 3.76731982775434e-09 1.55419118958316e-09 5.7417893647238e-09 1.18016418025945e-08 8.3293335243769e-09 1.27308927948619e-08 9.2257967398409e-09
"591" 9999 4.51063704499687e-09 3.71718565229893e-09 1.557971404565e-09 5.7082405572924e-09 1.17322735078562e-08 8.32256044014719e-09 1.2568761853765e-08 9.17156433800205e-09
"592" 10000 4.50058988281078e-09 3.66705147684351e-09 1.56175161954683e-09 5.67469174986099e-09 1.16629052131179e-08 8.31578735591747e-09 1.24066309126681e-08 9.11733193616321e-09
"593" 10001 4.4905427206247e-09 3.6169173013881e-09 1.56553183452867e-09 5.64114294242959e-09 1.15935369183796e-08 8.30901427168774e-09 1.22444999715713e-08 9.06309953432436e-09
"594" 10002 4.48049555843861e-09 3.56678312593269e-09 1.56931204951051e-09 5.60759413499819e-09 1.15241686236413e-08 8.30224118745803e-09 1.20823690304744e-08 9.00886713248551e-09
"595" 10003 4.47044839625253e-09 3.51664895047728e-09 1.57309226449235e-09 5.57404532756679e-09 1.1454800328903e-08 8.2954681032283e-09 1.19202380893776e-08 8.95463473064666e-09
"596" 10004 4.46040123406644e-09 3.46651477502186e-09 1.57687247947418e-09 5.54049652013538e-09 1.13854320341647e-08 8.28869501899858e-09 1.17581071482807e-08 8.90040232880781e-09
"597" 10005 4.45035407188036e-09 3.41638059956645e-09 1.58065269445602e-09 5.50694771270398e-09 1.13160637394264e-08 8.28192193476887e-09 1.15959762071838e-08 8.84616992696896e-09
"598" 10006 4.44030690969427e-09 3.36624642411104e-09 1.58443290943786e-09 5.47339890527258e-09 1.12466954446881e-08 8.27514885053914e-09 1.1433845266087e-08 8.79193752513011e-09
"599" 10007 4.43025974750819e-09 3.31611224865563e-09 1.5882131244197e-09 5.43985009784118e-09 1.11773271499498e-08 8.26837576630942e-09 1.12717143249901e-08 8.73770512329126e-09
"600" 10008 4.4202125853221e-09 3.26597807320021e-09 1.59199333940153e-09 5.40630129040977e-09 1.11079588552115e-08 8.2616026820797e-09 1.11095833838932e-08 8.68347272145241e-09
"601" 10009 4.41016542313602e-09 3.2158438977448e-09 1.59577355438337e-09 5.37275248297837e-09 1.10385905604732e-08 8.25482959784998e-09 1.09474524427964e-08 8.62924031961356e-09
"602" 10010 4.40011826094994e-09 3.16570972228939e-09 1.59955376936521e-09 5.33920367554697e-09 1.09692222657349e-08 8.24805651362026e-09 1.07853215016995e-08 8.57500791777471e-09
"603" 10011 4.39007109876385e-09 3.11557554683397e-09 1.60333398434705e-09 5.30565486811557e-09 1.08998539709966e-08 8.24128342939054e-09 1.06231905606027e-08 8.52077551593586e-09
"604" 10012 4.38002393657777e-09 3.06544137137856e-09 1.60711419932888e-09 5.27210606068416e-09 1.08304856762583e-08 8.23451034516082e-09 1.04610596195058e-08 8.46654311409701e-09
"605" 10013 4.36997677439168e-09 3.01530719592315e-09 1.61089441431072e-09 5.23855725325276e-09 1.07611173815201e-08 8.2277372609311e-09 1.02989286784089e-08 8.41231071225817e-09
"606" 10014 4.36997677439168e-09 3.00170451786995e-09 1.61957934204617e-09 5.2368662303999e-09 1.07577630108643e-08 8.26932348172236e-09 1.02116649719e-08 8.39119776807822e-09
"607" 10015 4.36997677439168e-09 2.98810183981676e-09 1.62826426978162e-09 5.23517520754704e-09 1.07544086402086e-08 8.31090970251362e-09 1.01244012653911e-08 8.37008482389827e-09
"608" 10016 4.36997677439168e-09 2.97449916176356e-09 1.63694919751706e-09 5.23348418469418e-09 1.07510542695528e-08 8.35249592330489e-09 1.00371375588822e-08 8.34897187971833e-09
"609" 10017 4.36997677439168e-09 2.96089648371037e-09 1.64563412525251e-09 5.23179316184132e-09 1.07476998988971e-08 8.39408214409615e-09 9.94987385237324e-09 8.32785893553838e-09
"610" 10018 4.36997677439168e-09 2.94729380565717e-09 1.65431905298796e-09 5.23010213898847e-09 1.07443455282413e-08 8.43566836488741e-09 9.86261014586431e-09 8.30674599135844e-09
"611" 10019 4.36997677439168e-09 2.93369112760398e-09 1.6630039807234e-09 5.22841111613561e-09 1.07409911575856e-08 8.47725458567867e-09 9.77534643935539e-09 8.28563304717849e-09
"612" 10020 4.37660476459926e-09 2.93369112760398e-09 1.67530532921021e-09 5.23042173233511e-09 1.07392235092696e-08 8.5199181469992e-09 9.77883047557492e-09 8.27436066406052e-09
"613" 10021 4.38323275480684e-09 2.93369112760398e-09 1.67858863368129e-09 5.22041546252962e-09 1.073459783005e-08 8.54694094574851e-09 9.76784343579453e-09 8.27372881633388e-09
"614" 10022 4.38986074501442e-09 2.93369112760398e-09 1.68187193815236e-09 5.21040919272413e-09 1.07299721508304e-08 8.57396374449782e-09 9.75685639601414e-09 8.27309696860724e-09
"615" 10023 4.40895359930124e-09 2.9393655285288e-09 1.67867329470619e-09 5.20035611172661e-09 1.07333705462977e-08 8.55861227563263e-09 9.74819566484723e-09 8.2735620964039e-09
"616" 10024 4.41237277127974e-09 2.93322517288149e-09 1.66973806910892e-09 5.18833922572161e-09 1.0731465996817e-08 8.54509615064657e-09 9.73871573781984e-09 8.27469269724775e-09
"617" 10025 4.41579194325825e-09 2.92708481723418e-09 1.66080284351165e-09 5.17632233971662e-09 1.07295614473363e-08 8.53158002566051e-09 9.72923581079245e-09 8.2758232980916e-09
"618" 10026 4.41921111523675e-09 2.92094446158687e-09 1.65186761791438e-09 5.16430545371162e-09 1.07276568978556e-08 8.51806390067444e-09 9.71975588376505e-09 8.27695389893546e-09
"619" 10027 4.42263028721526e-09 2.91480410593955e-09 1.6429323923171e-09 5.15228856770663e-09 1.07257523483749e-08 8.50454777568838e-09 9.71027595673766e-09 8.27808449977931e-09
"620" 10028 4.42604945919376e-09 2.90866375029224e-09 1.63399716671983e-09 5.14027168170163e-09 1.07238477988942e-08 8.49103165070232e-09 9.70079602971027e-09 8.27921510062316e-09
"621" 10029 4.42604945919376e-09 2.90324563794727e-09 1.63399716671983e-09 5.1320188496717e-09 1.07325539660396e-08 8.49992937251719e-09 9.69496036027405e-09 8.27858325289651e-09
"622" 10030 4.42669043006939e-09 2.89793107109618e-09 1.62713977200984e-09 5.12876915254452e-09 1.07412601331849e-08 8.48811896629393e-09 9.68912469083782e-09 8.29284815471772e-09
"623" 10031 4.42733140094502e-09 2.89261650424509e-09 1.62028237729986e-09 5.12551945541734e-09 1.07499663003303e-08 8.47630856007067e-09 9.6832890214016e-09 8.30711305653893e-09
"624" 10032 4.42797237182064e-09 2.887301937394e-09 1.61342498258988e-09 5.12226975829015e-09 1.07586724674756e-08 8.4644981538474e-09 9.67745335196537e-09 8.32137795836014e-09
"625" 10033 4.42861334269627e-09 2.88198737054292e-09 1.60656758787989e-09 5.11902006116297e-09 1.0767378634621e-08 8.45268774762414e-09 9.67161768252915e-09 8.33564286018135e-09
"626" 10034 4.4292543135719e-09 2.87667280369183e-09 1.59971019316991e-09 5.11577036403579e-09 1.07760848017663e-08 8.44087734140087e-09 9.66578201309293e-09 8.34990776200256e-09
"627" 10035 4.42989528444753e-09 2.87135823684074e-09 1.59285279845992e-09 5.1125206669086e-09 1.07847909689117e-08 8.42906693517761e-09 9.6599463436567e-09 8.36417266382377e-09
"628" 10036 4.43053625532315e-09 2.86604366998966e-09 1.58599540374994e-09 5.10927096978142e-09 1.0793497136057e-08 8.41725652895434e-09 9.65411067422048e-09 8.37843756564498e-09
"629" 10037 4.43117722619878e-09 2.86072910313857e-09 1.57913800903995e-09 5.10602127265424e-09 1.08022033032024e-08 8.40544612273108e-09 9.64827500478425e-09 8.39270246746619e-09
"630" 10038 4.43673362840453e-09 2.85458874749125e-09 1.57373638577558e-09 5.10964489305322e-09 1.0808684680361e-08 8.39902241915415e-09 9.65243248669447e-09 8.39270246746619e-09
"631" 10039 4.44229003061029e-09 2.84844839184394e-09 1.56833476251121e-09 5.11326851345221e-09 1.08151660575197e-08 8.39259871557721e-09 9.65658996860468e-09 8.39270246746619e-09
"632" 10040 4.44784643281604e-09 2.84230803619663e-09 1.56293313924684e-09 5.11689213385119e-09 1.08216474346783e-08 8.38617501200028e-09 9.66074745051489e-09 8.39270246746619e-09
"633" 10041 4.45340283502179e-09 2.83616768054932e-09 1.55753151598247e-09 5.12051575425017e-09 1.0828128811837e-08 8.37975130842334e-09 9.6649049324251e-09 8.39270246746619e-09
"634" 10042 4.45895923722755e-09 2.83002732490201e-09 1.55212989271809e-09 5.12413937464916e-09 1.08346101889957e-08 8.37332760484641e-09 9.66906241433531e-09 8.39270246746619e-09
"635" 10043 4.4645156394333e-09 2.82388696925469e-09 1.54672826945372e-09 5.12776299504814e-09 1.08410915661543e-08 8.36690390126947e-09 9.67321989624552e-09 8.39270246746619e-09
"636" 10044 4.46344405143147e-09 2.74284649972981e-09 1.50786969943048e-09 5.13963944747705e-09 1.0847572943313e-08 8.37375681979404e-09 9.69235082507332e-09 8.38043398478653e-09
"637" 10045 4.45403984204648e-09 2.71839119778931e-09 1.50566671961227e-09 5.15326933768153e-09 1.08516510178738e-08 8.37653987908611e-09 9.6707333662604e-09 8.35742409075393e-09
"638" 10046 4.44463563266150e-09 2.6939358958488e-09 1.50346373979407e-09 5.166899227886e-09 1.08557290924345e-08 8.37932293837817e-09 9.64911590744749e-09 8.33441419672133e-09
"639" 10047 4.43523142327651e-09 2.6694805939083e-09 1.50126075997587e-09 5.18052911809048e-09 1.08598071669953e-08 8.38210599767024e-09 9.62749844863457e-09 8.31140430268873e-09
"640" 10048 4.42582721389152e-09 2.6450252919678e-09 1.49905778015767e-09 5.19415900829495e-09 1.0863885241556e-08 8.3848890569623e-09 9.60588098982166e-09 8.28839440865613e-09
"641" 10049 4.41642300450653e-09 2.62056999002729e-09 1.49685480033947e-09 5.20778889849943e-09 1.08679633161168e-08 8.38767211625436e-09 9.58426353100875e-09 8.26538451462352e-09
"642" 10050 4.40701879512154e-09 2.59611468808679e-09 1.49465182052127e-09 5.2214187887039e-09 1.08720413906775e-08 8.39045517554643e-09 9.56264607219583e-09 8.24237462059092e-09
"643" 10051 4.39761458573656e-09 2.57165938614629e-09 1.49244884070307e-09 5.23504867890838e-09 1.08761194652383e-08 8.39323823483849e-09 9.54102861338292e-09 8.21936472655832e-09
"644" 10052 4.44022886407592e-09 2.54698059402065e-09 1.48671225855196e-09 5.23680211668394e-09 1.08718116131597e-08 8.39283906336423e-09 9.84437646300951e-09 8.20004504292396e-09
"645" 10053 4.48284314241529e-09 2.52230180189502e-09 1.48097567640086e-09 5.2385555544595e-09 1.08675037610811e-08 8.39243989188998e-09 1.01477243126361e-08 8.1807253592896e-09
"646" 10054 4.4937495569283e-09 2.49867228875074e-09 1.4791039702565e-09 5.23652933452932e-09 1.08622424275796e-08 8.38983624853571e-09 1.01194375173247e-08 8.16260352714017e-09
"647" 10055 4.50465597144132e-09 2.47504277560646e-09 1.47723226411214e-09 5.23450311459914e-09 1.08569810940781e-08 8.38723260518145e-09 1.00911507220132e-08 8.14448169499074e-09
"648" 10056 4.51556238595433e-09 2.45141326246218e-09 1.47536055796778e-09 5.23247689466896e-09 1.08517197605766e-08 8.38462896182718e-09 1.00628639267017e-08 8.12635986284131e-09
"649" 10057 4.52646880046735e-09 2.42778374931791e-09 1.47348885182342e-09 5.23045067473878e-09 1.08464584270752e-08 8.38202531847292e-09 1.00345771313903e-08 8.10823803069188e-09
"650" 10058 4.53737521498036e-09 2.40415423617363e-09 1.47161714567906e-09 5.2284244548086e-09 1.08411970935737e-08 8.37942167511865e-09 1.00062903360788e-08 8.09011619854245e-09
"651" 10059 4.54828162949338e-09 2.38052472302935e-09 1.4697454395347e-09 5.22639823487842e-09 1.08359357600722e-08 8.37681803176439e-09 9.97800354076737e-09 8.07199436639303e-09
"652" 10060 4.5591880440064e-09 2.35689520988507e-09 1.46787373339034e-09 5.22437201494824e-09 1.08306744265707e-08 8.37421438841012e-09 9.94971674545591e-09 8.0538725342436e-09
"653" 10061 4.57009445851941e-09 2.33326569674080e-09 1.46600202724598e-09 5.22234579501806e-09 1.08254130930693e-08 8.37161074505586e-09 9.92142995014446e-09 8.03575070209417e-09
"654" 10062 4.58100087303243e-09 2.30963618359652e-09 1.46413032110162e-09 5.22031957508788e-09 1.08201517595678e-08 8.36900710170159e-09 9.893143154833e-09 8.01762886994474e-09
"655" 10063 4.59190728754544e-09 2.28600667045224e-09 1.46225861495726e-09 5.21829335515771e-09 1.08148904260663e-08 8.36640345834733e-09 9.86485635952154e-09 7.99950703779531e-09
"656" 10064 4.60281370205846e-09 2.26237715730796e-09 1.4603869088129e-09 5.21626713522753e-09 1.08096290925648e-08 8.36379981499306e-09 9.83656956421009e-09 7.98138520564588e-09
"657" 10065 4.62690003329375e-09 2.26320294610419e-09 1.46425178481964e-09 5.21650870992079e-09 1.08043677590634e-08 8.3611961716388e-09 9.82524399268413e-09 7.98138520564588e-09
"658" 10066 4.63609190700384e-09 2.2578883792531e-09 1.46811666082639e-09 5.21649310619012e-09 1.08015097281598e-08 8.36481706857557e-09 9.83554673337246e-09 7.96579217107575e-09
"659" 10067 4.64528378071393e-09 2.25257381240201e-09 1.47198153683313e-09 5.21647750245944e-09 1.07986516972562e-08 8.36843796551235e-09 9.84584947406079e-09 7.95019913650563e-09
"660" 10068 4.65447565442403e-09 2.24725924555092e-09 1.47584641283987e-09 5.21646189872876e-09 1.07957936663527e-08 8.37205886244912e-09 9.85615221474912e-09 7.9346061019355e-09
"661" 10069 4.66366752813412e-09 2.24194467869984e-09 1.47971128884662e-09 5.21644629499809e-09 1.07929356354491e-08 8.3756797593859e-09 9.86645495543746e-09 7.91901306736537e-09
"662" 10070 4.67285940184421e-09 2.23663011184875e-09 1.48357616485336e-09 5.21643069126741e-09 1.07900776045455e-08 8.37930065632267e-09 9.87675769612579e-09 7.90342003279524e-09
"663" 10071 4.6820512755543e-09 2.23131554499766e-09 1.4874410408601e-09 5.21641508753674e-09 1.0787219573642e-08 8.38292155325945e-09 9.88706043681412e-09 7.88782699822511e-09
"664" 10072 4.69124314926439e-09 2.22600097814657e-09 1.49130591686684e-09 5.21639948380606e-09 1.07843615427384e-08 8.38654245019622e-09 9.89736317750245e-09 7.87223396365498e-09
"665" 10073 4.70043502297448e-09 2.22068641129548e-09 1.49517079287359e-09 5.21638388007538e-09 1.07815035118348e-08 8.390163347133e-09 9.90766591819078e-09 7.85664092908486e-09
"666" 10074 4.72436922682401e-09 2.22042754756077e-09 1.49488000710575e-09 5.22014793405045e-09 1.0780232203271e-08 8.39207852530697e-09 9.92048051346745e-09 7.8436747547102e-09
"667" 10075 4.70755185667192e-09 2.21406370172833e-09 1.49458922133792e-09 5.22616417891829e-09 1.0785537561584e-08 8.39207852530697e-09 9.98052005130760e-09 7.82688386865514e-09
"668" 10076 4.69515314665823e-09 2.20792334608101e-09 1.49450640291946e-09 5.23807183880855e-09 1.09584167271835e-08 8.39215835960182e-09 9.97836119966667e-09 7.81867125488149e-09
"669" 10077 4.68275443664453e-09 2.2017829904337e-09 1.494423584501e-09 5.24997949869882e-09 1.1131295892783e-08 8.39223819389668e-09 9.97620234802575e-09 7.81045864110785e-09
"670" 10078 4.67035572663083e-09 2.19564263478639e-09 1.49434076608254e-09 5.26188715858908e-09 1.13041750583825e-08 8.39231802819153e-09 9.97404349638482e-09 7.8022460273342e-09
"671" 10079 4.65795701661713e-09 2.18950227913908e-09 1.49425794766408e-09 5.27379481847934e-09 1.1477054223982e-08 8.39239786248638e-09 9.9718846447439e-09 7.79403341356056e-09
"672" 10080 4.64555830660343e-09 2.18336192349176e-09 1.49417512924562e-09 5.28570247836961e-09 1.16499333895815e-08 8.39247769678123e-09 9.96972579310297e-09 7.78582079978692e-09
"673" 10081 4.63315959658973e-09 2.17722156784445e-09 1.49409231082716e-09 5.29761013825987e-09 1.1822812555181e-08 8.39255753107608e-09 9.96756694146205e-09 7.77760818601327e-09
