"time" "channel1" "channel2" "channel3" "channel4" "channel5" "channel6" "channel7" "channel8"
"1232" 29896 4.3740754148807e-10 1.62123693715963e-09 3.58544520595962e-09 8.82013611725823e-10 3.37399267045535e-09 1.59444351067915e-09 3.53657159338577e-10 1.75772455636208e-10
"1233" 29897 4.36766570612442e-10 1.62280136845556e-09 3.57921171329775e-09 8.79745817102377e-10 3.42237413618945e-09 1.58271293875074e-09 3.53493320166481e-10 1.75772455636208e-10
"1234" 29898 4.36125599736815e-10 1.62436579975148e-09 3.57297822063589e-09 8.77478022478932e-10 3.47075560192356e-09 1.57098236682232e-09 3.53329480994385e-10 1.75772455636208e-10
"1235" 29899 4.35484628861187e-10 1.62593023104741e-09 3.56674472797402e-09 8.75210227855487e-10 3.51913706765766e-09 1.55925179489391e-09 3.53165641822288e-10 1.75772455636208e-10
"1236" 29900 4.34843657985559e-10 1.62749466234333e-09 3.56051123531216e-09 8.72942433232042e-10 3.56751853339176e-09 1.5475212229655e-09 3.53001802650192e-10 1.75772455636208e-10
"1237" 29901 4.34202687109931e-10 1.62905909363926e-09 3.55427774265029e-09 8.70674638608597e-10 3.61589999912587e-09 1.53579065103709e-09 3.52837963478096e-10 1.75772455636208e-10
"1238" 29902 4.34631322310663e-10 1.62778632447277e-09 3.55199194441363e-09 8.68406843985152e-10 3.61326933237513e-09 1.52476829163706e-09 3.53668012739954e-10 1.75772455636208e-10
"1239" 29903 4.36413999104594e-10 1.62546427632492e-09 3.54575845175177e-09 8.66396227785648e-10 3.61326933237513e-09 1.5131175540035e-09 3.53336716595303e-10 1.76869431159519e-10
"1240" 29904 4.38196675898525e-10 1.62314222817708e-09 3.5395249590899e-09 8.64385611586144e-10 3.61326933237513e-09 1.50146681636994e-09 3.53005420450651e-10 1.77966406682829e-10
"1241" 29905 4.39979352692456e-10 1.62082018002923e-09 3.53329146642804e-09 8.6237499538664e-10 3.61326933237513e-09 1.48981607873638e-09 3.52674124306e-10 1.79063382206139e-10
"1242" 29906 4.39979352692456e-10 1.62054491709716e-09 3.53349943377741e-09 8.58673356334278e-10 3.61558217198491e-09 1.49010537244241e-09 3.52506667333444e-10 1.80293452338887e-10
"1243" 29907 4.39979352692456e-10 1.62026965416508e-09 3.53370740112678e-09 8.54971717281915e-10 3.61789501159470e-09 1.49039466614844e-09 3.52339210360889e-10 1.81523522471634e-10
"1244" 29908 4.39979352692456e-10 1.61999439123301e-09 3.53391536847616e-09 8.51270078229552e-10 3.62020785120448e-09 1.49068395985447e-09 3.52171753388333e-10 1.82753592604381e-10
"1245" 29909 4.39979352692456e-10 1.61971912830093e-09 3.53412333582553e-09 8.47568439177189e-10 3.62252069081426e-09 1.4909732535605e-09 3.52004296415778e-10 1.83983662737128e-10
"1246" 29910 4.39979352692456e-10 1.61944386536886e-09 3.5343313031749e-09 8.43866800124826e-10 3.62483353042404e-09 1.49126254726653e-09 3.51836839443223e-10 1.85213732869875e-10
"1247" 29911 4.39979352692456e-10 1.61916860243678e-09 3.53453927052428e-09 8.40165161072464e-10 3.62714637003383e-09 1.49155184097256e-09 3.51669382470667e-10 1.86443803002623e-10
"1248" 29912 4.39979352692456e-10 1.61889333950471e-09 3.53474723787365e-09 8.36463522020101e-10 3.62945920964361e-09 1.49184113467859e-09 3.51501925498112e-10 1.8767387313537e-10
"1249" 29913 4.42545218120436e-10 1.61252949367226e-09 3.53079954344845e-09 8.34452905820597e-10 3.62945920964361e-09 1.49184113467859e-09 3.50340580091602e-10 1.8767387313537e-10
"1250" 29914 4.42545218120436e-10 1.61820389459709e-09 3.53857346858083e-09 8.3838051583555e-10 3.62945920964361e-09 1.51688866830716e-09 3.49510530829743e-10 1.8767387313537e-10
"1251" 29915 4.42545218120436e-10 1.62387829552192e-09 3.54634739371321e-09 8.42308125850502e-10 3.62945920964361e-09 1.54193620193574e-09 3.48680481567885e-10 1.8767387313537e-10
"1252" 29916 4.42545218120436e-10 1.62955269644674e-09 3.5541213188456e-09 8.46235735865455e-10 3.62945920964361e-09 1.56698373556432e-09 3.47850432306026e-10 1.8767387313537e-10
"1253" 29917 4.42545218120436e-10 1.63522709737157e-09 3.56189524397798e-09 8.50163345880407e-10 3.62945920964361e-09 1.5920312691929e-09 3.47020383044167e-10 1.8767387313537e-10
"1254" 29918 4.42545218120436e-10 1.64090149829640e-09 3.56966916911036e-09 8.5409095589536e-10 3.62945920964361e-09 1.61707880282148e-09 3.46190333782309e-10 1.8767387313537e-10
"1255" 29919 4.42545218120436e-10 1.64657589922122e-09 3.57744309424275e-09 8.58018565910312e-10 3.62945920964361e-09 1.64212633645006e-09 3.4536028452045e-10 1.8767387313537e-10
"1256" 29920 4.42545218120436e-10 1.65225030014605e-09 3.58521701937513e-09 8.61946175925265e-10 3.62945920964361e-09 1.66717387007864e-09 3.44530235258592e-10 1.8767387313537e-10
"1257" 29921 4.42545218120436e-10 1.65792470107088e-09 3.59299094450751e-09 8.65873785940217e-10 3.62945920964361e-09 1.69222140370722e-09 3.43700185996733e-10 1.8767387313537e-10
"1258" 29922 4.42545218120436e-10 1.6635991019957e-09 3.6007648696399e-09 8.6980139595517e-10 3.62945920964361e-09 1.71726893733579e-09 3.42870136734874e-10 1.8767387313537e-10
"1259" 29923 4.46106607857361e-10 1.65751051909533e-09 3.59768953251820e-09 8.67533601331725e-10 3.63009245056049e-09 1.71697964362977e-09 3.45371137921828e-10 1.86443803002623e-10
"1260" 29924 4.49667997594286e-10 1.65142193619496e-09 3.59461419539649e-09 8.65265806708279e-10 3.63072569147737e-09 1.71669034992374e-09 3.47872139108781e-10 1.85213732869875e-10
"1261" 29925 4.53229387331211e-10 1.64533335329459e-09 3.59153885827479e-09 8.62998012084834e-10 3.63135893239426e-09 1.71640105621771e-09 3.50373140295734e-10 1.83983662737128e-10
"1262" 29926 4.56790777068135e-10 1.63924477039422e-09 3.58846352115309e-09 8.60730217461389e-10 3.63199217331114e-09 1.71611176251168e-09 3.52874141482687e-10 1.82753592604381e-10
"1263" 29927 4.6035216680506e-10 1.63315618749385e-09 3.58538818403139e-09 8.58462422837944e-10 3.63262541422802e-09 1.71582246880565e-09 3.5537514266964e-10 1.81523522471634e-10
"1264" 29928 4.63913556541985e-10 1.62706760459348e-09 3.58231284690968e-09 8.56194628214499e-10 3.63325865514491e-09 1.71553317509962e-09 3.57876143856593e-10 1.80293452338887e-10
"1265" 29929 4.6747494627891e-10 1.62097902169312e-09 3.57923750978798e-09 8.53926833591054e-10 3.63389189606179e-09 1.71524388139359e-09 3.60377145043546e-10 1.79063382206139e-10
"1266" 29930 4.71036336015835e-10 1.61489043879275e-09 3.57616217266628e-09 8.51659038967608e-10 3.63452513697867e-09 1.71495458768756e-09 3.628781462305e-10 1.77833312073392e-10
"1267" 29931 4.74597725752759e-10 1.60880185589238e-09 3.57308683554458e-09 8.49391244344163e-10 3.63515837789555e-09 1.71466529398153e-09 3.65379147417453e-10 1.76603241940645e-10
"1268" 29932 4.78159115489684e-10 1.60271327299201e-09 3.57001149842287e-09 8.47123449720718e-10 3.63579161881244e-09 1.7143760002755e-09 3.67880148604406e-10 1.75373171807898e-10
"1269" 29933 4.81720505226609e-10 1.59662469009164e-09 3.56693616130117e-09 8.44855655097273e-10 3.63642485972932e-09 1.71408670656947e-09 3.70381149791359e-10 1.74143101675151e-10
"1270" 29934 4.85281894963534e-10 1.59053610719127e-09 3.56386082417947e-09 8.42587860473828e-10 3.6370581006462e-09 1.71379741286344e-09 3.72882150978312e-10 1.72913031542403e-10
"1271" 29935 4.8806009606641e-10 1.58986563663587e-09 3.53522208654285e-09 8.4160595797009e-10 3.63578679208238e-09 1.6840619378941e-09 3.75710830509458e-10 1.71682961409656e-10
"1272" 29936 4.87202825664948e-10 1.57397370882955e-09 3.49989527624606e-09 8.32581590668336e-10 3.61751143935695e-09 1.67212190655451e-09 3.75055473821073e-10 1.70452891276909e-10
"1273" 29937 4.86345555263486e-10 1.55808178102323e-09 3.46456846594927e-09 8.23557223366583e-10 3.59923608663152e-09 1.66018187521493e-09 3.74400117132688e-10 1.69222821144162e-10
"1274" 29938 4.81926895125099e-10 1.54213808046997e-09 3.42924165565248e-09 8.1453285606483e-10 3.58304620936304e-09 1.6491595158149e-09 3.70082413850839e-10 1.67992751011414e-10
"1275" 29939 4.77508234986712e-10 1.52702016871293e-09 3.39283452070282e-09 8.05508488763077e-10 3.56685633209456e-09 1.64971835587886e-09 3.66598377631309e-10 1.66762680878667e-10
"1276" 29940 4.73089574848325e-10 1.51190225695589e-09 3.35642738575315e-09 7.96484121461324e-10 3.55066645482608e-09 1.65027719594282e-09 3.63114341411778e-10 1.6553261074592e-10
"1277" 29941 4.68670914709938e-10 1.49678434519885e-09 3.32002025080349e-09 7.8745975415957e-10 3.5344765775576e-09 1.65083603600679e-09 3.59630305192247e-10 1.64302540613173e-10
"1278" 29942 4.64252254571551e-10 1.48166643344182e-09 3.28361311585382e-09 7.78435386857817e-10 3.51828670028912e-09 1.65139487607075e-09 3.56146268972717e-10 1.63072470480426e-10
"1279" 29943 4.59833594433164e-10 1.46654852168478e-09 3.24720598090416e-09 7.69411019556064e-10 3.50209682302064e-09 1.65195371613471e-09 3.52662232753186e-10 1.61842400347678e-10
"1280" 29944 4.55414934294777e-10 1.45143060992774e-09 3.21079884595449e-09 7.60386652254311e-10 3.48590694575216e-09 1.65251255619867e-09 3.49178196533656e-10 1.60612330214931e-10
"1281" 29945 4.5099627415639e-10 1.4363126981707e-09 3.17439171100483e-09 7.51362284952558e-10 3.46971706848369e-09 1.65307139626264e-09 3.45694160314125e-10 1.59382260082184e-10
"1282" 29946 4.46577614018003e-10 1.42119478641366e-09 3.13798457605516e-09 7.42337917650805e-10 3.45352719121521e-09 1.6536302363266e-09 3.42210124094594e-10 1.58152189949437e-10
"1283" 29947 4.42158953879616e-10 1.40607687465663e-09 3.1015774411055e-09 7.33313550349051e-10 3.43733731394673e-09 1.65418907639056e-09 3.38726087875064e-10 1.5692211981669e-10
"1284" 29948 4.37740293741229e-10 1.39095896289959e-09 3.06517030615584e-09 7.24289183047298e-10 3.42114743667825e-09 1.65474791645452e-09 3.35242051655533e-10 1.55692049683942e-10
"1285" 29949 4.33321633602842e-10 1.37584105114255e-09 3.02876317120617e-09 7.15264815745545e-10 3.40495755940977e-09 1.65530675651849e-09 3.31758015436002e-10 1.54461979551195e-10
"1286" 29950 4.28902973464456e-10 1.36072313938551e-09 2.99235603625651e-09 7.06240448443792e-10 3.38876768214129e-09 1.65586559658245e-09 3.28273979216472e-10 1.53231909418448e-10
"1287" 29951 4.24484313326069e-10 1.34560522762847e-09 2.95594890130684e-09 6.97216081142039e-10 3.37257780487281e-09 1.65642443664641e-09 3.24789942996941e-10 1.52001839285701e-10
"1288" 29952 4.20065653187682e-10 1.33048731587144e-09 2.91954176635718e-09 6.88191713840285e-10 3.35638792760433e-09 1.65698327671038e-09 3.2130590677741e-10 1.50771769152954e-10
"1289" 29953 4.15646993049295e-10 1.3153694041144e-09 2.88313463140751e-09 6.79167346538532e-10 3.34019805033586e-09 1.65754211677434e-09 3.1782187055788e-10 1.49541699020206e-10
"1290" 29954 4.11228332910908e-10 1.30025149235736e-09 2.84672749645785e-09 6.70142979236779e-10 3.32400817306738e-09 1.6581009568383e-09 3.14337834338349e-10 1.48311628887459e-10
"1291" 29955 4.06809672772521e-10 1.28513358060032e-09 2.81032036150818e-09 6.61118611935026e-10 3.3078182957989e-09 1.65865979690226e-09 3.10853798118818e-10 1.47081558754712e-10
"1292" 29956 4.02391012634134e-10 1.27001566884328e-09 2.77391322655852e-09 6.52094244633273e-10 3.29162841853042e-09 1.65921863696623e-09 3.07369761899288e-10 1.45851488621965e-10
"1293" 29957 4.02391012634134e-10 1.27084145763951e-09 2.77370525920914e-09 6.51852669940007e-10 3.28904418995626e-09 1.67171750836978e-09 3.07369761899288e-10 1.45086546285884e-10
"1294" 29958 3.97972352495747e-10 1.27161547368879e-09 2.77279057139319e-09 6.51611095246742e-10 3.27979524488215e-09 1.68421637977333e-09 3.0803597198905e-10 1.45086546285884e-10
"1295" 29959 3.9355369235736e-10 1.27156370094185e-09 2.77208385092661e-09 6.51369520553476e-10 3.26510645369535e-09 1.68634101735848e-09 3.08199811161146e-10 1.45851488621965e-10
"1296" 29960 3.89135032218973e-10 1.2715119281949e-09 2.77137713046003e-09 6.5112794586021e-10 3.25041766250854e-09 1.68846565494364e-09 3.08363650333243e-10 1.46616430958045e-10
"1297" 29961 3.85928195915366e-10 1.27228594424419e-09 2.77968845400918e-09 6.54907603565952e-10 3.23572887132174e-09 1.68867511435482e-09 3.08363650333243e-10 1.47381373294126e-10
"1298" 29962 3.82721359611758e-10 1.27305996029347e-09 2.78799977755834e-09 6.58687261271694e-10 3.22104008013494e-09 1.68888457376599e-09 3.08363650333243e-10 1.48146315630207e-10
"1299" 29963 3.79514523308151e-10 1.27383397634275e-09 2.79631110110749e-09 6.62466918977436e-10 3.20635128894813e-09 1.68909403317717e-09 3.08363650333243e-10 1.48911257966288e-10
"1300" 29964 3.76307687004543e-10 1.27460799239203e-09 2.80462242465664e-09 6.66246576683178e-10 3.19166249776133e-09 1.68930349258835e-09 3.08363650333243e-10 1.49676200302368e-10
"1301" 29965 3.73100850700936e-10 1.27538200844131e-09 2.8129337482058e-09 6.7002623438892e-10 3.17697370657452e-09 1.68951295199953e-09 3.08363650333243e-10 1.50441142638449e-10
"1302" 29966 3.69894014397329e-10 1.2761560244906e-09 2.82124507175495e-09 6.73805892094662e-10 3.16228491538772e-09 1.6897224114107e-09 3.08363650333243e-10 1.5120608497453e-10
"1303" 29967 3.66687178093721e-10 1.27693004053988e-09 2.8295563953041e-09 6.77585549800404e-10 3.14759612420091e-09 1.68993187082188e-09 3.08363650333243e-10 1.5197102731061e-10
"1304" 29968 3.63480341790114e-10 1.27770405658916e-09 2.83786771885325e-09 6.81365207506146e-10 3.13290733301411e-09 1.69014133023306e-09 3.08363650333243e-10 1.52735969646691e-10
"1305" 29969 3.60273505486506e-10 1.27847807263844e-09 2.84617904240241e-09 6.85144865211888e-10 3.11821854182731e-09 1.69035078964424e-09 3.08363650333243e-10 1.53500911982772e-10
"1306" 29970 3.60273505486506e-10 1.27039447726924e-09 2.81272209564353e-09 6.80141730309142e-10 3.11812807883918e-09 1.6841262493532e-09 3.0769744024348e-10 1.51672619443921e-10
"1307" 29971 3.59562416694403e-10 1.2626215183817e-09 2.80212128864483e-09 6.81941979276732e-10 3.11681274546381e-09 1.67830088053642e-09 3.06703551809525e-10 1.52071903272232e-10
"1308" 29972 3.58851327902299e-10 1.25484855949416e-09 2.79152048164612e-09 6.83742228244322e-10 3.11549741208844e-09 1.67247551171964e-09 3.05709663375571e-10 1.52471187100543e-10
"1309" 29973 3.57284950634202e-10 1.2462498118104e-09 2.77260835109827e-09 6.81521244812904e-10 3.1142725417012e-09 1.67565774248596e-09 3.10373134003907e-10 1.52471187100543e-10
"1310" 29974 3.55718573366105e-10 1.23765106412663e-09 2.75369622055041e-09 6.79300261381487e-10 3.11304767131396e-09 1.67883997325228e-09 3.15036604632243e-10 1.52471187100543e-10
"1311" 29975 3.54152196098008e-10 1.22905231644287e-09 2.73478409000255e-09 6.77079277950069e-10 3.11182280092671e-09 1.68202220401861e-09 3.1970007526058e-10 1.52471187100543e-10
"1312" 29976 3.52585818829912e-10 1.2204535687591e-09 2.71587195945469e-09 6.74858294518651e-10 3.11059793053947e-09 1.68520443478493e-09 3.24363545888916e-10 1.52471187100543e-10
"1313" 29977 3.51019441561815e-10 1.21185482107534e-09 2.69695982890683e-09 6.72637311087234e-10 3.10937306015223e-09 1.68838666555125e-09 3.29027016517253e-10 1.52471187100543e-10
"1314" 29978 3.49453064293718e-10 1.20325607339157e-09 2.67804769835898e-09 6.70416327655816e-10 3.10814818976499e-09 1.69156889631758e-09 3.33690487145589e-10 1.52471187100543e-10
"1315" 29979 3.47886687025621e-10 1.19465732570781e-09 2.65913556781112e-09 6.68195344224398e-10 3.10692331937774e-09 1.6947511270839e-09 3.38353957773926e-10 1.52471187100543e-10
"1316" 29980 3.46320309757524e-10 1.18605857802404e-09 2.64022343726326e-09 6.65974360792981e-10 3.1056984489905e-09 1.69793335785022e-09 3.43017428402262e-10 1.52471187100543e-10
"1317" 29981 3.44753932489427e-10 1.17745983034028e-09 2.6213113067154e-09 6.63753377361563e-10 3.10447357860326e-09 1.70111558861655e-09 3.47680899030599e-10 1.52471187100543e-10
"1318" 29982 3.44753932489427e-10 1.16958332595885e-09 2.60239917616755e-09 6.63753377361563e-10 3.10651261588364e-09 1.69537005409462e-09 3.47680899030599e-10 1.52238623202209e-10
"1319" 29983 3.44753932489427e-10 1.16170682157743e-09 2.58348704561969e-09 6.63753377361563e-10 3.10855165316401e-09 1.68962451957269e-09 3.47680899030599e-10 1.52006059303876e-10
"1320" 29984 3.44753932489427e-10 1.153830317196e-09 2.56457491507183e-09 6.63753377361563e-10 3.11059069044439e-09 1.68387898505076e-09 3.47680899030599e-10 1.51773495405543e-10
"1321" 29985 3.44753932489427e-10 1.14595381281457e-09 2.54566278452397e-09 6.63753377361563e-10 3.11262972772477e-09 1.67813345052883e-09 3.47680899030599e-10 1.5154093150721e-10
"1322" 29986 3.44753932489427e-10 1.13807730843315e-09 2.52675065397612e-09 6.63753377361563e-10 3.11466876500515e-09 1.67238791600691e-09 3.47680899030599e-10 1.51308367608876e-10
"1323" 29987 3.44753932489427e-10 1.13020080405172e-09 2.50783852342826e-09 6.63753377361563e-10 3.11670780228552e-09 1.66664238148498e-09 3.47680899030599e-10 1.51075803710543e-10
"1324" 29988 3.44753932489427e-10 1.1223242996703e-09 2.4889263928804e-09 6.63753377361563e-10 3.1187468395659e-09 1.66089684696305e-09 3.47680899030599e-10 1.5084323981221e-10
"1325" 29989 3.44753932489427e-10 1.11444779528887e-09 2.47001426233254e-09 6.63753377361563e-10 3.12078587684628e-09 1.65515131244112e-09 3.47680899030599e-10 1.50610675913877e-10
"1326" 29990 3.44753932489427e-10 1.10657129090744e-09 2.45110213178468e-09 6.63753377361563e-10 3.12282491412666e-09 1.64940577791919e-09 3.47680899030599e-10 1.50378112015543e-10
"1327" 29991 3.44753932489427e-10 1.09869478652602e-09 2.43219000123683e-09 6.63753377361563e-10 3.12486395140703e-09 1.64366024339726e-09 3.47680899030599e-10 1.5014554811721e-10
"1328" 29992 3.44753932489427e-10 1.09081828214459e-09 2.41327787068897e-09 6.63753377361563e-10 3.12690298868741e-09 1.63791470887534e-09 3.47680899030599e-10 1.49912984218877e-10
"1329" 29993 3.44753932489427e-10 1.08294177776317e-09 2.39436574014111e-09 6.63753377361563e-10 3.12894202596779e-09 1.63216917435341e-09 3.47680899030599e-10 1.49680420320544e-10
"1330" 29994 3.4667684511631e-10 1.08388751125064e-09 2.39291181130194e-09 6.65732786099715e-10 3.09221763463575e-09 1.58979490673891e-09 3.46843614167822e-10 1.4981351492998e-10
"1331" 29995 3.48599757743193e-10 1.08483324473811e-09 2.39274617446502e-09 6.67696591107191e-10 3.0901321591788e-09 1.58979490673891e-09 3.47837502601777e-10 1.49580951031647e-10
"1332" 29996 3.50522670370077e-10 1.08577897822558e-09 2.3925805376281e-09 6.69660396114668e-10 3.08804668372184e-09 1.58979490673891e-09 3.48831391035731e-10 1.49348387133314e-10
"1333" 29997 3.50879205728863e-10 1.08682825720694e-09 2.39150021297523e-09 6.69403217690726e-10 3.08392217098451e-09 1.59554044126084e-09 3.48663934063176e-10 1.50878271805475e-10
"1334" 29998 3.52091029563642e-10 1.09092182763848e-09 2.39964589968746e-09 6.6938761396005e-10 3.07979765824718e-09 1.59737578513996e-09 3.48827773235272e-10 1.50645707907142e-10
"1335" 29999 3.53302853398422e-10 1.09501539807002e-09 2.40779158639969e-09 6.69372010229374e-10 3.07567314550985e-09 1.59921112901909e-09 3.48991612407368e-10 1.50413144008809e-10
"1336" 30000 3.54514677233201e-10 1.09910896850156e-09 2.41593727311192e-09 6.69356406498699e-10 3.07154863277252e-09 1.60104647289821e-09 3.49155451579465e-10 1.50180580110476e-10
"1337" 30001 3.55726501067981e-10 1.1032025389331e-09 2.42408295982416e-09 6.69340802768023e-10 3.06742412003519e-09 1.60288181677734e-09 3.49319290751561e-10 1.49948016212142e-10
"1338" 30002 3.5693832490276e-10 1.10729610936464e-09 2.43222864653639e-09 6.69325199037347e-10 3.06329960729785e-09 1.60471716065646e-09 3.49483129923657e-10 1.49715452313809e-10
"1339" 30003 3.5815014873754e-10 1.11138967979619e-09 2.44037433324862e-09 6.69309595306671e-10 3.05917509456052e-09 1.60655250453558e-09 3.49646969095754e-10 1.49482888415476e-10
"1340" 30004 3.59361972572319e-10 1.11548325022773e-09 2.44852001996085e-09 6.69293991575995e-10 3.05505058182319e-09 1.60838784841471e-09 3.4981080826785e-10 1.49250324517143e-10
"1341" 30005 3.60573796407099e-10 1.11957682065927e-09 2.45666570667309e-09 6.69278387845319e-10 3.05092606908586e-09 1.61022319229383e-09 3.49974647439946e-10 1.49017760618809e-10
"1342" 30006 3.61785620241878e-10 1.12367039109081e-09 2.46481139338532e-09 6.69262784114644e-10 3.04680155634853e-09 1.61205853617296e-09 3.50138486612042e-10 1.48785196720476e-10
"1343" 30007 3.62997444076658e-10 1.12776396152235e-09 2.47295708009755e-09 6.69247180383968e-10 3.0426770436112e-09 1.61389388005208e-09 3.50302325784139e-10 1.48552632822143e-10
"1344" 30008 3.64209267911437e-10 1.13185753195389e-09 2.48110276680978e-09 6.69231576653292e-10 3.03855253087386e-09 1.61572922393121e-09 3.50466164956235e-10 1.4832006892381e-10
"1345" 30009 3.65421091746217e-10 1.13595110238544e-09 2.48924845352202e-09 6.69215972922616e-10 3.03442801813653e-09 1.61756456781033e-09 3.50630004128331e-10 1.48087505025476e-10
"1346" 30010 3.66632915580996e-10 1.14004467281698e-09 2.49739414023425e-09 6.6920036919194e-10 3.0303035053992e-09 1.61939991168945e-09 3.50793843300427e-10 1.47854941127143e-10
"1347" 30011 3.67844739415776e-10 1.14413824324852e-09 2.50553982694648e-09 6.69184765461265e-10 3.02617899266187e-09 1.62123525556858e-09 3.50957682472524e-10 1.4762237722881e-10
"1348" 30012 3.69056563250555e-10 1.14823181368006e-09 2.51368551365871e-09 6.69169161730589e-10 3.02205447992454e-09 1.6230705994477e-09 3.5112152164462e-10 1.47389813330477e-10
"1349" 30013 3.70268387085335e-10 1.1523253841116e-09 2.52183120037095e-09 6.69153557999913e-10 3.01792996718721e-09 1.62490594332683e-09 3.51285360816716e-10 1.47157249432143e-10
"1350" 30014 3.71480210920114e-10 1.15641895454314e-09 2.52997688708318e-09 6.69137954269237e-10 3.01380545444987e-09 1.62674128720595e-09 3.51449199988812e-10 1.4692468553381e-10
"1351" 30015 3.72692034754894e-10 1.16051252497468e-09 2.53812257379541e-09 6.69122350538561e-10 3.00968094171254e-09 1.62857663108508e-09 3.51613039160909e-10 1.46692121635477e-10
"1352" 30016 3.73761640831253e-10 1.16355681642487e-09 2.54705779939268e-09 6.68350815266737e-10 3.01099627508791e-09 1.62962392814096e-09 3.51776878333005e-10 1.46692121635477e-10
"1353" 30017 3.74831246907611e-10 1.16660110787505e-09 2.55599302498996e-09 6.67579279994913e-10 3.01231160846328e-09 1.63067122519685e-09 3.51940717505101e-10 1.46692121635477e-10
"1354" 30018 3.74689029149191e-10 1.16577531907883e-09 2.55599302498996e-09 6.66823348453764e-10 3.01566597911903e-09 1.63342424101554e-09 3.52104556677197e-10 1.4692468553381e-10
"1355" 30019 3.7454681139077e-10 1.1649495302826e-09 2.55599302498996e-09 6.66067416912616e-10 3.01902034977477e-09 1.63617725683422e-09 3.52268395849294e-10 1.47157249432143e-10
"1356" 30020 3.74761128991136e-10 1.16484598478872e-09 2.55952662732286e-09 6.66036209451264e-10 3.02174147951364e-09 1.6648353912743e-09 3.52934605939056e-10 1.47024154822707e-10
"1357" 30021 3.74975446591501e-10 1.16474243929483e-09 2.56306022965576e-09 6.66005001989913e-10 3.0244626092525e-09 1.69349352571437e-09 3.53600816028818e-10 1.4689106021327e-10
"1358" 30022 3.75189764191867e-10 1.16463889380095e-09 2.56659383198866e-09 6.65973794528561e-10 3.02718373899136e-09 1.72215166015444e-09 3.54267026118581e-10 1.46757965603833e-10
"1359" 30023 3.75404081792232e-10 1.16453534830706e-09 2.57012743432156e-09 6.65942587067209e-10 3.02990486873023e-09 1.75080979459451e-09 3.54933236208343e-10 1.46624870994396e-10
"1360" 30024 3.75618399392598e-10 1.16443180281318e-09 2.57366103665446e-09 6.65911379605858e-10 3.03262599846909e-09 1.77946792903458e-09 3.55599446298105e-10 1.46491776384959e-10
"1361" 30025 3.75832716992963e-10 1.16432825731929e-09 2.57719463898737e-09 6.65880172144506e-10 3.03534712820795e-09 1.80812606347465e-09 3.56265656387868e-10 1.46358681775522e-10
"1362" 30026 3.76047034593329e-10 1.1642247118254e-09 2.58072824132027e-09 6.65848964683154e-10 3.03806825794682e-09 1.83678419791473e-09 3.5693186647763e-10 1.46225587166085e-10
"1363" 30027 3.76261352193694e-10 1.16412116633152e-09 2.58426184365317e-09 6.65817757221803e-10 3.04078938768568e-09 1.8654423323548e-09 3.57598076567392e-10 1.46092492556649e-10
"1364" 30028 3.7647566979406e-10 1.16274485167114e-09 2.58717154393795e-09 6.66542481301599e-10 3.0401561467688e-09 1.89517780732414e-09 3.58264286657155e-10 1.45959397947212e-10
"1365" 30029 3.76689987394425e-10 1.15758560306089e-09 2.5753671059619e-09 6.63565566329033e-10 3.04287727650766e-09 1.92462398858744e-09 3.58930496746917e-10 1.45593739439442e-10
"1366" 30030 3.76904304994791e-10 1.15242635445063e-09 2.56356266798586e-09 6.60588651356467e-10 3.04559840624653e-09 1.95407016985075e-09 3.59596706836679e-10 1.45228080931671e-10
"1367" 30031 3.77118622595156e-10 1.14726710584037e-09 2.55175823000981e-09 6.57611736383901e-10 3.04831953598539e-09 1.98351635111406e-09 3.60262916926442e-10 1.44862422423901e-10
"1368" 30032 3.77332940195522e-10 1.14210785723011e-09 2.53995379203376e-09 6.54634821411335e-10 3.05104066572425e-09 2.01296253237737e-09 3.60929127016204e-10 1.44496763916131e-10
"1369" 30033 3.77547257795888e-10 1.13694860861985e-09 2.52814935405772e-09 6.51657906438769e-10 3.05376179546312e-09 2.04240871364068e-09 3.61595337105966e-10 1.44131105408361e-10
"1370" 30034 3.77761575396253e-10 1.13178936000959e-09 2.51634491608167e-09 6.48680991466203e-10 3.05648292520198e-09 2.07185489490398e-09 3.62261547195729e-10 1.43765446900591e-10
"1371" 30035 3.77975892996619e-10 1.12663011139933e-09 2.50454047810562e-09 6.45704076493637e-10 3.05920405494084e-09 2.10130107616729e-09 3.62927757285491e-10 1.43399788392821e-10
"1372" 30036 3.78190210596984e-10 1.12147086278907e-09 2.49273604012958e-09 6.42727161521071e-10 3.06192518467971e-09 2.1307472574306e-09 3.63593967375253e-10 1.43034129885051e-10
"1373" 30037 3.7840452819735e-10 1.11631161417881e-09 2.48093160215353e-09 6.39750246548505e-10 3.06464631441857e-09 2.16019343869391e-09 3.64260177465016e-10 1.42668471377281e-10
"1374" 30038 3.78618845797715e-10 1.11115236556855e-09 2.46912716417748e-09 6.36773331575939e-10 3.06736744415743e-09 2.18963961995722e-09 3.64926387554778e-10 1.42302812869511e-10
"1375" 30039 3.78833163398081e-10 1.1059931169583e-09 2.45732272620143e-09 6.33796416603373e-10 3.0700885738963e-09 2.21908580122052e-09 3.65592597644541e-10 1.4193715436174e-10
"1376" 30040 3.79047480998446e-10 1.10083386834804e-09 2.44551828822539e-09 6.30819501630807e-10 3.07280970363516e-09 2.24853198248383e-09 3.66258807734303e-10 1.4157149585397e-10
"1377" 30041 3.80828175866909e-10 1.09577816523166e-09 2.44239877798479e-09 6.2784258665824e-10 3.08749849482197e-09 2.26880144435152e-09 3.66925017824065e-10 1.412058373462e-10
"1378" 30042 3.80828175866909e-10 1.0935596625777e-09 2.44659677027182e-09 6.24125343875202e-10 3.09085286547771e-09 2.2708762911152e-09 3.6675756085151e-10 1.4084017883843e-10
"1379" 30043 3.80828175866909e-10 1.09134115992374e-09 2.45079476255885e-09 6.20408101092163e-10 3.09420723613346e-09 2.27295113787888e-09 3.66590103878954e-10 1.4047452033066e-10
"1380" 30044 3.80828175866909e-10 1.08912265726978e-09 2.45499275484588e-09 6.16690858309125e-10 3.0975616067892e-09 2.27502598464256e-09 3.66422646906399e-10 1.4010886182289e-10
"1381" 30045 3.80828175866909e-10 1.08690415461582e-09 2.4591907471329e-09 6.12973615526086e-10 3.10091597744495e-09 2.27710083140624e-09 3.66255189933844e-10 1.3974320331512e-10
"1382" 30046 3.80828175866909e-10 1.08468565196186e-09 2.46338873941993e-09 6.09256372743047e-10 3.1042703481007e-09 2.27917567816992e-09 3.66087732961288e-10 1.3937754480735e-10
"1383" 30047 3.80828175866909e-10 1.0824671493079e-09 2.46758673170696e-09 6.05539129960009e-10 3.10762471875644e-09 2.2812505249336e-09 3.65920275988733e-10 1.39011886299579e-10
"1384" 30048 3.80828175866909e-10 1.08024864665394e-09 2.47178472399399e-09 6.0182188717697e-10 3.11097908941219e-09 2.28332537169728e-09 3.65752819016178e-10 1.38646227791809e-10
"1385" 30049 3.80828175866909e-10 1.07803014399998e-09 2.47598271628102e-09 5.98104644393932e-10 3.11433346006794e-09 2.28540021846096e-09 3.65585362043622e-10 1.38280569284039e-10
"1386" 30050 3.80828175866909e-10 1.07581164134602e-09 2.48018070856805e-09 5.94387401610893e-10 3.11768783072368e-09 2.28747506522464e-09 3.65417905071067e-10 1.37914910776269e-10
"1387" 30051 3.80828175866909e-10 1.07359313869206e-09 2.48437870085508e-09 5.90670158827854e-10 3.12104220137943e-09 2.28954991198832e-09 3.65250448098512e-10 1.37549252268499e-10
"1388" 30052 3.80828175866909e-10 1.0713746360381e-09 2.48857669314211e-09 5.86952916044816e-10 3.12439657203518e-09 2.291624758752e-09 3.65082991125956e-10 1.37183593760729e-10
"1389" 30053 3.80828175866909e-10 1.06915613338414e-09 2.49277468542914e-09 5.83235673261777e-10 3.12775094269092e-09 2.29369960551568e-09 3.64915534153401e-10 1.36817935252959e-10
"1390" 30054 3.80828175866909e-10 1.06693763073018e-09 2.49697267771617e-09 5.79518430478738e-10 3.13110531334667e-09 2.29577445227936e-09 3.64748077180845e-10 1.36452276745189e-10
"1391" 30055 3.81042493467274e-10 1.06110791156453e-09 2.48225853945534e-09 5.79580845401442e-10 3.14103635087926e-09 2.30742518991292e-09 3.67070767993866e-10 1.37316688370166e-10
"1392" 30056 3.82112099543633e-10 1.05732497761464e-09 2.46754440119451e-09 5.81895451216914e-10 3.14235168425463e-09 2.30734535561806e-09 3.68901941290598e-10 1.37316688370166e-10
"1393" 30057 3.83181705619992e-10 1.05354204366476e-09 2.45283026293368e-09 5.84210057032387e-10 3.14366701763e-09 2.30726552132321e-09 3.70733114587329e-10 1.37316688370166e-10
"1394" 30058 3.84251311696351e-10 1.04975910971487e-09 2.43811612467285e-09 5.8652466284786e-10 3.14498235100536e-09 2.30718568702836e-09 3.72564287884061e-10 1.37316688370166e-10
"1395" 30059 3.85106600172344e-10 1.05103187888136e-09 2.43487515071423e-09 5.92540907715695e-10 3.14357655464187e-09 2.2776596714702e-09 3.72072770367772e-10 1.30866523167015e-10
"1396" 30060 3.8439551138024e-10 1.05240819354174e-09 2.43487515071423e-09 5.98572756314207e-10 3.13378483163901e-09 2.26537025947783e-09 3.74071400637059e-10 1.30866523167015e-10
"1397" 30061 3.83684422588137e-10 1.05378450820211e-09 2.43487515071423e-09 6.04604604912718e-10 3.12399310863615e-09 2.25308084748545e-09 3.76070030906346e-10 1.30866523167015e-10
"1398" 30062 3.82973333796033e-10 1.05516082286249e-09 2.43487515071423e-09 6.10636453511229e-10 3.11420138563329e-09 2.24079143549308e-09 3.78068661175633e-10 1.30866523167015e-10
"1399" 30063 3.82262245003929e-10 1.05653713752286e-09 2.43487515071423e-09 6.1666830210974e-10 3.10440966263043e-09 2.2285020235007e-09 3.8006729144492e-10 1.30866523167015e-10
"1400" 30064 3.81551156211826e-10 1.05791345218324e-09 2.43487515071423e-09 6.22700150708252e-10 3.09461793962757e-09 2.21621261150833e-09 3.82065921714207e-10 1.30866523167015e-10
"1401" 30065 3.80840067419722e-10 1.05928976684361e-09 2.43487515071423e-09 6.28731999306763e-10 3.0848262166247e-09 2.20392319951595e-09 3.84064551983494e-10 1.30866523167015e-10
"1402" 30066 3.80128978627619e-10 1.06066608150399e-09 2.43487515071423e-09 6.34763847905274e-10 3.07503449362184e-09 2.19163378752358e-09 3.86063182252781e-10 1.30866523167015e-10
"1403" 30067 3.79417889835515e-10 1.06204239616436e-09 2.43487515071423e-09 6.40795696503786e-10 3.06524277061898e-09 2.1793443755312e-09 3.88061812522069e-10 1.30866523167015e-10
"1404" 30068 3.78706801043411e-10 1.06341871082473e-09 2.43487515071423e-09 6.46827545102297e-10 3.05545104761612e-09 2.16705496353883e-09 3.90060442791356e-10 1.30866523167015e-10
"1405" 30069 3.77995712251308e-10 1.06479502548511e-09 2.43487515071423e-09 6.52859393700808e-10 3.04565932461326e-09 2.15476555154645e-09 3.92059073060643e-10 1.30866523167015e-10
"1406" 30070 3.77284623459204e-10 1.06617134014548e-09 2.43487515071423e-09 6.58891242299319e-10 3.0358676016104e-09 2.14247613955408e-09 3.9405770332993e-10 1.30866523167015e-10
"1407" 30071 3.765735346671e-10 1.06754765480586e-09 2.43487515071423e-09 6.64923090897831e-10 3.02607587860754e-09 2.1301867275617e-09 3.96056333599217e-10 1.30866523167015e-10
"1408" 30072 3.75862445874997e-10 1.06892396946623e-09 2.43487515071423e-09 6.70954939496342e-10 3.01628415560468e-09 2.11789731556933e-09 3.98054963868504e-10 1.30866523167015e-10
"1409" 30073 3.75151357082893e-10 1.07030028412661e-09 2.43487515071423e-09 6.76986788094853e-10 3.00649243260182e-09 2.10560790357695e-09 4.00053594137791e-10 1.30866523167015e-10
"1410" 30074 3.76220963159252e-10 1.07045560236744e-09 2.43578983853018e-09 6.81039227955213e-10 3.00739947584811e-09 2.10560790357695e-09 4.0121855734476e-10 1.29336638494854e-10
"1411" 30075 3.77290569235611e-10 1.07061092060827e-09 2.43670452634614e-09 6.85091667815572e-10 3.0083065190944e-09 2.10560790357695e-09 4.02383520551729e-10 1.27806753822693e-10
"1412" 30076 3.7836017531197e-10 1.07076623884909e-09 2.43761921416209e-09 6.89144107675931e-10 3.00921356234068e-09 2.10560790357695e-09 4.03548483758699e-10 1.26276869150531e-10
"1413" 30077 3.79429781388328e-10 1.07092155708992e-09 2.43853390197804e-09 6.9319654753629e-10 3.01012060558697e-09 2.10560790357695e-09 4.04713446965668e-10 1.2474698447837e-10
"1414" 30078 3.79287563629908e-10 1.07284839761445e-09 2.44268956375262e-09 6.90975564104872e-10 3.03813882977366e-09 2.14178767437379e-09 4.05878410172637e-10 1.22851441298438e-10
"1415" 30079 3.79287563629908e-10 1.07173094668879e-09 2.4437698884055e-09 6.8899615536672e-10 3.04317038575728e-09 2.14572790848997e-09 4.05212200082875e-10 1.21321556626277e-10
"1416" 30080 3.79287563629908e-10 1.07061349576313e-09 2.44485021305837e-09 6.87016746628568e-10 3.0482019417409e-09 2.14966814260615e-09 4.04545989993113e-10 1.19791671954115e-10
"1417" 30081 3.79287563629908e-10 1.06949604483747e-09 2.44593053771124e-09 6.85037337890416e-10 3.05323349772452e-09 2.15360837672233e-09 4.0387977990335e-10 1.18261787281954e-10
"1418" 30082 3.79287563629908e-10 1.06837859391181e-09 2.44701086236412e-09 6.83057929152264e-10 3.05826505370814e-09 2.15754861083852e-09 4.03213569813588e-10 1.16731902609792e-10
"1419" 30083 3.79287563629908e-10 1.06726114298614e-09 2.44809118701699e-09 6.81078520414112e-10 3.06329660969176e-09 2.1614888449547e-09 4.02547359723826e-10 1.15202017937631e-10
"1420" 30084 3.79287563629908e-10 1.06614369206048e-09 2.44917151166987e-09 6.7909911167596e-10 3.06832816567538e-09 2.16542907907088e-09 4.01881149634063e-10 1.1367213326547e-10
"1421" 30085 3.79287563629908e-10 1.06502624113482e-09 2.45025183632274e-09 6.77119702937808e-10 3.073359721659e-09 2.16936931318706e-09 4.01214939544301e-10 1.12142248593308e-10
"1422" 30086 3.79429781388328e-10 1.06390879020916e-09 2.42161309868612e-09 6.71165872992676e-10 3.07870910478357e-09 2.17330954730324e-09 3.97064693235008e-10 1.12374812491641e-10
"1423" 30087 3.79571999146749e-10 1.06086449875898e-09 2.41346741197389e-09 6.69139653062496e-10 3.0771199690788e-09 2.17724978141943e-09 3.95233519938276e-10 1.11510400866664e-10
"1424" 30088 3.7971421690517e-10 1.05782020730879e-09 2.40532172526166e-09 6.67113433132316e-10 3.07553083337402e-09 2.18119001553561e-09 3.93402346641545e-10 1.10645989241687e-10
"1425" 30089 3.79856434663591e-10 1.05477591585861e-09 2.39717603854943e-09 6.65087213202137e-10 3.07394169766925e-09 2.18513024965179e-09 3.91571173344813e-10 1.0978157761671e-10
"1426" 30090 3.79998652422011e-10 1.05173162440842e-09 2.3890303518372e-09 6.63060993271957e-10 3.07235256196448e-09 2.18907048376797e-09 3.89740000048081e-10 1.08917165991733e-10
"1427" 30091 3.80140870180432e-10 1.04868733295824e-09 2.38088466512496e-09 6.61034773341778e-10 3.0707634262597e-09 2.19301071788415e-09 3.8790882675135e-10 1.08052754366756e-10
"1428" 30092 3.80283087938853e-10 1.04564304150806e-09 2.37273897841273e-09 6.59008553411598e-10 3.06917429055493e-09 2.19695095200034e-09 3.86077653454618e-10 1.07188342741779e-10
"1429" 30093 3.80425305697273e-10 1.04259875005787e-09 2.3645932917005e-09 6.56982333481419e-10 3.06758515485016e-09 2.20089118611652e-09 3.84246480157886e-10 1.06323931116802e-10
"1430" 30094 3.80567523455694e-10 1.03955445860769e-09 2.35644760498827e-09 6.54956113551239e-10 3.06599601914538e-09 2.2048314202327e-09 3.82415306861155e-10 1.05459519491825e-10
"1431" 30095 3.80709741214115e-10 1.0365101671575e-09 2.34830191827603e-09 6.52929893621059e-10 3.06440688344061e-09 2.20877165434888e-09 3.80584133564423e-10 1.04595107866847e-10
"1432" 30096 3.80851958972536e-10 1.03346587570732e-09 2.3401562315638e-09 6.5090367369088e-10 3.06281774773583e-09 2.21271188846506e-09 3.78752960267691e-10 1.0373069624187e-10
"1433" 30097 3.80994176730956e-10 1.03042158425713e-09 2.33201054485157e-09 6.488774537607e-10 3.06122861203106e-09 2.21665212258124e-09 3.7692178697096e-10 1.02866284616893e-10
"1434" 30098 3.81136394489377e-10 1.02737729280695e-09 2.32386485813934e-09 6.4685123383052e-10 3.05963947632629e-09 2.22059235669743e-09 3.75090613674228e-10 1.02001872991916e-10
"1435" 30099 3.81136394489377e-10 1.03532196913268e-09 2.32336794762857e-09 6.45565341710813e-10 3.05723617372838e-09 2.2402231442063e-09 3.73091983404941e-10 1.01137461366939e-10
"1436" 30100 3.81919583123425e-10 1.03145188888627e-09 2.31505662407942e-09 6.4355472551131e-10 3.05823126659776e-09 2.24093135673468e-09 3.7358350092123e-10 1.02500626109123e-10
"1437" 30101 3.82702771757474e-10 1.02758180863986e-09 2.30674530053027e-09 6.41544109311806e-10 3.05922635946715e-09 2.24163956926307e-09 3.74075018437518e-10 1.03863790851307e-10
"1438" 30102 3.83485960391522e-10 1.02371172839345e-09 2.29843397698112e-09 6.39533493112302e-10 3.06022145233654e-09 2.24234778179145e-09 3.74566535953807e-10 1.05226955593491e-10
"1439" 30103 3.84269149025571e-10 1.01984164814704e-09 2.29012265343196e-09 6.37522876912798e-10 3.06121654520593e-09 2.24305599431984e-09 3.75058053470096e-10 1.06590120335675e-10
"1440" 30104 3.85052337659619e-10 1.01597156790063e-09 2.28181132988281e-09 6.35512260713295e-10 3.06221163807531e-09 2.24376420684822e-09 3.75549570986385e-10 1.0795328507786e-10
"1441" 30105 3.85835526293668e-10 1.01210148765422e-09 2.27350000633366e-09 6.33501644513791e-10 3.0632067309447e-09 2.24447241937661e-09 3.76041088502673e-10 1.09316449820044e-10
"1442" 30106 3.86618714927716e-10 1.00823140740781e-09 2.2651886827845e-09 6.31491028314287e-10 3.06420182381409e-09 2.24518063190499e-09 3.76532606018962e-10 1.10679614562228e-10
"1443" 30107 3.87401903561764e-10 1.0043613271614e-09 2.25687735923535e-09 6.29480412114783e-10 3.06519691668348e-09 2.24588884443338e-09 3.77024123535251e-10 1.12042779304412e-10
"1444" 30108 3.86973268361033e-10 1.00430955441446e-09 2.25671172239843e-09 6.29480412114783e-10 3.07322099137034e-09 2.24297616002499e-09 3.77024123535251e-10 1.14636014179343e-10
"1445" 30109 3.86544633160302e-10 1.00425778166751e-09 2.25654608556151e-09 6.29480412114783e-10 3.0812450660572e-09 2.2400634756166e-09 3.77024123535251e-10 1.17229249054274e-10
"1446" 30110 3.86115997959571e-10 1.00420600892057e-09 2.25638044872459e-09 6.29480412114783e-10 3.08926914074406e-09 2.2371507912082e-09 3.77024123535251e-10 1.19822483929206e-10
"1447" 30111 3.8568736275884e-10 1.00415423617363e-09 2.25621481188767e-09 6.29480412114783e-10 3.09729321543092e-09 2.23423810679982e-09 3.77024123535251e-10 1.22415718804137e-10
"1448" 30112 3.85258727558109e-10 1.00410246342669e-09 2.25604917505075e-09 6.29480412114783e-10 3.10531729011778e-09 2.23132542239143e-09 3.77024123535251e-10 1.25008953679068e-10
"1449" 30113 3.84403439082116e-10 1.00792077092615e-09 2.28032059835052e-09 6.30236343655932e-10 3.11075713623048e-09 2.22770452545465e-09 3.7470143272223e-10 1.26904496859e-10
"1450" 30114 3.83974803881385e-10 1.00764550799408e-09 2.27953105946548e-09 6.30961067735728e-10 3.11411150688623e-09 2.23637304051025e-09 3.72211284936655e-10 1.28800040038931e-10
"1451" 30115 3.83546168680654e-10 1.007370245062e-09 2.27874152058044e-09 6.31685791815525e-10 3.11746587754198e-09 2.24504155556585e-09 3.69721137151079e-10 1.30695583218863e-10
"1452" 30116 3.8269088020466e-10 1.00709498212993e-09 2.27766119592757e-09 6.31685791815525e-10 3.1175563405301e-09 2.24142065862908e-09 3.67562285510155e-10 1.30695583218863e-10
"1453" 30117 3.81835591728667e-10 1.00681971919785e-09 2.27658087127469e-09 6.31685791815525e-10 3.11764680351823e-09 2.2377997616923e-09 3.6540343386923e-10 1.30695583218863e-10
"1454" 30118 3.80980303252674e-10 1.00654445626578e-09 2.27550054662182e-09 6.31685791815525e-10 3.11773726650635e-09 2.23417886475553e-09 3.63244582228306e-10 1.30695583218863e-10
"1455" 30119 3.80125014776681e-10 1.0062691933337e-09 2.27442022196895e-09 6.31685791815525e-10 3.11782772949448e-09 2.23055796781875e-09 3.61085730587382e-10 1.30695583218863e-10
"1456" 30120 3.79269726300687e-10 1.00599393040163e-09 2.27333989731607e-09 6.31685791815525e-10 3.11791819248261e-09 2.22693707088198e-09 3.58926878946458e-10 1.30695583218863e-10
"1457" 30121 3.78414437824694e-10 1.00571866746955e-09 2.2722595726632e-09 6.31685791815525e-10 3.11800865547073e-09 2.2233161739452e-09 3.56768027305534e-10 1.30695583218863e-10
"1458" 30122 3.77559149348701e-10 1.00544340453748e-09 2.27117924801032e-09 6.31685791815525e-10 3.11809911845886e-09 2.21969527700843e-09 3.5460917566461e-10 1.30695583218863e-10
"1459" 30123 3.76703860872708e-10 1.0051681416054e-09 2.27009892335745e-09 6.31685791815525e-10 3.11818958144698e-09 2.21607438007165e-09 3.52450324023685e-10 1.30695583218863e-10
"1460" 30124 3.75848572396715e-10 1.00489287867333e-09 2.26901859870457e-09 6.31685791815525e-10 3.11828004443511e-09 2.21245348313488e-09 3.50291472382761e-10 1.30695583218863e-10
"1461" 30125 3.74993283920721e-10 1.00461761574125e-09 2.2679382740517e-09 6.31685791815525e-10 3.11837050742324e-09 2.2088325861981e-09 3.48132620741837e-10 1.30695583218863e-10
"1462" 30126 3.74137995444728e-10 1.00434235280918e-09 2.26685794939882e-09 6.31685791815525e-10 3.11846097041136e-09 2.20521168926133e-09 3.45973769100913e-10 1.30695583218863e-10
"1463" 30127 3.73282706968735e-10 1.0040670898771e-09 2.26577762474595e-09 6.31685791815525e-10 3.11855143339949e-09 2.20159079232456e-09 3.43814917459989e-10 1.30695583218863e-10
"1464" 30128 3.72427418492742e-10 1.00379182694503e-09 2.26469730009308e-09 6.31685791815525e-10 3.11864189638761e-09 2.19796989538778e-09 3.41656065819064e-10 1.30695583218863e-10
"1465" 30129 3.72427418492742e-10 1.00284609345756e-09 2.26469730009308e-09 6.30929860274377e-10 3.11873235937574e-09 2.1972616828594e-09 3.41987361963716e-10 1.30329924711093e-10
"1466" 30130 3.72641736093107e-10 1.00284609345756e-09 2.26440651432524e-09 6.30929860274377e-10 3.10413403117706e-09 2.19332144874321e-09 3.41987361963716e-10 1.30196830101656e-10
"1467" 30131 3.72856053693473e-10 1.00284609345756e-09 2.26411572855741e-09 6.30929860274377e-10 3.08953570297838e-09 2.18938121462703e-09 3.41987361963716e-10 1.30063735492219e-10
"1468" 30132 3.73070371293838e-10 1.00284609345756e-09 2.26382494278958e-09 6.30929860274377e-10 3.07493737477971e-09 2.18544098051085e-09 3.41987361963716e-10 1.29930640882782e-10
"1469" 30133 3.73284688894204e-10 1.00284609345756e-09 2.26353415702174e-09 6.30929860274377e-10 3.06033904658103e-09 2.18150074639467e-09 3.41987361963716e-10 1.29797546273345e-10
"1470" 30134 3.73499006494569e-10 1.00284609345756e-09 2.26324337125391e-09 6.30929860274377e-10 3.04574071838235e-09 2.17756051227849e-09 3.41987361963716e-10 1.29664451663908e-10
"1471" 30135 3.73356788736149e-10 1.00501282336457e-09 2.27168168634042e-09 6.30672681850435e-10 3.03114239018367e-09 2.17553545633628e-09 3.42817411225575e-10 1.29531357054472e-10
"1472" 30136 3.73214570977728e-10 1.00717955327159e-09 2.28012000142693e-09 6.30415503426494e-10 3.01654406198499e-09 2.17351040039407e-09 3.43647460487433e-10 1.29398262445035e-10
"1473" 30137 3.73214570977728e-10 1.00745481620367e-09 2.29612058908356e-09 6.31171434967642e-10 3.00226356092727e-09 2.17027837880628e-09 3.43647460487433e-10 1.30030110171679e-10
"1474" 30138 3.73214570977728e-10 1.00773007913574e-09 2.31212117674019e-09 6.31927366508791e-10 2.98798305986955e-09 2.16704635721848e-09 3.43647460487433e-10 1.30661957898322e-10
"1475" 30139 3.73214570977728e-10 1.00800534206782e-09 2.32812176439682e-09 6.32683298049939e-10 2.97370255881182e-09 2.16381433563068e-09 3.43647460487433e-10 1.31293805624966e-10
"1476" 30140 3.73214570977728e-10 1.00828060499989e-09 2.34412235205345e-09 6.33439229591088e-10 2.9594220577541e-09 2.16058231404289e-09 3.43647460487433e-10 1.3192565335161e-10
"1477" 30141 3.73214570977728e-10 1.00855586793197e-09 2.36012293971009e-09 6.34195161132236e-10 2.94514155669638e-09 2.15735029245509e-09 3.43647460487433e-10 1.32557501078254e-10
"1478" 30142 3.73214570977728e-10 1.00883113086404e-09 2.37612352736672e-09 6.34951092673384e-10 2.93086105563865e-09 2.15411827086729e-09 3.43647460487433e-10 1.33189348804898e-10
"1479" 30143 3.73214570977728e-10 1.00910639379612e-09 2.39212411502335e-09 6.35707024214533e-10 2.91658055458093e-09 2.15088624927949e-09 3.43647460487433e-10 1.33821196531542e-10
"1480" 30144 3.73356788736149e-10 1.00721492682117e-09 2.40841548844781e-09 6.36720134179622e-10 2.91426771497115e-09 2.15159446180788e-09 3.4381129965953e-10 1.33821196531542e-10
"1481" 30145 3.73142471135783e-10 1.00721492682117e-09 2.42088247377154e-09 6.37476065720771e-10 2.91399632600677e-09 2.14607813404522e-09 3.42981250397671e-10 1.34586138867622e-10
"1482" 30146 3.72928153535417e-10 1.00721492682117e-09 2.43334945909527e-09 6.38231997261919e-10 2.91372493704239e-09 2.14056180628257e-09 3.42151201135812e-10 1.35351081203703e-10
"1483" 30147 3.72713835935052e-10 1.00721492682117e-09 2.445816444419e-09 6.38987928803068e-10 2.91345354807801e-09 2.13504547851991e-09 3.41321151873954e-10 1.36116023539784e-10
"1484" 30148 3.72499518334686e-10 1.00721492682117e-09 2.44199205631827e-09 6.38730750379126e-10 2.92746266017136e-09 2.1592251310304e-09 3.40327263439999e-10 1.36249118149221e-10
"1485" 30149 3.72285200734321e-10 1.00721492682117e-09 2.43816766821753e-09 6.38473571955185e-10 2.9414717722647e-09 2.18340478354090e-09 3.39333375006044e-10 1.36382212758658e-10
"1486" 30150 3.72070883133955e-10 1.00721492682117e-09 2.4343432801168e-09 6.38216393531243e-10 2.95548088435805e-09 2.20758443605139e-09 3.38339486572089e-10 1.36515307368094e-10
"1487" 30151 3.7185656553359e-10 1.00721492682117e-09 2.43051889201606e-09 6.37959215107302e-10 2.96948999645139e-09 2.23176408856188e-09 3.37345598138134e-10 1.36648401977531e-10
"1488" 30152 3.71642247933224e-10 1.00721492682117e-09 2.42669450391533e-09 6.37702036683361e-10 2.98349910854474e-09 2.25594374107237e-09 3.36351709704179e-10 1.36781496586968e-10
"1489" 30153 3.71427930332859e-10 1.00721492682117e-09 2.42287011581459e-09 6.37444858259419e-10 2.99750822063808e-09 2.28012339358286e-09 3.35357821270225e-10 1.36914591196405e-10
"1490" 30154 3.71213612732493e-10 1.00721492682117e-09 2.41904572771385e-09 6.37187679835478e-10 3.01151733273143e-09 2.30430304609335e-09 3.3436393283627e-10 1.37047685805842e-10
"1491" 30155 3.70999295132128e-10 1.00721492682117e-09 2.41522133961312e-09 6.36930501411536e-10 3.02552644482477e-09 2.32848269860384e-09 3.33370044402315e-10 1.37180780415279e-10
"1492" 30156 3.70784977531762e-10 1.00721492682117e-09 2.41139695151238e-09 6.36673322987595e-10 3.03953555691812e-09 2.35266235111433e-09 3.3237615596836e-10 1.37313875024716e-10
"1493" 30157 3.70428442172976e-10 1.01330350972154e-09 2.42386393683611e-09 6.37429254528743e-10 3.05218772418957e-09 2.34622835141211e-09 3.34877157155313e-10 1.37446969634152e-10
"1494" 30158 3.7007190681419e-10 1.01939209262191e-09 2.43633092215984e-09 6.38185186069892e-10 3.06483989146102e-09 2.3397943517099e-09 3.37378158342266e-10 1.37580064243589e-10
"1495" 30159 3.69715371455403e-10 1.02548067552228e-09 2.44879790748357e-09 6.3894111761104e-10 3.07749205873248e-09 2.33336035200768e-09 3.3987915952922e-10 1.37713158853026e-10
"1496" 30160 3.69358836096617e-10 1.03156925842265e-09 2.4612648928073e-09 6.39697049152189e-10 3.09014422600393e-09 2.32692635230546e-09 3.42380160716173e-10 1.37846253462463e-10
"1497" 30161 3.69002300737831e-10 1.03765784132302e-09 2.47373187813103e-09 6.40452980693337e-10 3.10279639327538e-09 2.32049235260325e-09 3.44881161903126e-10 1.379793480719e-10
"1498" 30162 3.68645765379045e-10 1.04374642422339e-09 2.48619886345476e-09 6.41208912234485e-10 3.11544856054684e-09 2.31405835290103e-09 3.47382163090079e-10 1.38112442681337e-10
"1499" 30163 3.68289230020258e-10 1.04983500712376e-09 2.49866584877849e-09 6.41964843775634e-10 3.12810072781829e-09 2.30762435319881e-09 3.49883164277032e-10 1.38245537290774e-10
"1500" 30164 3.67932694661472e-10 1.05592359002413e-09 2.51113283410222e-09 6.42720775316782e-10 3.14075289508975e-09 2.30119035349659e-09 3.52384165463985e-10 1.38378631900211e-10
"1501" 30165 3.67932694661472e-10 1.06206394567144e-09 2.52359981942595e-09 6.43492310588606e-10 3.15136361171580e-09 2.2766518691105e-09 3.54885166650938e-10 1.38378631900211e-10
"1502" 30166 3.66720870826692e-10 1.06815252857181e-09 2.53606680474968e-09 6.44263845860431e-10 3.16338012470534e-09 2.27557452858124e-09 3.58380056271846e-10 1.38378631900211e-10
"1503" 30167 3.65509046991913e-10 1.07424111147218e-09 2.54853379007341e-09 6.45035381132255e-10 3.17539663769488e-09 2.27449718805197e-09 3.61874945892754e-10 1.38378631900211e-10
"1504" 30168 3.64297223157133e-10 1.08032969437255e-09 2.56100077539714e-09 6.45806916404079e-10 3.18741315068443e-09 2.27341984752271e-09 3.65369835513662e-10 1.38378631900211e-10
"1505" 30169 3.63085399322354e-10 1.08641827727292e-09 2.57346776072087e-09 6.46578451675903e-10 3.19942966367397e-09 2.27234250699344e-09 3.6886472513457e-10 1.38378631900211e-10
"1506" 30170 3.61873575487574e-10 1.09250686017329e-09 2.5859347460446e-09 6.47349986947727e-10 3.21144617666351e-09 2.27126516646418e-09 3.72359614755478e-10 1.38378631900211e-10
"1507" 30171 3.61444940286843e-10 1.09439832714823e-09 2.58211035794386e-09 6.480903147582e-10 3.21144617666351e-09 2.27110549787447e-09 3.72359614755478e-10 1.38611195798544e-10
"1508" 30172 3.61016305086112e-10 1.09628979412317e-09 2.57828596984313e-09 6.48830642568673e-10 3.21144617666351e-09 2.27094582928477e-09 3.72359614755478e-10 1.38843759696877e-10
"1509" 30173 3.59946699009754e-10 1.09706381017246e-09 2.57828596984313e-09 6.48589067875407e-10 3.22123789966638e-09 2.27401818228286e-09 3.72192157782923e-10 1.3871066508744e-10
"1510" 30174 3.58877092933395e-10 1.09783782622174e-09 2.57828596984313e-09 6.48347493182141e-10 3.23102962266924e-09 2.27709053528096e-09 3.72024700810368e-10 1.38577570478003e-10
"1511" 30175 3.57807486857036e-10 1.09861184227102e-09 2.57828596984313e-09 6.48105918488876e-10 3.2408213456721e-09 2.28016288827905e-09 3.71857243837812e-10 1.38444475868566e-10
"1512" 30176 3.56737880780677e-10 1.0993858583203e-09 2.57828596984313e-09 6.4786434379561e-10 3.25061306867496e-09 2.28323524127714e-09 3.71689786865257e-10 1.3831138125913e-10
"1513" 30177 3.55668274704318e-10 1.10015987436958e-09 2.57828596984313e-09 6.47622769102345e-10 3.26040479167782e-09 2.28630759427524e-09 3.71522329892701e-10 1.38178286649693e-10
"1514" 30178 3.5459866862796e-10 1.10093389041887e-09 2.57828596984313e-09 6.47381194409079e-10 3.27019651468068e-09 2.28937994727333e-09 3.71354872920146e-10 1.38045192040256e-10
"1515" 30179 3.53529062551601e-10 1.10170790646815e-09 2.57828596984313e-09 6.47139619715814e-10 3.27998823768354e-09 2.29245230027142e-09 3.71187415947591e-10 1.37912097430819e-10
"1516" 30180 3.52459456475242e-10 1.10248192251743e-09 2.57828596984313e-09 6.46898045022548e-10 3.2897799606864e-09 2.29552465326952e-09 3.71019958975035e-10 1.37779002821382e-10
"1517" 30181 3.51389850398883e-10 1.10325593856671e-09 2.57828596984313e-09 6.46656470329282e-10 3.29957168368926e-09 2.29859700626761e-09 3.7085250200248e-10 1.37645908211945e-10
"1518" 30182 3.50320244322525e-10 1.10402995461599e-09 2.57828596984313e-09 6.46414895636017e-10 3.30936340669212e-09 2.30166935926571e-09 3.70685045029925e-10 1.37512813602508e-10
"1519" 30183 3.49250638246166e-10 1.10480397066528e-09 2.57828596984313e-09 6.46173320942751e-10 3.31915512969498e-09 2.3047417122638e-09 3.70517588057369e-10 1.37379718993072e-10
"1520" 30184 3.48181032169807e-10 1.10557798671456e-09 2.57828596984313e-09 6.45931746249486e-10 3.32894685269784e-09 2.30781406526189e-09 3.70350131084814e-10 1.37246624383635e-10
"1521" 30185 3.47111426093448e-10 1.10635200276384e-09 2.57828596984313e-09 6.4569017155622e-10 3.3387385757007e-09 2.31088641825999e-09 3.70182674112259e-10 1.37113529774198e-10
"1522" 30186 3.46041820017089e-10 1.10712601881312e-09 2.57828596984313e-09 6.45448596862954e-10 3.34853029870356e-09 2.31395877125808e-09 3.70015217139703e-10 1.36980435164761e-10
"1523" 30187 3.46041820017089e-10 1.10712601881312e-09 2.57974174128874e-09 6.45191418439013e-10 3.35786970676579e-09 2.31574432431573e-09 3.70015217139703e-10 1.36614776656991e-10
"1524" 30188 3.45400849141462e-10 1.08820877390884e-09 2.54815281546134e-09 6.38996013800615e-10 3.35174535482958e-09 2.3079539865035e-09 3.68853871733193e-10 1.36481682047554e-10
"1525" 30189 3.44759878265834e-10 1.06929152900456e-09 2.51656388963393e-09 6.32800609162218e-10 3.34562100289337e-09 2.30016364869127e-09 3.67692526326683e-10 1.36348587438117e-10
"1526" 30190 3.44118907390206e-10 1.05037428410027e-09 2.48497496380652e-09 6.2660520452382e-10 3.33949665095716e-09 2.29237331087904e-09 3.66531180920173e-10 1.3621549282868e-10
"1527" 30191 3.43477936514579e-10 1.03145703919599e-09 2.45338603797912e-09 6.20409799885422e-10 3.33337229902094e-09 2.28458297306681e-09 3.65369835513662e-10 1.36082398219243e-10
"1528" 30192 3.42836965638951e-10 1.01253979429171e-09 2.42179711215171e-09 6.14214395247025e-10 3.32724794708473e-09 2.27679263525458e-09 3.64208490107152e-10 1.35949303609806e-10
"1529" 30193 3.42410312363689e-10 9.96666840837607e-10 2.39282525823481e-09 6.09032100573717e-10 3.31464221798985e-09 2.27359065714016e-09 3.63214601673197e-10 1.35949303609806e-10
"1530" 30194 3.4162712372964e-10 9.85522554820865e-10 2.36934153121363e-09 6.15001534249525e-10 3.35113683180403e-09 2.31835910869774e-09 3.64051886535974e-10 1.35949303609806e-10
"1531" 30195 3.40843935095592e-10 9.74378268804122e-10 2.34585780419245e-09 6.20970967925333e-10 3.38763144561822e-09 2.36312756025533e-09 3.64889171398751e-10 1.35949303609806e-10
"1532" 30196 3.40060746461543e-10 9.63233982787379e-10 2.32237407717127e-09 6.26940401601141e-10 3.4241260594324e-09 2.40789601181291e-09 3.65726456261528e-10 1.35949303609806e-10
"1533" 30197 3.39277557827495e-10 9.52089696770636e-10 2.29889035015009e-09 6.32909835276949e-10 3.46062067324658e-09 2.4526644633705e-09 3.66563741124305e-10 1.35949303609806e-10
"1534" 30198 3.38494369193447e-10 9.40945410753893e-10 2.27540662312891e-09 6.38879268952756e-10 3.49711528706076e-09 2.49743291492808e-09 3.67401025987081e-10 1.35949303609806e-10
"1535" 30199 3.37711180559398e-10 9.2980112473715e-10 2.25192289610773e-09 6.44848702628565e-10 3.53360990087495e-09 2.54220136648567e-09 3.68238310849858e-10 1.35949303609806e-10
"1536" 30200 3.3692799192535e-10 9.18656838720408e-10 2.22843916908654e-09 6.50818136304372e-10 3.57010451468913e-09 2.58696981804325e-09 3.69075595712635e-10 1.35949303609806e-10
"1537" 30201 3.36144803291301e-10 9.18656838720408e-10 2.21064969370401e-09 6.5405222970088e-10 3.60506125770517e-09 2.64367830094043e-09 3.7074292983727e-10 1.36082398219243e-10
"1538" 30202 3.35361614657253e-10 9.18656838720408e-10 2.19286021832148e-09 6.57286323097387e-10 3.6400180007212e-09 2.7003867838376e-09 3.72410263961906e-10 1.3621549282868e-10
"1539" 30203 3.34578426023204e-10 9.18656838720408e-10 2.17507074293895e-09 6.60520416493895e-10 3.67497474373724e-09 2.75709526673477e-09 3.74077598086541e-10 1.36348587438117e-10
"1540" 30204 3.33795237389156e-10 9.18656838720408e-10 2.15728126755642e-09 6.63754509890402e-10 3.70993148675328e-09 2.81380374963195e-09 3.75744932211177e-10 1.36481682047554e-10
"1541" 30205 3.33012048755108e-10 9.18656838720408e-10 2.13949179217389e-09 6.6698860328691e-10 3.74488822976932e-09 2.87051223252912e-09 3.77412266335812e-10 1.36614776656991e-10
"1542" 30206 3.32228860121059e-10 9.18656838720408e-10 2.12170231679136e-09 6.70222696683417e-10 3.77984497278536e-09 2.9272207154263e-09 3.79079600460448e-10 1.36747871266428e-10
"1543" 30207 3.31445671487011e-10 9.18656838720408e-10 2.10391284140883e-09 6.73456790079925e-10 3.8148017158014e-09 2.98392919832347e-09 3.80746934585083e-10 1.36880965875865e-10
"1544" 30208 3.30662482852962e-10 9.18656838720408e-10 2.0861233660263e-09 6.76690883476432e-10 3.84975845881744e-09 3.04063768122064e-09 3.82414268709718e-10 1.37014060485301e-10
"1545" 30209 3.29879294218914e-10 9.18656838720408e-10 2.06833389064377e-09 6.7992497687294e-10 3.88471520183347e-09 3.09734616411782e-09 3.84081602834354e-10 1.37147155094738e-10
"1546" 30210 3.29096105584865e-10 9.18656838720408e-10 2.05054441526124e-09 6.83159070269447e-10 3.91967194484951e-09 3.15405464701499e-09 3.85748936958989e-10 1.37280249704175e-10
"1547" 30211 3.28312916950817e-10 9.18656838720408e-10 2.03275493987871e-09 6.86393163665955e-10 3.95462868786555e-09 3.21076312991217e-09 3.87416271083625e-10 1.37413344313612e-10
"1548" 30212 3.27529728316769e-10 9.18656838720408e-10 2.01496546449618e-09 6.89627257062462e-10 3.98958543088159e-09 3.26747161280934e-09 3.8908360520826e-10 1.37546438923049e-10
"1549" 30213 3.2674653968272e-10 9.18656838720408e-10 1.99717598911365e-09 6.92861350458969e-10 4.02454217389763e-09 3.32418009570652e-09 3.90750939332896e-10 1.37679533532486e-10
"1550" 30214 3.25963351048672e-10 9.18656838720408e-10 1.97938651373111e-09 6.96095443855477e-10 4.05949891691367e-09 3.38088857860369e-09 3.92418273457531e-10 1.37812628141923e-10
"1551" 30215 3.25180162414623e-10 9.18656838720408e-10 1.96159703834858e-09 6.99329537251984e-10 4.0944556599297e-09 3.43759706150086e-09 3.94085607582166e-10 1.37945722751359e-10
"1552" 30216 3.24396973780575e-10 9.18656838720408e-10 1.94380756296605e-09 7.02563630648492e-10 4.12941240294574e-09 3.49430554439804e-09 3.95752941706802e-10 1.38078817360796e-10
"1553" 30217 3.23613785146526e-10 9.18656838720408e-10 1.92601808758352e-09 7.05797724044999e-10 4.16436914596178e-09 3.55101402729521e-09 3.97420275831437e-10 1.38211911970233e-10
"1554" 30218 3.22830596512478e-10 9.18656838720408e-10 1.90822861220099e-09 7.09031817441507e-10 4.19932588897782e-09 3.60772251019239e-09 3.99087609956073e-10 1.3834500657967e-10
"1555" 30219 3.2204740787843e-10 9.18656838720408e-10 1.89043913681846e-09 7.12265910838014e-10 4.23428263199386e-09 3.66443099308956e-09 4.00754944080708e-10 1.38478101189107e-10
"1556" 30220 3.21264219244381e-10 9.18656838720408e-10 1.87264966143593e-09 7.15500004234522e-10 4.2692393750099e-09 3.72113947598673e-09 4.02422278205344e-10 1.38611195798544e-10
"1557" 30221 3.20481030610333e-10 9.18656838720408e-10 1.8548601860534e-09 7.18734097631029e-10 4.30419611802594e-09 3.77784795888391e-09 4.04089612329979e-10 1.38744290407981e-10
"1558" 30222 3.20837565969119e-10 9.12775346807810e-10 1.86296538485962e-09 7.18476919207088e-10 4.30025011789983e-09 3.77855617141229e-09 4.04420908474631e-10 1.38744290407981e-10
"1559" 30223 3.20837565969119e-10 8.92566358384816e-10 1.8623856559304e-09 7.12203495915311e-10 4.29961446361792e-09 3.7756434870039e-09 4.00434501337434e-10 1.38744290407981e-10
"1560" 30224 3.20837565969119e-10 8.93288601687155e-10 1.8615132986269e-09 7.12943823725784e-10 4.28492567243112e-09 3.76855106559478e-09 4.02757192150454e-10 1.38976854306314e-10
"1561" 30225 3.20837565969119e-10 8.94010844989494e-10 1.8606409413234e-09 7.13684151536256e-10 4.27023688124431e-09 3.76145864418565e-09 4.05079882963475e-10 1.39209418204647e-10
"1562" 30226 3.20837565969119e-10 8.94733088291833e-10 1.8597685840199e-09 7.14424479346729e-10 4.25554809005751e-09 3.75436622277652e-09 4.07402573776495e-10 1.3944198210298e-10
"1563" 30227 3.20837565969119e-10 8.95455331594172e-10 1.8588962267164e-09 7.15164807157201e-10 4.2408592988707e-09 3.74727380136739e-09 4.09725264589516e-10 1.39674546001314e-10
"1564" 30228 3.20837565969119e-10 8.96177574896511e-10 1.8580238694129e-09 7.15905134967674e-10 4.2261705076839e-09 3.74018137995827e-09 4.12047955402536e-10 1.39907109899647e-10
"1565" 30229 3.20837565969119e-10 8.9689981819885e-10 1.8571515121094e-09 7.16645462778146e-10 4.21148171649709e-09 3.73308895854914e-09 4.14370646215557e-10 1.4013967379798e-10
"1566" 30230 3.20837565969119e-10 8.97622061501189e-10 1.8562791548059e-09 7.17385790588619e-10 4.19679292531029e-09 3.72599653714001e-09 4.16693337028577e-10 1.40372237696313e-10
"1567" 30231 3.20837565969119e-10 8.98344304803528e-10 1.85540679750239e-09 7.18126118399091e-10 4.18210413412348e-09 3.71890411573088e-09 4.19016027841597e-10 1.40604801594647e-10
"1568" 30232 3.20837565969119e-10 8.99066548105867e-10 1.85453444019889e-09 7.18866446209564e-10 4.16741534293668e-09 3.71181169432176e-09 4.21338718654618e-10 1.4083736549298e-10
"1569" 30233 3.20837565969119e-10 8.99788791408206e-10 1.85366208289539e-09 7.19606774020037e-10 4.15272655174988e-09 3.70471927291263e-09 4.23661409467638e-10 1.41069929391313e-10
"1570" 30234 3.20837565969119e-10 9.00511034710545e-10 1.85278972559189e-09 7.20347101830509e-10 4.13803776056307e-09 3.6976268515035e-09 4.25984100280659e-10 1.41302493289646e-10
"1571" 30235 3.20837565969119e-10 9.01233278012885e-10 1.85191736828839e-09 7.21087429640982e-10 4.12334896937627e-09 3.69053443009437e-09 4.28306791093679e-10 1.4153505718798e-10
"1572" 30236 3.20837565969119e-10 9.01955521315224e-10 1.85104501098489e-09 7.21827757451454e-10 4.10866017818946e-09 3.68344200868525e-09 4.306294819067e-10 1.41767621086313e-10
"1573" 30237 3.20837565969119e-10 9.02677764617563e-10 1.85017265368139e-09 7.22568085261927e-10 4.09397138700266e-09 3.67634958727612e-09 4.3295217271972e-10 1.42000184984646e-10
"1574" 30238 3.25114008349085e-10 9.03503553413787e-10 1.85146094568364e-09 7.24594305192106e-10 4.10091231919703e-09 3.73852376221201e-09 4.33116011891816e-10 1.42232748882979e-10
"1575" 30239 3.25114008349085e-10 9.0355532616073e-10 1.85453628280534e-09 7.24352730498841e-10 4.09424760269709e-09 3.76569593342574e-09 4.38773370954107e-10 1.42232748882979e-10
"1576" 30240 3.24971790590664e-10 9.04277569463069e-10 1.85345595815246e-09 7.24368334229517e-10 4.07964927449841e-09 3.75668833384263e-09 4.38605913981552e-10 1.42232748882979e-10
"1577" 30241 3.24829572832244e-10 9.04999812765408e-10 1.85237563349959e-09 7.24383937960192e-10 4.06505094629973e-09 3.74768073425953e-09 4.38438457008997e-10 1.42232748882979e-10
"1578" 30242 3.24687355073823e-10 9.05722056067747e-10 1.85129530884672e-09 7.24399541690868e-10 4.05045261810106e-09 3.73867313467643e-09 4.38271000036441e-10 1.42232748882979e-10
"1579" 30243 3.24545137315402e-10 9.06444299370086e-10 1.85021498419384e-09 7.24415145421544e-10 4.03585428990238e-09 3.72966553509332e-09 4.38103543063886e-10 1.42232748882979e-10
"1580" 30244 3.24402919556982e-10 9.07166542672425e-10 1.84913465954097e-09 7.2443074915222e-10 4.0212559617037e-09 3.72065793551022e-09 4.37936086091331e-10 1.42232748882979e-10
"1581" 30245 3.24046384198195e-10 9.04225796716126e-10 1.83720507263401e-09 7.24446352882896e-10 4.0212559617037e-09 3.72057810121537e-09 4.37768629118775e-10 1.42365843492416e-10
"1582" 30246 3.21480518770216e-10 9.04122251222241e-10 1.83691428686617e-09 7.24446352882896e-10 4.02093813456274e-09 3.72078756062655e-09 4.3760117214622e-10 1.42365843492416e-10
"1583" 30247 3.18914653342236e-10 9.04018705728355e-10 1.83662350109834e-09 7.24446352882896e-10 4.02062030742179e-09 3.72099702003772e-09 4.37433715173665e-10 1.42365843492416e-10
"1584" 30248 3.16348787914256e-10 9.03915160234469e-10 1.83633271533051e-09 7.24446352882896e-10 4.02030248028084e-09 3.7212064794489e-09 4.37266258201109e-10 1.42365843492416e-10
"1585" 30249 3.13782922486276e-10 9.03811614740584e-10 1.83604192956267e-09 7.24446352882896e-10 4.01998465313988e-09 3.72141593886008e-09 4.37098801228554e-10 1.42365843492416e-10
"1586" 30250 3.11217057058297e-10 9.03708069246698e-10 1.83575114379484e-09 7.24446352882896e-10 4.01966682599892e-09 3.72162539827126e-09 4.36931344255999e-10 1.42365843492416e-10
"1587" 30251 3.08651191630317e-10 9.03604523752812e-10 1.835460358027e-09 7.24446352882896e-10 4.01934899885797e-09 3.72183485768243e-09 4.36763887283443e-10 1.42365843492416e-10
"1588" 30252 3.06085326202337e-10 9.03500978258926e-10 1.83516957225917e-09 7.24446352882896e-10 4.01903117171702e-09 3.72204431709361e-09 4.36596430310888e-10 1.42365843492416e-10
"1589" 30253 3.03519460774358e-10 9.03397432765041e-10 1.83487878649134e-09 7.24446352882896e-10 4.01871334457606e-09 3.72225377650479e-09 4.36428973338332e-10 1.42365843492416e-10
"1590" 30254 3.00953595346378e-10 9.03293887271155e-10 1.8345880007235e-09 7.24446352882896e-10 4.01839551743511e-09 3.72246323591597e-09 4.36261516365777e-10 1.42365843492416e-10
"1591" 30255 2.98387729918398e-10 9.03190341777269e-10 1.83429721495567e-09 7.24446352882896e-10 4.01807769029415e-09 3.72267269532715e-09 4.36094059393222e-10 1.42365843492416e-10
"1592" 30256 2.95821864490418e-10 9.03086796283384e-10 1.83400642918784e-09 7.24446352882896e-10 4.0177598631532e-09 3.72288215473832e-09 4.35926602420666e-10 1.42365843492416e-10
"1593" 30257 2.95679646731998e-10 9.0375726683878e-10 1.82985076741326e-09 7.24446352882896e-10 4.01717064704786e-09 3.72217394220994e-09 4.35595306276015e-10 1.38974040960864e-10
"1594" 30258 2.93470316662804e-10 9.07850837270321e-10 1.84805433488809e-09 7.33229145491383e-10 4.02506264730008e-09 3.73028361720158e-09 4.35264010131363e-10 1.40071016484174e-10
"1595" 30259 2.91260986593611e-10 9.11944407701863e-10 1.86625790236292e-09 7.42011938099871e-10 4.03295464755229e-09 3.73839329219321e-09 4.34932713986711e-10 1.41167992007484e-10
"1596" 30260 2.88837338924052e-10 9.12219670633938e-10 1.86804494748238e-09 7.42011938099871e-10 4.03295464755229e-09 3.75512169141898e-09 4.36600048111347e-10 1.41167992007484e-10
"1597" 30261 2.86413691254493e-10 9.12494933566013e-10 1.86983199260183e-09 7.42011938099871e-10 4.03295464755229e-09 3.77185009064474e-09 4.38267382235982e-10 1.41167992007484e-10
"1598" 30262 2.83990043584934e-10 9.12770196498088e-10 1.87161903772129e-09 7.42011938099871e-10 4.03295464755229e-09 3.7885784898705e-09 4.39934716360618e-10 1.41167992007484e-10
"1599" 30263 2.81566395915375e-10 9.13045459430163e-10 1.87340608284074e-09 7.42011938099871e-10 4.03295464755229e-09 3.80530688909627e-09 4.41602050485253e-10 1.41167992007484e-10
"1600" 30264 2.79142748245816e-10 9.13320722362237e-10 1.87195215400158e-09 7.41770363406605e-10 4.02883013481496e-09 3.80562622627568e-09 4.43269384609889e-10 1.41167992007484e-10
"1601" 30265 2.76719100576257e-10 9.13595985294312e-10 1.87049822516241e-09 7.4152878871334e-10 4.02470562207763e-09 3.80594556345508e-09 4.44936718734524e-10 1.41167992007484e-10
"1602" 30266 2.74295452906698e-10 9.13871248226387e-10 1.86904429632324e-09 7.41287214020074e-10 4.02058110934029e-09 3.80626490063449e-09 4.46604052859159e-10 1.41167992007484e-10
"1603" 30267 2.71871805237139e-10 9.14146511158462e-10 1.86759036748407e-09 7.41045639326809e-10 4.01645659660296e-09 3.8065842378139e-09 4.48271386983795e-10 1.41167992007484e-10
"1604" 30268 2.6944815756758e-10 9.14421774090537e-10 1.8661364386449e-09 7.40804064633543e-10 4.01233208386563e-09 3.8069035749933e-09 4.4993872110843e-10 1.41167992007484e-10
"1605" 30269 2.67024509898021e-10 9.14697037022612e-10 1.86468250980573e-09 7.40562489940278e-10 4.0082075711283e-09 3.80722291217271e-09 4.51606055233066e-10 1.41167992007484e-10
"1606" 30270 2.64600862228462e-10 9.14972299954687e-10 1.86322858096657e-09 7.40320915247012e-10 4.00408305839097e-09 3.80754224935212e-09 4.53273389357701e-10 1.41167992007484e-10
"1607" 30271 2.62177214558903e-10 9.15247562886762e-10 1.8617746521274e-09 7.40079340553746e-10 3.99995854565364e-09 3.80786158653153e-09 4.54940723482337e-10 1.41167992007484e-10
"1608" 30272 2.59753566889344e-10 9.15522825818837e-10 1.86032072328823e-09 7.39837765860481e-10 3.9958340329163e-09 3.80818092371093e-09 4.56608057606972e-10 1.41167992007484e-10
"1609" 30273 2.57329919219785e-10 9.16468559306308e-10 1.85816007398248e-09 7.41863985790661e-10 3.9921618351196e-09 3.80456002677416e-09 4.57438106868831e-10 1.41034897398048e-10
"1610" 30274 2.54906271550226e-10 9.17414292793779e-10 1.85599942467673e-09 7.4389020572084e-10 3.9884896373229e-09 3.80093912983738e-09 4.58268156130689e-10 1.40901802788611e-10
"1611" 30275 2.52482623880667e-10 9.1836002628125e-10 1.85383877537098e-09 7.4591642565102e-10 3.9848174395262e-09 3.79731823290061e-09 4.59098205392548e-10 1.40768708179174e-10
"1612" 30276 2.50058976211108e-10 9.19305759768721e-10 1.85167812606523e-09 7.47942645581199e-10 3.9811452417295e-09 3.79369733596383e-09 4.59928254654406e-10 1.40635613569737e-10
"1613" 30277 2.47635328541549e-10 9.20251493256192e-10 1.84951747675949e-09 7.49968865511379e-10 3.9774730439328e-09 3.79007643902706e-09 4.60758303916265e-10 1.405025189603e-10
"1614" 30278 2.4521168087199e-10 9.21197226743663e-10 1.84735682745374e-09 7.51995085441558e-10 3.9738008461361e-09 3.78645554209029e-09 4.61588353178124e-10 1.40369424350863e-10
"1615" 30279 2.42788033202431e-10 9.22142960231135e-10 1.84519617814799e-09 7.54021305371738e-10 3.9701286483394e-09 3.78283464515351e-09 4.62418402439982e-10 1.40236329741426e-10
"1616" 30280 2.40364385532872e-10 9.23088693718606e-10 1.84303552884224e-09 7.56047525301918e-10 3.96645645054269e-09 3.77921374821674e-09 4.63248451701841e-10 1.40103235131989e-10
"1617" 30281 2.40364385532872e-10 9.23810937020945e-10 1.84112333479187e-09 7.58315319925363e-10 3.96822409885869e-09 3.77068515440274e-09 4.64078500963699e-10 1.38873164999242e-10
"1618" 30282 2.40364385532872e-10 9.20870191064646e-10 1.84112333479187e-09 7.60583114548808e-10 3.91888915170173e-09 3.77068515440274e-09 4.65072389397654e-10 1.38740070389805e-10
"1619" 30283 2.40364385532872e-10 9.17929445108347e-10 1.84112333479187e-09 7.62850909172253e-10 3.86955420454476e-09 3.77068515440274e-09 4.66066277831609e-10 1.38606975780369e-10
"1620" 30284 2.40364385532872e-10 9.14988699152048e-10 1.84112333479187e-09 7.65118703795698e-10 3.82021925738779e-09 3.77068515440274e-09 4.67060166265564e-10 1.38473881170932e-10
"1621" 30285 2.40364385532872e-10 9.12047953195749e-10 1.84112333479187e-09 7.67386498419143e-10 3.77088431023082e-09 3.77068515440274e-09 4.68054054699519e-10 1.38340786561495e-10
"1622" 30286 2.40364385532872e-10 9.0910720723945e-10 1.84112333479187e-09 7.69654293042589e-10 3.72154936307385e-09 3.77068515440274e-09 4.69047943133474e-10 1.38207691952058e-10
"1623" 30287 2.40578703133237e-10 9.06270006777036e-10 1.8409153674425e-09 7.70636195546327e-10 3.67053723058901e-09 3.77283983546128e-09 4.69047943133474e-10 1.38207691952058e-10
"1624" 30288 2.40436485374816e-10 9.02607017518398e-10 1.84282756149287e-09 7.70877770239592e-10 3.62278900577179e-09 3.77370771657936e-09 4.68880486160918e-10 1.38074597342621e-10
"1625" 30289 2.40294267616396e-10 8.99769817055985e-10 1.84291037991133e-09 7.71890880204682e-10 3.59331613368e-09 3.77953308539614e-09 4.69044325333015e-10 1.38706445069265e-10
"1626" 30290 2.40152049857975e-10 8.96932616593572e-10 1.84299319832979e-09 7.72903990169772e-10 3.56384326158821e-09 3.78535845421292e-09 4.69208164505111e-10 1.39338292795909e-10
"1627" 30291 2.40009832099554e-10 8.94095416131158e-10 1.84307601674825e-09 7.73917100134862e-10 3.53437038949642e-09 3.7911838230297e-09 4.69372003677207e-10 1.39970140522553e-10
"1628" 30292 2.39867614341133e-10 8.91258215668745e-10 1.84315883516671e-09 7.74930210099952e-10 3.50489751740464e-09 3.79700919184648e-09 4.69535842849303e-10 1.40601988249196e-10
"1629" 30293 2.39725396582713e-10 8.88421015206332e-10 1.84324165358517e-09 7.75943320065041e-10 3.47542464531285e-09 3.80283456066326e-09 4.696996820214e-10 1.4123383597584e-10
"1630" 30294 2.39583178824292e-10 8.85583814743918e-10 1.84332447200363e-09 7.76956430030131e-10 3.44595177322106e-09 3.80865992948004e-09 4.69863521193496e-10 1.41865683702484e-10
"1631" 30295 2.39440961065871e-10 8.82746614281505e-10 1.84340729042209e-09 7.77969539995221e-10 3.41647890112927e-09 3.81448529829682e-09 4.70027360365592e-10 1.42497531429128e-10
"1632" 30296 2.39298743307451e-10 8.79909413819092e-10 1.84349010884055e-09 7.78982649960311e-10 3.38700602903748e-09 3.8203106671136e-09 4.70191199537688e-10 1.43129379155772e-10
"1633" 30297 2.3915652554903e-10 8.77072213356678e-10 1.84357292725901e-09 7.79995759925401e-10 3.35753315694569e-09 3.82613603593039e-09 4.70355038709785e-10 1.43761226882416e-10
"1634" 30298 2.39014307790609e-10 8.74235012894265e-10 1.84365574567747e-09 7.8100886989049e-10 3.3280602848539e-09 3.83196140474716e-09 4.70518877881881e-10 1.4439307460906e-10
"1635" 30299 2.38872090032188e-10 8.71397812431852e-10 1.84373856409593e-09 7.8202197985558e-10 3.29858741276212e-09 3.83778677356395e-09 4.70682717053977e-10 1.45024922335703e-10
"1636" 30300 2.38729872273768e-10 8.68560611969438e-10 1.84382138251439e-09 7.8303508982067e-10 3.26911454067033e-09 3.84361214238073e-09 4.70846556226073e-10 1.45656770062347e-10
"1637" 30301 2.38587654515347e-10 8.65723411507025e-10 1.84390420093285e-09 7.8404819978576e-10 3.23964166857854e-09 3.8494375111975e-09 4.71010395398170e-10 1.46288617788991e-10
"1638" 30302 2.38445436756926e-10 8.62886211044612e-10 1.84398701935131e-09 7.8506130975085e-10 3.21016879648675e-09 3.85526288001429e-09 4.71174234570266e-10 1.46920465515635e-10
"1639" 30303 2.37233612922147e-10 8.62886211044612e-10 1.84012214334457e-09 7.86074419715939e-10 3.2317080568798e-09 3.86038003630268e-09 4.70344185308407e-10 1.47552313242279e-10
"1640" 30304 2.34667747494167e-10 8.63935490025968e-10 1.84020496176303e-09 7.86830351257088e-10 3.25061665052212e-09 3.86612557082461e-09 4.70675481453059e-10 1.47087185445612e-10
"1641" 30305 2.32101882066187e-10 8.64984769007325e-10 1.84028778018149e-09 7.87586282798236e-10 3.26952524416444e-09 3.87187110534654e-09 4.7100677759771e-10 1.46622057648946e-10
"1642" 30306 2.29536016638208e-10 8.66034047988682e-10 1.84037059859995e-09 7.88342214339385e-10 3.28843383780675e-09 3.87761663986847e-09 4.71338073742362e-10 1.46156929852279e-10
"1643" 30307 2.26970151210228e-10 8.67083326970039e-10 1.84045341701841e-09 7.89098145880533e-10 3.30734243144907e-09 3.88336217439039e-09 4.71669369887014e-10 1.45691802055613e-10
"1644" 30308 2.24404285782248e-10 8.68132605951396e-10 1.84053623543687e-09 7.89854077421681e-10 3.32625102509138e-09 3.88910770891232e-09 4.72000666031665e-10 1.45226674258946e-10
"1645" 30309 2.21838420354268e-10 8.69181884932753e-10 1.84061905385533e-09 7.9061000896283e-10 3.3451596187337e-09 3.89485324343425e-09 4.72331962176317e-10 1.4476154646228e-10
"1646" 30310 2.19272554926289e-10 8.70127618420224e-10 1.84061905385533e-09 7.91334733042626e-10 3.35354554537306e-09 3.89564129025749e-09 4.72499419148872e-10 1.47056373470522e-10
"1647" 30311 2.17063224857095e-10 8.70127618420224e-10 1.84070187227379e-09 7.92059457122423e-10 3.41212219750906e-09 3.89556145596264e-09 4.74989566934448e-10 1.46191961845545e-10
"1648" 30312 2.14853894787902e-10 8.70127618420224e-10 1.84078469069225e-09 7.9278418120222e-10 3.47069884964505e-09 3.89548162166778e-09 4.77479714720024e-10 1.45327550220568e-10
"1649" 30313 2.12644564718708e-10 8.70127618420224e-10 1.84086750911071e-09 7.93508905282017e-10 3.52927550178104e-09 3.89540178737293e-09 4.799698625056e-10 1.44463138595591e-10
"1650" 30314 2.10435234649515e-10 8.70127618420224e-10 1.84095032752917e-09 7.94233629361813e-10 3.58785215391703e-09 3.89532195307808e-09 4.82460010291175e-10 1.43598726970614e-10
"1651" 30315 2.10791770008301e-10 8.58089371662953e-10 1.82931152639005e-09 7.89020127227154e-10 3.64642880605303e-09 3.87019458515465e-09 4.846188619321e-10 1.42734315345637e-10
"1652" 30316 2.11148305367087e-10 8.46051124905681e-10 1.81767272525092e-09 7.83806625092494e-10 3.70500545818902e-09 3.84506721723122e-09 4.86777713573024e-10 1.41869903720659e-10
"1653" 30317 2.11504840725874e-10 8.3401287814841e-10 1.80603392411179e-09 7.78593122957835e-10 3.76358211032501e-09 3.81993984930779e-09 4.88936565213948e-10 1.41005492095682e-10
"1654" 30318 2.1186137608466e-10 8.21974631391139e-10 1.79439512297267e-09 7.73379620823175e-10 3.822158762461e-09 3.79481248138436e-09 4.91095416854872e-10 1.40141080470705e-10
"1655" 30319 2.12217911443446e-10 8.09936384633868e-10 1.78275632183354e-09 7.68166118688516e-10 3.88073541459699e-09 3.76968511346093e-09 4.93254268495796e-10 1.39276668845728e-10
"1656" 30320 2.12574446802232e-10 7.97898137876597e-10 1.77111752069441e-09 7.62952616553856e-10 3.93931206673299e-09 3.7445577455375e-09 4.95413120136721e-10 1.38412257220751e-10
"1657" 30321 2.12930982161019e-10 7.85859891119326e-10 1.75947871955529e-09 7.57739114419196e-10 3.99788871886898e-09 3.71943037761407e-09 4.97571971777645e-10 1.37547845595774e-10
"1658" 30322 2.13287517519805e-10 7.73821644362055e-10 1.74783991841616e-09 7.52525612284537e-10 4.05646537100497e-09 3.69430300969064e-09 4.99730823418569e-10 1.36683433970797e-10
"1659" 30323 2.13429735278226e-10 7.6410544575263e-10 1.73620111727704e-09 7.47343317611229e-10 4.05383470425423e-09 3.6691756417672e-09 4.99399527273917e-10 1.36683433970797e-10
"1660" 30324 2.10010563299722e-10 7.661522309684e-10 1.73541157839199e-09 7.48356427576319e-10 4.05057079658661e-09 3.66938510117838e-09 4.95737180680454e-10 1.37913504103544e-10
"1661" 30325 2.06591391321217e-10 7.68199016184171e-10 1.73462203950695e-09 7.49369537541408e-10 4.04730688891899e-09 3.66959456058956e-09 4.92074834086991e-10 1.39143574236291e-10
"1662" 30326 2.03172219342713e-10 7.70245801399942e-10 1.73383250062191e-09 7.50382647506498e-10 4.04404298125137e-09 3.66980402000074e-09 4.88412487493527e-10 1.40373644369038e-10
"1663" 30327 1.99753047364209e-10 7.72292586615713e-10 1.73304296173687e-09 7.51395757471588e-10 4.04077907358375e-09 3.67001347941191e-09 4.84750140900064e-10 1.41603714501786e-10
"1664" 30328 1.96333875385705e-10 7.74339371831484e-10 1.73225342285183e-09 7.52408867436678e-10 4.03751516591613e-09 3.67022293882309e-09 4.810877943066e-10 1.42833784634533e-10
"1665" 30329 1.92914703407201e-10 7.76386157047254e-10 1.73146388396679e-09 7.53421977401768e-10 4.03425125824851e-09 3.67043239823427e-09 4.77425447713137e-10 1.4406385476728e-10
"1666" 30330 1.89495531428697e-10 7.78432942263025e-10 1.73067434508175e-09 7.54435087366857e-10 4.03098735058089e-09 3.67064185764545e-09 4.73763101119674e-10 1.45293924900027e-10
"1667" 30331 1.86076359450193e-10 7.80479727478796e-10 1.72988480619671e-09 7.55448197331947e-10 4.02772344291327e-09 3.67085131705663e-09 4.7010075452621e-10 1.46523995032775e-10
"1668" 30332 1.83726793548048e-10 8.05400984141784e-10 1.78553534536807e-09 7.644725646337e-10 4.06218625954216e-09 3.7340530417003e-09 4.70756111214595e-10 1.46889653540545e-10
"1669" 30333 1.81377227645903e-10 8.30322240804773e-10 1.84118588453944e-09 7.73496931935454e-10 4.09664907617104e-09 3.79725476634398e-09 4.7141146790298e-10 1.47255312048315e-10
"1670" 30334 1.79027661743757e-10 8.55243497467762e-10 1.8968364237108e-09 7.82521299237207e-10 4.13111189279993e-09 3.86045649098766e-09 4.72066824591365e-10 1.47620970556085e-10
"1671" 30335 1.76678095841612e-10 8.8016475413075e-10 1.95248696288217e-09 7.9154566653896e-10 4.16557470942881e-09 3.92365821563134e-09 4.7272218127975e-10 1.47986629063855e-10
"1672" 30336 1.74328529939467e-10 9.05086010793738e-10 2.00813750205353e-09 8.00570033840713e-10 4.2000375260577e-09 3.98685994027502e-09 4.73377537968135e-10 1.48352287571625e-10
"1673" 30337 1.71978964037321e-10 9.30007267456727e-10 2.06378804122489e-09 8.09594401142466e-10 4.23450034268658e-09 4.0500616649187e-09 4.7403289465652e-10 1.48717946079395e-10
"1674" 30338 1.69629398135176e-10 9.54928524119716e-10 2.11943858039626e-09 8.1861876844422e-10 4.26896315931546e-09 4.11326338956238e-09 4.74688251344905e-10 1.49083604587165e-10
"1675" 30339 1.70841221969956e-10 9.79901553529647e-10 2.17508911956762e-09 8.27643135745973e-10 4.3013405004874e-09 4.1755474422665e-09 4.79005954626754e-10 1.49449263094935e-10
"1676" 30340 1.72053045804735e-10 1.00404879414335e-09 2.23181998339186e-09 8.36667503047726e-10 4.33371784165933e-09 4.22625029550662e-09 4.82489990846284e-10 1.49814921602706e-10
"1677" 30341 1.73264869639515e-10 1.02819603475706e-09 2.2885508472161e-09 8.45691870349479e-10 4.36609518283126e-09 4.27695314874675e-09 4.85974027065815e-10 1.50180580110476e-10
"1678" 30342 1.74476693474294e-10 1.05234327537077e-09 2.34528171104033e-09 8.54716237651232e-10 4.39847252400319e-09 4.32765600198688e-09 4.89458063285346e-10 1.50546238618246e-10
"1679" 30343 1.75688517309074e-10 1.07649051598447e-09 2.40201257486457e-09 8.63740604952985e-10 4.43084986517512e-09 4.378358855227e-09 4.92942099504876e-10 1.50911897126016e-10
"1680" 30344 1.76900341143853e-10 1.10063775659818e-09 2.45874343868881e-09 8.72764972254739e-10 4.46322720634705e-09 4.42906170846713e-09 4.96426135724407e-10 1.51277555633786e-10
"1681" 30345 1.78112164978633e-10 1.12478499721189e-09 2.51547430251305e-09 8.81789339556492e-10 4.49560454751898e-09 4.47976456170726e-09 4.99910171943938e-10 1.51643214141556e-10
"1682" 30346 1.79323988813412e-10 1.14893223782559e-09 2.57220516633729e-09 8.90813706858245e-10 4.52798188869091e-09 4.53046741494739e-09 5.03394208163468e-10 1.52008872649326e-10
"1683" 30347 1.80535812648192e-10 1.1730794784393e-09 2.62893603016152e-09 8.99838074159998e-10 4.56035922986284e-09 4.58117026818751e-09 5.06878244382999e-10 1.52374531157096e-10
"1684" 30348 1.81747636482971e-10 1.19722671905301e-09 2.68566689398576e-09 9.08862441461751e-10 4.59273657103477e-09 4.63187312142764e-09 5.1036228060253e-10 1.52740189664866e-10
"1685" 30349 1.82959460317751e-10 1.22137395966671e-09 2.74239775781e-09 9.17886808763505e-10 4.6251139122067e-09 4.68257597466777e-09 5.1384631682206e-10 1.53105848172637e-10
"1686" 30350 1.8417128415253e-10 1.24552120028042e-09 2.79912862163424e-09 9.26911176065258e-10 4.65749125337864e-09 4.73327882790789e-09 5.17330353041591e-10 1.53471506680407e-10
"1687" 30351 1.8538310798731e-10 1.26966844089413e-09 2.85585948545848e-09 9.35935543367011e-10 4.68986859455057e-09 4.78398168114802e-09 5.20814389261122e-10 1.53837165188177e-10
"1688" 30352 1.86594931822089e-10 1.29381568150783e-09 2.91259034928271e-09 9.44959910668764e-10 4.7222459357225e-09 4.83468453438815e-09 5.24298425480652e-10 1.54202823695947e-10
"1689" 30353 1.86951467180875e-10 1.29371213601395e-09 2.91861771720165e-09 9.45941813172502e-10 4.7222459357225e-09 4.82218566298459e-09 5.23464758418334e-10 1.56796058570878e-10
"1690" 30354 1.87308002539662e-10 1.29360859052006e-09 2.92464508512059e-09 9.4692371567624e-10 4.7222459357225e-09 4.80968679158104e-09 5.22631091356017e-10 1.5938929344581e-10
"1691" 30355 1.90869392276586e-10 1.2925593115387e-09 2.92555977293654e-09 9.47905618179979e-10 4.7168060896098e-09 4.79718792017749e-09 5.21964881266254e-10 1.60619363578557e-10
"1692" 30356 1.94430782013511e-10 1.29151003255735e-09 2.92647446075249e-09 9.48887520683717e-10 4.7113662434971e-09 4.78468904877394e-09 5.21298671176492e-10 1.61849433711304e-10
"1693" 30357 1.97992171750436e-10 1.29046075357599e-09 2.92738914856845e-09 9.49869423187455e-10 4.7059263973844e-09 4.77219017737038e-09 5.2063246108673e-10 1.63079503844051e-10
"1694" 30358 2.01553561487361e-10 1.28941147459463e-09 2.9283038363844e-09 9.50851325691193e-10 4.7004865512717e-09 4.75969130596683e-09 5.19966250996967e-10 1.64309573976798e-10
"1695" 30359 2.05114951224286e-10 1.28836219561328e-09 2.92921852420036e-09 9.51833228194931e-10 4.695046705159e-09 4.74719243456328e-09 5.19300040907205e-10 1.65539644109546e-10
"1696" 30360 2.0867634096121e-10 1.28813870542814e-09 2.92992524466694e-09 9.52815130698669e-10 4.695046705159e-09 4.74506779697813e-09 5.19136201735109e-10 1.66004771906212e-10
"1697" 30361 2.12237730698135e-10 1.28791521524301e-09 2.93063196513352e-09 9.53797033202407e-10 4.695046705159e-09 4.74294315939297e-09 5.18972362563013e-10 1.66469899702879e-10
"1698" 30362 2.1458729660028e-10 1.28686593626166e-09 2.92232064158436e-09 9.50757703307138e-10 4.695046705159e-09 4.74273369998179e-09 5.18972362563013e-10 1.66935027499545e-10
"1699" 30363 2.16936862502426e-10 1.2858166572803e-09 2.91400931803521e-09 9.47718373411869e-10 4.695046705159e-09 4.74252424057062e-09 5.18972362563013e-10 1.67400155296212e-10
"1700" 30364 2.19286428404571e-10 1.28476737829894e-09 2.90569799448606e-09 9.44679043516599e-10 4.695046705159e-09 4.74231478115944e-09 5.18972362563013e-10 1.67865283092878e-10
"1701" 30365 2.21635994306716e-10 1.28371809931759e-09 2.8973866709369e-09 9.4163971362133e-10 4.695046705159e-09 4.74210532174826e-09 5.18972362563013e-10 1.68330410889545e-10
"1702" 30366 2.23985560208862e-10 1.28266882033623e-09 2.88907534738775e-09 9.3860038372606e-10 4.695046705159e-09 4.74189586233708e-09 5.18972362563013e-10 1.68795538686211e-10
"1703" 30367 2.26335126111007e-10 1.28161954135487e-09 2.8807640238386e-09 9.35561053830791e-10 4.695046705159e-09 4.74168640292591e-09 5.18972362563013e-10 1.69260666482878e-10
"1704" 30368 2.28684692013152e-10 1.28057026237352e-09 2.87245270028944e-09 9.32521723935522e-10 4.695046705159e-09 4.74147694351473e-09 5.18972362563013e-10 1.69725794279544e-10
"1705" 30369 2.31034257915297e-10 1.27952098339216e-09 2.86414137674029e-09 9.29482394040252e-10 4.695046705159e-09 4.74126748410355e-09 5.18972362563013e-10 1.7019092207621e-10
"1706" 30370 2.33383823817443e-10 1.2784717044108e-09 2.85583005319114e-09 9.26443064144983e-10 4.695046705159e-09 4.74105802469237e-09 5.18972362563013e-10 1.70656049872877e-10
"1707" 30371 2.35733389719588e-10 1.27742242542944e-09 2.84751872964199e-09 9.23403734249713e-10 4.695046705159e-09 4.7408485652812e-09 5.18972362563013e-10 1.71121177669543e-10
"1708" 30372 2.38082955621733e-10 1.27637314644809e-09 2.83920740609283e-09 9.20364404354444e-10 4.695046705159e-09 4.74063910587002e-09 5.18972362563013e-10 1.7158630546621e-10
"1709" 30373 2.40432521523879e-10 1.27532386746673e-09 2.83089608254368e-09 9.17325074459175e-10 4.695046705159e-09 4.74042964645884e-09 5.18972362563013e-10 1.72051433262876e-10
"1710" 30374 2.43637375902017e-10 1.2751003772816e-09 2.83089608254368e-09 9.18306976962913e-10 4.69495624217087e-09 4.73121258746456e-09 5.13315003500721e-10 1.72915844887854e-10
"1711" 30375 2.46842230280156e-10 1.27487688709647e-09 2.83089608254368e-09 9.19288879466651e-10 4.69486577918274e-09 4.72199552847028e-09 5.0765764443843e-10 1.73780256512831e-10
"1712" 30376 2.47697518756149e-10 1.27492865984341e-09 2.83089608254368e-09 9.19530454159916e-10 4.69477531619462e-09 4.71385581000526e-09 5.02666495465901e-10 1.73547692614497e-10
"1713" 30377 2.47340983397363e-10 1.27565090314575e-09 2.83027218049556e-09 9.19530454159916e-10 4.69536453229995e-09 4.70700289148069e-09 4.9700913640361e-10 1.74412104239474e-10
"1714" 30378 2.46984448038576e-10 1.27637314644809e-09 2.82964827844744e-09 9.19530454159916e-10 4.69595374840528e-09 4.70014997295612e-09 4.91351777341319e-10 1.75276515864452e-10
"1715" 30379 2.4662791267979e-10 1.27709538975043e-09 2.82902437639932e-09 9.19530454159916e-10 4.69654296451062e-09 4.69329705443155e-09 4.85694418279027e-10 1.76140927489429e-10
"1716" 30380 2.46271377321004e-10 1.27781763305277e-09 2.8284004743512e-09 9.19530454159916e-10 4.69713218061595e-09 4.68644413590697e-09 4.80037059216736e-10 1.77005339114406e-10
"1717" 30381 2.45914841962218e-10 1.2785398763551e-09 2.82777657230308e-09 9.19530454159916e-10 4.69772139672128e-09 4.6795912173824e-09 4.74379700154445e-10 1.77869750739383e-10
"1718" 30382 2.45558306603431e-10 1.27926211965744e-09 2.82715267025496e-09 9.19530454159916e-10 4.69831061282662e-09 4.67273829885783e-09 4.68722341092153e-10 1.7873416236436e-10
"1719" 30383 2.43635393976548e-10 1.27926211965744e-09 2.82652876820684e-09 9.17309470728499e-10 4.69563592126433e-09 4.67481314562151e-09 4.67728452658198e-10 1.7983113788767e-10
"1720" 30384 2.41712481349665e-10 1.27926211965744e-09 2.82590486615872e-09 9.15088487297081e-10 4.69296122970204e-09 4.67688799238519e-09 4.66734564224244e-10 1.80928113410981e-10
"1721" 30385 2.39789568722782e-10 1.27926211965744e-09 2.8252809641106e-09 9.12867503865663e-10 4.69028653813976e-09 4.67896283914887e-09 4.65740675790289e-10 1.82025088934291e-10
"1722" 30386 2.37866656095899e-10 1.27926211965744e-09 2.82465706206248e-09 9.10646520434246e-10 4.68761184657747e-09 4.68103768591255e-09 4.64746787356334e-10 1.83122064457601e-10
"1723" 30387 2.35943743469016e-10 1.27926211965744e-09 2.82403316001436e-09 9.08425537002828e-10 4.68493715501518e-09 4.68311253267623e-09 4.63752898922379e-10 1.84219039980912e-10
"1724" 30388 2.34020830842133e-10 1.27926211965744e-09 2.82340925796624e-09 9.0620455357141e-10 4.68226246345289e-09 4.68518737943991e-09 4.62759010488424e-10 1.85316015504222e-10
"1725" 30389 2.32097918215249e-10 1.27926211965744e-09 2.82278535591812e-09 9.03983570139993e-10 4.67958777189061e-09 4.68726222620359e-09 4.61765122054469e-10 1.86412991027532e-10
"1726" 30390 2.30175005588366e-10 1.27926211965744e-09 2.82216145387e-09 9.01762586708575e-10 4.67691308032832e-09 4.68933707296727e-09 4.60771233620514e-10 1.87509966550843e-10
"1727" 30391 2.28252092961483e-10 1.27926211965744e-09 2.82153755182188e-09 8.99541603277157e-10 4.67423838876603e-09 4.69141191973095e-09 4.5977734518656e-10 1.88606942074153e-10
"1728" 30392 2.263291803346e-10 1.27926211965744e-09 2.82091364977376e-09 8.9732061984574e-10 4.67156369720375e-09 4.69348676649463e-09 4.58783456752605e-10 1.89703917597463e-10
"1729" 30393 2.24406267707717e-10 1.27926211965744e-09 2.82028974772564e-09 8.95099636414322e-10 4.66888900564146e-09 4.69556161325831e-09 4.5778956831865e-10 1.90800893120774e-10
"1730" 30394 2.22483355080834e-10 1.27926211965744e-09 2.81966584567752e-09 8.92878652982904e-10 4.66621431407917e-09 4.69763646002199e-09 4.56795679884695e-10 1.91897868644084e-10
"1731" 30395 2.20560442453951e-10 1.27926211965744e-09 2.8190419436294e-09 8.90657669551487e-10 4.66353962251688e-09 4.69971130678567e-09 4.5580179145074e-10 1.92994844167394e-10
"1732" 30396 2.18637529827068e-10 1.27926211965744e-09 2.81841804158128e-09 8.88436686120069e-10 4.6608649309546e-09 4.70178615354935e-09 4.54807903016785e-10 1.94091819690705e-10
"1733" 30397 2.16856834958605e-10 1.28713862403887e-09 2.82132774186606e-09 8.87197605192389e-10 4.65791885042793e-09 4.70149685984332e-09 4.57964260892124e-10 1.94723667417349e-10
"1734" 30398 2.1664251735824e-10 1.29491158292641e-09 2.8251521299668e-09 8.88179507696128e-10 4.65701180718164e-09 4.69546203161536e-09 4.62281964173972e-10 1.93593066573498e-10
"1735" 30399 2.16213882157509e-10 1.29104150268e-09 2.82195348652063e-09 8.87937933002862e-10 4.67446575291886e-09 4.69441473455947e-09 4.62118125001876e-10 1.93459971964061e-10
"1736" 30400 2.15785246956778e-10 1.28717142243359e-09 2.81875484307446e-09 8.87696358309597e-10 4.69191969865608e-09 4.69336743750358e-09 4.61954285829779e-10 1.93326877354624e-10
"1737" 30401 2.15356611756047e-10 1.28330134218718e-09 2.81555619962829e-09 8.87454783616331e-10 4.7093736443933e-09 4.6923201404477e-09 4.61790446657683e-10 1.93193782745187e-10
"1738" 30402 2.14927976555315e-10 1.27943126194077e-09 2.81235755618212e-09 8.87213208923065e-10 4.72682759013051e-09 4.69127284339181e-09 4.61626607485587e-10 1.9306068813575e-10
"1739" 30403 2.14499341354584e-10 1.27556118169436e-09 2.80915891273595e-09 8.869716342298e-10 4.74428153586773e-09 4.69022554633592e-09 4.61462768313491e-10 1.92927593526313e-10
"1740" 30404 2.13644052878591e-10 1.27378965941067e-09 2.80022368713867e-09 8.86987237960476e-10 4.74840604860506e-09 4.69225060227813e-09 4.61462768313491e-10 1.92927593526313e-10
"1741" 30405 2.12574446802232e-10 1.26991957916426e-09 2.79336629242869e-09 8.89013457890655e-10 4.76432212354414e-09 4.69616079292093e-09 4.63130102438126e-10 1.93559441252957e-10
"1742" 30406 2.12574446802232e-10 1.26814805688056e-09 2.80471246519354e-09 8.89029061621331e-10 4.774113846547e-09 4.70047015503799e-09 4.6296626326603e-10 1.94656416776268e-10
"1743" 30407 2.12574446802232e-10 1.26637653459687e-09 2.81605863795838e-09 8.89044665352007e-10 4.78390556954986e-09 4.70477951715506e-09 4.62802424093934e-10 1.95753392299578e-10
"1744" 30408 2.12574446802232e-10 1.26460501231317e-09 2.82740481072323e-09 8.89060269082683e-10 4.79369729255272e-09 4.70908887927212e-09 4.62638584921837e-10 1.96850367822888e-10
"1745" 30409 2.12574446802232e-10 1.26283349002947e-09 2.83875098348808e-09 8.89075872813359e-10 4.80348901555558e-09 4.71339824138918e-09 4.62474745749741e-10 1.97947343346199e-10
"1746" 30410 2.12574446802232e-10 1.26106196774578e-09 2.85009715625293e-09 8.89091476544034e-10 4.81328073855844e-09 4.71770760350625e-09 4.62310906577645e-10 1.99044318869509e-10
"1747" 30411 2.12574446802232e-10 1.25929044546208e-09 2.86144332901777e-09 8.8910708027471e-10 4.8230724615613e-09 4.72201696562331e-09 4.62147067405549e-10 2.00141294392819e-10
"1748" 30412 2.12574446802232e-10 1.25751892317839e-09 2.87278950178262e-09 8.89122684005386e-10 4.83286418456416e-09 4.72632632774037e-09 4.61983228233452e-10 2.0123826991613e-10
"1749" 30413 2.12574446802232e-10 1.25574740089469e-09 2.88413567454747e-09 8.89138287736062e-10 4.84265590756702e-09 4.73063568985744e-09 4.61819389061356e-10 2.0233524543944e-10
"1750" 30414 2.12574446802232e-10 1.25397587861099e-09 2.89548184731232e-09 8.89153891466738e-10 4.85244763056988e-09 4.7349450519745e-09 4.6165554988926e-10 2.0343222096275e-10
"1751" 30415 2.12574446802232e-10 1.2522043563273e-09 2.90682802007716e-09 8.89169495197414e-10 4.86223935357274e-09 4.73925441409156e-09 4.61491710717164e-10 2.04529196486061e-10
"1752" 30416 2.12574446802232e-10 1.2504328340436e-09 2.91817419284201e-09 8.89185098928089e-10 4.8720310765756e-09 4.74356377620862e-09 4.61327871545067e-10 2.05626172009371e-10
"1753" 30417 2.12574446802232e-10 1.24866131175991e-09 2.92952036560686e-09 8.89200702658765e-10 4.88182279957846e-09 4.74787313832569e-09 4.61164032372971e-10 2.06723147532681e-10
"1754" 30418 2.12574446802232e-10 1.24688978947621e-09 2.94086653837171e-09 8.89216306389441e-10 4.89161452258133e-09 4.75218250044275e-09 4.61000193200875e-10 2.07820123055992e-10
"1755" 30419 2.13786270637012e-10 1.24898834743892e-09 2.96114793673383e-09 8.89216306389441e-10 4.89936720830381e-09 4.75478614379702e-09 4.60836354028779e-10 2.08684534680969e-10
"1756" 30420 2.14998094471791e-10 1.25108690540164e-09 2.98142933509595e-09 8.89216306389441e-10 4.90711989402629e-09 4.75738978715128e-09 4.60672514856682e-10 2.09548946305946e-10
"1757" 30421 2.15853382947785e-10 1.25246322006201e-09 2.99817713112517e-09 8.88491582309644e-10 4.91550582066566e-09 4.73408831188416e-09 4.6000630476692e-10 2.10779016438693e-10
"1758" 30422 2.16708671423778e-10 1.25383953472239e-09 3.01492492715439e-09 8.87766858229848e-10 4.92389174730502e-09 4.71078683661704e-09 4.59340094677158e-10 2.1200908657144e-10
"1759" 30423 2.17563959899771e-10 1.25521584938276e-09 3.0316727231836e-09 8.87042134150051e-10 4.93227767394439e-09 4.68748536134992e-09 4.58673884587395e-10 2.13239156704188e-10
"1760" 30424 2.18419248375764e-10 1.25659216404314e-09 3.04842051921282e-09 8.86317410070254e-10 4.94066360058376e-09 4.6641838860828e-09 4.58007674497633e-10 2.14469226836935e-10
"1761" 30425 2.19274536851758e-10 1.25796847870351e-09 3.06516831524204e-09 8.85592685990457e-10 4.94904952722312e-09 4.64088241081568e-09 4.57341464407871e-10 2.15699296969682e-10
"1762" 30426 2.20129825327751e-10 1.25934479336389e-09 3.08191611127126e-09 8.84867961910661e-10 4.95743545386249e-09 4.61758093554856e-09 4.56675254318108e-10 2.16929367102429e-10
"1763" 30427 2.20129825327751e-10 1.25839905987641e-09 3.07900641098648e-09 8.84867961910661e-10 4.95806869477937e-09 4.59199515410658e-09 4.57840217525078e-10 2.16929367102429e-10
"1764" 30428 2.20129825327751e-10 1.25745332638894e-09 3.0760967107017e-09 8.84867961910661e-10 4.95870193569625e-09 4.5664093726646e-09 4.59005180732047e-10 2.16929367102429e-10
"1765" 30429 2.20556478603013e-10 1.2626125749992e-09 3.08420190950792e-09 8.84127634100188e-10 5.00019132077758e-09 4.57210511636506e-09 4.60661661455305e-10 2.17295025610199e-10
"1766" 30430 2.20983131878275e-10 1.26777182360946e-09 3.09230710831415e-09 8.83387306289716e-10 5.04168070585892e-09 4.57780086006551e-09 4.62318142178563e-10 2.17660684117969e-10
"1767" 30431 2.21409785153537e-10 1.27293107221972e-09 3.10041230712037e-09 8.82646978479243e-10 5.08317009094025e-09 4.58349660376596e-09 4.63974622901821e-10 2.1802634262574e-10
"1768" 30432 2.21836438428799e-10 1.27809032082998e-09 3.1085175059266e-09 8.8190665066877e-10 5.12465947602158e-09 4.58919234746642e-09 4.65631103625079e-10 2.1839200113351e-10
"1769" 30433 2.22263091704062e-10 1.28324956944024e-09 3.11662270473282e-09 8.81166322858298e-10 5.16614886110291e-09 4.59488809116687e-09 4.67287584348337e-10 2.1875765964128e-10
"1770" 30434 2.22689744979324e-10 1.2884088180505e-09 3.12472790353905e-09 8.80425995047825e-10 5.20763824618425e-09 4.60058383486733e-09 4.68944065071595e-10 2.1912331814905e-10
"1771" 30435 2.23116398254586e-10 1.29356806666076e-09 3.13283310234527e-09 8.79685667237353e-10 5.24912763126558e-09 4.60627957856778e-09 4.70600545794853e-10 2.1948897665682e-10
"1772" 30436 2.23543051529848e-10 1.29872731527102e-09 3.1409383011515e-09 8.7894533942688e-10 5.29061701634691e-09 4.61197532226824e-09 4.72257026518112e-10 2.1985463516459e-10
"1773" 30437 2.2396970480511e-10 1.30388656388128e-09 3.14904349995772e-09 8.78205011616408e-10 5.33210640142824e-09 4.61767106596869e-09 4.7391350724137e-10 2.2022029367236e-10
"1774" 30438 2.24396358080372e-10 1.30904581249153e-09 3.15714869876395e-09 8.77464683805935e-10 5.37359578650958e-09 4.62336680966914e-09 4.75569987964628e-10 2.2058595218013e-10
"1775" 30439 2.24823011355635e-10 1.31420506110179e-09 3.16525389757017e-09 8.76724355995463e-10 5.41508517159091e-09 4.6290625533696e-09 4.77226468687886e-10 2.209516106879e-10
"1776" 30440 2.25249664630897e-10 1.31936430971205e-09 3.1733590963764e-09 8.7598402818499e-10 5.45657455667224e-09 4.63475829707005e-09 4.78882949411144e-10 2.21317269195671e-10
"1777" 30441 2.25676317906159e-10 1.32452355832231e-09 3.18146429518262e-09 8.75243700374517e-10 5.49806394175357e-09 4.64045404077051e-09 4.80539430134402e-10 2.21682927703441e-10
"1778" 30442 2.24536593913324e-10 1.32957926143868e-09 3.1808845662534e-09 8.74503372564045e-10 5.52758566538696e-09 4.65532650386658e-09 4.8219591085766e-10 2.22048586211211e-10
"1779" 30443 2.25177564788952e-10 1.33179776409264e-09 3.17298733479655e-09 8.74503372564045e-10 5.56844180955141e-09 4.68839358206667e-09 4.84686058643236e-10 2.22414244718981e-10
"1780" 30444 2.2581853566458e-10 1.3340162667466e-09 3.1650901033397e-09 8.74503372564045e-10 5.60929795371586e-09 4.72146066026675e-09 4.87176206428812e-10 2.22779903226751e-10
"1781" 30445 2.26459506540207e-10 1.33623476940056e-09 3.15719287188284e-09 8.74503372564045e-10 5.65015409788031e-09 4.75452773846683e-09 4.89666354214387e-10 2.23145561734521e-10
"1782" 30446 2.27100477415835e-10 1.33845327205452e-09 3.14929564042599e-09 8.74503372564045e-10 5.69101024204476e-09 4.78759481666691e-09 4.92156501999963e-10 2.23511220242291e-10
"1783" 30447 2.27741448291463e-10 1.34067177470848e-09 3.14139840896914e-09 8.74503372564045e-10 5.73186638620921e-09 4.820661894867e-09 4.94646649785539e-10 2.23876878750061e-10
"1784" 30448 2.28382419167091e-10 1.34289027736244e-09 3.13350117751229e-09 8.74503372564045e-10 5.77272253037366e-09 4.85372897306708e-09 4.97136797571115e-10 2.24242537257832e-10
"1785" 30449 2.2824020140867e-10 1.33922728810381e-09 3.11783002092305e-09 8.74261797870779e-10 5.77272253037366e-09 4.85372897306708e-09 4.97468093715766e-10 2.24375631867268e-10
"1786" 30450 2.29309807485029e-10 1.33628654214751e-09 3.10182759065998e-09 8.75002125681252e-10 5.77480800583062e-09 4.85348947018252e-09 4.99958241501342e-10 2.24508726476705e-10
"1787" 30451 2.30379413561387e-10 1.33334579619121e-09 3.0858251603969e-09 8.75742453491724e-10 5.77689348128757e-09 4.85324996729797e-09 5.02448389286918e-10 2.24641821086142e-10
"1788" 30452 2.31449019637746e-10 1.33040505023491e-09 3.06982273013383e-09 8.76482781302197e-10 5.77897895674453e-09 4.85301046441341e-09 5.04938537072494e-10 2.24774915695579e-10
"1789" 30453 2.32518625714105e-10 1.32746430427861e-09 3.05382029987075e-09 8.77223109112669e-10 5.78106443220148e-09 4.85277096152886e-09 5.0742868485807e-10 2.24908010305016e-10
"1790" 30454 2.33588231790464e-10 1.32452355832231e-09 3.03781786960767e-09 8.77963436923142e-10 5.78314990765843e-09 4.8525314586443e-09 5.09918832643645e-10 2.25041104914453e-10
"1791" 30455 2.34657837866822e-10 1.32158281236601e-09 3.0218154393446e-09 8.78703764733615e-10 5.78523538311539e-09 4.85229195575975e-09 5.12408980429221e-10 2.2517419952389e-10
"1792" 30456 2.35513126342816e-10 1.32225328292141e-09 3.02472513962938e-09 8.75664434838345e-10 5.7807441916955e-09 4.84247656200531e-09 5.12408980429221e-10 2.24077224000579e-10
"1793" 30457 2.35513126342816e-10 1.32087696826103e-09 3.02763483991416e-09 8.70372914050307e-10 5.78486870443283e-09 4.84439174017929e-09 5.1290049794551e-10 2.23844660102246e-10
"1794" 30458 2.35513126342816e-10 1.31950065360066e-09 3.03054454019894e-09 8.65081393262268e-10 5.78899321717016e-09 4.84630691835326e-09 5.13392015461799e-10 2.23612096203913e-10
"1795" 30459 2.35513126342816e-10 1.31812433894028e-09 3.03345424048372e-09 8.59789872474229e-10 5.79311772990749e-09 4.84822209652724e-09 5.13883532978087e-10 2.23379532305579e-10
"1796" 30460 2.35513126342816e-10 1.31674802427991e-09 3.03636394076851e-09 8.5449835168619e-10 5.79724224264482e-09 4.85013727470122e-09 5.14375050494376e-10 2.23146968407246e-10
"1797" 30461 2.35513126342816e-10 1.31537170961954e-09 3.03927364105329e-09 8.49206830898152e-10 5.80136675538216e-09 4.85205245287519e-09 5.14866568010665e-10 2.22914404508913e-10
"1798" 30462 2.35513126342816e-10 1.31399539495916e-09 3.04218334133807e-09 8.43915310110113e-10 5.80549126811949e-09 4.85396763104917e-09 5.15358085526954e-10 2.2268184061058e-10
"1799" 30463 2.35513126342816e-10 1.31261908029879e-09 3.04509304162285e-09 8.38623789322074e-10 5.80961578085682e-09 4.85588280922314e-09 5.15849603043243e-10 2.22449276712247e-10
"1800" 30464 2.34443520266457e-10 1.3113463111323e-09 3.04629851520664e-09 8.32591940723563e-10 5.80898012657491e-09 4.85675069034123e-09 5.14018429746511e-10 2.22083618204476e-10
"1801" 30465 2.33373914190098e-10 1.31007354196581e-09 3.04750398879043e-09 8.26560092125052e-10 5.808344472293e-09 4.85761857145932e-09 5.12187256449779e-10 2.21717959696706e-10
"1802" 30466 2.33373914190098e-10 1.31007354196581e-09 3.04766962562735e-09 8.2255446345672e-10 5.80743742904671e-09 4.8615588055755e-09 5.1102229324281e-10 2.23247844368868e-10
"1803" 30467 2.33373914190098e-10 1.31007354196581e-09 3.04783526246427e-09 8.18548834788388e-10 5.80653038580042e-09 4.86549903969168e-09 5.09857330035841e-10 2.24777729041029e-10
"1804" 30468 2.33373914190098e-10 1.31007354196581e-09 3.04800089930119e-09 8.14543206120056e-10 5.80562334255414e-09 4.86943927380787e-09 5.08692366828871e-10 2.26307613713191e-10
"1805" 30469 2.33373914190098e-10 1.31007354196581e-09 3.04816653613811e-09 8.10537577451725e-10 5.80471629930785e-09 4.87337950792405e-09 5.07527403621902e-10 2.27837498385352e-10
"1806" 30470 2.33373914190098e-10 1.31007354196581e-09 3.04833217297503e-09 8.06531948783393e-10 5.80380925606156e-09 4.87731974204023e-09 5.06362440414933e-10 2.29367383057513e-10
"1807" 30471 2.33373914190098e-10 1.31007354196581e-09 3.04849780981195e-09 8.02526320115061e-10 5.80290221281527e-09 4.88125997615641e-09 5.05197477207963e-10 2.30897267729675e-10
"1808" 30472 2.33373914190098e-10 1.31007354196581e-09 3.04866344664887e-09 7.9852069144673e-10 5.80199516956899e-09 4.88520021027259e-09 5.04032514000994e-10 2.32427152401836e-10
"1809" 30473 2.33373914190098e-10 1.31007354196581e-09 3.04882908348579e-09 7.94515062778398e-10 5.8010881263227e-09 4.88914044438878e-09 5.02867550794025e-10 2.33957037073998e-10
"1810" 30474 2.33373914190098e-10 1.31007354196581e-09 3.04899472032271e-09 7.90509434110066e-10 5.80018108307641e-09 4.89308067850496e-09 5.01702587587055e-10 2.35486921746159e-10
"1811" 30475 2.33373914190098e-10 1.31007354196581e-09 3.04916035715963e-09 7.86503805441735e-10 5.79927403983012e-09 4.89702091262114e-09 5.00537624380086e-10 2.37016806418321e-10
"1812" 30476 2.33373914190098e-10 1.31007354196581e-09 3.04932599399655e-09 7.82498176773403e-10 5.79836699658383e-09 4.90096114673732e-09 4.99372661173117e-10 2.38546691090482e-10
"1813" 30477 2.33373914190098e-10 1.31007354196581e-09 3.04949163083347e-09 7.78492548105071e-10 5.79745995333755e-09 4.9049013808535e-09 4.98207697966147e-10 2.40076575762644e-10
"1814" 30478 2.33373914190098e-10 1.31007354196581e-09 3.04965726767039e-09 7.7448691943674e-10 5.79655291009126e-09 4.90884161496969e-09 4.97042734759178e-10 2.41606460434805e-10
"1815" 30479 2.34585738024878e-10 1.30830201968211e-09 3.04658193054869e-09 7.76754714060185e-10 5.76853468590457e-09 4.87660207828903e-09 4.95877771552208e-10 2.43502003614737e-10
"1816" 30480 2.35655344101236e-10 1.3095747888486e-09 3.04658193054869e-09 7.78780933990364e-10 5.76350312992095e-09 4.87660207828903e-09 4.96543981641971e-10 2.45031888286898e-10
"1817" 30481 2.36724950177595e-10 1.31084755801509e-09 3.04658193054869e-09 7.80807153920544e-10 5.75847157393733e-09 4.87660207828903e-09 4.97210191731733e-10 2.46561772959059e-10
"1818" 30482 2.37794556253954e-10 1.31212032718158e-09 3.04658193054869e-09 7.82833373850724e-10 5.75344001795371e-09 4.87660207828903e-09 4.97876401821496e-10 2.48091657631221e-10
"1819" 30483 2.38864162330313e-10 1.31339309634807e-09 3.04658193054869e-09 7.84859593780903e-10 5.74840846197009e-09 4.87660207828903e-09 4.98542611911258e-10 2.49621542303382e-10
"1820" 30484 2.39933768406672e-10 1.31466586551456e-09 3.04658193054869e-09 7.86885813711083e-10 5.74337690598647e-09 4.87660207828903e-09 4.9920882200102e-10 2.51151426975544e-10
"1821" 30485 2.4100337448303e-10 1.31593863468105e-09 3.04658193054869e-09 7.88912033641262e-10 5.73834535000285e-09 4.87660207828903e-09 4.99875032090783e-10 2.52681311647705e-10
"1822" 30486 2.42072980559389e-10 1.31898292613123e-09 3.04570957324519e-09 7.88927637371938e-10 5.74092957857701e-09 4.87660207828903e-09 4.99875032090783e-10 2.52681311647705e-10
"1823" 30487 2.41930762800968e-10 1.31887938063734e-09 3.04674940999206e-09 7.89699172643762e-10 5.73548973246431e-09 4.87660207828903e-09 5.00541242180545e-10 2.52315653139935e-10
"1824" 30488 2.41788545042548e-10 1.31877583514346e-09 3.04778924673892e-09 7.90470707915587e-10 5.73004988635161e-09 4.87660207828903e-09 5.01207452270307e-10 2.51949994632165e-10
"1825" 30489 2.41646327284127e-10 1.31867228964957e-09 3.04882908348579e-09 7.91242243187411e-10 5.72461004023891e-09 4.87660207828903e-09 5.0187366236007e-10 2.51584336124395e-10
"1826" 30490 2.41504109525706e-10 1.31856874415569e-09 3.04986892023266e-09 7.92013778459235e-10 5.71917019412621e-09 4.87660207828903e-09 5.02539872449832e-10 2.51218677616625e-10
"1827" 30491 2.41361891767286e-10 1.3184651986618e-09 3.05090875697952e-09 7.92785313731059e-10 5.71373034801351e-09 4.87660207828903e-09 5.03206082539594e-10 2.50853019108855e-10
"1828" 30492 2.41219674008865e-10 1.31836165316792e-09 3.05194859372639e-09 7.93556849002883e-10 5.70829050190081e-09 4.87660207828903e-09 5.03872292629357e-10 2.50487360601084e-10
"1829" 30493 2.41077456250444e-10 1.31825810767403e-09 3.05298843047326e-09 7.94328384274708e-10 5.70285065578811e-09 4.87660207828903e-09 5.04538502719119e-10 2.50121702093314e-10
"1830" 30494 2.40935238492023e-10 1.31815456218014e-09 3.05402826722012e-09 7.95099919546532e-10 5.69741080967541e-09 4.87660207828903e-09 5.05204712808881e-10 2.49756043585544e-10
"1831" 30495 2.40793020733603e-10 1.31805101668626e-09 3.05506810396699e-09 7.95871454818356e-10 5.69197096356271e-09 4.87660207828903e-09 5.05870922898644e-10 2.49390385077774e-10
"1832" 30496 2.40650802975182e-10 1.31794747119237e-09 3.05610794071386e-09 7.9664299009018e-10 5.68653111745001e-09 4.87660207828903e-09 5.06537132988406e-10 2.49024726570004e-10
"1833" 30497 2.40508585216761e-10 1.31784392569849e-09 3.05714777746072e-09 7.97414525362005e-10 5.68109127133731e-09 4.87660207828903e-09 5.07203343078168e-10 2.48659068062234e-10
"1834" 30498 2.4036636745834e-10 1.3177403802046e-09 3.05818761420759e-09 7.98186060633829e-10 5.67565142522461e-09 4.87660207828903e-09 5.07869553167931e-10 2.48293409554464e-10
"1835" 30499 2.4022414969992e-10 1.31763683471072e-09 3.05922745095446e-09 7.98957595905653e-10 5.67021157911191e-09 4.87660207828903e-09 5.08535763257693e-10 2.47927751046694e-10
"1836" 30500 2.4022414969992e-10 1.30654432144092e-09 3.05261851149985e-09 7.98988803367005e-10 5.66558589989234e-09 4.86091152489634e-09 5.09369430320011e-10 2.47562092538924e-10
"1837" 30501 2.39440961065871e-10 1.30726656474326e-09 3.05382398508364e-09 7.99744734908153e-10 5.65756182520548e-09 4.86414354648414e-09 5.07712949596753e-10 2.44968857663992e-10
"1838" 30502 2.38657772431823e-10 1.30798880804559e-09 3.05502945866743e-09 8.00500666449302e-10 5.64953775051862e-09 4.86737556807194e-09 5.06056468873495e-10 2.42375622789061e-10
"1839" 30503 2.37874583797774e-10 1.30871105134793e-09 3.05623493225122e-09 8.0125659799045e-10 5.64151367583176e-09 4.87060758965973e-09 5.04399988150237e-10 2.3978238791413e-10
"1840" 30504 2.37091395163726e-10 1.30943329465027e-09 3.057440405835e-09 8.02012529531598e-10 5.6334896011449e-09 4.87383961124753e-09 5.02743507426978e-10 2.37189153039198e-10
"1841" 30505 2.36308206529678e-10 1.31015553795261e-09 3.05864587941879e-09 8.02768461072747e-10 5.62546552645803e-09 4.87707163283533e-09 5.0108702670372e-10 2.34595918164267e-10
"1842" 30506 2.35525017895629e-10 1.31087778125495e-09 3.05985135300258e-09 8.03524392613895e-10 5.61744145177117e-09 4.88030365442312e-09 4.99430545980462e-10 2.32002683289336e-10
"1843" 30507 2.34741829261581e-10 1.31160002455729e-09 3.06105682658636e-09 8.04280324155043e-10 5.60941737708431e-09 4.88353567601092e-09 4.97774065257204e-10 2.29409448414405e-10
"1844" 30508 2.34741829261581e-10 1.31354326427917e-09 3.06226230017015e-09 8.0500504823484e-10 5.60683314851015e-09 4.88261800407136e-09 4.96117584533946e-10 2.27181872047243e-10
"1845" 30509 2.35170464462312e-10 1.31968361992649e-09 3.0705736237193e-09 8.05760979775989e-10 5.60012440719866e-09 4.88261800407136e-09 4.94788782154881e-10 2.24954295680082e-10
"1846" 30510 2.35599099663043e-10 1.3258239755738e-09 3.07888494726846e-09 8.06516911317137e-10 5.59341566588717e-09 4.88261800407136e-09 4.93459979775815e-10 2.22726719312921e-10
"1847" 30511 2.36027734863774e-10 1.33196433122111e-09 3.08719627081761e-09 8.07272842858285e-10 5.58670692457567e-09 4.88261800407136e-09 4.92131177396749e-10 2.2049914294576e-10
"1848" 30512 2.36456370064505e-10 1.33810468686842e-09 3.09550759436676e-09 8.08028774399434e-10 5.57999818326418e-09 4.88261800407136e-09 4.90802375017684e-10 2.18271566578599e-10
"1849" 30513 2.36885005265236e-10 1.34424504251574e-09 3.10381891791592e-09 8.08784705940582e-10 5.57328944195269e-09 4.88261800407136e-09 4.89473572638618e-10 2.16043990211437e-10
"1850" 30514 2.37740293741229e-10 1.34651531791664e-09 3.08769318132837e-09 8.08784705940582e-10 5.56916492921536e-09 4.88332621659975e-09 4.90467461072573e-10 2.14514105539276e-10
"1851" 30515 2.3816892894196e-10 1.35287916374908e-09 3.09662840692565e-09 8.08815913401934e-10 5.56712589193498e-09 4.87174501713575e-09 4.91628806479083e-10 2.12984220867115e-10
"1852" 30516 2.38597564142691e-10 1.35924300958153e-09 3.10556363252292e-09 8.08847120863285e-10 5.5650868546546e-09 4.86016381767176e-09 4.92790151885594e-10 2.11454336194953e-10
"1853" 30517 2.39452852618685e-10 1.36560685541397e-09 3.11478964388803e-09 8.09603052404434e-10 5.56631172504184e-09 4.86087203020015e-09 4.93620201147452e-10 2.11819994702723e-10
"1854" 30518 2.40308141094678e-10 1.37197070124642e-09 3.12401565525313e-09 8.10358983945582e-10 5.56753659542909e-09 4.86158024272853e-09 4.94450250409311e-10 2.12185653210493e-10
"1855" 30519 2.41163429570671e-10 1.37833454707886e-09 3.13324166661824e-09 8.11114915486731e-10 5.56876146581633e-09 4.86228845525692e-09 4.95280299671169e-10 2.12551311718264e-10
"1856" 30520 2.42018718046664e-10 1.38469839291131e-09 3.14246767798335e-09 8.11870847027879e-10 5.56998633620357e-09 4.8629966677853e-09 4.96110348933028e-10 2.12916970226034e-10
"1857" 30521 2.42874006522658e-10 1.39106223874375e-09 3.15169368934845e-09 8.12626778569027e-10 5.57121120659081e-09 4.86370488031369e-09 4.96940398194887e-10 2.13282628733804e-10
"1858" 30522 2.42874006522658e-10 1.39128572892888e-09 3.15169368934845e-09 8.12611174838352e-10 5.60512400519586e-09 4.86585956137222e-09 4.99099249835811e-10 2.13648287241574e-10
"1859" 30523 2.42874006522658e-10 1.39150921911401e-09 3.15169368934845e-09 8.12595571107676e-10 5.63903680380091e-09 4.86801424243075e-09 5.01258101476735e-10 2.14013945749344e-10
"1860" 30524 2.42874006522658e-10 1.39173270929915e-09 3.15169368934845e-09 8.12579967377e-10 5.67294960240596e-09 4.87016892348928e-09 5.03416953117659e-10 2.14379604257114e-10
"1861" 30525 2.42874006522658e-10 1.39195619948428e-09 3.15169368934845e-09 8.12564363646324e-10 5.70686240101101e-09 4.87232360454781e-09 5.05575804758583e-10 2.14745262764884e-10
"1862" 30526 2.42874006522658e-10 1.39217968966941e-09 3.15169368934845e-09 8.12548759915648e-10 5.74077519961605e-09 4.87447828560634e-09 5.07734656399508e-10 2.15110921272654e-10
"1863" 30527 2.42874006522658e-10 1.39240317985454e-09 3.15169368934845e-09 8.12533156184972e-10 5.7746879982211e-09 4.87663296666488e-09 5.09893508040432e-10 2.15476579780424e-10
"1864" 30528 2.42874006522658e-10 1.39262667003967e-09 3.15169368934845e-09 8.12517552454297e-10 5.80860079682615e-09 4.87878764772341e-09 5.12052359681356e-10 2.15842238288195e-10
"1865" 30529 2.42659688922292e-10 1.39262667003967e-09 3.15190165669783e-09 8.12501948723621e-10 5.86223635596665e-09 4.88094232878194e-09 5.12882408943214e-10 2.15842238288195e-10
"1866" 30530 2.42445371321927e-10 1.39262667003967e-09 3.1521096240472e-09 8.12486344992945e-10 5.91587191510715e-09 4.88309700984047e-09 5.13712458205073e-10 2.15842238288195e-10
"1867" 30531 2.42231053721561e-10 1.39262667003967e-09 3.15231759139657e-09 8.12470741262269e-10 5.96950747424765e-09 4.885251690899e-09 5.14542507466932e-10 2.15842238288195e-10
"1868" 30532 2.42016736121196e-10 1.39262667003967e-09 3.15252555874595e-09 8.12455137531593e-10 6.02314303338815e-09 4.88740637195753e-09 5.1537255672879e-10 2.15842238288195e-10
"1869" 30533 2.4180241852083e-10 1.39262667003967e-09 3.15273352609532e-09 8.12439533800917e-10 6.07677859252864e-09 4.88956105301607e-09 5.16202605990649e-10 2.15842238288195e-10
"1870" 30534 2.41588100920464e-10 1.39262667003967e-09 3.15294149344469e-09 8.12423930070242e-10 6.13041415166914e-09 4.8917157340746e-09 5.17032655252507e-10 2.15842238288195e-10
"1871" 30535 2.41373783320099e-10 1.39262667003967e-09 3.15314946079407e-09 8.12408326339566e-10 6.18404971080964e-09 4.89387041513313e-09 5.17862704514366e-10 2.15842238288195e-10
"1872" 30536 2.4151600107852e-10 1.39045994013266e-09 3.14462832728909e-09 8.12649901032831e-10 6.23768526995014e-09 4.89410991801768e-09 5.17862704514366e-10 2.15842238288195e-10
"1873" 30537 2.4165821883694e-10 1.38829321022564e-09 3.13610719378412e-09 8.12891475726097e-10 6.29132082909064e-09 4.89434942090224e-09 5.17862704514366e-10 2.15842238288195e-10
"1874" 30538 2.4165821883694e-10 1.38801794729357e-09 3.12002378770903e-09 8.12119940454273e-10 6.34463856109018e-09 4.89579588943239e-09 5.18692753776225e-10 2.15077295952114e-10
"1875" 30539 2.4165821883694e-10 1.38774268436149e-09 3.10394038163394e-09 8.11348405182448e-10 6.39795629308973e-09 4.89724235796253e-09 5.19522803038083e-10 2.14312353616033e-10
"1876" 30540 2.4165821883694e-10 1.38746742142942e-09 3.08785697555885e-09 8.10576869910624e-10 6.45127402508927e-09 4.89868882649268e-09 5.20352852299942e-10 2.13547411279952e-10
"1877" 30541 2.4165821883694e-10 1.38719215849734e-09 3.07177356948376e-09 8.098053346388e-10 6.50459175708881e-09 4.90013529502283e-09 5.211829015618e-10 2.12782468943872e-10
"1878" 30542 2.4165821883694e-10 1.38691689556527e-09 3.05569016340867e-09 8.09033799366976e-10 6.55790948908836e-09 4.90158176355297e-09 5.22012950823659e-10 2.12017526607791e-10
"1879" 30543 2.4165821883694e-10 1.38664163263319e-09 3.03960675733357e-09 8.08262264095152e-10 6.6112272210879e-09 4.90302823208312e-09 5.22843000085518e-10 2.1125258427171e-10
"1880" 30544 2.4165821883694e-10 1.38658985988625e-09 3.02568400056423e-09 8.07506332554003e-10 6.61213426433419e-09 4.90232001955474e-09 5.22843000085518e-10 2.10620736545066e-10
"1881" 30545 2.4165821883694e-10 1.3865380871393e-09 3.01176124379489e-09 8.06750401012855e-10 6.61304130758048e-09 4.90161180702635e-09 5.22843000085518e-10 2.09988888818423e-10
"1882" 30546 2.41872536437306e-10 1.39236780630496e-09 3.00419897122477e-09 8.07958274479183e-10 6.62374007382963e-09 4.9260309624214e-09 5.22843000085518e-10 2.09357041091779e-10
"1883" 30547 2.42086854037671e-10 1.39819752547062e-09 2.99663669865465e-09 8.09166147945511e-10 6.63443884007877e-09 4.95045011781644e-09 5.22843000085518e-10 2.08725193365135e-10
"1884" 30548 2.42301171638037e-10 1.40402724463627e-09 2.98907442608453e-09 8.10374021411838e-10 6.64513760632792e-09 4.97486927321149e-09 5.22843000085518e-10 2.08093345638491e-10
"1885" 30549 2.42515489238403e-10 1.40985696380193e-09 2.99780352693887e-09 8.12595004843256e-10 6.64155587151935e-09 4.96959244833339e-09 5.23006839257614e-10 2.08093345638491e-10
"1886" 30550 2.42729806838768e-10 1.41568668296758e-09 3.00653262779322e-09 8.14815988274674e-10 6.63797413671077e-09 4.96431562345529e-09 5.2317067842971e-10 2.08093345638491e-10
"1887" 30551 2.42944124439134e-10 1.42151640213324e-09 3.01526172864756e-09 8.17036971706091e-10 6.6343924019022e-09 4.95903879857719e-09 5.23334517601806e-10 2.08093345638491e-10
"1888" 30552 2.43158442039499e-10 1.42734612129889e-09 3.02399082950191e-09 8.19257955137509e-10 6.63081066709362e-09 4.95376197369909e-09 5.23498356773903e-10 2.08093345638491e-10
"1889" 30553 2.43372759639865e-10 1.43317584046455e-09 3.03271993035625e-09 8.21478938568927e-10 6.62722893228505e-09 4.94848514882099e-09 5.23662195945999e-10 2.08093345638491e-10
"1890" 30554 2.4358707724023e-10 1.4390055596302e-09 3.0414490312106e-09 8.23699922000344e-10 6.62364719747647e-09 4.94320832394290e-09 5.23826035118095e-10 2.08093345638491e-10
"1891" 30555 2.43801394840596e-10 1.44483527879586e-09 3.05017813206494e-09 8.25920905431762e-10 6.6200654626679e-09 4.9379314990648e-09 5.23989874290191e-10 2.08093345638491e-10
"1892" 30556 2.44015712440961e-10 1.45066499796151e-09 3.05890723291929e-09 8.2814188886318e-10 6.61648372785932e-09 4.9326546741867e-09 5.24153713462288e-10 2.08093345638491e-10
"1893" 30557 2.44230030041327e-10 1.45649471712717e-09 3.06763633377363e-09 8.30362872294597e-10 6.61290199305075e-09 4.9273778493086e-09 5.24317552634384e-10 2.08093345638491e-10
"1894" 30558 2.44586565400113e-10 1.45623585339245e-09 3.06007406120351e-09 8.31570745760925e-10 6.61067720306406e-09 4.95271467664321e-09 5.20986502185572e-10 2.08093345638491e-10
"1895" 30559 2.44943100758899e-10 1.45597698965774e-09 3.05251178863339e-09 8.32778619227253e-10 6.60845241307738e-09 4.97805150397781e-09 5.1765545173676e-10 2.08093345638491e-10
"1896" 30560 2.45299636117686e-10 1.45571812592302e-09 3.04494951606327e-09 8.33986492693581e-10 6.6062276230907e-09 5.00338833131242e-09 5.14324401287949e-10 2.08093345638491e-10
