"time" "channel1" "channel2" "channel3" "channel4" "channel5" "channel6" "channel7" "channel8"
"1865" 37521 4.54693157708864e-08 1.85779368141724e-08 1.21624484163039e-07 6.01157556086954e-07 1.64966561743564e-08 1.96129946959609e-07 1.47738740826463e-07 1.75805564521662e-07
"1866" 37522 4.56715260394043e-08 1.85680456965805e-08 1.21562601671648e-07 5.97641678687147e-07 1.63819008653296e-08 1.9612226551207e-07 1.47693392786095e-07 1.74707709214327e-07
"1867" 37523 4.58737363079221e-08 1.85581545789886e-08 1.21500719180258e-07 5.94125801287341e-07 1.62671455563028e-08 1.9611458406453e-07 1.47648044745726e-07 1.73609853906992e-07
"1868" 37524 4.607594657644e-08 1.85482634613966e-08 1.21438836688867e-07 5.90609923887534e-07 1.6152390247276e-08 1.96106902616991e-07 1.47602696705357e-07 1.72511998599657e-07
"1869" 37525 4.62806502913624e-08 1.85017727510166e-08 1.20495387116522e-07 5.86666573476923e-07 1.60697487532892e-08 1.95620916339564e-07 1.44974676250287e-07 1.72093468976575e-07
"1870" 37526 4.64853540062847e-08 1.84552820406365e-08 1.19551937544177e-07 5.82723223066312e-07 1.59871072593025e-08 1.95134930062137e-07 1.42346655795217e-07 1.71674939353494e-07
"1871" 37527 4.66852130557045e-08 1.84565708958056e-08 1.197606471713e-07 5.82726435277688e-07 1.59873808378034e-08 1.95194979701254e-07 1.42294234100829e-07 1.72233095368167e-07
"1872" 37528 4.68850721051244e-08 1.84578597509748e-08 1.19969356798423e-07 5.82729647489064e-07 1.59876544163044e-08 1.95255029340372e-07 1.42241812406441e-07 1.7279125138284e-07
"1873" 37529 4.70849311545442e-08 1.84591486061439e-08 1.20178066425545e-07 5.8273285970044e-07 1.59879279948053e-08 1.95315078979489e-07 1.42189390712053e-07 1.73349407397514e-07
"1874" 37530 4.70993235621085e-08 1.84644442752011e-08 1.20309001686586e-07 5.82796634699139e-07 1.60619202268835e-08 1.95331072585325e-07 1.42321723677157e-07 1.73316184346732e-07
"1875" 37531 4.71137159696727e-08 1.84697399442583e-08 1.20439936947627e-07 5.82860409697839e-07 1.61359124589617e-08 1.9534706619116e-07 1.42454056642261e-07 1.7328296129595e-07
"1876" 37532 4.71441395906407e-08 1.84710287994275e-08 1.20463881884977e-07 5.83122201749132e-07 1.61614098954549e-08 1.95762892561814e-07 1.42506972381838e-07 1.73220982890498e-07
"1877" 37533 4.71745632116088e-08 1.84723176545966e-08 1.20487826822326e-07 5.83383993800426e-07 1.61869073319482e-08 1.96178718932467e-07 1.42559888121416e-07 1.73159004485046e-07
"1878" 37534 4.72049868325768e-08 1.84736065097657e-08 1.20511771759675e-07 5.8364578585172e-07 1.62124047684414e-08 1.96594545303121e-07 1.42612803860993e-07 1.73097026079594e-07
"1879" 37535 4.72354104535449e-08 1.84748953649349e-08 1.20535716697025e-07 5.83907577903014e-07 1.62379022049347e-08 1.97010371673774e-07 1.4266571960057e-07 1.73035047674142e-07
"1880" 37536 4.7265834074513e-08 1.8476184220104e-08 1.20559661634374e-07 5.84169369954308e-07 1.62633996414279e-08 1.97426198044427e-07 1.42718635340147e-07 1.7297306926869e-07
"1881" 37537 4.7296257695481e-08 1.84774730752731e-08 1.20583606571724e-07 5.84431162005601e-07 1.62888970779211e-08 1.97842024415081e-07 1.42771551079724e-07 1.72911090863238e-07
"1882" 37538 4.73266813164491e-08 1.84787619304423e-08 1.20607551509073e-07 5.84692954056895e-07 1.63143945144144e-08 1.98257850785734e-07 1.42824466819302e-07 1.72849112457786e-07
"1883" 37539 4.73571049374171e-08 1.84800507856114e-08 1.20631496446423e-07 5.84954746108189e-07 1.63398919509076e-08 1.98673677156388e-07 1.42877382558879e-07 1.72787134052335e-07
"1884" 37540 4.73875285583852e-08 1.84813396407805e-08 1.20655441383772e-07 5.85216538159483e-07 1.63653893874009e-08 1.99089503527041e-07 1.42930298298456e-07 1.72725155646883e-07
"1885" 37541 4.74179521793533e-08 1.84826284959496e-08 1.20679386321122e-07 5.85478330210776e-07 1.63908868238941e-08 1.99505329897695e-07 1.42983214038033e-07 1.72663177241431e-07
"1886" 37542 4.74483758003213e-08 1.84839173511188e-08 1.20703331258471e-07 5.8574012226207e-07 1.64163842603873e-08 1.99921156268348e-07 1.43036129777611e-07 1.72601198835979e-07
"1887" 37543 4.74787994212894e-08 1.84852062062879e-08 1.2072727619582e-07 5.86001914313364e-07 1.64418816968806e-08 2.00336982639001e-07 1.43089045517188e-07 1.72539220430527e-07
"1888" 37544 4.75092230422574e-08 1.8486495061457e-08 1.2075122113317e-07 5.86263706364658e-07 1.64673791333738e-08 2.00752809009655e-07 1.43141961256765e-07 1.72477242025075e-07
"1889" 37545 4.75396466632255e-08 1.84877839166262e-08 1.20775166070519e-07 5.86525498415951e-07 1.64928765698671e-08 2.01168635380308e-07 1.43194876996342e-07 1.72415263619623e-07
"1890" 37546 4.75700702841935e-08 1.84890727717953e-08 1.20799111007869e-07 5.86787290467245e-07 1.65183740063603e-08 2.01584461750962e-07 1.43247792735919e-07 1.72353285214171e-07
"1891" 37547 4.76004939051616e-08 1.84903616269644e-08 1.20823055945218e-07 5.87049082518539e-07 1.65438714428536e-08 2.02000288121615e-07 1.43300708475497e-07 1.7229130680872e-07
"1892" 37548 4.76357621916322e-08 1.84837040101591e-08 1.20559699936162e-07 5.86669531715526e-07 1.65488042583254e-08 2.02309847162704e-07 1.43247542944425e-07 1.72133731018258e-07
"1893" 37549 4.76717432105427e-08 1.81063444524426e-08 1.17835329856945e-07 5.84493044864051e-07 1.65709198543986e-08 2.02720852056396e-07 1.42899902605875e-07 1.7210127275843e-07
"1894" 37550 4.77077242294533e-08 1.77289848947262e-08 1.15110959777727e-07 5.82316558012576e-07 1.65930354504718e-08 2.03131856950088e-07 1.42552262267326e-07 1.72068814498601e-07
"1895" 37551 4.78475900391387e-08 1.73615164546016e-08 1.12367877479633e-07 5.80230707395295e-07 1.6616300076249e-08 2.04678026300486e-07 1.42105998415245e-07 1.72255462958088e-07
"1896" 37552 4.78723848293295e-08 1.6981887324432e-08 1.09674664508604e-07 5.7791486650986e-07 1.6656206637441e-08 2.05424425764836e-07 1.4206441968576e-07 1.72737657526064e-07
"1897" 37553 4.81630851871001e-08 1.66022581942624e-08 1.06934324754189e-07 5.75517081534183e-07 1.66542663406724e-08 2.05464658122633e-07 1.43273958027924e-07 1.75488090687369e-07
"1898" 37554 4.84537855448707e-08 1.62226290640928e-08 1.04193984999774e-07 5.73119296558506e-07 1.66523260439037e-08 2.05504890480431e-07 1.44483496370089e-07 1.78238523848674e-07
"1899" 37555 4.87444859026414e-08 1.58429999339232e-08 1.01453645245358e-07 5.70721511582829e-07 1.66503857471351e-08 2.05545122838228e-07 1.45693034712253e-07 1.80988957009979e-07
"1900" 37556 4.9035186260412e-08 1.54633708037537e-08 9.87133054909431e-08 5.68323726607153e-07 1.66484454503665e-08 2.05585355196026e-07 1.46902573054418e-07 1.83739390171285e-07
"1901" 37557 4.93258866181826e-08 1.50837416735841e-08 9.59729657365278e-08 5.65925941631476e-07 1.66465051535978e-08 2.05625587553823e-07 1.48112111396582e-07 1.8648982333259e-07
"1902" 37558 4.96165869759532e-08 1.47041125434145e-08 9.32326259821125e-08 5.63528156655799e-07 1.66445648568292e-08 2.0566581991162e-07 1.49321649738747e-07 1.89240256493895e-07
"1903" 37559 4.99072873337238e-08 1.43244834132449e-08 9.04922862276972e-08 5.61130371680122e-07 1.66426245600605e-08 2.05706052269418e-07 1.50531188080912e-07 1.919906896552e-07
"1904" 37560 5.01979876914944e-08 1.39448542830753e-08 8.77519464732818e-08 5.58732586704446e-07 1.66406842632919e-08 2.05746284627215e-07 1.51740726423076e-07 1.94741122816505e-07
"1905" 37561 5.04897566691527e-08 1.38729271637177e-08 8.70065234332242e-08 5.5878166039166e-07 1.65571862535486e-08 2.05416740774381e-07 1.53366747157749e-07 1.97379055391314e-07
"1906" 37562 5.07815256468109e-08 1.38010000443601e-08 8.62611003931666e-08 5.58830734078874e-07 1.64736882438052e-08 2.05087196921547e-07 1.54992767892422e-07 2.00016987966123e-07
"1907" 37563 5.10732946244692e-08 1.37290729250024e-08 8.5515677353109e-08 5.58879807766088e-07 1.63901902340619e-08 2.04757653068712e-07 1.56618788627095e-07 2.02654920540932e-07
"1908" 37564 5.13650636021274e-08 1.36571458056448e-08 8.47702543130514e-08 5.58928881453302e-07 1.63066922243186e-08 2.04428109215878e-07 1.58244809361768e-07 2.05292853115741e-07
"1909" 37565 5.13650636021274e-08 1.3589175133324e-08 8.41717326184399e-08 5.5955061896285e-07 1.6233947920353e-08 2.04181757205848e-07 1.58209719130735e-07 2.05562877944875e-07
"1910" 37566 5.13650636021274e-08 1.35212044610031e-08 8.35732109238283e-08 5.60172356472397e-07 1.61612036163875e-08 2.03935405195818e-07 1.58174628899702e-07 2.05832902774009e-07
"1911" 37567 5.13650636021274e-08 1.34532337886822e-08 8.29746892292168e-08 5.60794093981945e-07 1.60884593124219e-08 2.03689053185788e-07 1.58139538668668e-07 2.06102927603143e-07
"1912" 37568 5.13030750307426e-08 1.34481623127579e-08 8.31283219463488e-08 5.61385550097831e-07 1.60637952350625e-08 2.03764996502972e-07 1.56518917815834e-07 2.06003258450797e-07
"1913" 37569 5.12410864593578e-08 1.34430908368336e-08 8.32819546634809e-08 5.61977006213717e-07 1.60391311577031e-08 2.03840939820156e-07 1.54898296963e-07 2.05903589298451e-07
"1914" 37570 5.1179097887973e-08 1.34380193609093e-08 8.34355873806129e-08 5.62568462329603e-07 1.60144670803437e-08 2.0391688313734e-07 1.53277676110166e-07 2.05803920146104e-07
"1915" 37571 5.11171093165882e-08 1.34329478849851e-08 8.35892200977449e-08 5.63159918445488e-07 1.59898030029843e-08 2.03992826454523e-07 1.51657055257332e-07 2.05704250993758e-07
"1916" 37572 5.10551207452034e-08 1.34278764090608e-08 8.3742852814877e-08 5.63751374561374e-07 1.59651389256249e-08 2.04068769771707e-07 1.50036434404498e-07 2.05604581841412e-07
"1917" 37573 5.09931321738186e-08 1.34228049331365e-08 8.3896485532009e-08 5.6434283067726e-07 1.59404748482655e-08 2.04144713088891e-07 1.48415813551664e-07 2.05504912689065e-07
"1918" 37574 5.10286150779751e-08 1.34227041994338e-08 8.41039859796611e-08 5.6490962819773e-07 1.59100382844849e-08 2.04144713088891e-07 1.46965166985563e-07 2.06176158627081e-07
"1919" 37575 5.10640979821316e-08 1.34226034657311e-08 8.43114864273133e-08 5.654764257182e-07 1.58796017207043e-08 2.04144713088891e-07 1.45514520419462e-07 2.06847404565097e-07
"1920" 37576 5.10995808862881e-08 1.34225027320285e-08 8.45189868749655e-08 5.6604322323867e-07 1.58491651569237e-08 2.04144713088891e-07 1.44063873853361e-07 2.07518650503112e-07
"1921" 37577 5.11350637904446e-08 1.34224019983258e-08 8.47264873226176e-08 5.6661002075914e-07 1.58187285931431e-08 2.04144713088891e-07 1.4261322728726e-07 2.08189896441128e-07
"1922" 37578 5.1170546694601e-08 1.34223012646231e-08 8.49339877702697e-08 5.6717681827961e-07 1.57882920293625e-08 2.04144713088891e-07 1.41162580721159e-07 2.08861142379143e-07
"1923" 37579 5.12060295987575e-08 1.34222005309205e-08 8.51414882179219e-08 5.6774361580008e-07 1.57578554655818e-08 2.04144713088891e-07 1.39711934155058e-07 2.09532388317159e-07
"1924" 37580 5.1241512502914e-08 1.34220997972178e-08 8.5348988665574e-08 5.6831041332055e-07 1.57274189018012e-08 2.04144713088891e-07 1.38261287588957e-07 2.10203634255174e-07
"1925" 37581 5.12769954070705e-08 1.34219990635151e-08 8.55564891132262e-08 5.68877210841019e-07 1.56969823380206e-08 2.04144713088891e-07 1.36810641022856e-07 2.1087488019319e-07
"1926" 37582 5.1312478311227e-08 1.34218983298124e-08 8.57639895608783e-08 5.69444008361489e-07 1.566654577424e-08 2.04144713088891e-07 1.35359994456755e-07 2.11546126131206e-07
"1927" 37583 5.13479612153834e-08 1.34217975961098e-08 8.59714900085305e-08 5.70010805881959e-07 1.56361092104594e-08 2.04144713088891e-07 1.33909347890654e-07 2.12217372069221e-07
"1928" 37584 5.13535205284153e-08 1.33884710187863e-08 8.61809842717206e-08 5.70399239635665e-07 1.56367110831615e-08 2.03781189078617e-07 1.34076598281891e-07 2.12489887535962e-07
"1929" 37585 5.13590798414472e-08 1.33551444414628e-08 8.63904785349107e-08 5.70787673389371e-07 1.56373129558636e-08 2.03417665068343e-07 1.34243848673127e-07 2.12762403002703e-07
"1930" 37586 5.10418719013589e-08 1.32644888967842e-08 8.63757647194876e-08 5.71042477183674e-07 1.56170892526743e-08 2.02606923794688e-07 1.32925802035593e-07 2.1395667176252e-07
"1931" 37587 5.07246639612705e-08 1.31738333521057e-08 8.63610509040646e-08 5.71297280977977e-07 1.55968655494851e-08 2.01796182521032e-07 1.3160775539806e-07 2.15150940522336e-07
"1932" 37588 5.04074560211822e-08 1.30831778074271e-08 8.63463370886416e-08 5.7155208477228e-07 1.55766418462959e-08 2.00985441247376e-07 1.30289708760526e-07 2.16345209282153e-07
"1933" 37589 5.00846887680619e-08 1.29958732861883e-08 8.62655067665203e-08 5.73323044069289e-07 1.56002116096515e-08 2.00328548409715e-07 1.29211681730315e-07 2.19031935063374e-07
"1934" 37590 4.97619215149417e-08 1.29085687649495e-08 8.61846764443991e-08 5.75094003366298e-07 1.56237813730071e-08 1.99671655572053e-07 1.28133654700105e-07 2.21718660844595e-07
"1935" 37591 4.93600668146899e-08 1.28180139539736e-08 8.60809046758172e-08 5.74976837973112e-07 1.56730421883947e-08 1.98805519786789e-07 1.26661689693896e-07 2.21773251664997e-07
"1936" 37592 4.89582121144381e-08 1.27274591429977e-08 8.59771329072353e-08 5.74859672579927e-07 1.57223030037823e-08 1.97939384001524e-07 1.25189724687686e-07 2.21827842485399e-07
"1937" 37593 4.85563574141863e-08 1.26369043320218e-08 8.58733611386535e-08 5.74742507186742e-07 1.57715638191699e-08 1.97073248216259e-07 1.23717759681476e-07 2.21882433305801e-07
"1938" 37594 4.81545027139345e-08 1.25463495210459e-08 8.57695893700716e-08 5.74625341793556e-07 1.58208246345575e-08 1.96207112430994e-07 1.22245794675267e-07 2.21937024126203e-07
"1939" 37595 4.77526480136827e-08 1.245579471007e-08 8.56658176014897e-08 5.74508176400371e-07 1.58700854499451e-08 1.95340976645729e-07 1.20773829669057e-07 2.21991614946605e-07
"1940" 37596 4.73507933134309e-08 1.23652398990942e-08 8.55620458329079e-08 5.74391011007185e-07 1.59193462653327e-08 1.94474840860464e-07 1.19301864662847e-07 2.22046205767007e-07
"1941" 37597 4.69489386131791e-08 1.22746850881183e-08 8.5458274064326e-08 5.74273845614e-07 1.59686070807204e-08 1.93608705075199e-07 1.17829899656637e-07 2.22100796587409e-07
"1942" 37598 4.65470839129273e-08 1.21841302771424e-08 8.53545022957441e-08 5.74156680220815e-07 1.6017867896108e-08 1.92742569289935e-07 1.16357934650428e-07 2.22155387407811e-07
"1943" 37599 4.61452292126755e-08 1.20935754661665e-08 8.52507305271622e-08 5.74039514827629e-07 1.60671287114956e-08 1.9187643350467e-07 1.14885969644218e-07 2.22209978228213e-07
"1944" 37600 4.57433745124237e-08 1.20030206551906e-08 8.51469587585804e-08 5.73922349434444e-07 1.61163895268832e-08 1.91010297719405e-07 1.13414004638008e-07 2.22264569048614e-07
"1945" 37601 4.53415198121719e-08 1.19124658442147e-08 8.50431869899985e-08 5.73805184041258e-07 1.61656503422708e-08 1.9014416193414e-07 1.11942039631799e-07 2.22319159869016e-07
"1946" 37602 4.49396651119201e-08 1.18219110332388e-08 8.49394152214166e-08 5.73688018648073e-07 1.62149111576584e-08 1.89278026148875e-07 1.10470074625589e-07 2.22373750689418e-07
"1947" 37603 4.45378104116683e-08 1.17313562222629e-08 8.48356434528347e-08 5.73570853254888e-07 1.62641719730461e-08 1.8841189036361e-07 1.08998109619379e-07 2.2242834150982e-07
"1948" 37604 4.41359557114165e-08 1.16408014112871e-08 8.47318716842529e-08 5.73453687861702e-07 1.63134327884337e-08 1.87545754578345e-07 1.0752614461317e-07 2.22482932330222e-07
"1949" 37605 4.37341010111647e-08 1.15502466003112e-08 8.4628099915671e-08 5.73336522468517e-07 1.63626936038213e-08 1.86679618793081e-07 1.0605417960696e-07 2.22537523150624e-07
"1950" 37606 4.35885371721382e-08 1.15232635651307e-08 8.44256145286011e-08 5.73305540407478e-07 1.6395312483794e-08 1.86455646023098e-07 1.04755580462941e-07 2.22450903321725e-07
"1951" 37607 4.34784559180865e-08 1.15282678852532e-08 8.44974134327231e-08 5.7247532441412e-07 1.64709461868779e-08 1.8645029287742e-07 1.047673298237e-07 2.22462033119143e-07
"1952" 37608 4.33683746640349e-08 1.15332722053757e-08 8.45692123368451e-08 5.71645108420761e-07 1.65465798899618e-08 1.86444939731742e-07 1.04779079184459e-07 2.22473162916562e-07
"1953" 37609 4.32582934099833e-08 1.15382765254982e-08 8.46410112409671e-08 5.70814892427403e-07 1.66222135930457e-08 1.86439586586065e-07 1.04790828545219e-07 2.22484292713981e-07
"1954" 37610 4.31482121559317e-08 1.15432808456207e-08 8.47128101450891e-08 5.69984676434044e-07 1.66978472961296e-08 1.86434233440387e-07 1.04802577905978e-07 2.22495422511399e-07
"1955" 37611 4.30954173542504e-08 1.15402379600661e-08 8.47200426637541e-08 5.71083228275355e-07 1.67734809992135e-08 1.86527334514337e-07 1.0553128057973e-07 2.2283521238779e-07
"1956" 37612 4.3113445814394e-08 1.15384839296807e-08 8.47918415678761e-08 5.71508522137845e-07 1.6782677418124e-08 1.87707153094726e-07 1.07093116965343e-07 2.2291467734692e-07
"1957" 37613 4.31314742745377e-08 1.15367298992952e-08 8.48636404719981e-08 5.71933816000334e-07 1.67918738370345e-08 1.88886971675115e-07 1.08654953350957e-07 2.22994142306051e-07
"1958" 37614 4.31495027346813e-08 1.15349758689098e-08 8.49354393761201e-08 5.72359109862824e-07 1.6801070255945e-08 1.90066790255504e-07 1.1021678973657e-07 2.23073607265181e-07
"1959" 37615 4.31675311948249e-08 1.15332218385243e-08 8.50072382802421e-08 5.72784403725313e-07 1.68102666748555e-08 1.91246608835892e-07 1.11778626122184e-07 2.23153072224311e-07
"1960" 37616 4.31855596549686e-08 1.15314678081389e-08 8.50790371843641e-08 5.73209697587803e-07 1.6819463093766e-08 1.92426427416281e-07 1.13340462507797e-07 2.23232537183442e-07
"1961" 37617 4.32035881151122e-08 1.15297137777535e-08 8.51508360884861e-08 5.73634991450292e-07 1.68286595126764e-08 1.9360624599667e-07 1.14902298893411e-07 2.23312002142572e-07
"1962" 37618 4.32216165752559e-08 1.1527959747368e-08 8.52226349926081e-08 5.74060285312782e-07 1.68378559315869e-08 1.94786064577059e-07 1.16464135279024e-07 2.23391467101703e-07
"1963" 37619 4.33313438569492e-08 1.14093463870021e-08 8.51478256158197e-08 5.75528697349374e-07 1.68218284925051e-08 1.95963123409882e-07 1.17949350613273e-07 2.23316046572008e-07
"1964" 37620 4.34410711386426e-08 1.12907330266362e-08 8.50730162390313e-08 5.76997109385966e-07 1.68058010534233e-08 1.97140182242706e-07 1.19434565947521e-07 2.23240626042314e-07
"1965" 37621 4.3550798420336e-08 1.11721196662704e-08 8.49982068622429e-08 5.78465521422559e-07 1.67897736143415e-08 1.98317241075529e-07 1.2091978128177e-07 2.23165205512619e-07
"1966" 37622 4.36605257020294e-08 1.10535063059045e-08 8.49233974854545e-08 5.79933933459151e-07 1.67737461752597e-08 1.99494299908352e-07 1.22404996616018e-07 2.23089784982924e-07
"1967" 37623 4.37702529837227e-08 1.09348929455386e-08 8.4848588108666e-08 5.81402345495743e-07 1.67577187361779e-08 2.00671358741175e-07 1.23890211950267e-07 2.2301436445323e-07
"1968" 37624 4.37540087485408e-08 1.08149907300036e-08 8.47850276079595e-08 5.82441604764696e-07 1.67308344717334e-08 2.01166521839764e-07 1.23923781552436e-07 2.2290796682577e-07
"1969" 37625 4.37377645133589e-08 1.06950885144686e-08 8.4721467107253e-08 5.83480864033649e-07 1.67039502072889e-08 2.01661684938354e-07 1.23957351154604e-07 2.22801569198311e-07
"1970" 37626 4.37503050933054e-08 1.06958114607187e-08 8.48524023682941e-08 5.82733328035554e-07 1.67025633793377e-08 2.01893806174365e-07 1.24071848365436e-07 2.21593459257496e-07
"1971" 37627 4.37628456732519e-08 1.06965344069688e-08 8.49833376293351e-08 5.81985792037459e-07 1.67011765513865e-08 2.02125927410376e-07 1.24186345576268e-07 2.20385349316682e-07
"1972" 37628 4.37753862531985e-08 1.0697257353219e-08 8.51142728903762e-08 5.81238256039364e-07 1.66997897234352e-08 2.02358048646388e-07 1.243008427871e-07 2.19177239375868e-07
"1973" 37629 4.3787926833145e-08 1.06979802994691e-08 8.52452081514172e-08 5.80490720041269e-07 1.6698402895484e-08 2.02590169882399e-07 1.24415339997932e-07 2.17969129435054e-07
"1974" 37630 4.38004674130915e-08 1.06987032457193e-08 8.53761434124583e-08 5.79743184043173e-07 1.66970160675327e-08 2.02822291118411e-07 1.24529837208764e-07 2.1676101949424e-07
"1975" 37631 4.3813007993038e-08 1.06994261919694e-08 8.55070786734993e-08 5.78995648045078e-07 1.66956292395815e-08 2.03054412354422e-07 1.24644334419596e-07 2.15552909553426e-07
"1976" 37632 4.38255485729846e-08 1.07001491382196e-08 8.56380139345404e-08 5.78248112046983e-07 1.66942424116303e-08 2.03286533590434e-07 1.24758831630428e-07 2.14344799612612e-07
"1977" 37633 4.42378056558629e-08 1.07120520572307e-08 8.56859014153775e-08 5.76454975535899e-07 1.67311017384189e-08 2.03015445256297e-07 1.24873328841259e-07 2.1322380226916e-07
"1978" 37634 4.46500627387413e-08 1.07239549762419e-08 8.57337888962146e-08 5.74661839024816e-07 1.67679610652075e-08 2.0274435692216e-07 1.24987826052091e-07 2.12102804925708e-07
"1979" 37635 4.50623198216197e-08 1.07358578952531e-08 8.57816763770518e-08 5.72868702513732e-07 1.68048203919961e-08 2.02473268588022e-07 1.25102323262923e-07 2.10981807582256e-07
"1980" 37636 4.5474576904498e-08 1.07477608142643e-08 8.58295638578889e-08 5.71075566002648e-07 1.68416797187847e-08 2.02202180253885e-07 1.25216820473755e-07 2.09860810238804e-07
"1981" 37637 4.58868339873764e-08 1.07596637332755e-08 8.58774513387261e-08 5.69282429491564e-07 1.68785390455734e-08 2.01931091919748e-07 1.25331317684587e-07 2.08739812895352e-07
"1982" 37638 4.62990910702548e-08 1.07715666522867e-08 8.59253388195632e-08 5.67489292980481e-07 1.6915398372362e-08 2.01660003585611e-07 1.25445814895419e-07 2.07618815551901e-07
"1983" 37639 4.67113481531331e-08 1.07834695712979e-08 8.59732263004003e-08 5.65696156469397e-07 1.69522576991506e-08 2.01388915251474e-07 1.25560312106251e-07 2.06497818208449e-07
"1984" 37640 4.71236052360115e-08 1.07953724903091e-08 8.60211137812375e-08 5.63903019958313e-07 1.69891170259392e-08 2.01117826917337e-07 1.25674809317083e-07 2.05376820864997e-07
"1985" 37641 4.75358623188899e-08 1.08072754093203e-08 8.60690012620746e-08 5.6210988344723e-07 1.70259763527279e-08 2.008467385832e-07 1.25789306527914e-07 2.04255823521545e-07
"1986" 37642 4.79246783244411e-08 1.08172168937635e-08 8.61176386679839e-08 5.61877238769407e-07 1.70498196945844e-08 2.00523979485168e-07 1.24957731938214e-07 2.04394056749432e-07
"1987" 37643 4.83183393146763e-08 1.082535398097e-08 8.61642786675625e-08 5.58414508260468e-07 1.70273400240564e-08 2.00489299242858e-07 1.25072229149046e-07 2.03993694143212e-07
"1988" 37644 4.87120003049116e-08 1.08334910681764e-08 8.62109186671412e-08 5.5495177775153e-07 1.70048603535284e-08 2.00454619000549e-07 1.25186726359878e-07 2.03593331536992e-07
"1989" 37645 4.91056612951469e-08 1.08416281553829e-08 8.62575586667199e-08 5.51489047242592e-07 1.69823806830003e-08 2.00419938758239e-07 1.2530122357071e-07 2.03192968930773e-07
"1990" 37646 4.94993222853822e-08 1.08497652425894e-08 8.63041986662986e-08 5.48026316733654e-07 1.69599010124723e-08 2.00385258515929e-07 1.25415720781542e-07 2.02792606324553e-07
"1991" 37647 4.95484150277359e-08 1.08658655907207e-08 8.63109336287772e-08 5.44559833670864e-07 1.69453277406729e-08 2.0034978032768e-07 1.25838692502374e-07 2.02242242936339e-07
"1992" 37648 4.95975077700897e-08 1.0881965938852e-08 8.63176685912558e-08 5.41093350608074e-07 1.69307544688736e-08 2.00314302139431e-07 1.26261664223206e-07 2.01691879548124e-07
"1993" 37649 4.96340589749523e-08 1.0908209238832e-08 8.63313777188592e-08 5.37849863523916e-07 1.71649264145374e-08 2.02124408273686e-07 1.26436467359995e-07 2.01371057387475e-07
"1994" 37650 4.96706101798148e-08 1.09344525388119e-08 8.63450868464625e-08 5.34606376439758e-07 1.73990983602012e-08 2.03934514407941e-07 1.26611270496784e-07 2.01050235226827e-07
"1995" 37651 4.97071613846773e-08 1.09606958387918e-08 8.63587959740659e-08 5.313628893556e-07 1.7633270305865e-08 2.05744620542196e-07 1.26786073633573e-07 2.00729413066178e-07
"1996" 37652 4.97437125895399e-08 1.09869391387717e-08 8.63725051016693e-08 5.28119402271441e-07 1.78674422515288e-08 2.0755472667645e-07 1.26960876770362e-07 2.0040859090553e-07
"1997" 37653 4.97802637944024e-08 1.10131824387517e-08 8.63862142292726e-08 5.24875915187283e-07 1.81016141971926e-08 2.09364832810705e-07 1.2713567990715e-07 2.00087768744881e-07
"1998" 37654 4.9816814999265e-08 1.10394257387316e-08 8.6399923356876e-08 5.21632428103125e-07 1.83357861428564e-08 2.1117493894496e-07 1.27310483043939e-07 1.99766946584233e-07
"1999" 37655 4.98533662041275e-08 1.10656690387115e-08 8.64136324844794e-08 5.18388941018966e-07 1.85699580885202e-08 2.12985045079215e-07 1.27485286180728e-07 1.99446124423584e-07
"2000" 37656 4.988991740899e-08 1.10919123386914e-08 8.64273416120827e-08 5.15145453934808e-07 1.8804130034184e-08 2.1479515121347e-07 1.27660089317517e-07 1.99125302262936e-07
"2001" 37657 4.99264686138526e-08 1.11181556386714e-08 8.64410507396861e-08 5.1190196685065e-07 1.90383019798478e-08 2.16605257347724e-07 1.27834892454305e-07 1.98804480102287e-07
"2002" 37658 4.99630198187151e-08 1.11443989386513e-08 8.64547598672895e-08 5.08658479766491e-07 1.92724739255116e-08 2.18415363481979e-07 1.28009695591094e-07 1.98483657941639e-07
"2003" 37659 4.99995710235776e-08 1.11706422386312e-08 8.64684689948928e-08 5.05414992682333e-07 1.95066458711754e-08 2.20225469616234e-07 1.28184498727883e-07 1.9816283578099e-07
"2004" 37660 5.00361222284402e-08 1.11968855386111e-08 8.64821781224962e-08 5.02171505598175e-07 1.97408178168392e-08 2.22035575750489e-07 1.28359301864672e-07 1.97842013620341e-07
"2005" 37661 5.00726734333027e-08 1.12231288385911e-08 8.64958872500995e-08 4.98928018514017e-07 1.9974989762503e-08 2.23845681884743e-07 1.28534105001461e-07 1.97521191459693e-07
"2006" 37662 5.01092246381653e-08 1.1249372138571e-08 8.65095963777029e-08 4.95684531429858e-07 2.02091617081669e-08 2.25655788018998e-07 1.28708908138249e-07 1.97200369299044e-07
"2007" 37663 5.00789416485958e-08 1.1223655232832e-08 8.61265252573469e-08 4.9589413822051e-07 2.0355746720741e-08 2.26853823560185e-07 1.27653406692836e-07 1.97246308990326e-07
"2008" 37664 4.97130717974334e-08 1.12539221356505e-08 8.58010619174246e-08 4.9539388852477e-07 2.06370624142922e-08 2.28195400366601e-07 1.27747282220961e-07 1.93866041225717e-07
"2009" 37665 4.93472019462709e-08 1.12841890384689e-08 8.54755985775023e-08 4.9489363882903e-07 2.09183781078435e-08 2.29536977173017e-07 1.27841157749087e-07 1.90485773461108e-07
"2010" 37666 4.89813320951085e-08 1.13144559412874e-08 8.515013523758e-08 4.9439338913329e-07 2.11996938013947e-08 2.30878553979433e-07 1.27935033277213e-07 1.87105505696499e-07
"2011" 37667 4.8615462243946e-08 1.13447228441059e-08 8.48246718976577e-08 4.93893139437549e-07 2.14810094949459e-08 2.32220130785849e-07 1.28028908805339e-07 1.83725237931891e-07
"2012" 37668 4.82495923927836e-08 1.13749897469243e-08 8.44992085577354e-08 4.93392889741809e-07 2.17623251884971e-08 2.33561707592265e-07 1.28122784333465e-07 1.80344970167282e-07
"2013" 37669 4.78695437941981e-08 1.13812661332655e-08 8.41737452178131e-08 4.92668248765216e-07 2.17487431111167e-08 2.33897333162603e-07 1.28060761434102e-07 1.76803825891787e-07
"2014" 37670 4.75286827125493e-08 1.14172770914071e-08 8.39422890604336e-08 4.92383816622738e-07 2.17581520810124e-08 2.3490900463508e-07 1.28116957147302e-07 1.73665387015217e-07
"2015" 37671 4.71486341139638e-08 1.14175348624409e-08 8.36430228269388e-08 4.92646142983976e-07 2.1749831113305e-08 2.34514390696357e-07 1.2805666534513e-07 1.70114618314289e-07
"2016" 37672 4.67685855153784e-08 1.14177926334748e-08 8.33437565934441e-08 4.92908469345213e-07 2.17415101455975e-08 2.34119776757634e-07 1.27996373542957e-07 1.66563849613362e-07
"2017" 37673 4.63885369167929e-08 1.14180504045086e-08 8.30444903599494e-08 4.93170795706451e-07 2.17331891778901e-08 2.33725162818911e-07 1.27936081740785e-07 1.63013080912434e-07
"2018" 37674 4.60084883182074e-08 1.14183081755424e-08 8.27452241264547e-08 4.93433122067689e-07 2.17248682101826e-08 2.33330548880188e-07 1.27875789938612e-07 1.59462312211506e-07
"2019" 37675 4.5628439719622e-08 1.14185659465762e-08 8.24459578929599e-08 4.93695448428926e-07 2.17165472424752e-08 2.32935934941466e-07 1.2781549813644e-07 1.55911543510578e-07
"2020" 37676 4.52483911210365e-08 1.14188237176101e-08 8.21466916594652e-08 4.93957774790164e-07 2.17082262747678e-08 2.32541321002743e-07 1.27755206334267e-07 1.5236077480965e-07
"2021" 37677 4.49544807542427e-08 1.14151250416071e-08 8.21639004374052e-08 4.94929482695621e-07 2.16738733371962e-08 2.32560606910589e-07 1.27778561328325e-07 1.49529211503019e-07
"2022" 37678 4.49403020068197e-08 1.13993555570886e-08 8.21758848753887e-08 4.95644837531365e-07 2.16259446340596e-08 2.30740522466318e-07 1.2780123534851e-07 1.48840938185927e-07
"2023" 37679 4.49261232593967e-08 1.138358607257e-08 8.21878693133722e-08 4.9636019236711e-07 2.1578015930923e-08 2.28920438022046e-07 1.27823909368694e-07 1.48152664868836e-07
"2024" 37680 4.49119445119736e-08 1.13678165880514e-08 8.21998537513557e-08 4.97075547202854e-07 2.15300872277865e-08 2.27100353577775e-07 1.27846583388879e-07 1.47464391551745e-07
"2025" 37681 4.48977657645506e-08 1.13520471035328e-08 8.22118381893392e-08 4.97790902038598e-07 2.14821585246499e-08 2.25280269133504e-07 1.27869257409063e-07 1.46776118234654e-07
"2026" 37682 4.48835870171276e-08 1.13362776190142e-08 8.22238226273227e-08 4.98506256874343e-07 2.14342298215133e-08 2.23460184689232e-07 1.27891931429247e-07 1.46087844917562e-07
"2027" 37683 4.48630670256689e-08 1.15920984534634e-08 8.40811337524281e-08 4.99103537383552e-07 2.14400696472657e-08 2.22231852736891e-07 1.28208744892837e-07 1.45317198721712e-07
"2028" 37684 4.48528770264573e-08 1.18479192879125e-08 8.5758904527717e-08 4.98039584281538e-07 2.14855172084473e-08 2.2277695609267e-07 1.27293215560529e-07 1.44857475381911e-07
"2029" 37685 4.48426870272457e-08 1.21037401223617e-08 8.74366753030058e-08 4.96975631179524e-07 2.15309647696288e-08 2.2332205944845e-07 1.26377686228222e-07 1.4439775204211e-07
"2030" 37686 4.48324970280341e-08 1.23595609568108e-08 8.91144460782946e-08 4.9591167807751e-07 2.15764123308103e-08 2.23867162804229e-07 1.25462156895915e-07 1.43938028702309e-07
"2031" 37687 4.48223070288224e-08 1.26153817912599e-08 9.07922168535835e-08 4.94847724975496e-07 2.16218598919918e-08 2.24412266160008e-07 1.24546627563608e-07 1.43478305362508e-07
"2032" 37688 4.48121170296108e-08 1.28712026257091e-08 9.24699876288723e-08 4.93783771873482e-07 2.16673074531733e-08 2.24957369515787e-07 1.236310982313e-07 1.43018582022707e-07
"2033" 37689 4.48019270303992e-08 1.31270234601582e-08 9.41477584041611e-08 4.92719818771468e-07 2.17127550143549e-08 2.25502472871567e-07 1.22715568898993e-07 1.42558858682906e-07
"2034" 37690 4.47917370311876e-08 1.33828442946074e-08 9.582552917945e-08 4.91655865669455e-07 2.17582025755364e-08 2.26047576227346e-07 1.21800039566686e-07 1.42099135343105e-07
"2035" 37691 4.48182407833265e-08 1.33670580211383e-08 9.56647070331646e-08 4.90773767925206e-07 2.18956143258228e-08 2.27009639551054e-07 1.20781331201926e-07 1.41812745372811e-07
"2036" 37692 4.48447445354654e-08 1.33512717476693e-08 9.55038848868792e-08 4.89891670180958e-07 2.20330260761092e-08 2.27971702874762e-07 1.19762622837167e-07 1.41526355402517e-07
"2037" 37693 4.48712482876043e-08 1.33354854742003e-08 9.53430627405938e-08 4.8900957243671e-07 2.21704378263955e-08 2.2893376619847e-07 1.18743914472407e-07 1.41239965432223e-07
"2038" 37694 4.48977520397432e-08 1.33196992007313e-08 9.51822405943085e-08 4.88127474692462e-07 2.23078495766819e-08 2.29895829522177e-07 1.17725206107648e-07 1.4095357546193e-07
"2039" 37695 4.49242557918822e-08 1.33039129272622e-08 9.50214184480231e-08 4.87245376948214e-07 2.24452613269683e-08 2.30857892845885e-07 1.16706497742889e-07 1.40667185491636e-07
"2040" 37696 4.49507595440211e-08 1.32881266537932e-08 9.48605963017377e-08 4.86363279203966e-07 2.25826730772547e-08 2.31819956169593e-07 1.15687789378129e-07 1.40380795521342e-07
"2041" 37697 4.497726329616e-08 1.32723403803242e-08 9.46997741554523e-08 4.85481181459718e-07 2.27200848275411e-08 2.32782019493301e-07 1.1466908101337e-07 1.40094405551048e-07
"2042" 37698 4.50037670482989e-08 1.32565541068552e-08 9.45389520091669e-08 4.8459908371547e-07 2.28574965778275e-08 2.33744082817009e-07 1.1365037264861e-07 1.39808015580755e-07
"2043" 37699 4.50302708004378e-08 1.32407678333862e-08 9.43781298628815e-08 4.83716985971222e-07 2.29949083281138e-08 2.34706146140717e-07 1.12631664283851e-07 1.39521625610461e-07
"2044" 37700 4.50634008895884e-08 1.32407678333862e-08 9.42711706593928e-08 4.83089430420064e-07 2.29418216348891e-08 2.35704152013977e-07 1.10703840588258e-07 1.38809007102335e-07
"2045" 37701 4.5096530978739e-08 1.32407678333862e-08 9.4164211455904e-08 4.82461874868906e-07 2.28887349416644e-08 2.36702157887237e-07 1.08776016892666e-07 1.38096388594208e-07
"2046" 37702 4.51636483510576e-08 1.32320816262112e-08 9.42128476648824e-08 4.82840790724027e-07 2.30396740536311e-08 2.37314761920479e-07 1.08961898662068e-07 1.37973507903959e-07
"2047" 37703 4.52307657233762e-08 1.32233954190361e-08 9.42614838738608e-08 4.83219706579148e-07 2.31906131655978e-08 2.37927365953721e-07 1.0914778043147e-07 1.3785062721371e-07
"2048" 37704 4.52978830956948e-08 1.32147092118611e-08 9.43101200828391e-08 4.83598622434268e-07 2.33415522775644e-08 2.38539969986963e-07 1.09333662200872e-07 1.37727746523461e-07
"2049" 37705 4.53650004680134e-08 1.32060230046861e-08 9.43587562918175e-08 4.83977538289389e-07 2.34924913895311e-08 2.39152574020205e-07 1.09519543970274e-07 1.37604865833211e-07
"2050" 37706 4.54993088797563e-08 1.32869612580544e-08 9.45271004305109e-08 4.83767141300931e-07 2.34930448583485e-08 2.38655916433722e-07 1.09594026281711e-07 1.37340049009917e-07
"2051" 37707 4.56336172914993e-08 1.33678995114226e-08 9.46954445692042e-08 4.83556744312473e-07 2.34935983271659e-08 2.38159258847239e-07 1.09668508593147e-07 1.37075232186623e-07
"2052" 37708 4.56436634674967e-08 1.33748652661131e-08 9.49196514508864e-08 4.83301958615765e-07 2.34939876488827e-08 2.37908354294657e-07 1.09742990904583e-07 1.370160799584e-07
"2053" 37709 4.5653709643494e-08 1.33818310208035e-08 9.51438583325687e-08 4.83047172919057e-07 2.34943769705995e-08 2.37657449742074e-07 1.09817473216019e-07 1.36956927730178e-07
"2054" 37710 4.56637558194914e-08 1.3388796775494e-08 9.5368065214251e-08 4.8279238722235e-07 2.34947662923164e-08 2.37406545189492e-07 1.09891955527456e-07 1.36897775501955e-07
"2055" 37711 4.56738019954887e-08 1.33957625301844e-08 9.55922720959333e-08 4.82537601525642e-07 2.34951556140332e-08 2.3715564063691e-07 1.09966437838892e-07 1.36838623273733e-07
"2056" 37712 4.56838481714861e-08 1.34027282848749e-08 9.58164789776155e-08 4.82282815828934e-07 2.349554493575e-08 2.36904736084327e-07 1.10040920150328e-07 1.3677947104551e-07
"2057" 37713 4.56938943474834e-08 1.34096940395653e-08 9.60406858592978e-08 4.82028030132226e-07 2.34959342574668e-08 2.36653831531745e-07 1.10115402461765e-07 1.36720318817288e-07
"2058" 37714 4.57039405234808e-08 1.34166597942558e-08 9.626489274098e-08 4.81773244435518e-07 2.34963235791837e-08 2.36402926979162e-07 1.10189884773201e-07 1.36661166589065e-07
"2059" 37715 4.57139866994781e-08 1.34236255489462e-08 9.64890996226623e-08 4.8151845873881e-07 2.34967129009005e-08 2.3615202242658e-07 1.10264367084637e-07 1.36602014360843e-07
"2060" 37716 4.57240328754755e-08 1.34305913036367e-08 9.67133065043446e-08 4.81263673042102e-07 2.34971022226173e-08 2.35901117873997e-07 1.10338849396074e-07 1.3654286213262e-07
"2061" 37717 4.57340790514728e-08 1.34375570583271e-08 9.69375133860268e-08 4.81008887345394e-07 2.34974915443341e-08 2.35650213321415e-07 1.1041333170751e-07 1.36483709904398e-07
"2062" 37718 4.57441252274702e-08 1.34445228130176e-08 9.71617202677091e-08 4.80754101648686e-07 2.3497880866051e-08 2.35399308768832e-07 1.10487814018946e-07 1.36424557676175e-07
"2063" 37719 4.57541714034676e-08 1.3451488567708e-08 9.73859271493914e-08 4.80499315951978e-07 2.34982701877678e-08 2.3514840421625e-07 1.10562296330383e-07 1.36365405447953e-07
"2064" 37720 4.57642175794649e-08 1.34584543223985e-08 9.76101340310736e-08 4.8024453025527e-07 2.34986595094846e-08 2.34897499663667e-07 1.10636778641819e-07 1.3630625321973e-07
"2065" 37721 4.57742637554623e-08 1.34654200770889e-08 9.78343409127559e-08 4.79989744558562e-07 2.34990488312015e-08 2.34646595111085e-07 1.10711260953255e-07 1.36247100991508e-07
"2066" 37722 4.57672091406234e-08 1.3479093815436e-08 9.80166453510075e-08 4.77910995539647e-07 2.34947242002472e-08 2.34895107892551e-07 1.10809553810642e-07 1.36460830235529e-07
"2067" 37723 4.57601545257846e-08 1.34927675537831e-08 9.81989497892591e-08 4.75832246520731e-07 2.34903995692929e-08 2.35143620674018e-07 1.10907846668029e-07 1.36674559479551e-07
"2068" 37724 4.57530999109458e-08 1.35064412921302e-08 9.83812542275107e-08 4.73753497501815e-07 2.34860749383386e-08 2.35392133455484e-07 1.11006139525416e-07 1.36888288723573e-07
"2069" 37725 4.5746045296107e-08 1.35201150304773e-08 9.85635586657624e-08 4.716747484829e-07 2.34817503073843e-08 2.3564064623695e-07 1.11104432382802e-07 1.37102017967594e-07
"2070" 37726 4.57389906812682e-08 1.35337887688243e-08 9.8745863104014e-08 4.69595999463984e-07 2.347742567643e-08 2.35889159018416e-07 1.11202725240189e-07 1.37315747211616e-07
"2071" 37727 4.57319360664294e-08 1.35474625071714e-08 9.89281675422656e-08 4.67517250445068e-07 2.34731010454757e-08 2.36137671799883e-07 1.11301018097576e-07 1.37529476455638e-07
"2072" 37728 4.57248814515906e-08 1.35611362455185e-08 9.91104719805172e-08 4.65438501426153e-07 2.34687764145214e-08 2.36386184581349e-07 1.11399310954963e-07 1.37743205699659e-07
"2073" 37729 4.57631432143091e-08 1.35889992642803e-08 9.91403995614114e-08 4.63694498927599e-07 2.35101602996186e-08 2.36702461365071e-07 1.1167148172157e-07 1.39200495663027e-07
"2074" 37730 4.57631432143091e-08 1.35989407487236e-08 9.9322703999663e-08 4.61198044013432e-07 2.35436377859871e-08 2.37295710706839e-07 1.12666604962361e-07 1.39727067017822e-07
"2075" 37731 4.57631432143091e-08 1.36088822331668e-08 9.95050084379146e-08 4.58701589099265e-07 2.35771152723557e-08 2.37888960048607e-07 1.13661728203152e-07 1.40253638372617e-07
"2076" 37732 4.57631432143091e-08 1.36188237176101e-08 9.96873128761662e-08 4.56205134185098e-07 2.36105927587243e-08 2.38482209390375e-07 1.14656851443943e-07 1.40780209727412e-07
"2077" 37733 4.57631432143091e-08 1.36287652020533e-08 9.98696173144178e-08 4.5370867927093e-07 2.36440702450928e-08 2.39075458732142e-07 1.15651974684733e-07 1.41306781082206e-07
"2078" 37734 4.57631432143091e-08 1.36387066864966e-08 1.00051921752669e-07 4.51212224356763e-07 2.36775477314614e-08 2.3966870807391e-07 1.16647097925524e-07 1.41833352437001e-07
"2079" 37735 4.54035444510738e-08 1.35509488635957e-08 9.93484849412039e-08 4.48136639927333e-07 2.35287425318021e-08 2.40072298683014e-07 1.17612833225697e-07 1.42388836375306e-07
"2080" 37736 4.50439456878385e-08 1.34631910406949e-08 9.86450481297384e-08 4.45061055497904e-07 2.33799373321429e-08 2.40475889292118e-07 1.1857856852587e-07 1.42944320313611e-07
"2081" 37737 4.46843469246033e-08 1.33754332177941e-08 9.79416113182729e-08 4.41985471068475e-07 2.32311321324836e-08 2.40879479901222e-07 1.19544303826042e-07 1.43499804251916e-07
"2082" 37738 4.4324748161368e-08 1.32876753948932e-08 9.72381745068074e-08 4.38909886639045e-07 2.30823269328244e-08 2.41283070510325e-07 1.20510039126215e-07 1.4405528819022e-07
"2083" 37739 4.39651493981328e-08 1.31999175719924e-08 9.65347376953419e-08 4.35834302209616e-07 2.29335217331652e-08 2.41686661119429e-07 1.21475774426388e-07 1.44610772128525e-07
"2084" 37740 4.36055506348975e-08 1.31121597490916e-08 9.58313008838764e-08 4.32758717780186e-07 2.27847165335059e-08 2.42090251728533e-07 1.22441509726561e-07 1.4516625606683e-07
"2085" 37741 4.36629770803032e-08 1.31417767982388e-08 9.59121096612418e-08 4.31811110349256e-07 2.27644928303167e-08 2.42149936048387e-07 1.22657369300077e-07 1.4471621468494e-07
"2086" 37742 4.34703847099556e-08 1.29062922343382e-08 9.3742238142994e-08 4.27738280009899e-07 2.27261498678074e-08 2.41522104915864e-07 1.22885875214351e-07 1.45241217421922e-07
"2087" 37743 4.32777923396079e-08 1.26708076704376e-08 9.15723666247462e-08 4.23665449670542e-07 2.26878069052982e-08 2.40894273783341e-07 1.23114381128626e-07 1.45766220158904e-07
"2088" 37744 4.30851999692603e-08 1.2435323106537e-08 8.94024951064985e-08 4.19592619331185e-07 2.26494639427889e-08 2.40266442650818e-07 1.23342887042901e-07 1.46291222895885e-07
"2089" 37745 4.28926075989126e-08 1.21998385426363e-08 8.72326235882507e-08 4.15519788991828e-07 2.26111209802797e-08 2.39638611518294e-07 1.23571392957176e-07 1.46816225632867e-07
"2090" 37746 4.2700015228565e-08 1.19643539787357e-08 8.50627520700029e-08 4.11446958652471e-07 2.25727780177704e-08 2.39010780385771e-07 1.23799898871451e-07 1.47341228369849e-07
"2091" 37747 4.25074228582173e-08 1.17288694148351e-08 8.28928805517552e-08 4.07374128313114e-07 2.25344350552612e-08 2.38382949253248e-07 1.24028404785726e-07 1.47866231106831e-07
"2092" 37748 4.23148304878697e-08 1.14933848509344e-08 8.07230090335074e-08 4.03301297973757e-07 2.24960920927519e-08 2.37755118120725e-07 1.24256910700001e-07 1.48391233843813e-07
"2093" 37749 4.2122238117522e-08 1.12579002870338e-08 7.85531375152596e-08 3.992284676344e-07 2.24577491302427e-08 2.37127286988201e-07 1.24485416614275e-07 1.48916236580795e-07
"2094" 37750 4.18420083833971e-08 1.09868472144803e-08 7.63383602625001e-08 3.95587628608198e-07 2.24300441302953e-08 2.36440004011718e-07 1.24636639335024e-07 1.50216661411461e-07
"2095" 37751 4.15617786492721e-08 1.07157941419269e-08 7.41235830097405e-08 3.91946789581995e-07 2.2402339130348e-08 2.35752721035235e-07 1.24787862055772e-07 1.51517086242128e-07
"2096" 37752 4.12815489151472e-08 1.04447410693734e-08 7.19088057569809e-08 3.88305950555792e-07 2.23746341304007e-08 2.35065438058752e-07 1.2493908477652e-07 1.52817511072794e-07
"2097" 37753 4.10013191810223e-08 1.01736879968199e-08 6.96940285042214e-08 3.8466511152959e-07 2.23469291304533e-08 2.34378155082269e-07 1.25090307497269e-07 1.5411793590346e-07
"2098" 37754 4.07210894468973e-08 9.90263492426641e-09 6.74792512514618e-08 3.81024272503387e-07 2.2319224130506e-08 2.33690872105786e-07 1.25241530218017e-07 1.55418360734126e-07
"2099" 37755 4.04408597127724e-08 9.63158185171293e-09 6.52644739987022e-08 3.77383433477185e-07 2.22915191305587e-08 2.33003589129303e-07 1.25392752938766e-07 1.56718785564792e-07
"2100" 37756 4.01606299786474e-08 9.36052877915945e-09 6.30496967459427e-08 3.73742594450982e-07 2.22638141306113e-08 2.3231630615282e-07 1.25543975659514e-07 1.58019210395459e-07
"2101" 37757 4.01642634777743e-08 9.35975546605797e-09 6.30696349013222e-08 3.72509367522144e-07 2.22822616841325e-08 2.31986630932832e-07 1.25626500053763e-07 1.58875294618537e-07
"2102" 37758 4.01678969769012e-08 9.35898215295649e-09 6.30895730567017e-08 3.71276140593306e-07 2.23007092376536e-08 2.31656955712844e-07 1.25709024448012e-07 1.59731378841616e-07
"2103" 37759 4.01530762915098e-08 9.33909918406999e-09 6.31252261245313e-08 3.68918439045307e-07 2.22795427439302e-08 2.31579581967507e-07 1.25340527588919e-07 1.60881703193924e-07
"2104" 37760 4.01382556061185e-08 9.31921621518349e-09 6.31608791923609e-08 3.66560737497308e-07 2.22583762502067e-08 2.3150220822217e-07 1.24972030729825e-07 1.62032027546233e-07
"2105" 37761 4.01234349207271e-08 9.29933324629699e-09 6.31965322601905e-08 3.6420303594931e-07 2.22372097564833e-08 2.31424834476833e-07 1.24603533870731e-07 1.63182351898542e-07
"2106" 37762 4.01086142353358e-08 9.27945027741049e-09 6.32321853280201e-08 3.61845334401311e-07 2.22160432627598e-08 2.31347460731496e-07 1.24235037011637e-07 1.64332676250851e-07
"2107" 37763 4.00937935499444e-08 9.25956730852399e-09 6.32678383958497e-08 3.59487632853312e-07 2.21948767690364e-08 2.31270086986159e-07 1.23866540152543e-07 1.6548300060316e-07
"2108" 37764 4.00789728645531e-08 9.23968433963749e-09 6.33034914636792e-08 3.57129931305314e-07 2.21737102753129e-08 2.31192713240821e-07 1.2349804329345e-07 1.66633324955468e-07
"2109" 37765 4.01004906814278e-08 9.22054110595158e-09 6.34029801427878e-08 3.55773737762548e-07 2.21560476770409e-08 2.31942869663728e-07 1.22996417845359e-07 1.66689590346005e-07
"2110" 37766 4.01220084983025e-08 9.20139787226567e-09 6.35024688218964e-08 3.54417544219783e-07 2.21383850787689e-08 2.32693026086635e-07 1.22494792397268e-07 1.66745855736541e-07
"2111" 37767 4.01123890042244e-08 9.18151490337917e-09 6.35024676249655e-08 3.51624781693742e-07 2.21096278568869e-08 2.33356767443597e-07 1.2199774683761e-07 1.66584229531989e-07
"2112" 37768 4.01027695101463e-08 9.16163193449267e-09 6.35024664280346e-08 3.48832019167701e-07 2.2080870635005e-08 2.34020508800559e-07 1.21500701277952e-07 1.66422603327438e-07
"2113" 37769 4.00931500160683e-08 9.14174896560617e-09 6.35024652311038e-08 3.46039256641659e-07 2.20521134131231e-08 2.34684250157521e-07 1.21003655718294e-07 1.66260977122887e-07
"2114" 37770 4.00835305219902e-08 9.12186599671967e-09 6.35024640341729e-08 3.43246494115618e-07 2.20233561912411e-08 2.35347991514483e-07 1.20506610158637e-07 1.66099350918335e-07
"2115" 37771 4.00739110279121e-08 9.10198302783317e-09 6.3502462837242e-08 3.40453731589577e-07 2.19945989693592e-08 2.36011732871445e-07 1.20009564598979e-07 1.65937724713784e-07
"2116" 37772 4.00642915338341e-08 9.08210005894667e-09 6.35024616403111e-08 3.37660969063536e-07 2.19658417474773e-08 2.36675474228408e-07 1.19512519039321e-07 1.65776098509233e-07
"2117" 37773 4.0054672039756e-08 9.06221709006017e-09 6.35024604433803e-08 3.34868206537494e-07 2.19370845255953e-08 2.3733921558537e-07 1.19015473479663e-07 1.65614472304681e-07
"2118" 37774 4.00450525456779e-08 9.04233412117367e-09 6.35024592464494e-08 3.32075444011453e-07 2.19083273037134e-08 2.38002956942332e-07 1.18518427920006e-07 1.6545284610013e-07
"2119" 37775 4.00354330515999e-08 9.02245115228717e-09 6.35024580495185e-08 3.29282681485412e-07 2.18795700818314e-08 2.38666698299294e-07 1.18021382360348e-07 1.65291219895579e-07
"2120" 37776 4.00258135575218e-08 9.00256818340067e-09 6.35024568525876e-08 3.26489918959371e-07 2.18508128599495e-08 2.39330439656256e-07 1.1752433680069e-07 1.65129593691027e-07
"2121" 37777 4.00161940634437e-08 8.98268521451417e-09 6.35024556556567e-08 3.23697156433329e-07 2.18220556380676e-08 2.39994181013218e-07 1.17027291241032e-07 1.64967967486476e-07
"2122" 37778 4.00065745693657e-08 8.96280224562767e-09 6.35024544587259e-08 3.20904393907288e-07 2.17932984161856e-08 2.4065792237018e-07 1.16530245681375e-07 1.64806341281925e-07
"2123" 37779 3.99969550752876e-08 8.94291927674117e-09 6.3502453261795e-08 3.18111631381247e-07 2.17645411943037e-08 2.41321663727142e-07 1.16033200121717e-07 1.64644715077373e-07
"2124" 37780 3.99719453482293e-08 8.91307803446097e-09 6.34777703686822e-08 3.18092482881065e-07 2.17485137552219e-08 2.41964790742575e-07 1.15836864198438e-07 1.6417596263364e-07
"2125" 37781 3.99719453482293e-08 8.8493443059383e-09 6.33880055799628e-08 3.17168827984006e-07 2.16924156078474e-08 2.42714317930939e-07 1.15631032304348e-07 1.63917318271168e-07
"2126" 37782 3.99719453482293e-08 8.78561057741563e-09 6.32982407912435e-08 3.16245173086947e-07 2.1636317460473e-08 2.43463845119304e-07 1.15425200410257e-07 1.63658673908696e-07
"2127" 37783 3.99719453482293e-08 8.72187684889296e-09 6.32084760025241e-08 3.15321518189888e-07 2.15802193130986e-08 2.44213372307669e-07 1.15219368516167e-07 1.63400029546225e-07
"2128" 37784 3.99719453482293e-08 8.65814312037029e-09 6.31187112138048e-08 3.14397863292829e-07 2.15241211657242e-08 2.44962899496033e-07 1.15013536622076e-07 1.63141385183753e-07
"2129" 37785 3.99719453482293e-08 8.59440939184762e-09 6.30289464250854e-08 3.13474208395769e-07 2.14680230183497e-08 2.45712426684398e-07 1.14807704727986e-07 1.62882740821282e-07
"2130" 37786 3.99719453482293e-08 8.53067566332495e-09 6.29391816363661e-08 3.1255055349871e-07 2.14119248709753e-08 2.46461953872763e-07 1.14601872833895e-07 1.6262409645881e-07
"2131" 37787 3.99719453482293e-08 8.46694193480227e-09 6.28494168476467e-08 3.11626898601651e-07 2.13558267236009e-08 2.47211481061127e-07 1.14396040939805e-07 1.62365452096339e-07
"2132" 37788 3.9962326811696e-08 8.40924361053742e-09 6.28913097156303e-08 3.10739688238975e-07 2.13032745637471e-08 2.47568288214497e-07 1.14200865081933e-07 1.62101617681991e-07
"2133" 37789 3.99527082751626e-08 8.35154528627257e-09 6.2933202583614e-08 3.09852477876298e-07 2.12507224038933e-08 2.47925095367867e-07 1.1400568922406e-07 1.61837783267643e-07
"2134" 37790 3.99430897386293e-08 8.29384696200771e-09 6.29750954515976e-08 3.08965267513622e-07 2.11981702440395e-08 2.48281902521236e-07 1.13810513366188e-07 1.61573948853295e-07
"2135" 37791 3.99334712020959e-08 8.23614863774286e-09 6.30169883195812e-08 3.08078057150945e-07 2.11456180841857e-08 2.48638709674606e-07 1.13615337508316e-07 1.61310114438946e-07
"2136" 37792 3.99238526655625e-08 8.17845031347801e-09 6.30588811875648e-08 3.07190846788269e-07 2.10930659243319e-08 2.48995516827975e-07 1.13420161650443e-07 1.61046280024598e-07
"2137" 37793 3.99026916936802e-08 8.10377759427767e-09 6.28307106134242e-08 3.04835455827555e-07 2.1097323215955e-08 2.49353953379308e-07 1.13325892603363e-07 1.61039164462039e-07
"2138" 37794 3.98815307217979e-08 8.02910487507734e-09 6.26025400392836e-08 3.02480064866841e-07 2.11015805075782e-08 2.49712389930641e-07 1.13231623556283e-07 1.6103204889948e-07
"2139" 37795 3.98603697499155e-08 7.954432155877e-09 6.2374369465143e-08 3.00124673906126e-07 2.11058377992013e-08 2.50070826481973e-07 1.13137354509203e-07 1.61024933336921e-07
"2140" 37796 3.98392087780332e-08 7.87975943667667e-09 6.21461988910024e-08 2.97769282945412e-07 2.11100950908244e-08 2.50429263033306e-07 1.13043085462122e-07 1.61017817774362e-07
"2141" 37797 3.98180478061508e-08 7.80508671747633e-09 6.19180283168618e-08 2.95413891984698e-07 2.11143523824475e-08 2.50787699584638e-07 1.12948816415042e-07 1.61010702211803e-07
"2142" 37798 3.97968868342685e-08 7.730413998276e-09 6.16898577427212e-08 2.93058501023984e-07 2.11186096740706e-08 2.51146136135971e-07 1.12854547367962e-07 1.61003586649244e-07
"2143" 37799 3.97757258623862e-08 7.65574127907566e-09 6.14616871685806e-08 2.9070311006327e-07 2.11228669656937e-08 2.51504572687303e-07 1.12760278320882e-07 1.60996471086685e-07
"2144" 37800 3.97545648905038e-08 7.58106855987533e-09 6.123351659444e-08 2.88347719102556e-07 2.11271242573168e-08 2.51863009238636e-07 1.12666009273802e-07 1.60989355524125e-07
"2145" 37801 3.95698849673755e-08 7.58106855987533e-09 6.13452181418003e-08 2.88390029938802e-07 2.11414723544999e-08 2.52217422554188e-07 1.12007909658511e-07 1.60991809982501e-07
"2146" 37802 3.93852050442472e-08 7.58106855987533e-09 6.14569196891606e-08 2.88432340775048e-07 2.11558204516831e-08 2.52571835869741e-07 1.11349810043221e-07 1.60994264440877e-07
"2147" 37803 3.92005251211189e-08 7.58106855987533e-09 6.15686212365209e-08 2.88474651611294e-07 2.11701685488662e-08 2.52926249185294e-07 1.1069171042793e-07 1.60996718899253e-07
"2148" 37804 3.90158451979906e-08 7.58106855987533e-09 6.16803227838812e-08 2.8851696244754e-07 2.11845166460493e-08 2.53280662500847e-07 1.1003361081264e-07 1.60999173357629e-07
"2149" 37805 3.88311652748623e-08 7.58106855987533e-09 6.17920243312416e-08 2.88559273283786e-07 2.11988647432325e-08 2.536350758164e-07 1.09375511197349e-07 1.61001627816005e-07
"2150" 37806 3.8646485351734e-08 7.58106855987533e-09 6.19037258786019e-08 2.88601584120032e-07 2.12132128404156e-08 2.53989489131952e-07 1.08717411582059e-07 1.61004082274382e-07
"2151" 37807 3.84618054286057e-08 7.58106855987533e-09 6.20154274259622e-08 2.88643894956278e-07 2.12275609375987e-08 2.54343902447505e-07 1.08059311966768e-07 1.61006536732758e-07
"2152" 37808 3.83893439993042e-08 7.57881577637267e-09 6.20041965038435e-08 2.88643894956278e-07 2.1254390486343e-08 2.5471623914065e-07 1.07843030626729e-07 1.61289432574556e-07
"2153" 37809 3.83168825700028e-08 7.57656299287002e-09 6.19929655817247e-08 2.88643894956278e-07 2.12812200350873e-08 2.55088575833795e-07 1.0762674928669e-07 1.61572328416354e-07
"2154" 37810 3.81729584943606e-08 7.57028660652882e-09 6.20029286747601e-08 2.88655686927777e-07 2.12825521473383e-08 2.56483756128291e-07 1.07107332115424e-07 1.61768734320192e-07
"2155" 37811 3.80290344187184e-08 7.56401022018762e-09 6.20128917677955e-08 2.88667478899275e-07 2.12838842595894e-08 2.57878936422787e-07 1.06587914944158e-07 1.61965140224029e-07
"2156" 37812 3.78851103430762e-08 7.55773383384642e-09 6.20228548608308e-08 2.88679270870774e-07 2.12852163718404e-08 2.59274116717283e-07 1.06068497772892e-07 1.62161546127867e-07
"2157" 37813 3.7741186267434e-08 7.55145744750522e-09 6.20328179538662e-08 2.88691062842272e-07 2.12865484840915e-08 2.60669297011779e-07 1.05549080601626e-07 1.62357952031705e-07
"2158" 37814 3.75972621917918e-08 7.54518106116402e-09 6.20427810469015e-08 2.8870285481377e-07 2.12878805963425e-08 2.62064477306275e-07 1.05029663430359e-07 1.62554357935542e-07
"2159" 37815 3.74533381161496e-08 7.53890467482282e-09 6.20527441399369e-08 2.88714646785269e-07 2.12892127085936e-08 2.63459657600771e-07 1.04510246259093e-07 1.6275076383938e-07
"2160" 37816 3.74533381161496e-08 7.53494822778606e-09 6.19510056856119e-08 2.88606613240563e-07 2.1229873711277e-08 2.64729617061521e-07 1.01072925347881e-07 1.62790718493255e-07
"2161" 37817 3.74533381161496e-08 7.53099178074929e-09 6.1849267231287e-08 2.88498579695857e-07 2.11705347139603e-08 2.6599957652227e-07 9.76356044366687e-08 1.62830673147129e-07
"2162" 37818 3.73355628627433e-08 7.48873801416741e-09 6.143956009793e-08 2.8448462699282e-07 2.11575187290282e-08 2.66246827882223e-07 9.72413310965964e-08 1.62709473011669e-07
"2163" 37819 3.72177876093371e-08 7.44648424758553e-09 6.10298529645731e-08 2.80470674289783e-07 2.11445027440962e-08 2.66494079242175e-07 9.68470577565241e-08 1.62588272876208e-07
"2164" 37820 3.71000123559309e-08 7.40423048100365e-09 6.06201458312162e-08 2.76456721586746e-07 2.11314867591641e-08 2.66741330602128e-07 9.64527844164517e-08 1.62467072740747e-07
"2165" 37821 3.69822371025247e-08 7.36197671442176e-09 6.02104386978593e-08 2.72442768883709e-07 2.1118470774232e-08 2.66988581962081e-07 9.60585110763794e-08 1.62345872605287e-07
"2166" 37822 3.68256299004479e-08 7.32073724302474e-09 5.97954952552371e-08 2.68723329736792e-07 2.11647937866166e-08 2.66825157289091e-07 9.55255552922828e-08 1.62035911076241e-07
"2167" 37823 3.66690226983712e-08 7.27949777162772e-09 5.93805518126149e-08 2.65003890589875e-07 2.12111167990011e-08 2.666617326161e-07 9.49925995081861e-08 1.61725949547195e-07
"2168" 37824 3.6551247444965e-08 7.23748498712922e-09 5.89529003394164e-08 2.60984012217203e-07 2.11973221706354e-08 2.65507486240487e-07 9.44540663294218e-08 1.6152932888204e-07
"2169" 37825 3.64334721915588e-08 7.19547220263072e-09 5.8525248866218e-08 2.56964133844531e-07 2.11835275422697e-08 2.64353239864873e-07 9.39155331506575e-08 1.61332708216885e-07
"2170" 37826 3.63156969381525e-08 7.15345941813222e-09 5.80975973930195e-08 2.52944255471859e-07 2.11697329139039e-08 2.6319899348926e-07 9.33769999718931e-08 1.6113608755173e-07
"2171" 37827 3.61979216847463e-08 7.11144663363372e-09 5.7669945919821e-08 2.48924377099187e-07 2.11559382855382e-08 2.62044747113646e-07 9.28384667931288e-08 1.60939466886574e-07
"2172" 37828 3.60801464313401e-08 7.06943384913522e-09 5.72422944466225e-08 2.44904498726515e-07 2.11421436571725e-08 2.60890500738033e-07 9.22999336143644e-08 1.60742846221419e-07
"2173" 37829 3.59623711779339e-08 7.02742106463672e-09 5.6814642973424e-08 2.40884620353843e-07 2.11283490288068e-08 2.59736254362419e-07 9.17614004356001e-08 1.60546225556264e-07
"2174" 37830 3.58445959245276e-08 6.98540828013822e-09 5.63869915002255e-08 2.36864741981171e-07 2.1114554400441e-08 2.58582007986806e-07 9.12228672568358e-08 1.60349604891109e-07
"2175" 37831 3.57268206711214e-08 6.94339549563972e-09 5.59593400270271e-08 2.32844863608499e-07 2.11007597720753e-08 2.57427761611192e-07 9.06843340780714e-08 1.60152984225953e-07
"2176" 37832 3.56090454177152e-08 6.90138271114122e-09 5.55316885538286e-08 2.28824985235827e-07 2.10869651437096e-08 2.56273515235579e-07 9.01458008993071e-08 1.59956363560798e-07
"2177" 37833 3.54912701643089e-08 6.85936992664272e-09 5.51040370806301e-08 2.24805106863155e-07 2.10731705153438e-08 2.55119268859965e-07 8.96072677205427e-08 1.59759742895643e-07
"2178" 37834 3.53734949109027e-08 6.81735714214422e-09 5.46763856074316e-08 2.20785228490483e-07 2.10593758869781e-08 2.53965022484352e-07 8.90687345417784e-08 1.59563122230488e-07
"2179" 37835 3.52557196574965e-08 6.77534435764571e-09 5.42487341342331e-08 2.16765350117811e-07 2.10455812586124e-08 2.52810776108738e-07 8.85302013630141e-08 1.59366501565332e-07
"2180" 37836 3.51379444040903e-08 6.73333157314721e-09 5.38210826610346e-08 2.1274547174514e-07 2.10317866302467e-08 2.51656529733125e-07 8.79916681842497e-08 1.59169880900177e-07
"2181" 37837 3.5020169150684e-08 6.69131878864871e-09 5.33934311878362e-08 2.08725593372468e-07 2.10179920018809e-08 2.50502283357511e-07 8.74531350054854e-08 1.58973260235022e-07
"2182" 37838 3.49820499344535e-08 6.67143581976221e-09 5.29228354785301e-08 2.05826157047116e-07 2.1005018109018e-08 2.48659322396289e-07 8.74151959832087e-08 1.57723106916156e-07
"2183" 37839 3.50160372176215e-08 6.65939858914747e-09 5.29260851538427e-08 2.05651248995346e-07 2.0994769468173e-08 2.48559903881269e-07 8.74436296188177e-08 1.57618556184959e-07
"2184" 37840 3.50542281858684e-08 6.58771245187322e-09 5.2937310091307e-08 2.05107857314558e-07 2.09937172462383e-08 2.48304010911786e-07 8.74573692841175e-08 1.57439539995112e-07
"2185" 37841 3.50924191541152e-08 6.51602631459897e-09 5.29485350287714e-08 2.0456446563377e-07 2.09926650243037e-08 2.48048117942302e-07 8.74711089494173e-08 1.57260523805266e-07
"2186" 37842 3.51306101223621e-08 6.44434017732473e-09 5.29597599662357e-08 2.04021073952982e-07 2.09916128023691e-08 2.47792224972819e-07 8.74848486147171e-08 1.57081507615419e-07
"2187" 37843 3.5168801090609e-08 6.37265404005048e-09 5.29709849037001e-08 2.03477682272194e-07 2.09905605804345e-08 2.47536332003335e-07 8.7498588280017e-08 1.56902491425572e-07
"2188" 37844 3.51670200574629e-08 6.30170763797682e-09 5.29722287941659e-08 2.03289432335153e-07 2.10108516229549e-08 2.47292774723171e-07 8.74843019524467e-08 1.56658177884582e-07
"2189" 37845 3.53176447755857e-08 6.23597296020817e-09 5.29734726846317e-08 2.02922551635967e-07 2.10124025980068e-08 2.47037912470764e-07 8.80365747965108e-08 1.56356235712621e-07
"2190" 37846 3.54682694937085e-08 6.17023828243952e-09 5.29747165750976e-08 2.0255567093678e-07 2.10139535730586e-08 2.46783050218357e-07 8.8588847640575e-08 1.56054293540661e-07
"2191" 37847 3.56188942118313e-08 6.10450360467086e-09 5.29759604655634e-08 2.02188790237594e-07 2.10155045481104e-08 2.4652818796595e-07 8.91411204846392e-08 1.55752351368701e-07
"2192" 37848 3.5769518929954e-08 6.03876892690221e-09 5.29772043560292e-08 2.01821909538408e-07 2.10170555231622e-08 2.46273325713543e-07 8.96933933287033e-08 1.5545040919674e-07
"2193" 37849 3.59201436480768e-08 5.97303424913356e-09 5.2978448246495e-08 2.01455028839221e-07 2.1018606498214e-08 2.46018463461137e-07 9.02456661727675e-08 1.5514846702478e-07
"2194" 37850 3.60714093466232e-08 5.97029950146414e-09 5.28809521859935e-08 1.99190547459795e-07 2.09988268324418e-08 2.4571458908366e-07 9.06954165887409e-08 1.5484652485282e-07
"2195" 37851 3.62226750451696e-08 5.96756475379473e-09 5.2783456125492e-08 1.96926066080369e-07 2.09790471666696e-08 2.45410714706184e-07 9.11451670047142e-08 1.54544582680859e-07
"2196" 37852 3.63739407437161e-08 5.96483000612531e-09 5.26859600649905e-08 1.94661584700943e-07 2.09592675008974e-08 2.45106840328708e-07 9.15949174206876e-08 1.54242640508899e-07
"2197" 37853 3.65252064422625e-08 5.96209525845589e-09 5.2588464004489e-08 1.92397103321517e-07 2.09394878351251e-08 2.44802965951232e-07 9.2044667836661e-08 1.53940698336939e-07
"2198" 37854 3.66764721408089e-08 5.95936051078648e-09 5.24909679439875e-08 1.90132621942091e-07 2.09197081693529e-08 2.44499091573755e-07 9.24944182526344e-08 1.53638756164978e-07
"2199" 37855 3.68277378393553e-08 5.95662576311706e-09 5.2393471883486e-08 1.87868140562664e-07 2.08999285035807e-08 2.44195217196279e-07 9.29441686686077e-08 1.53336813993018e-07
"2200" 37856 3.69790035379017e-08 5.95389101544765e-09 5.22959758229845e-08 1.85603659183238e-07 2.08801488378085e-08 2.43891342818803e-07 9.33939190845811e-08 1.53034871821057e-07
"2201" 37857 3.71302692364481e-08 5.95115626777823e-09 5.2198479762483e-08 1.83339177803812e-07 2.08603691720363e-08 2.43587468441327e-07 9.38436695005545e-08 1.52732929649097e-07
"2202" 37858 3.72815349349946e-08 5.94842152010881e-09 5.21009837019815e-08 1.81074696424386e-07 2.08405895062641e-08 2.4328359406385e-07 9.42934199165279e-08 1.52430987477137e-07
"2203" 37859 3.73371105103273e-08 5.94833757535659e-09 5.19712923314063e-08 1.79663658136323e-07 2.0792197830264e-08 2.43044459140056e-07 9.48590726923063e-08 1.52027934569281e-07
"2204" 37860 3.73926860856601e-08 5.94825363060437e-09 5.1841600960831e-08 1.78252619848259e-07 2.07438061542639e-08 2.42805324216263e-07 9.54247254680848e-08 1.51624881661425e-07
"2205" 37861 3.74482616609928e-08 5.94816968585214e-09 5.17119095902558e-08 1.76841581560196e-07 2.06954144782639e-08 2.42566189292469e-07 9.59903782438633e-08 1.51221828753569e-07
"2206" 37862 3.75038372363256e-08 5.94808574109992e-09 5.15822182196806e-08 1.75430543272133e-07 2.06470228022638e-08 2.42327054368675e-07 9.65560310196417e-08 1.50818775845714e-07
"2207" 37863 3.75594128116583e-08 5.94800179634769e-09 5.14525268491054e-08 1.7401950498407e-07 2.05986311262637e-08 2.42087919444881e-07 9.71216837954202e-08 1.50415722937858e-07
"2208" 37864 3.76149883869911e-08 5.94791785159547e-09 5.13228354785301e-08 1.72608466696006e-07 2.05502394502637e-08 2.41848784521087e-07 9.76873365711986e-08 1.50012670030002e-07
"2209" 37865 3.76705639623238e-08 5.94783390684324e-09 5.11931441079549e-08 1.71197428407943e-07 2.05018477742636e-08 2.41609649597294e-07 9.82529893469771e-08 1.49609617122146e-07
"2210" 37866 3.76518250040112e-08 6.01348463985967e-09 5.14213326360587e-08 1.7240264166432e-07 2.04732357640358e-08 2.41425344600793e-07 9.85284691646478e-08 1.49280355465715e-07
"2211" 37867 3.76330860456985e-08 6.0791353728761e-09 5.16495211641625e-08 1.73607854920696e-07 2.04446237538079e-08 2.41241039604293e-07 9.88039489823185e-08 1.48951093809284e-07
"2212" 37868 3.75469436645466e-08 6.07387328171976e-09 5.16382722880806e-08 1.76040184023703e-07 2.04966645369135e-08 2.4102092401588e-07 9.88956669388032e-08 1.5110215847132e-07
"2213" 37869 3.74608012833946e-08 6.06861119056342e-09 5.16270234119986e-08 1.78472513126711e-07 2.05487053200191e-08 2.40800808427468e-07 9.89873848952879e-08 1.53253223133357e-07
"2214" 37870 3.73746589022427e-08 6.06334909940708e-09 5.16157745359167e-08 1.80904842229718e-07 2.06007461031247e-08 2.40580692839055e-07 9.90791028517726e-08 1.55404287795393e-07
"2215" 37871 3.72885165210907e-08 6.05808700825074e-09 5.16045256598348e-08 1.83337171332725e-07 2.06527868862303e-08 2.40360577250642e-07 9.91708208082573e-08 1.57555352457429e-07
"2216" 37872 3.72023741399388e-08 6.0528249170944e-09 5.15932767837529e-08 1.85769500435732e-07 2.07048276693359e-08 2.40140461662229e-07 9.9262538764742e-08 1.59706417119465e-07
"2217" 37873 3.71162317587869e-08 6.04756282593806e-09 5.1582027907671e-08 1.88201829538739e-07 2.07568684524415e-08 2.39920346073816e-07 9.93542567212267e-08 1.61857481781501e-07
"2218" 37874 3.71251385204249e-08 6.04238467953394e-09 5.12198936458598e-08 1.88145807907166e-07 2.08375212457749e-08 2.3974441995254e-07 9.94239337222478e-08 1.64332624032746e-07
"2219" 37875 3.7134045282063e-08 6.03720653312983e-09 5.08577593840486e-08 1.88089786275593e-07 2.09181740391083e-08 2.39568493831263e-07 9.94936107232689e-08 1.66807766283991e-07
"2220" 37876 3.68184790204484e-08 5.98922550017529e-09 5.08225990846818e-08 1.91518452035997e-07 2.07882014935109e-08 2.35504883841454e-07 9.95202700604628e-08 1.69024233978189e-07
"2221" 37877 3.65029127588338e-08 5.94124446722075e-09 5.0787438785315e-08 1.94947117796401e-07 2.06582289479134e-08 2.31441273851646e-07 9.95469293976567e-08 1.71240701672386e-07
"2222" 37878 3.61873464972192e-08 5.89326343426621e-09 5.07522784859482e-08 1.98375783556805e-07 2.05282564023159e-08 2.27377663861837e-07 9.95735887348507e-08 1.73457169366583e-07
"2223" 37879 3.58717802356045e-08 5.84528240131167e-09 5.07171181865815e-08 2.01804449317208e-07 2.03982838567184e-08 2.23314053872029e-07 9.96002480720446e-08 1.7567363706078e-07
"2224" 37880 3.55562139739899e-08 5.79730136835713e-09 5.06819578872147e-08 2.05233115077612e-07 2.02683113111209e-08 2.1925044388222e-07 9.96269074092386e-08 1.77890104754978e-07
"2225" 37881 3.52335934167181e-08 5.76858109174162e-09 5.05899433232789e-08 2.0607847144862e-07 2.03832938854033e-08 2.15391720905328e-07 9.97124384459754e-08 1.77560824873279e-07
"2226" 37882 3.49109728594462e-08 5.7398608151261e-09 5.04979287593432e-08 2.06923827819628e-07 2.04982764596856e-08 2.11532997928437e-07 9.97979694827123e-08 1.77231544991581e-07
"2227" 37883 3.46384422315809e-08 5.73962576981987e-09 5.07022058641621e-08 2.08574332685072e-07 2.02982343676164e-08 2.07999430249337e-07 9.98095460385708e-08 1.77028144303489e-07
"2228" 37884 3.43659116037157e-08 5.73939072451365e-09 5.0906482968981e-08 2.10224837550516e-07 2.00981922755472e-08 2.04465862570237e-07 9.98211225944293e-08 1.76824743615397e-07
"2229" 37885 3.40933809758504e-08 5.73915567920742e-09 5.11107600737999e-08 2.1187534241596e-07 1.9898150183478e-08 2.00932294891137e-07 9.98326991502878e-08 1.76621342927306e-07
"2230" 37886 3.38208503479852e-08 5.73892063390119e-09 5.13150371786188e-08 2.13525847281404e-07 1.96981080914088e-08 1.97398727212037e-07 9.98442757061464e-08 1.76417942239214e-07
"2231" 37887 3.35483197201199e-08 5.73868558859496e-09 5.15193142834377e-08 2.15176352146849e-07 1.94980659993396e-08 1.93865159532937e-07 9.98558522620049e-08 1.76214541551122e-07
"2232" 37888 3.32757890922547e-08 5.73845054328874e-09 5.17235913882566e-08 2.16826857012293e-07 1.92980239072704e-08 1.90331591853837e-07 9.98674288178634e-08 1.76011140863031e-07
"2233" 37889 3.30032584643894e-08 5.73821549798251e-09 5.19278684930756e-08 2.18477361877737e-07 1.90979818152012e-08 1.86798024174737e-07 9.9879005373722e-08 1.75807740174939e-07
"2234" 37890 3.27307278365242e-08 5.73798045267628e-09 5.21321455978945e-08 2.20127866743181e-07 1.8897939723132e-08 1.83264456495637e-07 9.98905819295805e-08 1.75604339486848e-07
"2235" 37891 3.24581972086589e-08 5.73774540737005e-09 5.23364227027134e-08 2.21778371608626e-07 1.86978976310628e-08 1.79730888816537e-07 9.9902158485439e-08 1.75400938798756e-07
"2236" 37892 3.21856665807937e-08 5.73751036206383e-09 5.25406998075323e-08 2.2342887647407e-07 1.84978555389936e-08 1.76197321137437e-07 9.99137350412976e-08 1.75197538110664e-07
"2237" 37893 3.19131359529284e-08 5.7372753167576e-09 5.27449769123512e-08 2.25079381339514e-07 1.82978134469244e-08 1.72663753458337e-07 9.99253115971561e-08 1.74994137422573e-07
"2238" 37894 3.16406053250632e-08 5.73704027145137e-09 5.29492540171701e-08 2.26729886204958e-07 1.80977713548552e-08 1.69130185779237e-07 9.99368881530146e-08 1.74790736734481e-07
"2239" 37895 3.15025926197217e-08 5.77952416794334e-09 5.31657212485541e-08 2.24895703678425e-07 1.78661983850016e-08 1.69455341077029e-07 9.93834826612404e-08 1.72320143650443e-07
"2240" 37896 3.1528100461534e-08 5.82804346869313e-09 5.35009120696582e-08 2.27107240719606e-07 1.78407430405775e-08 1.69956323158814e-07 9.93585159279393e-08 1.72448664725843e-07
"2241" 37897 3.15536083033464e-08 5.87656276944292e-09 5.38361028907624e-08 2.29318777760786e-07 1.78152876961535e-08 1.70457305240599e-07 9.93335491946381e-08 1.72577185801242e-07
"2242" 37898 3.15791161451587e-08 5.92508207019271e-09 5.41712937118665e-08 2.31530314801967e-07 1.77898323517295e-08 1.70958287322384e-07 9.9308582461337e-08 1.72705706876641e-07
"2243" 37899 3.1604623986971e-08 5.9736013709425e-09 5.45064845329707e-08 2.33741851843147e-07 1.77643770073054e-08 1.7145926940417e-07 9.92836157280358e-08 1.72834227952041e-07
"2244" 37900 3.16301318287834e-08 6.02212067169229e-09 5.48416753540749e-08 2.35953388884328e-07 1.77389216628814e-08 1.71960251485955e-07 9.92586489947347e-08 1.7296274902744e-07
"2245" 37901 3.16556396705957e-08 6.07063997244208e-09 5.5176866175179e-08 2.38164925925508e-07 1.77134663184573e-08 1.7246123356774e-07 9.92336822614336e-08 1.73091270102839e-07
"2246" 37902 3.17186949467787e-08 6.09542059097127e-09 5.5176866175179e-08 2.38753585085237e-07 1.77481601738611e-08 1.72502463727015e-07 9.91845020473713e-08 1.73114602690352e-07
"2247" 37903 3.17370776984622e-08 6.09616032617186e-09 5.52838684681794e-08 2.39470050130228e-07 1.76969401262583e-08 1.72596595813284e-07 9.90862091899845e-08 1.73924870857129e-07
"2248" 37904 3.21113539622377e-08 6.29166561133984e-09 5.53397240295831e-08 2.3996282995591e-07 1.7741554328306e-08 1.73951474080626e-07 9.90798785427768e-08 1.74026991339872e-07
"2249" 37905 3.24856302260131e-08 6.48717089650783e-09 5.53955795909867e-08 2.40455609781592e-07 1.77861685303537e-08 1.75306352347968e-07 9.90735478955691e-08 1.74129111822615e-07
"2250" 37906 3.28599064897886e-08 6.68267618167581e-09 5.54514351523904e-08 2.40948389607274e-07 1.78307827324014e-08 1.7666123061531e-07 9.90672172483615e-08 1.74231232305358e-07
"2251" 37907 3.2953956849618e-08 6.86614423622905e-09 5.53225140547122e-08 2.4042189045135e-07 1.7850124672572e-08 1.77254048216131e-07 9.90608866011538e-08 1.73617366914439e-07
"2252" 37908 3.30480072094473e-08 7.04961229078228e-09 5.51935929570341e-08 2.39895391295425e-07 1.78694666127427e-08 1.77846865816952e-07 9.90545559539462e-08 1.7300350152352e-07
"2253" 37909 3.31420575692766e-08 7.23308034533552e-09 5.50646718593559e-08 2.39368892139501e-07 1.78888085529134e-08 1.78439683417773e-07 9.90482253067385e-08 1.723896361326e-07
"2254" 37910 3.3236107929106e-08 7.41654839988876e-09 5.49357507616777e-08 2.38842392983577e-07 1.79081504930841e-08 1.79032501018593e-07 9.90418946595309e-08 1.71775770741681e-07
"2255" 37911 3.33301582889353e-08 7.60001645444199e-09 5.48068296639995e-08 2.38315893827652e-07 1.79274924332548e-08 1.79625318619414e-07 9.90355640123232e-08 1.71161905350762e-07
"2256" 37912 3.34242086487647e-08 7.78348450899523e-09 5.46779085663213e-08 2.37789394671728e-07 1.79468343734255e-08 1.80218136220235e-07 9.90292333651156e-08 1.70548039959843e-07
"2257" 37913 3.3518259008594e-08 7.96695256354847e-09 5.45489874686432e-08 2.37262895515804e-07 1.79661763135962e-08 1.80810953821055e-07 9.90229027179079e-08 1.69934174568924e-07
"2258" 37914 3.36123093684233e-08 8.1504206181017e-09 5.4420066370965e-08 2.36736396359879e-07 1.79855182537669e-08 1.81403771421876e-07 9.90165720707002e-08 1.69320309178004e-07
"2259" 37915 3.37063597282527e-08 8.33388867265494e-09 5.42911452732868e-08 2.36209897203955e-07 1.80048601939376e-08 1.81996589022697e-07 9.90102414234926e-08 1.68706443787085e-07
"2260" 37916 3.39030078111045e-08 8.52736536745321e-09 5.41622241756086e-08 2.36726931796534e-07 1.8106843628095e-08 1.8333647148568e-07 9.91055126847354e-08 1.6818578796791e-07
"2261" 37917 3.40996558939564e-08 8.72084206225147e-09 5.40333030779305e-08 2.37243966389113e-07 1.82088270622525e-08 1.84676353948664e-07 9.92007839459781e-08 1.67665132148736e-07
"2262" 37918 3.42963039768083e-08 8.91431875704974e-09 5.39043819802523e-08 2.37761000981692e-07 1.831081049641e-08 1.86016236411648e-07 9.92960552072209e-08 1.67144476329561e-07
"2263" 37919 3.44929520596602e-08 9.107795451848e-09 5.37754608825741e-08 2.38278035574271e-07 1.84127939305675e-08 1.87356118874631e-07 9.93913264684637e-08 1.66623820510386e-07
"2264" 37920 3.4689600142512e-08 9.30127214664627e-09 5.36465397848959e-08 2.38795070166851e-07 1.85147773647249e-08 1.88696001337615e-07 9.94865977297064e-08 1.66103164691212e-07
"2265" 37921 3.48862482253639e-08 9.49474884144454e-09 5.35176186872177e-08 2.3931210475943e-07 1.86167607988824e-08 1.90035883800599e-07 9.95818689909492e-08 1.65582508872037e-07
"2266" 37922 3.50828963082158e-08 9.6882255362428e-09 5.33886975895396e-08 2.39829139352009e-07 1.87187442330399e-08 1.91375766263583e-07 9.9677140252192e-08 1.65061853052862e-07
"2267" 37923 3.52795443910677e-08 9.88170223104107e-09 5.32597764918614e-08 2.40346173944588e-07 1.88207276671973e-08 1.92715648726566e-07 9.97724115134348e-08 1.64541197233687e-07
"2268" 37924 3.54761924739195e-08 1.00751789258393e-08 5.31308553941832e-08 2.40863208537167e-07 1.89227111013548e-08 1.9405553118955e-07 9.98676827746775e-08 1.64020541414513e-07
"2269" 37925 3.56728405567714e-08 1.02686556206376e-08 5.3001934296505e-08 2.41380243129746e-07 1.90246945355123e-08 1.95395413652534e-07 9.99629540359203e-08 1.63499885595338e-07
"2270" 37926 3.58694886396233e-08 1.04621323154359e-08 5.28730131988269e-08 2.41897277722325e-07 1.91266779696698e-08 1.96735296115517e-07 1.00058225297163e-07 1.62979229776163e-07
"2271" 37927 3.60661367224752e-08 1.06556090102341e-08 5.27440921011487e-08 2.42414312314904e-07 1.92286614038272e-08 1.98075178578501e-07 1.00153496558406e-07 1.62458573956989e-07
"2272" 37928 3.6262784805327e-08 1.08490857050324e-08 5.26151710034705e-08 2.42931346907483e-07 1.93306448379847e-08 1.99415061041485e-07 1.00248767819649e-07 1.61937918137814e-07
"2273" 37929 3.64594328881789e-08 1.10425623998307e-08 5.24862499057923e-08 2.43448381500062e-07 1.94326282721422e-08 2.00754943504469e-07 1.00344039080891e-07 1.61417262318639e-07
"2274" 37930 3.66560809710308e-08 1.12360390946289e-08 5.23573288081141e-08 2.43965416092641e-07 1.95346117062996e-08 2.02094825967452e-07 1.00439310342134e-07 1.60896606499465e-07
"2275" 37931 3.70381956957383e-08 1.14255089755391e-08 5.23061820765174e-08 2.44421887897897e-07 1.95628764868799e-08 2.03478764463718e-07 1.00349826943885e-07 1.60967329745745e-07
"2276" 37932 3.70362727544674e-08 1.14493148135615e-08 5.22380980867606e-08 2.44397775677488e-07 1.94907088083544e-08 2.03458947182398e-07 1.00210420324761e-07 1.61462543171288e-07
"2277" 37933 3.70250865257476e-08 1.14472862231918e-08 5.22692551949501e-08 2.44703172590939e-07 1.94739700651702e-08 2.05151315255879e-07 1.00173148152574e-07 1.61454173177292e-07
"2278" 37934 3.70139002970278e-08 1.1445257632822e-08 5.23004123031395e-08 2.45008569504389e-07 1.94572313219859e-08 2.06843683329359e-07 1.00135875980387e-07 1.61445803183296e-07
"2279" 37935 3.70027140683081e-08 1.14432290424523e-08 5.2331569411329e-08 2.4531396641784e-07 1.94404925788016e-08 2.0853605140284e-07 1.000986038082e-07 1.614374331893e-07
"2280" 37936 3.69915278395883e-08 1.14412004520826e-08 5.23627265195185e-08 2.4561936333129e-07 1.94237538356173e-08 2.10228419476321e-07 1.00061331636013e-07 1.61429063195303e-07
"2281" 37937 3.69803416108685e-08 1.14391718617129e-08 5.23938836277079e-08 2.4592476024474e-07 1.94070150924331e-08 2.11920787549801e-07 1.00024059463826e-07 1.61420693201307e-07
"2282" 37938 3.69721488583967e-08 1.14378830065438e-08 5.23751773934855e-08 2.46738493893468e-07 1.93833422094926e-08 2.11920787549801e-07 1.00343098899666e-07 1.6177627085132e-07
"2283" 37939 3.69639561059249e-08 1.14365941513746e-08 5.2356471159263e-08 2.47552227542195e-07 1.93596693265521e-08 2.11920787549801e-07 1.00662138335507e-07 1.62131848501333e-07
"2284" 37940 3.6929328799878e-08 1.14382810259583e-08 5.23674449247725e-08 2.47505184424276e-07 1.93608183562561e-08 2.1168225189738e-07 1.01067596372227e-07 1.62170938667892e-07
"2285" 37941 3.6894701493831e-08 1.1439967900542e-08 5.23784186902819e-08 2.47458141306357e-07 1.93619673859601e-08 2.11443716244958e-07 1.01473054408948e-07 1.6221002883445e-07
"2286" 37942 3.68600741877841e-08 1.14416547751256e-08 5.23893924557913e-08 2.47411098188439e-07 1.93631164156641e-08 2.11205180592537e-07 1.01878512445668e-07 1.62249119001009e-07
"2287" 37943 3.68254468817372e-08 1.14433416497093e-08 5.24003662213007e-08 2.4736405507052e-07 1.93642654453681e-08 2.10966644940115e-07 1.02283970482389e-07 1.62288209167567e-07
"2288" 37944 3.67908195756903e-08 1.1445028524293e-08 5.24113399868102e-08 2.47317011952601e-07 1.93654144750721e-08 2.10728109287694e-07 1.02689428519109e-07 1.62327299334126e-07
"2289" 37945 3.67561922696433e-08 1.14467153988766e-08 5.24223137523196e-08 2.47269968834682e-07 1.93665635047761e-08 2.10489573635272e-07 1.0309488655583e-07 1.62366389500684e-07
"2290" 37946 3.67215649635964e-08 1.14484022734603e-08 5.2433287517829e-08 2.47222925716764e-07 1.93677125344801e-08 2.10251037982851e-07 1.03500344592551e-07 1.62405479667243e-07
"2291" 37947 3.66869376575495e-08 1.1450089148044e-08 5.24442612833385e-08 2.47175882598845e-07 1.9368861564184e-08 2.10012502330429e-07 1.03905802629271e-07 1.62444569833801e-07
"2292" 37948 3.66523103515026e-08 1.14517760226276e-08 5.24552350488479e-08 2.47128839480926e-07 1.9370010593888e-08 2.09773966678008e-07 1.04311260665992e-07 1.6248366000036e-07
"2293" 37949 3.66176830454556e-08 1.14534628972113e-08 5.24662088143573e-08 2.47081796363007e-07 1.9371159623592e-08 2.09535431025586e-07 1.04716718702712e-07 1.62522750166918e-07
"2294" 37950 3.65830557394087e-08 1.1455149771795e-08 5.24771825798668e-08 2.47034753245089e-07 1.9372308653296e-08 2.09296895373165e-07 1.05122176739433e-07 1.62561840333477e-07
"2295" 37951 3.65484284333618e-08 1.14568366463786e-08 5.24881563453762e-08 2.4698771012717e-07 1.9373457683e-08 2.09058359720744e-07 1.05527634776153e-07 1.62600930500035e-07
"2296" 37952 3.640991633654e-08 1.14486324033704e-08 5.25178423297625e-08 2.46850030775057e-07 1.9373457683e-08 2.07684659611615e-07 1.06031716326406e-07 1.62420913947279e-07
"2297" 37953 3.63864752592128e-08 1.14525888504072e-08 5.24976589870824e-08 2.46942341691099e-07 1.93568157475851e-08 2.07110729388536e-07 1.06131112754062e-07 1.61945351286033e-07
"2298" 37954 3.60971286143058e-08 1.14565452974439e-08 5.25246024277895e-08 2.47116596697382e-07 1.93820206701309e-08 2.07242966272009e-07 1.04979392110068e-07 1.59201550031458e-07
"2299" 37955 3.58077819693988e-08 1.14605017444807e-08 5.25515458684966e-08 2.47290851703665e-07 1.94072255926767e-08 2.07375203155482e-07 1.03827671466075e-07 1.56457748776882e-07
"2300" 37956 3.55184353244918e-08 1.14644581915175e-08 5.25784893092037e-08 2.47465106709948e-07 1.94324305152226e-08 2.07507440038955e-07 1.02675950822081e-07 1.53713947522307e-07
"2301" 37957 3.52290886795848e-08 1.14684146385542e-08 5.26054327499108e-08 2.47639361716231e-07 1.94576354377684e-08 2.07639676922428e-07 1.01524230178088e-07 1.50970146267732e-07
"2302" 37958 3.49397420346778e-08 1.1472371085591e-08 5.26323761906178e-08 2.47813616722514e-07 1.94828403603142e-08 2.077719138059e-07 1.00372509534094e-07 1.48226345013157e-07
"2303" 37959 3.46503953897708e-08 1.14763275326278e-08 5.26593196313249e-08 2.47987871728797e-07 1.950804528286e-08 2.07904150689373e-07 9.92207888901006e-08 1.45482543758582e-07
"2304" 37960 3.43610487448638e-08 1.14802839796645e-08 5.2686263072032e-08 2.48162126735081e-07 1.95332502054058e-08 2.08036387572846e-07 9.80690682461071e-08 1.42738742504007e-07
"2305" 37961 3.4078755757251e-08 1.14825535521176e-08 5.26782878098802e-08 2.482938274015e-07 1.96262792400762e-08 2.0798947186423e-07 9.64070076833198e-08 1.40470503910679e-07
"2306" 37962 3.37998114949705e-08 1.14835342694016e-08 5.26895187319989e-08 2.48483264693972e-07 1.96570251626115e-08 2.07949438771485e-07 9.50095258184185e-08 1.39149999064385e-07
"2307" 37963 3.35208672326901e-08 1.14845149866856e-08 5.27007496541177e-08 2.48672701986444e-07 1.96877710851468e-08 2.0790940567874e-07 9.36120439535172e-08 1.37829494218092e-07
"2308" 37964 3.32419229704097e-08 1.14854957039695e-08 5.27119805762364e-08 2.48862139278916e-07 1.9718517007682e-08 2.07869372585995e-07 9.22145620886159e-08 1.36508989371799e-07
"2309" 37965 3.29629787081292e-08 1.14864764212535e-08 5.27232114983551e-08 2.49051576571388e-07 1.97492629302173e-08 2.0782933949325e-07 9.08170802237146e-08 1.35188484525505e-07
"2310" 37966 3.2975803423507e-08 1.14835006915007e-08 5.25875410750278e-08 2.48668350041527e-07 1.97692551469748e-08 2.07706114557701e-07 9.10807093245195e-08 1.36235887424887e-07
"2311" 37967 3.29886281388849e-08 1.14805249617479e-08 5.24518706517005e-08 2.48285123511666e-07 1.97892473637323e-08 2.07582889622152e-07 9.13443384253244e-08 1.37283290324268e-07
"2312" 37968 3.30014528542627e-08 1.14775492319951e-08 5.23162002283732e-08 2.47901896981805e-07 1.98092395804898e-08 2.07459664686602e-07 9.16079675261292e-08 1.3833069322365e-07
"2313" 37969 3.30142775696405e-08 1.14745735022423e-08 5.21805298050459e-08 2.47518670451944e-07 1.98292317972472e-08 2.07336439751053e-07 9.18715966269341e-08 1.39378096123031e-07
"2314" 37970 3.30271022850183e-08 1.14715977724895e-08 5.20448593817185e-08 2.47135443922082e-07 1.98492240140047e-08 2.07213214815504e-07 9.2135225727739e-08 1.40425499022413e-07
"2315" 37971 3.30399270003961e-08 1.14686220427367e-08 5.19091889583912e-08 2.46752217392221e-07 1.98692162307622e-08 2.07089989879954e-07 9.23988548285439e-08 1.41472901921794e-07
"2316" 37972 3.3052751715774e-08 1.14656463129839e-08 5.17735185350639e-08 2.4636899086236e-07 1.98892084475197e-08 2.06966764944405e-07 9.26624839293488e-08 1.42520304821176e-07
"2317" 37973 3.30655764311518e-08 1.14626705832311e-08 5.16378481117366e-08 2.45985764332499e-07 1.99092006642772e-08 2.06843540008856e-07 9.29261130301537e-08 1.43567707720557e-07
"2318" 37974 3.30784011465296e-08 1.14596948534783e-08 5.15021776884092e-08 2.45602537802638e-07 1.99291928810346e-08 2.06720315073307e-07 9.31897421309585e-08 1.44615110619939e-07
"2319" 37975 3.29937543863661e-08 1.14517483815039e-08 5.13126395345618e-08 2.45243969868192e-07 1.99549575842133e-08 2.06673033454941e-07 9.32833969450305e-08 1.44891598428959e-07
"2320" 37976 3.29091076262027e-08 1.14438019095295e-08 5.11231013807144e-08 2.44885401933747e-07 1.9980722287392e-08 2.06625751836576e-07 9.33770517591024e-08 1.45168086237978e-07
"2321" 37977 3.28244608660392e-08 1.14358554375551e-08 5.0933563226867e-08 2.44526833999302e-07 2.00064869905707e-08 2.0657847021821e-07 9.34707065731744e-08 1.45444574046998e-07
"2322" 37978 3.27398141058757e-08 1.14279089655806e-08 5.07440250730195e-08 2.44168266064857e-07 2.00322516937494e-08 2.06531188599845e-07 9.35643613872463e-08 1.45721061856017e-07
"2323" 37979 3.26551673457123e-08 1.14199624936062e-08 5.05544869191721e-08 2.43809698130411e-07 2.00580163969281e-08 2.06483906981479e-07 9.36580162013183e-08 1.45997549665037e-07
"2324" 37980 3.25705205855488e-08 1.14120160216318e-08 5.03649487653247e-08 2.43451130195966e-07 2.00837811001068e-08 2.06436625363114e-07 9.37516710153902e-08 1.46274037474057e-07
"2325" 37981 3.24858738253854e-08 1.14040695496574e-08 5.01754106114772e-08 2.43092562261521e-07 2.01095458032855e-08 2.06389343744749e-07 9.38453258294622e-08 1.46550525283076e-07
"2326" 37982 3.24121291585104e-08 1.14040695496574e-08 4.9965917545218e-08 2.42767814295266e-07 2.01045645839289e-08 2.06955596063204e-07 9.37104417737624e-08 1.45371406540192e-07
"2327" 37983 3.23383844916354e-08 1.14040695496574e-08 4.97564244789588e-08 2.42443066329011e-07 2.00995833645724e-08 2.07521848381659e-07 9.35755577180627e-08 1.44192287797308e-07
"2328" 37984 3.23196455333227e-08 1.13973615660007e-08 4.95469314126996e-08 2.41861965293044e-07 2.01026305989758e-08 2.07495481478617e-07 9.35889329418489e-08 1.43814015316472e-07
"2329" 37985 3.23009065750101e-08 1.13906535823441e-08 4.93374383464404e-08 2.41280864257076e-07 2.01056778333792e-08 2.07469114575575e-07 9.36023081656351e-08 1.43435742835637e-07
"2330" 37986 3.22821676166974e-08 1.13839455986875e-08 4.91279452801811e-08 2.40699763221108e-07 2.01087250677827e-08 2.07442747672533e-07 9.36156833894212e-08 1.43057470354801e-07
"2331" 37987 3.22634286583848e-08 1.13772376150309e-08 4.89184522139219e-08 2.40118662185141e-07 2.01117723021861e-08 2.07416380769491e-07 9.36290586132074e-08 1.42679197873966e-07
"2332" 37988 3.22446897000721e-08 1.13705296313742e-08 4.87089591476627e-08 2.39537561149173e-07 2.01148195365895e-08 2.07390013866449e-07 9.36424338369936e-08 1.4230092539313e-07
"2333" 37989 3.22259507417595e-08 1.13638216477176e-08 4.84994660814035e-08 2.38956460113206e-07 2.0117866770993e-08 2.07363646963407e-07 9.36558090607798e-08 1.41922652912295e-07
"2334" 37990 3.22127710964787e-08 1.13537626406212e-08 4.83560895218424e-08 2.36859203574532e-07 2.00771205388516e-08 2.07183431624371e-07 9.34291646772422e-08 1.40051923410055e-07
"2335" 37991 3.2199591451198e-08 1.13437036335249e-08 4.82127129622814e-08 2.34761947035858e-07 2.00363743067102e-08 2.07003216285335e-07 9.32025202937047e-08 1.38181193907816e-07
"2336" 37992 3.22654992530488e-08 1.13368949161656e-08 4.8092277849181e-08 2.34552815187379e-07 1.99699370225368e-08 2.07032243893902e-07 9.33698138861667e-08 1.38942599366395e-07
"2337" 37993 3.23314070548996e-08 1.13300861988063e-08 4.79718427360806e-08 2.34343683338899e-07 1.99034997383633e-08 2.07061271502469e-07 9.35371074786286e-08 1.39704004824974e-07
"2338" 37994 3.23973148567504e-08 1.1323277481447e-08 4.78514076229802e-08 2.3413455149042e-07 1.98370624541899e-08 2.07090299111036e-07 9.37044010710906e-08 1.40465410283554e-07
"2339" 37995 3.24632226586012e-08 1.13164687640877e-08 4.77309725098798e-08 2.3392541964194e-07 1.97706251700165e-08 2.07119326719604e-07 9.38716946635525e-08 1.41226815742133e-07
"2340" 37996 3.26714893973603e-08 1.13322945522348e-08 4.77003237302546e-08 2.35415581572325e-07 1.9732945107725e-08 2.07120556996976e-07 9.38529195579274e-08 1.41183735550637e-07
"2341" 37997 3.26845280920609e-08 1.13235244003075e-08 4.7585870063768e-08 2.36869494211692e-07 1.96776024471616e-08 2.07125910142654e-07 9.39035237526754e-08 1.41160433157701e-07
"2342" 37998 3.26975667867615e-08 1.13147542483803e-08 4.74714163972815e-08 2.38323406851058e-07 1.96222597865981e-08 2.07131263288332e-07 9.39541279474234e-08 1.41137130764764e-07
"2343" 37999 3.27106054814621e-08 1.13059840964531e-08 4.7356962730795e-08 2.39777319490425e-07 1.95669171260346e-08 2.0713661643401e-07 9.40047321421714e-08 1.41113828371828e-07
"2344" 38000 3.27236441761627e-08 1.12972139445258e-08 4.72425090643084e-08 2.41231232129792e-07 1.95115744654711e-08 2.07141969579688e-07 9.40553363369194e-08 1.41090525978892e-07
"2345" 38001 3.27366828708633e-08 1.12884437925986e-08 4.71280553978219e-08 2.42685144769158e-07 1.94562318049076e-08 2.07147322725366e-07 9.41059405316674e-08 1.41067223585956e-07
"2346" 38002 3.27497215655639e-08 1.12796736406714e-08 4.70136017313353e-08 2.44139057408525e-07 1.94008891443441e-08 2.07152675871044e-07 9.41565447264154e-08 1.4104392119302e-07
"2347" 38003 3.2794466480443e-08 1.12829239304084e-08 4.68969090620103e-08 2.4645462019106e-07 1.93249818627593e-08 2.07200356905243e-07 9.41457975798188e-08 1.41018391072334e-07
"2348" 38004 3.2839211395322e-08 1.12861742201455e-08 4.67802163926853e-08 2.48770182973596e-07 1.92490745811744e-08 2.07248037939442e-07 9.41350504332222e-08 1.40992860951648e-07
"2349" 38005 3.28839563102011e-08 1.12894245098826e-08 4.66635237233603e-08 2.51085745756132e-07 1.91731672995896e-08 2.07295718973642e-07 9.41243032866256e-08 1.40967330830963e-07
"2350" 38006 3.29287012250802e-08 1.12926747996196e-08 4.65468310540352e-08 2.53401308538667e-07 1.90972600180047e-08 2.07343400007841e-07 9.4113556140029e-08 1.40941800710277e-07
"2351" 38007 3.29734461399592e-08 1.12959250893567e-08 4.64301383847102e-08 2.55716871321203e-07 1.90213527364198e-08 2.0739108104204e-07 9.41028089934324e-08 1.40916270589591e-07
"2352" 38008 3.30181910548383e-08 1.12991753790938e-08 4.63134457153852e-08 2.58032434103738e-07 1.8945445454835e-08 2.0743876207624e-07 9.40920618468359e-08 1.40890740468905e-07
"2353" 38009 3.30629359697174e-08 1.13024256688308e-08 4.61967530460602e-08 2.60347996886274e-07 1.88695381732501e-08 2.07486443110439e-07 9.40813147002393e-08 1.4086521034822e-07
"2354" 38010 3.31076808845964e-08 1.13056759585679e-08 4.60800603767352e-08 2.62663559668809e-07 1.87936308916653e-08 2.07534124144638e-07 9.40705675536427e-08 1.40839680227534e-07
"2355" 38011 3.31524257994755e-08 1.1308926248305e-08 4.59633677074101e-08 2.64979122451345e-07 1.87177236100804e-08 2.07581805178838e-07 9.40598204070461e-08 1.40814150106848e-07
"2356" 38012 3.31398842619843e-08 1.13202237437191e-08 4.59112414235422e-08 2.65365917399211e-07 1.86418163284956e-08 2.07531031993409e-07 9.33321199474566e-08 1.40459959907191e-07
"2357" 38013 3.30565194626681e-08 1.13302323839642e-08 4.57945487542172e-08 2.66425970325899e-07 1.86323463310842e-08 2.06393541301541e-07 9.17712857760056e-08 1.40366094624793e-07
"2358" 38014 3.29731546633519e-08 1.13402410242092e-08 4.56778560848921e-08 2.67486023252586e-07 1.86228763336727e-08 2.05256050609674e-07 9.02104516045547e-08 1.40272229342396e-07
"2359" 38015 3.28897898640357e-08 1.13502496644542e-08 4.55611634155671e-08 2.68546076179274e-07 1.86134063362613e-08 2.04118559917806e-07 8.86496174331038e-08 1.40178364059998e-07
"2360" 38016 3.28064250647195e-08 1.13602583046992e-08 4.54444707462421e-08 2.69606129105961e-07 1.86039363388498e-08 2.02981069225939e-07 8.70887832616528e-08 1.40084498777601e-07
"2361" 38017 3.27230602654033e-08 1.13702669449443e-08 4.53277780769171e-08 2.70666182032649e-07 1.85944663414384e-08 2.01843578534071e-07 8.55279490902019e-08 1.39990633495203e-07
"2362" 38018 3.26396954660871e-08 1.13802755851893e-08 4.5211085407592e-08 2.71726234959336e-07 1.8584996344027e-08 2.00706087842204e-07 8.3967114918751e-08 1.39896768212806e-07
"2363" 38019 3.25299681843938e-08 1.13820296155747e-08 4.55302754332957e-08 2.71268741836901e-07 1.85916569052822e-08 1.99555662780131e-07 8.2438339966333e-08 1.39865791115041e-07
"2364" 38020 3.24148971648991e-08 1.14100269459401e-08 4.54098403201953e-08 2.69919140031865e-07 1.86037911271958e-08 1.98405636248163e-07 8.10292948394854e-08 1.40547317731751e-07
"2365" 38021 3.22750313552137e-08 1.1408738090771e-08 4.52931476508703e-08 2.68619294803007e-07 1.86209675959816e-08 1.9722053094378e-07 7.94608403517447e-08 1.405124927406e-07
"2366" 38022 3.21351655455282e-08 1.14074492356019e-08 4.51764549815453e-08 2.67319449574149e-07 1.86381440647674e-08 1.96035425639398e-07 7.7892385864004e-08 1.4047766774945e-07
"2367" 38023 3.19952997358428e-08 1.14061603804327e-08 4.50597623122203e-08 2.66019604345292e-07 1.86553205335532e-08 1.94850320335015e-07 7.63239313762633e-08 1.40442842758299e-07
"2368" 38024 3.18554339261574e-08 1.14048715252636e-08 4.49430696428952e-08 2.64719759116434e-07 1.86724970023389e-08 1.93665215030632e-07 7.47554768885226e-08 1.40408017767148e-07
"2369" 38025 3.18415396333472e-08 1.14048715252636e-08 4.48151280974883e-08 2.63849066655215e-07 1.87005302964874e-08 1.93162005460483e-07 7.46386681328615e-08 1.40404169873763e-07
"2370" 38026 3.18276453405371e-08 1.14048715252636e-08 4.46871865520814e-08 2.62978374193996e-07 1.87285635906359e-08 1.92658795890335e-07 7.45218593772004e-08 1.40400321980377e-07
"2371" 38027 3.18137510477269e-08 1.14048715252636e-08 4.45592450066744e-08 2.62107681732778e-07 1.87565968847844e-08 1.92155586320186e-07 7.44050506215393e-08 1.40396474086991e-07
"2372" 38028 3.17998567549168e-08 1.14048715252636e-08 4.44313034612675e-08 2.61236989271559e-07 1.87846301789329e-08 1.91652376750038e-07 7.42882418658782e-08 1.40392626193606e-07
"2373" 38029 3.17859624621066e-08 1.14048715252636e-08 4.43033619158606e-08 2.6036629681034e-07 1.88126634730813e-08 1.91149167179889e-07 7.41714331102171e-08 1.4038877830022e-07
"2374" 38030 3.17720681692965e-08 1.14048715252636e-08 4.41754203704537e-08 2.59495604349122e-07 1.88406967672298e-08 1.9064595760974e-07 7.40546243545561e-08 1.40384930406834e-07
"2375" 38031 3.17581738764863e-08 1.14048715252636e-08 4.40474788250467e-08 2.58624911887903e-07 1.88687300613783e-08 1.90142748039592e-07 7.3937815598895e-08 1.40381082513449e-07
"2376" 38032 3.17442795836762e-08 1.14048715252636e-08 4.39195372796398e-08 2.57754219426684e-07 1.88967633555268e-08 1.89639538469443e-07 7.38210068432339e-08 1.40377234620063e-07
"2377" 38033 3.1730385290866e-08 1.14048715252636e-08 4.37915957342329e-08 2.56883526965466e-07 1.89247966496752e-08 1.89136328899295e-07 7.37041980875728e-08 1.40373386726677e-07
"2378" 38034 3.13167744951241e-08 1.13936915525026e-08 4.37467019690299e-08 2.57058435017236e-07 1.89145837890838e-08 1.89136328899295e-07 7.35873893319117e-08 1.40282426235929e-07
"2379" 38035 3.09031636993821e-08 1.13825115797415e-08 4.37018082038268e-08 2.57233343069006e-07 1.89043709284925e-08 1.89136328899295e-07 7.34705805762506e-08 1.40191465745181e-07
"2380" 38036 3.04895529036401e-08 1.13713316069805e-08 4.36569144386238e-08 2.57408251120776e-07 1.88941580679011e-08 1.89136328899295e-07 7.33537718205896e-08 1.40100505254433e-07
"2381" 38037 3.00759421078981e-08 1.13601516342194e-08 4.36120206734208e-08 2.57583159172546e-07 1.88839452073097e-08 1.89136328899295e-07 7.32369630649285e-08 1.40009544763685e-07
"2382" 38038 2.96623313121561e-08 1.13489716614584e-08 4.35671269082178e-08 2.57758067224316e-07 1.88737323467183e-08 1.89136328899295e-07 7.31201543092674e-08 1.39918584272937e-07
"2383" 38039 2.92487205164141e-08 1.13377916886973e-08 4.35222331430148e-08 2.57932975276086e-07 1.88635194861269e-08 1.89136328899295e-07 7.30033455536063e-08 1.39827623782189e-07
"2384" 38040 2.88351097206721e-08 1.13266117159363e-08 4.34773393778118e-08 2.58107883327856e-07 1.88533066255355e-08 1.89136328899295e-07 7.28865367979452e-08 1.39736663291441e-07
"2385" 38041 2.87473256610464e-08 1.13504619840328e-08 4.35970161873239e-08 2.58857794036812e-07 1.88904395308251e-08 1.89225007616874e-07 7.29420138738463e-08 1.39715993667663e-07
"2386" 38042 2.86595416014208e-08 1.13743122521294e-08 4.3716692996836e-08 2.59607704745769e-07 1.89275724361147e-08 1.89313686334454e-07 7.29974909497473e-08 1.39695324043886e-07
"2387" 38043 2.82658806111855e-08 1.13624093331182e-08 4.36740382344715e-08 2.59605490040627e-07 1.88971358723341e-08 1.89361300946969e-07 7.39236032097348e-08 1.3978449204287e-07
"2388" 38044 2.78722196209502e-08 1.1350506414107e-08 4.36313834721069e-08 2.59603275335485e-07 1.88666993085534e-08 1.89408915559484e-07 7.48497154697222e-08 1.39873660041853e-07
"2389" 38045 2.74785586307149e-08 1.13386034950958e-08 4.35887287097424e-08 2.59601060630344e-07 1.88362627447728e-08 1.89456530171999e-07 7.57758277297096e-08 1.39962828040837e-07
"2390" 38046 2.70848976404797e-08 1.13267005760846e-08 4.35460739473779e-08 2.59598845925202e-07 1.88058261809922e-08 1.89504144784514e-07 7.67019399896971e-08 1.40051996039821e-07
"2391" 38047 2.66912366502444e-08 1.13147976570735e-08 4.35034191850133e-08 2.5959663122006e-07 1.87753896172116e-08 1.8955175939703e-07 7.76280522496845e-08 1.40141164038804e-07
"2392" 38048 2.66421439078906e-08 1.12949314771374e-08 4.35006694597489e-08 2.5959816906877e-07 1.87370466547023e-08 1.89600171955484e-07 7.82456899996715e-08 1.40380332819783e-07
"2393" 38049 2.65930511655368e-08 1.12750652972013e-08 4.34979197344844e-08 2.5959970691748e-07 1.86987036921931e-08 1.89648584513938e-07 7.88633277496585e-08 1.40619501600762e-07
"2394" 38050 2.65564999606743e-08 1.12450561654167e-08 4.34881958440952e-08 2.59378248787558e-07 1.84116155122206e-08 1.87851412749888e-07 7.9729134083689e-08 1.40629129154174e-07
"2395" 38051 2.65199487558118e-08 1.12150470336321e-08 4.34784719537059e-08 2.59156790657637e-07 1.81245273322482e-08 1.86054240985839e-07 8.05949404177195e-08 1.40638756707587e-07
"2396" 38052 2.64833975509492e-08 1.11850379018474e-08 4.34687480633167e-08 2.58935332527715e-07 1.78374391522758e-08 1.84257069221789e-07 8.14607467517501e-08 1.40648384260999e-07
"2397" 38053 2.64468463460867e-08 1.11550287700628e-08 4.34590241729275e-08 2.58713874397794e-07 1.75503509723033e-08 1.8245989745774e-07 8.23265530857806e-08 1.40658011814412e-07
"2398" 38054 2.64102951412241e-08 1.11250196382781e-08 4.34493002825383e-08 2.58492416267872e-07 1.72632627923309e-08 1.8066272569369e-07 8.31923594198111e-08 1.40667639367825e-07
"2399" 38055 2.63737439363616e-08 1.10950105064935e-08 4.34395763921491e-08 2.58270958137951e-07 1.69761746123584e-08 1.78865553929641e-07 8.40581657538417e-08 1.40677266921237e-07
"2400" 38056 2.64040269259311e-08 1.10687672065136e-08 4.34358363422355e-08 2.58270958137951e-07 1.66987942280447e-08 1.77243677576111e-07 8.39343791624678e-08 1.40541590976069e-07
"2401" 38057 2.64343099155005e-08 1.10425239065336e-08 4.34320962923218e-08 2.58270958137951e-07 1.64214138437309e-08 1.75621801222582e-07 8.38105925710939e-08 1.40405915030901e-07
"2402" 38058 2.646459290507e-08 1.10162806065537e-08 4.34283562424082e-08 2.58270958137951e-07 1.61440334594172e-08 1.73999924869053e-07 8.36868059797201e-08 1.40270239085732e-07
"2403" 38059 2.64948758946395e-08 1.09900373065738e-08 4.34246161924946e-08 2.58270958137951e-07 1.58666530751034e-08 1.72378048515523e-07 8.35630193883462e-08 1.40134563140564e-07
"2404" 38060 2.65251588842089e-08 1.09637940065939e-08 4.3420876142581e-08 2.58270958137951e-07 1.55892726907896e-08 1.70756172161994e-07 8.34392327969724e-08 1.39998887195395e-07
"2405" 38061 2.65554418737784e-08 1.09375507066139e-08 4.34171360926674e-08 2.58270958137951e-07 1.53118923064759e-08 1.69134295808465e-07 8.33154462055985e-08 1.39863211250227e-07
"2406" 38062 2.65598608149063e-08 1.09082980989803e-08 4.35009194347729e-08 2.58670554309431e-07 1.50493103685778e-08 1.67288744696803e-07 8.35040377467124e-08 1.39609004389291e-07
"2407" 38063 2.65642797560342e-08 1.08790454913467e-08 4.35847027768784e-08 2.59070150480912e-07 1.47867284306797e-08 1.65443193585142e-07 8.36926292878264e-08 1.39354797528356e-07
"2408" 38064 2.65686986971622e-08 1.08497928837131e-08 4.36684861189839e-08 2.59469746652393e-07 1.45241464927815e-08 1.6359764247348e-07 8.38812208289403e-08 1.3910059066742e-07
"2409" 38065 2.65731176382901e-08 1.08205402760795e-08 4.37522694610894e-08 2.59869342823874e-07 1.42615645548834e-08 1.61752091361819e-07 8.40698123700542e-08 1.38846383806485e-07
"2410" 38066 2.6577536579418e-08 1.07912876684459e-08 4.38360528031949e-08 2.60268938995355e-07 1.39989826169853e-08 1.59906540250157e-07 8.42584039111682e-08 1.38592176945549e-07
"2411" 38067 2.65819555205459e-08 1.07620350608123e-08 4.39198361453004e-08 2.60668535166836e-07 1.37364006790872e-08 1.58060989138496e-07 8.44469954522821e-08 1.38337970084614e-07
"2412" 38068 2.65863744616738e-08 1.07327824531787e-08 4.40036194874059e-08 2.61068131338317e-07 1.34738187411891e-08 1.56215438026834e-07 8.46355869933961e-08 1.38083763223679e-07
"2413" 38069 2.65907934028017e-08 1.07035298455451e-08 4.40874028295114e-08 2.61467727509798e-07 1.32112368032909e-08 1.54369886915173e-07 8.482417853451e-08 1.37829556362743e-07
"2414" 38070 2.66093910913527e-08 1.06982677543887e-08 4.41711861716169e-08 2.62091714962132e-07 1.32435526363245e-08 1.5353028703959e-07 8.51686685031121e-08 1.37736226012693e-07
"2415" 38071 2.6588801262967e-08 1.0663271091432e-08 4.41609623311796e-08 2.62275493580351e-07 1.32528774220819e-08 1.52014641261867e-07 8.53949398591518e-08 1.3724019026372e-07
"2416" 38072 2.66073989515179e-08 1.0664027615583e-08 4.42185485668576e-08 2.61912513694854e-07 1.32799321454424e-08 1.51905280895344e-07 8.57376987305641e-08 1.37156484339103e-07
"2417" 38073 2.66259966400689e-08 1.06647841397341e-08 4.42761348025355e-08 2.61549533809357e-07 1.3306986868803e-08 1.51795920528822e-07 8.60804576019764e-08 1.37072778414487e-07
"2418" 38074 2.66445943286198e-08 1.06655406638851e-08 4.43337210382134e-08 2.6118655392386e-07 1.33340415921635e-08 1.51686560162299e-07 8.64232164733886e-08 1.36989072489871e-07
"2419" 38075 2.66631920171707e-08 1.06662971880361e-08 4.43913072738913e-08 2.60823574038363e-07 1.3361096315524e-08 1.51577199795777e-07 8.67659753448009e-08 1.36905366565254e-07
"2420" 38076 2.66817897057216e-08 1.06670537121872e-08 4.44488935095693e-08 2.60460594152867e-07 1.33881510388846e-08 1.51467839429254e-07 8.71087342162132e-08 1.36821660640638e-07
"2421" 38077 2.67003873942726e-08 1.06678102363382e-08 4.45064797452472e-08 2.6009761426737e-07 1.34152057622451e-08 1.51358479062732e-07 8.74514930876255e-08 1.36737954716022e-07
"2422" 38078 2.67189850828235e-08 1.06685667604892e-08 4.45640659809251e-08 2.59734634381873e-07 1.34422604856057e-08 1.51249118696209e-07 8.77942519590378e-08 1.36654248791405e-07
"2423" 38079 2.66754516535016e-08 1.06722654364922e-08 4.45259059812698e-08 2.59672848363111e-07 1.34977252012006e-08 1.51139725118844e-07 8.78545437612103e-08 1.36885694447711e-07
"2424" 38080 2.66319182241798e-08 1.06759641124951e-08 4.44877459816145e-08 2.59611062344349e-07 1.35531899167954e-08 1.5103033154148e-07 8.79148355633828e-08 1.37117140104017e-07
"2425" 38081 2.65883847948579e-08 1.06796627884981e-08 4.44495859819593e-08 2.59549276325587e-07 1.36086546323903e-08 1.50920937964115e-07 8.79751273655554e-08 1.37348585760323e-07
"2426" 38082 2.6544851365536e-08 1.0683361464501e-08 4.4411425982304e-08 2.59487490306824e-07 1.36641193479851e-08 1.5081154438675e-07 8.80354191677279e-08 1.37580031416629e-07
"2427" 38083 2.65013179362141e-08 1.06870601405039e-08 4.43732659826487e-08 2.59425704288062e-07 1.371958406358e-08 1.50702150809386e-07 8.80957109699005e-08 1.37811477072935e-07
"2428" 38084 2.6464125750928e-08 1.04191684975392e-08 4.24897792958715e-08 2.59481992595835e-07 1.37212802502859e-08 1.50001004740091e-07 8.78618633286682e-08 1.38125295608e-07
"2429" 38085 2.64269335656418e-08 1.01512768545744e-08 4.06062926090942e-08 2.59538280903608e-07 1.37229764369918e-08 1.49299858670796e-07 8.76280156874359e-08 1.38439114143065e-07
"2430" 38086 2.63897413803556e-08 9.88338521160962e-09 3.8722805922317e-08 2.5959456921138e-07 1.37246726236977e-08 1.48598712601501e-07 8.73941680462037e-08 1.3875293267813e-07
"2431" 38087 2.63525491950694e-08 9.61549356864484e-09 3.68393192355398e-08 2.59650857519153e-07 1.37263688104036e-08 1.47897566532206e-07 8.71603204049714e-08 1.39066751213195e-07
"2432" 38088 2.63153570097833e-08 9.34760192568006e-09 3.49558325487625e-08 2.59707145826926e-07 1.37280649971095e-08 1.47196420462911e-07 8.69264727637392e-08 1.3938056974826e-07
"2433" 38089 2.62781648244971e-08 9.07971028271529e-09 3.30723458619853e-08 2.59763434134699e-07 1.37297611838154e-08 1.46495274393616e-07 8.66926251225069e-08 1.39694388283326e-07
"2434" 38090 2.62409726392109e-08 8.81181863975051e-09 3.11888591752081e-08 2.59819722442471e-07 1.37314573705213e-08 1.45794128324321e-07 8.64587774812747e-08 1.40008206818391e-07
"2435" 38091 2.62037804539247e-08 8.54392699678574e-09 2.93053724884308e-08 2.59876010750244e-07 1.37331535572272e-08 1.45092982255026e-07 8.62249298400424e-08 1.40322025353456e-07
"2436" 38092 2.6129894517288e-08 8.54764246173912e-09 2.92604787232278e-08 2.59750443700251e-07 1.36428855548282e-08 1.43974876217802e-07 8.60942612312623e-08 1.40462510519014e-07
"2437" 38093 2.60560085806513e-08 8.55135792669251e-09 2.92155849580248e-08 2.59624876650258e-07 1.35526175524292e-08 1.42856770180579e-07 8.59635926224822e-08 1.40602995684572e-07
"2438" 38094 2.59821226440146e-08 8.55507339164589e-09 2.91706911928218e-08 2.59499309600265e-07 1.34623495500303e-08 1.41738664143355e-07 8.58329240137021e-08 1.4074348085013e-07
"2439" 38095 2.59082367073779e-08 8.55878885659928e-09 2.91257974276188e-08 2.59373742550272e-07 1.33720815476313e-08 1.40620558106132e-07 8.5702255404922e-08 1.40883966015687e-07
"2440" 38096 2.58343507707412e-08 8.56250432155266e-09 2.90809036624157e-08 2.59248175500279e-07 1.32818135452323e-08 1.39502452068908e-07 8.55715867961419e-08 1.41024451181245e-07
"2441" 38097 2.57604648341044e-08 8.56621978650605e-09 2.90360098972127e-08 2.59122608450286e-07 1.31915455428334e-08 1.38384346031684e-07 8.54409181873617e-08 1.41164936346803e-07
"2442" 38098 2.56865788974677e-08 8.56993525145943e-09 2.89911161320097e-08 2.58997041400293e-07 1.31012775404344e-08 1.37266239994461e-07 8.53102495785816e-08 1.41305421512361e-07
"2443" 38099 2.5612692960831e-08 8.57365071641282e-09 2.89462223668067e-08 2.58871474350299e-07 1.30110095380354e-08 1.36148133957237e-07 8.51795809698015e-08 1.41445906677919e-07
"2444" 38100 2.56682701320716e-08 8.69392331023864e-09 2.89873724913035e-08 2.57900051537818e-07 1.29874587101263e-08 1.35268931253642e-07 8.57949888694815e-08 1.41575875592826e-07
"2445" 38101 2.57238473033122e-08 8.81419590406445e-09 2.90285226158002e-08 2.56928628725337e-07 1.29639078822172e-08 1.34389728550046e-07 8.64103967691614e-08 1.41705844507733e-07
"2446" 38102 2.58213175021272e-08 8.8949040275226e-09 2.93028069069921e-08 2.56429210178398e-07 1.29865537904851e-08 1.3417014167792e-07 8.6331641685796e-08 1.42027213841343e-07
"2447" 38103 2.59187877009422e-08 8.97561215098076e-09 2.9577091198184e-08 2.5592979163146e-07 1.30091996987529e-08 1.33950554805794e-07 8.62528866024306e-08 1.42348583174952e-07
"2448" 38104 2.60162578997572e-08 9.05632027443891e-09 2.98513754893759e-08 2.55430373084521e-07 1.30318456070208e-08 1.33730967933668e-07 8.61741315190651e-08 1.42669952508562e-07
"2449" 38105 2.61137280985722e-08 9.13702839789706e-09 3.01256597805678e-08 2.54930954537582e-07 1.30544915152886e-08 1.33511381061542e-07 8.60953764356997e-08 1.42991321842171e-07
"2450" 38106 2.62111982973872e-08 9.21773652135522e-09 3.03999440717597e-08 2.54431535990644e-07 1.30771374235565e-08 1.33291794189416e-07 8.60166213523342e-08 1.43312691175781e-07
"2451" 38107 2.62414774567779e-08 9.20882018427012e-09 3.05545204332367e-08 2.54521430287284e-07 1.32501689749736e-08 1.34181468937015e-07 8.60492657269347e-08 1.43775996642436e-07
"2452" 38108 2.62717566161686e-08 9.19990384718502e-09 3.07090967947136e-08 2.54611324583924e-07 1.34232005263907e-08 1.35071143684615e-07 8.60819101015351e-08 1.4423930210909e-07
"2453" 38109 2.64262980113048e-08 9.26496000877771e-09 3.08078104132016e-08 2.54745607588815e-07 1.35963962249084e-08 1.35715065398313e-07 8.61145544761355e-08 1.44496942980673e-07
"2454" 38110 2.6580839406441e-08 9.3300161703704e-09 3.09065240316897e-08 2.54879890593705e-07 1.37695919234261e-08 1.36358987112012e-07 8.6147198850736e-08 1.44754583852256e-07
"2455" 38111 2.67353808015773e-08 9.39507233196309e-09 3.10052376501777e-08 2.55014173598595e-07 1.39427876219438e-08 1.3700290882571e-07 8.61798432253364e-08 1.45012224723838e-07
"2456" 38112 2.68899221967135e-08 9.46012849355578e-09 3.11039512686657e-08 2.55148456603485e-07 1.41159833204615e-08 1.37646830539409e-07 8.62124875999368e-08 1.45269865595421e-07
"2457" 38113 2.70444635918498e-08 9.52518465514847e-09 3.12026648871537e-08 2.55282739608375e-07 1.42891790189792e-08 1.38290752253108e-07 8.62451319745372e-08 1.45527506467004e-07
"2458" 38114 2.70444635918498e-08 9.51831963416069e-09 3.12497593534071e-08 2.55764291296798e-07 1.42915633531648e-08 1.38039978477193e-07 8.62704961048488e-08 1.45372817514229e-07
"2459" 38115 2.70444635918498e-08 9.5114546131729e-09 3.12968538196605e-08 2.56245842985221e-07 1.42939476873505e-08 1.37789204701278e-07 8.62958602351605e-08 1.45218128561454e-07
"2460" 38116 2.70444635918498e-08 9.50458959218512e-09 3.1343948285914e-08 2.56727394673643e-07 1.42963320215361e-08 1.37538430925363e-07 8.63212243654721e-08 1.45063439608679e-07
"2461" 38117 2.70444635918498e-08 9.49772457119733e-09 3.13910427521674e-08 2.57208946362066e-07 1.42987163557218e-08 1.37287657149449e-07 8.63465884957837e-08 1.44908750655904e-07
"2462" 38118 2.70444635918498e-08 9.49085955020955e-09 3.14381372184208e-08 2.57690498050488e-07 1.43011006899074e-08 1.37036883373534e-07 8.63719526260953e-08 1.44754061703129e-07
"2463" 38119 2.70444635918498e-08 9.48399452922177e-09 3.14852316846742e-08 2.58172049738911e-07 1.43034850240931e-08 1.36786109597619e-07 8.63973167564069e-08 1.44599372750355e-07
"2464" 38120 2.70444635918498e-08 9.47712950823398e-09 3.15323261509276e-08 2.58653601427334e-07 1.43058693582787e-08 1.36535335821704e-07 8.64226808867186e-08 1.4444468379758e-07
"2465" 38121 2.70359854272204e-08 9.48136051525502e-09 3.13081180723145e-08 2.58911474248161e-07 1.43661511461296e-08 1.36280771581148e-07 8.63385400452985e-08 1.45229820900426e-07
"2466" 38122 2.7027507262591e-08 9.48559152227606e-09 3.10839099937013e-08 2.59169347068989e-07 1.44264329339805e-08 1.36026207340591e-07 8.62543992038784e-08 1.46014958003273e-07
"2467" 38123 2.70190290979616e-08 9.48982252929709e-09 3.08597019150882e-08 2.59427219889817e-07 1.44867147218313e-08 1.35771643100034e-07 8.61702583624584e-08 1.46800095106119e-07
"2468" 38124 2.70105509333323e-08 9.49405353631813e-09 3.0635493836475e-08 2.59685092710645e-07 1.45469965096822e-08 1.35517078859477e-07 8.60861175210383e-08 1.47585232208965e-07
"2469" 38125 2.70020727687029e-08 9.49828454333917e-09 3.04112857578619e-08 2.59942965531472e-07 1.46072782975331e-08 1.3526251461892e-07 8.60019766796182e-08 1.48370369311812e-07
"2470" 38126 2.69935946040735e-08 9.5025155503602e-09 3.01870776792487e-08 2.602008383523e-07 1.46675600853839e-08 1.35007950378363e-07 8.59178358381982e-08 1.49155506414658e-07
"2471" 38127 2.69851164394441e-08 9.50674655738124e-09 2.99628696006356e-08 2.60458711173128e-07 1.47278418732348e-08 1.34753386137806e-07 8.58336949967781e-08 1.49940643517504e-07
"2472" 38128 2.69766382748147e-08 9.51097756440228e-09 2.97386615220225e-08 2.60716583993956e-07 1.47881236610857e-08 1.34498821897249e-07 8.57495541553581e-08 1.50725780620351e-07
"2473" 38129 2.69681601101853e-08 9.51520857142332e-09 2.95144534434093e-08 2.60974456814783e-07 1.48484054489365e-08 1.34244257656692e-07 8.5665413313938e-08 1.51510917723197e-07
"2474" 38130 2.69143655679986e-08 9.50525029802962e-09 2.94426222221536e-08 2.60897583115249e-07 1.48629787207359e-08 1.33921929413879e-07 8.54073945632976e-08 1.51052494106698e-07
"2475" 38131 2.68988327885304e-08 9.51321355895449e-09 2.92184141435405e-08 2.61573161831328e-07 1.48854583912639e-08 1.33322628613021e-07 8.44264233384735e-08 1.51524789098771e-07
"2476" 38132 2.68833000090622e-08 9.52117681987936e-09 2.89942060649273e-08 2.62248740547407e-07 1.49079380617919e-08 1.32723327812162e-07 8.34454521136493e-08 1.51997084090844e-07
"2477" 38133 2.6867767229594e-08 9.52914008080422e-09 2.87699979863142e-08 2.62924319263487e-07 1.493041773232e-08 1.32124027011304e-07 8.24644808888252e-08 1.52469379082917e-07
"2478" 38134 2.68522344501258e-08 9.53710334172909e-09 2.8545789907701e-08 2.63599897979566e-07 1.4952897402848e-08 1.31524726210445e-07 8.1483509664001e-08 1.5294167407499e-07
"2479" 38135 2.68367016706576e-08 9.54506660265395e-09 2.83215818290879e-08 2.64275476695646e-07 1.4975377073376e-08 1.30925425409587e-07 8.05025384391769e-08 1.53413969067063e-07
"2480" 38136 2.68211688911894e-08 9.55302986357882e-09 2.80973737504747e-08 2.64951055411725e-07 1.4997856743904e-08 1.30326124608728e-07 7.95215672143527e-08 1.53886264059136e-07
"2481" 38137 2.68056361117212e-08 9.56099312450369e-09 2.78731656718616e-08 2.65626634127804e-07 1.5020336414432e-08 1.2972682380787e-07 7.85405959895285e-08 1.54358559051209e-07
"2482" 38138 2.6790103332253e-08 9.56895638542856e-09 2.76489575932485e-08 2.66302212843884e-07 1.50428160849601e-08 1.29127523007011e-07 7.75596247647044e-08 1.54830854043283e-07
"2483" 38139 2.67745705527848e-08 9.57691964635342e-09 2.74247495146353e-08 2.66977791559963e-07 1.50652957554881e-08 1.28528222206153e-07 7.65786535398802e-08 1.55303149035356e-07
"2484" 38140 2.67590377733166e-08 9.58488290727829e-09 2.72005414360222e-08 2.67653370276043e-07 1.50877754260161e-08 1.27928921405294e-07 7.55976823150561e-08 1.55775444027429e-07
"2485" 38141 2.67435049938484e-08 9.59284616820316e-09 2.6976333357409e-08 2.68328948992122e-07 1.51102550965441e-08 1.27329620604436e-07 7.46167110902319e-08 1.56247739019502e-07
"2486" 38142 2.66597868605372e-08 9.5771606284368e-09 2.68957733581368e-08 2.68995651109221e-07 1.51631713308527e-08 1.27258099053137e-07 7.44062993077082e-08 1.56729552484687e-07
"2487" 38143 2.65773506880731e-08 9.65150248402438e-09 2.68571014391246e-08 2.69685420956968e-07 1.51773131888661e-08 1.27235421801239e-07 7.41825555026234e-08 1.56281164319684e-07
"2488" 38144 2.64949145156091e-08 9.72584433961196e-09 2.68184295201125e-08 2.70375190804716e-07 1.51914550468795e-08 1.27212744549341e-07 7.39588116975387e-08 1.55832776154681e-07
"2489" 38145 2.64196745469272e-08 9.69104914406058e-09 2.67864901697172e-08 2.70385967491566e-07 1.52066365031964e-08 1.27231297456718e-07 7.37959974672754e-08 1.56446665484218e-07
"2490" 38146 2.63444345782453e-08 9.65625394850921e-09 2.67545508193219e-08 2.70396744178417e-07 1.52218179595134e-08 1.27249850364095e-07 7.3633183237012e-08 1.57060554813755e-07
"2491" 38147 2.62691946095634e-08 9.62145875295783e-09 2.67226114689266e-08 2.70407520865268e-07 1.52369994158304e-08 1.27268403271472e-07 7.34703690067487e-08 1.57674444143292e-07
"2492" 38148 2.61939546408815e-08 9.58666355740646e-09 2.66906721185313e-08 2.70418297552118e-07 1.52521808721473e-08 1.27286956178849e-07 7.33075547764854e-08 1.58288333472828e-07
"2493" 38149 2.61187146721996e-08 9.55186836185508e-09 2.6658732768136e-08 2.70429074238969e-07 1.52673623284643e-08 1.27305509086227e-07 7.31447405462221e-08 1.58902222802365e-07
"2494" 38150 2.60434747035177e-08 9.51707316630371e-09 2.66267934177407e-08 2.7043985092582e-07 1.52825437847813e-08 1.27324061993604e-07 7.29819263159587e-08 1.59516112131902e-07
"2495" 38151 2.60558720986131e-08 9.51784647940518e-09 2.66397598018572e-08 2.70018636299516e-07 1.52870872785363e-08 1.2740206674494e-07 7.28963952792219e-08 1.59354579367755e-07
"2496" 38152 2.60682694937085e-08 9.51861979250666e-09 2.66527261859737e-08 2.69597421673212e-07 1.52916307722914e-08 1.27480071496277e-07 7.2810864242485e-08 1.59193046603607e-07
"2497" 38153 2.60806668888039e-08 9.51939310560814e-09 2.66656925700902e-08 2.69176207046908e-07 1.52961742660464e-08 1.27558076247614e-07 7.27253332057482e-08 1.5903151383946e-07
"2498" 38154 2.60930642838993e-08 9.52016641870962e-09 2.66786589542067e-08 2.68754992420604e-07 1.53007177598015e-08 1.27636080998951e-07 7.26398021690114e-08 1.58869981075312e-07
"2499" 38155 2.61054616789947e-08 9.52093973181110e-09 2.66916253383232e-08 2.683337777943e-07 1.53052612535565e-08 1.27714085750288e-07 7.25542711322745e-08 1.58708448311165e-07
"2500" 38156 2.611785907409e-08 9.52171304491257e-09 2.67045917224398e-08 2.67912563167997e-07 1.53098047473116e-08 1.27792090501624e-07 7.24687400955377e-08 1.58546915547017e-07
"2501" 38157 2.61302564691854e-08 9.52248635801405e-09 2.67175581065563e-08 2.67491348541693e-07 1.53143482410667e-08 1.27870095252961e-07 7.23832090588008e-08 1.5838538278287e-07
"2502" 38158 2.61258391239654e-08 9.54726697654324e-09 2.6921287384092e-08 2.68688765564859e-07 1.52975610939977e-08 1.28910296171374e-07 7.23342213112237e-08 1.57084957952203e-07
"2503" 38159 2.61214217787453e-08 9.57204759507244e-09 2.71250166616277e-08 2.69886182588025e-07 1.52807739469287e-08 1.29950497089787e-07 7.22852335636465e-08 1.55784533121537e-07
"2504" 38160 2.61516326971168e-08 9.59666032409718e-09 2.71250310247982e-08 2.69445035615446e-07 1.52675875030806e-08 1.30398544624221e-07 7.21387729520882e-08 1.54506458469437e-07
"2505" 38161 2.61818436154884e-08 9.62127305312192e-09 2.71250453879688e-08 2.69003888642867e-07 1.52544010592324e-08 1.30846592158656e-07 7.19923123405299e-08 1.53228383817337e-07
"2506" 38162 2.62120545338599e-08 9.64588578214667e-09 2.71250597511393e-08 2.68562741670288e-07 1.52412146153843e-08 1.3129463969309e-07 7.18458517289717e-08 1.51950309165237e-07
"2507" 38163 2.62422654522315e-08 9.67049851117141e-09 2.71250741143098e-08 2.68121594697709e-07 1.52280281715361e-08 1.31742687227524e-07 7.16993911174134e-08 1.50672234513137e-07
"2508" 38164 2.6272476370603e-08 9.69511124019615e-09 2.71250884774803e-08 2.67680447725131e-07 1.5214841727688e-08 1.32190734761958e-07 7.15529305058552e-08 1.49394159861037e-07
"2509" 38165 2.63026872889746e-08 9.7197239692209e-09 2.71251028406509e-08 2.67239300752552e-07 1.52016552838399e-08 1.32638782296392e-07 7.14064698942969e-08 1.48116085208937e-07
"2510" 38166 2.62965597050801e-08 9.74359696304505e-09 2.70612815925424e-08 2.6579664577474e-07 1.51849649445403e-08 1.32259299662582e-07 7.13931378717359e-08 1.47932069518609e-07
"2511" 38167 2.62904321211856e-08 9.76746995686921e-09 2.6997460344434e-08 2.64353990796928e-07 1.51682746052407e-08 1.31879817028773e-07 7.13798058491748e-08 1.47748053828282e-07
"2512" 38168 2.63154418482439e-08 9.79208268589395e-09 2.7033128972365e-08 2.64347904802391e-07 1.5162678889551e-08 1.31586749460907e-07 7.13618939381805e-08 1.47781929733042e-07
"2513" 38169 2.63404515753021e-08 9.8166954149187e-09 2.7068797600296e-08 2.64341818807855e-07 1.51570831738614e-08 1.31293681893042e-07 7.13439820271862e-08 1.47815805637802e-07
"2514" 38170 2.63654613023604e-08 9.84130814394344e-09 2.7104466228227e-08 2.64335732813319e-07 1.51514874581717e-08 1.31000614325177e-07 7.13260701161919e-08 1.47849681542562e-07
"2515" 38171 2.63904710294187e-08 9.86592087296819e-09 2.7140134856158e-08 2.64329646818783e-07 1.51458917424821e-08 1.30707546757312e-07 7.13081582051976e-08 1.47883557447322e-07
"2516" 38172 2.63827763917009e-08 9.90148938162104e-09 2.71600801931228e-08 2.64548890243563e-07 1.52860287447862e-08 1.30482540613067e-07 7.15293603355431e-08 1.47885482958005e-07
"2517" 38173 2.63750817539832e-08 9.93705789027389e-09 2.71800255300875e-08 2.64768133668343e-07 1.54261657470904e-08 1.30257534468821e-07 7.17505624658885e-08 1.47887408468687e-07
"2518" 38174 2.63673871162654e-08 9.97262639892674e-09 2.71999708670523e-08 2.64987377093122e-07 1.55663027493946e-08 1.30032528324576e-07 7.1971764596234e-08 1.4788933397937e-07
"2519" 38175 2.63596924785477e-08 1.00081949075796e-08 2.72199162040171e-08 2.65206620517902e-07 1.57064397516987e-08 1.29807522180331e-07 7.21929667265794e-08 1.47891259490052e-07
"2520" 38176 2.63519978408299e-08 1.00437634162324e-08 2.72398615409818e-08 2.65425863942682e-07 1.58465767540029e-08 1.29582516036086e-07 7.24141688569249e-08 1.47893185000735e-07
"2521" 38177 2.63443032031122e-08 1.00793319248853e-08 2.72598068779466e-08 2.65645107367462e-07 1.59867137563071e-08 1.29357509891841e-07 7.26353709872703e-08 1.47895110511417e-07
"2522" 38178 2.63430212422649e-08 1.00830473898387e-08 2.72755229873276e-08 2.6564540420632e-07 1.60274599884485e-08 1.2965875441269e-07 7.26460270234885e-08 1.47886320378724e-07
"2523" 38179 2.63417392814176e-08 1.00867628547921e-08 2.72912390967085e-08 2.65645701045178e-07 1.60682062205899e-08 1.2995999893354e-07 7.26566830597067e-08 1.47877530246031e-07
"2524" 38180 2.63404573205704e-08 1.00904783197455e-08 2.73069552060895e-08 2.65645997884035e-07 1.61089524527313e-08 1.30261243454389e-07 7.26673390959248e-08 1.47868740113337e-07
"2525" 38181 2.63391753597231e-08 1.00941937846988e-08 2.73226713154705e-08 2.65646294722893e-07 1.61496986848727e-08 1.30562487975238e-07 7.2677995132143e-08 1.47859949980644e-07
"2526" 38182 2.63378933988758e-08 1.00979092496522e-08 2.73383874248515e-08 2.65646591561751e-07 1.61904449170141e-08 1.30863732496088e-07 7.26886511683612e-08 1.4785115984795e-07
"2527" 38183 2.63366114380285e-08 1.01016247146056e-08 2.73541035342324e-08 2.65646888400608e-07 1.62311911491554e-08 1.31164977016937e-07 7.26993072045794e-08 1.47842369715257e-07
"2528" 38184 2.63353294771813e-08 1.0105340179559e-08 2.73698196436134e-08 2.65647185239466e-07 1.62719373812968e-08 1.31466221537787e-07 7.27099632407975e-08 1.47833579582564e-07
"2529" 38185 2.6334047516334e-08 1.01090556445124e-08 2.73855357529944e-08 2.65647482078324e-07 1.63126836134382e-08 1.31767466058636e-07 7.27206192770157e-08 1.4782478944987e-07
