"time" "channel1" "channel2" "channel3" "channel4" "channel5" "channel6" "channel7" "channel8"
"1492" 52658 2.69516542831094e-08 6.08332965930732e-09 2.91270321191082e-09 1.04863275010423e-08 5.06052888974041e-08 7.34291560001738e-09 1.45997605480866e-09 6.89803667447669e-10
"1493" 52659 2.68934419995758e-08 6.06361629336738e-09 2.8842951973765e-09 1.06405045881954e-08 5.05765565225105e-08 7.24257646855656e-09 1.45413696446696e-09 6.79190070803625e-10
"1494" 52660 2.68352297160421e-08 6.04390292742744e-09 2.85588718284218e-09 1.07946816753485e-08 5.05478241476169e-08 7.14223733709574e-09 1.44829787412527e-09 6.68576474159581e-10
"1495" 52661 2.67770174325085e-08 6.0241895614875e-09 2.82747916830786e-09 1.09488587625015e-08 5.05190917727233e-08 7.04189820563493e-09 1.44245878378357e-09 6.57962877515537e-10
"1496" 52662 2.67188051489749e-08 6.00447619554757e-09 2.79907115377354e-09 1.11030358496546e-08 5.04903593978298e-08 6.94155907417411e-09 1.43661969344188e-09 6.47349280871493e-10
"1497" 52663 2.66605928654412e-08 5.98476282960763e-09 2.77066313923922e-09 1.12572129368077e-08 5.04616270229362e-08 6.84121994271329e-09 1.43078060310019e-09 6.3673568422745e-10
"1498" 52664 2.66023805819076e-08 5.96504946366769e-09 2.7422551247049e-09 1.14113900239608e-08 5.04328946480426e-08 6.74088081125247e-09 1.42494151275849e-09 6.26122087583406e-10
"1499" 52665 2.6544168298374e-08 5.94533609772775e-09 2.71384711017058e-09 1.15655671111138e-08 5.0404162273149e-08 6.64054167979166e-09 1.4191024224168e-09 6.15508490939362e-10
"1500" 52666 2.64859560148403e-08 5.92562273178782e-09 2.68543909563627e-09 1.17197441982669e-08 5.03754298982555e-08 6.54020254833084e-09 1.4132633320751e-09 6.04894894295318e-10
"1501" 52667 2.64277437313067e-08 5.90590936584788e-09 2.65703108110195e-09 1.187392128542e-08 5.03466975233619e-08 6.43986341687002e-09 1.40742424173341e-09 5.94281297651274e-10
"1502" 52668 2.6369531447773e-08 5.88619599990794e-09 2.62862306656763e-09 1.20280983725731e-08 5.03179651484683e-08 6.3395242854092e-09 1.40158515139172e-09 5.8366770100723e-10
"1503" 52669 2.67645768834113e-08 5.88619599990794e-09 2.58881683100153e-09 1.2050970179832e-08 5.02561957866252e-08 6.23850911582957e-09 1.39574606105002e-09 5.73963015771141e-10
"1504" 52670 2.67476046255106e-08 5.86535639905346e-09 2.58886383790676e-09 1.203915313967e-08 5.0236356751109e-08 6.23480745711988e-09 1.38762006410992e-09 5.7509571055958e-10
"1505" 52671 2.67306323676098e-08 5.84451679819898e-09 2.588910844812e-09 1.20273360995079e-08 5.02165177155928e-08 6.2311057984102e-09 1.37949406716982e-09 5.76228405348019e-10
"1506" 52672 2.67136601097091e-08 5.82367719734449e-09 2.58895785171723e-09 1.20155190593459e-08 5.01966786800766e-08 6.22740413970051e-09 1.37136807022972e-09 5.77361100136458e-10
"1507" 52673 2.66966878518084e-08 5.80283759649001e-09 2.58900485862246e-09 1.20037020191838e-08 5.01768396445604e-08 6.22370248099082e-09 1.36324207328962e-09 5.78493794924897e-10
"1508" 52674 2.66797155939076e-08 5.78199799563553e-09 2.58905186552769e-09 1.19918849790217e-08 5.01570006090442e-08 6.22000082228114e-09 1.35511607634951e-09 5.79626489713337e-10
"1509" 52675 2.66627433360069e-08 5.76115839478104e-09 2.58909887243292e-09 1.19800679388597e-08 5.0137161573528e-08 6.21629916357145e-09 1.34699007940941e-09 5.80759184501776e-10
"1510" 52676 2.66457710781062e-08 5.74031879392656e-09 2.58914587933815e-09 1.19682508986976e-08 5.01173225380118e-08 6.21259750486177e-09 1.33886408246931e-09 5.81891879290215e-10
"1511" 52677 2.66287988202054e-08 5.71947919307208e-09 2.58919288624339e-09 1.19564338585355e-08 5.00974835024956e-08 6.20889584615208e-09 1.33073808552921e-09 5.83024574078654e-10
"1512" 52678 2.66118265623047e-08 5.69863959221759e-09 2.58923989314862e-09 1.19446168183735e-08 5.00776444669794e-08 6.20519418744239e-09 1.32261208858911e-09 5.84157268867093e-10
"1513" 52679 2.6594854304404e-08 5.67779999136311e-09 2.58928690005385e-09 1.19327997782114e-08 5.00578054314632e-08 6.20149252873271e-09 1.31448609164901e-09 5.85289963655532e-10
"1514" 52680 2.65778820465032e-08 5.65696039050863e-09 2.58933390695908e-09 1.19209827380494e-08 5.0037966395947e-08 6.19779087002302e-09 1.30636009470891e-09 5.86422658443971e-10
"1515" 52681 2.65609097886025e-08 5.63612078965414e-09 2.58938091386431e-09 1.19091656978873e-08 5.00181273604308e-08 6.19408921131334e-09 1.2982340977688e-09 5.8755535323241e-10
"1516" 52682 2.65439375307018e-08 5.61528118879966e-09 2.58942792076955e-09 1.18973486577252e-08 4.99982883249146e-08 6.19038755260365e-09 1.2901081008287e-09 5.8868804802085e-10
"1517" 52683 2.6526965272801e-08 5.59444158794518e-09 2.58947492767478e-09 1.18855316175632e-08 4.99784492893984e-08 6.18668589389397e-09 1.2819821038886e-09 5.89820742809289e-10
"1518" 52684 2.65099930149003e-08 5.57360198709069e-09 2.58952193458001e-09 1.18737145774011e-08 4.99586102538822e-08 6.18298423518428e-09 1.2738561069485e-09 5.90953437597728e-10
"1519" 52685 2.64930207569996e-08 5.55276238623621e-09 2.58956894148524e-09 1.18618975372391e-08 4.9938771218366e-08 6.17928257647459e-09 1.2657301100084e-09 5.92086132386167e-10
"1520" 52686 2.64760484990988e-08 5.53192278538173e-09 2.58961594839047e-09 1.1850080497077e-08 4.99189321828499e-08 6.17558091776491e-09 1.2576041130683e-09 5.93218827174606e-10
"1521" 52687 2.64590762411981e-08 5.51108318452724e-09 2.5896629552957e-09 1.18382634569149e-08 4.98990931473337e-08 6.17187925905522e-09 1.24947811612819e-09 5.94351521963045e-10
"1522" 52688 2.64421039832974e-08 5.49024358367276e-09 2.58970996220094e-09 1.18264464167529e-08 4.98792541118175e-08 6.16817760034554e-09 1.24135211918809e-09 5.95484216751484e-10
"1523" 52689 2.64251317253967e-08 5.46940398281828e-09 2.58975696910617e-09 1.18146293765908e-08 4.98594150763013e-08 6.16447594163585e-09 1.23322612224799e-09 5.96616911539924e-10
"1524" 52690 2.64081594674959e-08 5.44856438196379e-09 2.5898039760114e-09 1.18028123364288e-08 4.98395760407851e-08 6.16077428292616e-09 1.22510012530789e-09 5.97749606328363e-10
"1525" 52691 2.63945219983204e-08 5.4399109160587e-09 2.59286700507249e-09 1.18031694172809e-08 4.98182705662207e-08 6.17662330145043e-09 1.21611653839339e-09 6.00196778186832e-10
"1526" 52692 2.63858867122326e-08 5.43857400820884e-09 2.59286700507249e-09 1.16206852501298e-08 4.98168041271726e-08 6.19086497939671e-09 1.21490614236657e-09 6.00378560468423e-10
"1527" 52693 2.63772514261448e-08 5.43723710035898e-09 2.59286700507249e-09 1.14382010829788e-08 4.98153376881244e-08 6.205106657343e-09 1.21369574633975e-09 6.00560342750014e-10
"1528" 52694 2.6368616140057e-08 5.43590019250912e-09 2.59286700507249e-09 1.12557169158278e-08 4.98138712490763e-08 6.21934833528928e-09 1.21248535031293e-09 6.00742125031605e-10
"1529" 52695 2.63599808539692e-08 5.43456328465926e-09 2.59286700507249e-09 1.10732327486768e-08 4.98124048100281e-08 6.23359001323557e-09 1.21127495428611e-09 6.00923907313195e-10
"1530" 52696 2.63513455678814e-08 5.4332263768094e-09 2.59286700507249e-09 1.08907485815257e-08 4.981093837098e-08 6.24783169118185e-09 1.21006455825929e-09 6.01105689594786e-10
"1531" 52697 2.63427102817936e-08 5.43188946895954e-09 2.59286700507249e-09 1.07082644143747e-08 4.98094719319318e-08 6.26207336912814e-09 1.20885416223247e-09 6.01287471876377e-10
"1532" 52698 2.63340749957058e-08 5.43055256110969e-09 2.59286700507249e-09 1.05257802472237e-08 4.98080054928837e-08 6.27631504707442e-09 1.20764376620565e-09 6.01469254157968e-10
"1533" 52699 2.6325439709618e-08 5.42921565325983e-09 2.59286700507249e-09 1.03432960800727e-08 4.98065390538355e-08 6.29055672502071e-09 1.20643337017883e-09 6.01651036439559e-10
"1534" 52700 2.63168044235302e-08 5.42787874540997e-09 2.59286700507249e-09 1.01608119129216e-08 4.98050726147874e-08 6.30479840296699e-09 1.20522297415201e-09 6.0183281872115e-10
"1535" 52701 2.63081691374424e-08 5.42654183756011e-09 2.59286700507249e-09 9.97832774577063e-09 4.98036061757392e-08 6.31904008091327e-09 1.20401257812519e-09 6.02014601002741e-10
"1536" 52702 2.62995338513547e-08 5.42520492971025e-09 2.59286700507249e-09 9.7958435786196e-09 4.98021397366911e-08 6.33328175885956e-09 1.20280218209837e-09 6.02196383284332e-10
"1537" 52703 2.62908985652669e-08 5.42386802186039e-09 2.59286700507249e-09 9.61335941146857e-09 4.98006732976429e-08 6.34752343680584e-09 1.20159178607155e-09 6.02378165565923e-10
"1538" 52704 2.60546204299536e-08 5.31523256096666e-09 2.55811881103631e-09 9.58867681335974e-09 4.96979681678436e-08 6.3570328479204e-09 1.17194040075437e-09 6.02559947847514e-10
"1539" 52705 2.58183422946403e-08 5.20659710007293e-09 2.52337061700013e-09 9.5639942152509e-09 4.95952630380442e-08 6.36654225903496e-09 1.14228901543719e-09 6.02741730129105e-10
"1540" 52706 2.5582064159327e-08 5.09796163917921e-09 2.48862242296396e-09 9.53931161714206e-09 4.94925579082448e-08 6.37605167014952e-09 1.11263763012002e-09 6.02923512410695e-10
"1541" 52707 2.53457860240137e-08 4.98932617828548e-09 2.45387422892778e-09 9.51462901903322e-09 4.93898527784455e-08 6.38556108126408e-09 1.08298624480284e-09 6.03105294692286e-10
"1542" 52708 2.51095078887004e-08 4.88069071739175e-09 2.4191260348916e-09 9.48994642092438e-09 4.92871476486461e-08 6.39507049237864e-09 1.05333485948567e-09 6.03287076973877e-10
"1543" 52709 2.48732297533871e-08 4.77205525649803e-09 2.38437784085542e-09 9.46526382281555e-09 4.91844425188467e-08 6.40457990349320e-09 1.02368347416849e-09 6.03468859255468e-10
"1544" 52710 2.46369516180738e-08 4.6634197956043e-09 2.34962964681925e-09 9.44058122470671e-09 4.90817373890474e-08 6.41408931460775e-09 9.94032088851317e-10 6.03650641537059e-10
"1545" 52711 2.44006734827604e-08 4.55478433471057e-09 2.31488145278307e-09 9.41589862659787e-09 4.8979032259248e-08 6.42359872572231e-09 9.64380703534142e-10 6.0383242381865e-10
"1546" 52712 2.43948632433439e-08 4.54942139190032e-09 2.31186543062721e-09 9.36017148753935e-09 4.89419239784922e-08 6.42957198756532e-09 9.61461158363295e-10 6.01567034241772e-10
"1547" 52713 2.43840508208395e-08 4.54129730193406e-09 2.31067730646573e-09 9.3562834857023e-09 4.89384923472787e-08 6.42957198756532e-09 9.62172801272908e-10 6.00886498842974e-10
"1548" 52714 2.43851974842113e-08 4.53853615477806e-09 2.30870579744952e-09 9.53350233915811e-09 4.93414088412914e-08 6.4713797193113e-09 9.62884444182521e-10 6.00341151998201e-10
"1549" 52715 2.43863441475832e-08 4.53577500762205e-09 2.30673428843331e-09 9.71072119261393e-09 4.97443253353041e-08 6.51318745105729e-09 9.63596087092134e-10 5.99795805153428e-10
"1550" 52716 2.4387490810955e-08 4.53301386046604e-09 2.3047627794171e-09 9.88794004606974e-09 5.01472418293168e-08 6.55499518280328e-09 9.64307730001747e-10 5.99250458308656e-10
"1551" 52717 2.43886374743269e-08 4.53025271331004e-09 2.30279127040088e-09 1.00651588995256e-08 5.05501583233295e-08 6.59680291454927e-09 9.6501937291136e-10 5.98705111463883e-10
"1552" 52718 2.43897841376987e-08 4.52749156615403e-09 2.30081976138467e-09 1.02423777529814e-08 5.09530748173422e-08 6.63861064629526e-09 9.65731015820973e-10 5.9815976461911e-10
"1553" 52719 2.43909308010705e-08 4.52473041899802e-09 2.29884825236846e-09 1.04195966064372e-08 5.13559913113549e-08 6.68041837804125e-09 9.66442658730586e-10 5.97614417774337e-10
"1554" 52720 2.43920774644424e-08 4.52196927184201e-09 2.29687674335225e-09 1.0596815459893e-08 5.17589078053676e-08 6.72222610978724e-09 9.67154301640199e-10 5.97069070929565e-10
"1555" 52721 2.43932241278142e-08 4.51920812468601e-09 2.29490523433604e-09 1.07740343133488e-08 5.21618242993803e-08 6.76403384153323e-09 9.67865944549812e-10 5.96523724084792e-10
"1556" 52722 2.43943707911861e-08 4.51644697753e-09 2.29293372531982e-09 1.09512531668046e-08 5.2564740793393e-08 6.80584157327922e-09 9.68577587459425e-10 5.95978377240019e-10
"1557" 52723 2.43955174545579e-08 4.51368583037399e-09 2.29096221630361e-09 1.11284720202604e-08 5.29676572874057e-08 6.84764930502521e-09 9.69289230369038e-10 5.95433030395247e-10
"1558" 52724 2.43966641179297e-08 4.51092468321799e-09 2.2889907072874e-09 1.13056908737163e-08 5.33705737814183e-08 6.8894570367712e-09 9.70000873278651e-10 5.94887683550474e-10
"1559" 52725 2.43978107813016e-08 4.50816353606198e-09 2.28701919827119e-09 1.14829097271721e-08 5.3773490275431e-08 6.93126476851719e-09 9.70712516188264e-10 5.94342336705701e-10
"1560" 52726 2.43873259769035e-08 4.5001114661412e-09 2.28507119270759e-09 1.15094768524527e-08 5.38289495243932e-08 6.91588140122251e-09 9.71424159097877e-10 5.94342336705701e-10
"1561" 52727 2.4388487292191e-08 4.45876627884657e-09 2.07526583514404e-09 1.09878603901832e-08 5.35560040960253e-08 6.89633072398856e-09 9.69994842473872e-10 5.95022872104499e-10
"1562" 52728 2.43894811354465e-08 4.45953241353375e-09 2.07148993158606e-09 1.1002151371349e-08 5.35394856025506e-08 6.86694916752445e-09 9.69848895409082e-10 5.91624787739182e-10
"1563" 52729 2.4390474978702e-08 4.46029854822093e-09 2.06771402802808e-09 1.10164423525149e-08 5.35229671090758e-08 6.83756761106035e-09 9.69702948344293e-10 5.88226703373864e-10
"1564" 52730 2.43914688219575e-08 4.4610646829081e-09 2.06393812447011e-09 1.10307333336807e-08 5.3506448615601e-08 6.80818605459624e-09 9.69557001279503e-10 5.84828619008547e-10
"1565" 52731 2.4392462665213e-08 4.46183081759528e-09 2.06016222091213e-09 1.10450243148466e-08 5.34899301221262e-08 6.77880449813214e-09 9.69411054214713e-10 5.81430534643229e-10
"1566" 52732 2.43934565084684e-08 4.46259695228246e-09 2.05638631735416e-09 1.10593152960124e-08 5.34734116286515e-08 6.74942294166803e-09 9.69265107149923e-10 5.78032450277912e-10
"1567" 52733 2.43944503517239e-08 4.46336308696964e-09 2.05261041379618e-09 1.10736062771783e-08 5.34568931351767e-08 6.72004138520393e-09 9.69119160085133e-10 5.74634365912595e-10
"1568" 52734 2.5453222634018e-08 5.11264238990714e-09 2.06887864873695e-09 1.11787015126439e-08 5.34483845118807e-08 6.74568818107072e-09 9.74465528114399e-10 5.86874817833613e-10
"1569" 52735 2.65119949163121e-08 5.76192169284463e-09 2.08514688367771e-09 1.12837967481094e-08 5.34398758885847e-08 6.77133497693751e-09 9.79811896143664e-10 5.99115269754631e-10
"1570" 52736 2.75707671986063e-08 6.41120099578212e-09 2.10141511861848e-09 1.1388891983575e-08 5.34313672652887e-08 6.7969817728043e-09 9.8515826417293e-10 6.11355721675648e-10
"1571" 52737 2.86295394809004e-08 7.06048029871962e-09 2.11768335355925e-09 1.14939872190406e-08 5.34228586419927e-08 6.8226285686711e-09 9.90504632202196e-10 6.23596173596666e-10
"1572" 52738 2.96883117631945e-08 7.70975960165711e-09 2.13395158850001e-09 1.15990824545062e-08 5.34143500186967e-08 6.84827536453789e-09 9.95851000231462e-10 6.35836625517684e-10
"1573" 52739 3.07470840454886e-08 8.35903890459461e-09 2.15021982344078e-09 1.17041776899718e-08 5.34058413954008e-08 6.87392216040468e-09 1.00119736826073e-09 6.48077077438702e-10
"1574" 52740 3.18058563277827e-08 9.0083182075321e-09 2.16648805838155e-09 1.18092729254374e-08 5.33973327721048e-08 6.89956895627148e-09 1.00654373628999e-09 6.6031752935972e-10
"1575" 52741 3.28646286100768e-08 9.6575975104696e-09 2.18275629332231e-09 1.19143681609029e-08 5.33888241488088e-08 6.92521575213827e-09 1.01189010431926e-09 6.72557981280738e-10
"1576" 52742 3.39234008923709e-08 1.03068768134071e-08 2.19902452826308e-09 1.20194633963685e-08 5.33803155255128e-08 6.95086254800506e-09 1.01723647234852e-09 6.84798433201756e-10
"1577" 52743 3.4982173174665e-08 1.09561561163446e-08 2.21529276320385e-09 1.21245586318341e-08 5.33718069022168e-08 6.97650934387186e-09 1.02258284037779e-09 6.97038885122774e-10
"1578" 52744 3.60409454569591e-08 1.16054354192821e-08 2.23156099814461e-09 1.22296538672997e-08 5.33632982789208e-08 7.00215613973865e-09 1.02792920840706e-09 7.09279337043792e-10
"1579" 52745 3.70997177392532e-08 1.22547147222196e-08 2.24782923308538e-09 1.23347491027653e-08 5.33547896556248e-08 7.02780293560544e-09 1.03327557643632e-09 7.2151978896481e-10
"1580" 52746 3.81584900215473e-08 1.29039940251571e-08 2.26409746802614e-09 1.24398443382308e-08 5.33462810323288e-08 7.05344973147224e-09 1.03862194446559e-09 7.33760240885828e-10
"1581" 52747 3.92172623038414e-08 1.35532733280946e-08 2.28036570296691e-09 1.25449395736964e-08 5.33377724090328e-08 7.07909652733903e-09 1.04396831249485e-09 7.46000692806845e-10
"1582" 52748 4.02760345861355e-08 1.42025526310321e-08 2.29663393790768e-09 1.2650034809162e-08 5.33292637857369e-08 7.10474332320582e-09 1.04931468052412e-09 7.58241144727863e-10
"1583" 52749 4.02803522291794e-08 1.42025166210093e-08 2.31223889556293e-09 1.26542288803009e-08 5.27530957940544e-08 7.04829446605922e-09 1.04931468052412e-09 7.62095981111494e-10
"1584" 52750 3.96877429764629e-08 1.41533867453639e-08 2.31019687618887e-09 1.26564477635532e-08 5.2746143070717e-08 7.06254791956898e-09 1.05223422569497e-09 7.61145068604646e-10
"1585" 52751 3.90951337237463e-08 1.41042568697184e-08 2.30815485681481e-09 1.26586666468054e-08 5.27391903473796e-08 7.07680137307875e-09 1.05515377086581e-09 7.60194156097798e-10
"1586" 52752 3.85025244710298e-08 1.4055126994073e-08 2.30611283744075e-09 1.26608855300577e-08 5.27322376240422e-08 7.09105482658852e-09 1.05807331603666e-09 7.59243243590949e-10
"1587" 52753 3.79099152183132e-08 1.40059971184276e-08 2.30407081806669e-09 1.266310441331e-08 5.27252849007047e-08 7.10530828009828e-09 1.06099286120751e-09 7.58292331084101e-10
"1588" 52754 3.73173059655967e-08 1.39568672427821e-08 2.30202879869263e-09 1.26653232965623e-08 5.27183321773673e-08 7.11956173360805e-09 1.06391240637835e-09 7.57341418577253e-10
"1589" 52755 3.67246967128801e-08 1.39077373671367e-08 2.29998677931857e-09 1.26675421798146e-08 5.27113794540299e-08 7.13381518711781e-09 1.0668319515492e-09 7.56390506070405e-10
"1590" 52756 3.61320874601636e-08 1.38586074914912e-08 2.29794475994451e-09 1.26697610630668e-08 5.27044267306924e-08 7.14806864062758e-09 1.06975149672005e-09 7.55439593563557e-10
"1591" 52757 3.55394782074471e-08 1.38094776158458e-08 2.29590274057045e-09 1.26719799463191e-08 5.2697474007355e-08 7.16232209413734e-09 1.07267104189089e-09 7.54488681056708e-10
"1592" 52758 3.49468689547305e-08 1.37603477402004e-08 2.29386072119639e-09 1.26741988295714e-08 5.26905212840176e-08 7.17657554764711e-09 1.07559058706174e-09 7.5353776854986e-10
"1593" 52759 3.4354259702014e-08 1.37112178645549e-08 2.29181870182233e-09 1.26764177128237e-08 5.26835685606802e-08 7.19082900115687e-09 1.07851013223259e-09 7.52586856043012e-10
"1594" 52760 3.37616504492974e-08 1.36620879889095e-08 2.28977668244827e-09 1.2678636596076e-08 5.26766158373427e-08 7.20508245466664e-09 1.08142967740344e-09 7.51635943536164e-10
"1595" 52761 3.31690411965809e-08 1.3612958113264e-08 2.28773466307421e-09 1.26808554793282e-08 5.26696631140053e-08 7.2193359081764e-09 1.08434922257428e-09 7.50685031029315e-10
"1596" 52762 3.25764319438643e-08 1.35638282376186e-08 2.28569264370015e-09 1.26830743625805e-08 5.26627103906679e-08 7.23358936168617e-09 1.08726876774513e-09 7.49734118522467e-10
"1597" 52763 3.19838226911478e-08 1.35146983619731e-08 2.28365062432609e-09 1.26852932458328e-08 5.26557576673305e-08 7.24784281519594e-09 1.09018831291598e-09 7.48783206015619e-10
"1598" 52764 3.13912134384313e-08 1.34655684863277e-08 2.28160860495203e-09 1.26875121290851e-08 5.2648804943993e-08 7.2620962687057e-09 1.09310785808682e-09 7.47832293508771e-10
"1599" 52765 3.07986041857147e-08 1.34164386106823e-08 2.27956658557797e-09 1.26897310123374e-08 5.26418522206556e-08 7.27634972221547e-09 1.09602740325767e-09 7.46881381001923e-10
"1600" 52766 3.02059949329982e-08 1.33673087350368e-08 2.27752456620391e-09 1.26919498955896e-08 5.26348994973182e-08 7.29060317572523e-09 1.09894694842852e-09 7.45930468495074e-10
"1601" 52767 2.96133856802816e-08 1.33181788593914e-08 2.27548254682985e-09 1.26941687788419e-08 5.26279467739808e-08 7.304856629235e-09 1.10186649359936e-09 7.44979555988226e-10
"1602" 52768 2.90207764275651e-08 1.32690489837459e-08 2.27344052745579e-09 1.26963876620942e-08 5.26209940506433e-08 7.31911008274476e-09 1.10478603877021e-09 7.44028643481378e-10
"1603" 52769 2.84432642735865e-08 1.32290046942784e-08 2.27139850808173e-09 1.28030103438795e-08 5.25741790902746e-08 7.31838916717484e-09 1.11582555007638e-09 7.44028643481378e-10
"1604" 52770 2.78657521196079e-08 1.31889604048109e-08 2.26935648870767e-09 1.29096330256647e-08 5.25273641299059e-08 7.31766825160491e-09 1.12686506138255e-09 7.44028643481378e-10
"1605" 52771 2.78941920362254e-08 1.32207365642212e-08 2.25144838339345e-09 1.31497996951786e-08 5.2427136381609e-08 7.31485301790328e-09 1.11582555007638e-09 7.40490777933363e-10
"1606" 52772 2.78685844922369e-08 1.32475612024822e-08 2.25954854083798e-09 1.3386149198988e-08 5.24215904567127e-08 7.28640276389834e-09 1.11261411077595e-09 7.40355589379338e-10
"1607" 52773 2.78429769482484e-08 1.32743858407432e-08 2.26764869828251e-09 1.36224987027974e-08 5.24160445318165e-08 7.2579525098934e-09 1.10940267147553e-09 7.40220400825313e-10
"1608" 52774 2.78173694042599e-08 1.33012104790041e-08 2.27574885572704e-09 1.38588482066067e-08 5.24104986069203e-08 7.22950225588845e-09 1.1061912321751e-09 7.40085212271288e-10
"1609" 52775 2.77917618602713e-08 1.33280351172651e-08 2.28384901317157e-09 1.40951977104161e-08 5.24049526820241e-08 7.20105200188351e-09 1.10297979287467e-09 7.39950023717263e-10
"1610" 52776 2.77661543162828e-08 1.33548597555261e-08 2.29194917061609e-09 1.43315472142255e-08 5.23994067571279e-08 7.17260174787857e-09 1.09976835357425e-09 7.39814835163237e-10
"1611" 52777 2.77405467722943e-08 1.3381684393787e-08 2.30004932806062e-09 1.45678967180349e-08 5.23938608322317e-08 7.14415149387362e-09 1.09655691427382e-09 7.39679646609212e-10
"1612" 52778 2.77149392283058e-08 1.3408509032048e-08 2.30814948550515e-09 1.48042462218443e-08 5.23883149073354e-08 7.11570123986868e-09 1.09334547497339e-09 7.39544458055187e-10
"1613" 52779 2.76893316843173e-08 1.3435333670309e-08 2.31624964294968e-09 1.50405957256536e-08 5.23827689824392e-08 7.08725098586374e-09 1.09013403567297e-09 7.39409269501162e-10
"1614" 52780 2.76637241403287e-08 1.34621583085699e-08 2.3243498003942e-09 1.5276945229463e-08 5.2377223057543e-08 7.0588007318588e-09 1.08692259637254e-09 7.39274080947137e-10
"1615" 52781 2.76381165963402e-08 1.34889829468309e-08 2.33244995783873e-09 1.55132947332724e-08 5.23716771326468e-08 7.03035047785385e-09 1.08371115707211e-09 7.39138892393112e-10
"1616" 52782 2.76125090523517e-08 1.35158075850919e-08 2.34055011528326e-09 1.57496442370818e-08 5.23661312077506e-08 7.00190022384891e-09 1.08049971777169e-09 7.39003703839086e-10
"1617" 52783 2.75742432305274e-08 1.35373106777664e-08 2.33677421172528e-09 1.57478730953964e-08 5.25297356664143e-08 6.98339193030048e-09 1.07664960909404e-09 7.39003703839086e-10
"1618" 52784 2.75359774087031e-08 1.3558813770441e-08 2.33299830816731e-09 1.5746101953711e-08 5.26933401250781e-08 6.96488363675205e-09 1.0727995004164e-09 7.39003703839086e-10
"1619" 52785 2.74819152961813e-08 1.35534922248546e-08 2.30843929785495e-09 1.56282857327531e-08 5.27306571479582e-08 6.98142046895861e-09 1.06432672822866e-09 7.39138892393112e-10
"1620" 52786 2.74942129891005e-08 1.35815664395091e-08 2.30870042613986e-09 1.55813717527676e-08 5.27995797832212e-08 6.95674985300209e-09 1.06461259155346e-09 7.38323168440289e-10
"1621" 52787 2.75065106820198e-08 1.36096406541637e-08 2.30896155442477e-09 1.55344577727821e-08 5.28685024184843e-08 6.93207923704557e-09 1.06489845487826e-09 7.37507444487466e-10
"1622" 52788 2.7518808374939e-08 1.36377148688182e-08 2.30922268270968e-09 1.54875437927966e-08 5.29374250537473e-08 6.90740862108904e-09 1.06518431820306e-09 7.36691720534642e-10
"1623" 52789 2.75311060678582e-08 1.36657890834727e-08 2.3094838109946e-09 1.54406298128111e-08 5.30063476890104e-08 6.88273800513252e-09 1.06547018152786e-09 7.35875996581819e-10
"1624" 52790 2.75434037607774e-08 1.36938632981273e-08 2.30974493927951e-09 1.53937158328256e-08 5.30752703242734e-08 6.85806738917599e-09 1.06575604485266e-09 7.35060272628996e-10
"1625" 52791 2.75557014536966e-08 1.37219375127818e-08 2.31000606756442e-09 1.53468018528401e-08 5.31441929595365e-08 6.83339677321947e-09 1.06604190817746e-09 7.34244548676173e-10
"1626" 52792 2.75991149527671e-08 1.37615496819765e-08 2.31102707725145e-09 1.53468018528401e-08 5.30846325964645e-08 6.79304264817681e-09 1.06839575750349e-09 7.34244548676173e-10
"1627" 52793 2.76425284518377e-08 1.38011618511711e-08 2.31204808693848e-09 1.53468018528401e-08 5.30250722333926e-08 6.75268852313415e-09 1.07074960682951e-09 7.34244548676173e-10
"1628" 52794 2.76859419509082e-08 1.38407740203658e-08 2.31306909662551e-09 1.53468018528401e-08 5.29655118703207e-08 6.71233439809149e-09 1.07310345615554e-09 7.34244548676173e-10
"1629" 52795 2.77293554499788e-08 1.38803861895605e-08 2.31409010631254e-09 1.53468018528401e-08 5.29059515072487e-08 6.67198027304883e-09 1.07545730548156e-09 7.34244548676173e-10
"1630" 52796 2.77727689490493e-08 1.39199983587551e-08 2.31511111599957e-09 1.53468018528401e-08 5.28463911441768e-08 6.63162614800618e-09 1.07781115480758e-09 7.34244548676173e-10
"1631" 52797 2.78161824481199e-08 1.39596105279498e-08 2.3161321256866e-09 1.53468018528401e-08 5.27868307811049e-08 6.59127202296352e-09 1.08016500413361e-09 7.34244548676173e-10
"1632" 52798 2.78595959471904e-08 1.39992226971445e-08 2.31715313537363e-09 1.53468018528401e-08 5.2727270418033e-08 6.55091789792086e-09 1.08251885345963e-09 7.34244548676173e-10
"1633" 52799 2.7903009446261e-08 1.40388348663391e-08 2.31817414506066e-09 1.53468018528401e-08 5.2667710054961e-08 6.5105637728782e-09 1.08487270278565e-09 7.34244548676173e-10
"1634" 52800 2.79464229453315e-08 1.40784470355338e-08 2.31919515474769e-09 1.53468018528401e-08 5.26081496918891e-08 6.47020964783554e-09 1.08722655211168e-09 7.34244548676173e-10
"1635" 52801 2.79898364444021e-08 1.41180592047285e-08 2.32021616443472e-09 1.53468018528401e-08 5.25485893288172e-08 6.42985552279288e-09 1.0895804014377e-09 7.34244548676173e-10
"1636" 52802 2.80332499434726e-08 1.41576713739231e-08 2.32123717412175e-09 1.53468018528401e-08 5.24890289657452e-08 6.38950139775022e-09 1.09193425076373e-09 7.34244548676173e-10
"1637" 52803 2.80766634425432e-08 1.41972835431178e-08 2.32225818380878e-09 1.53468018528401e-08 5.24294686026733e-08 6.34914727270757e-09 1.09428810008975e-09 7.34244548676173e-10
"1638" 52804 2.81200769416137e-08 1.42368957123124e-08 2.32327919349581e-09 1.53468018528401e-08 5.23699082396014e-08 6.30879314766491e-09 1.09664194941577e-09 7.34244548676173e-10
"1639" 52805 2.81634904406843e-08 1.42765078815071e-08 2.32430020318284e-09 1.53468018528401e-08 5.23103478765295e-08 6.26843902262225e-09 1.0989957987418e-09 7.34244548676173e-10
"1640" 52806 2.82069039397548e-08 1.43161200507018e-08 2.32532121286987e-09 1.53468018528401e-08 5.22507875134575e-08 6.22808489757959e-09 1.10134964806782e-09 7.34244548676173e-10
"1641" 52807 2.82025862967109e-08 1.43199660355485e-08 2.33161438546649e-09 1.52998878728545e-08 5.21459815261953e-08 6.18890556377296e-09 1.1077664958639e-09 7.3342882472335e-10
"1642" 52808 2.821023872848e-08 1.43489090277573e-08 2.33676903111301e-09 1.53592281314164e-08 5.1951681796787e-08 6.18146914446596e-09 1.1076935223315e-09 7.3184397054527e-10
"1643" 52809 2.821023872848e-08 1.43778520199661e-08 2.32689057288547e-09 1.54216119202317e-08 5.19680511887444e-08 6.17302344336107e-09 1.10377044012146e-09 7.3157359343722e-10
"1644" 52810 2.821023872848e-08 1.44067950121749e-08 2.31701211465793e-09 1.54839957090471e-08 5.19844205807018e-08 6.16457774225617e-09 1.09984735791142e-09 7.31303216329169e-10
"1645" 52811 2.821023872848e-08 1.44357380043838e-08 2.30713365643039e-09 1.55463794978624e-08 5.20007899726592e-08 6.15613204115128e-09 1.09592427570138e-09 7.31032839221119e-10
"1646" 52812 2.821023872848e-08 1.44646809965926e-08 2.29725519820285e-09 1.56087632866778e-08 5.20171593646166e-08 6.14768634004639e-09 1.09200119349134e-09 7.30762462113069e-10
"1647" 52813 2.821023872848e-08 1.44936239888014e-08 2.28737673997531e-09 1.56711470754932e-08 5.20335287565741e-08 6.13924063894150e-09 1.0880781112813e-09 7.30492085005018e-10
"1648" 52814 2.821023872848e-08 1.45225669810102e-08 2.27749828174778e-09 1.57335308643085e-08 5.20498981485315e-08 6.1307949378366e-09 1.08415502907126e-09 7.30221707896968e-10
"1649" 52815 2.821023872848e-08 1.4551509973219e-08 2.26761982352024e-09 1.57959146531239e-08 5.20662675404889e-08 6.12234923673171e-09 1.08023194686122e-09 7.29951330788918e-10
"1650" 52816 2.821023872848e-08 1.45804529654279e-08 2.2577413652927e-09 1.58582984419392e-08 5.20826369324463e-08 6.11390353562682e-09 1.07630886465118e-09 7.29680953680867e-10
"1651" 52817 2.821023872848e-08 1.46093959576367e-08 2.24786290706516e-09 1.59206822307546e-08 5.20990063244037e-08 6.10545783452192e-09 1.07238578244114e-09 7.29410576572817e-10
"1652" 52818 2.821023872848e-08 1.46383389498455e-08 2.23798444883762e-09 1.598306601957e-08 5.21153757163611e-08 6.09701213341703e-09 1.0684627002311e-09 7.29140199464767e-10
"1653" 52819 2.821023872848e-08 1.46672819420543e-08 2.22810599061008e-09 1.60454498083853e-08 5.21317451083186e-08 6.08856643231214e-09 1.06453961802106e-09 7.28869822356716e-10
"1654" 52820 2.821023872848e-08 1.46962249342631e-08 2.21822753238254e-09 1.61078335972007e-08 5.2148114500276e-08 6.08012073120725e-09 1.06061653581102e-09 7.28599445248666e-10
"1655" 52821 2.821023872848e-08 1.4725167926472e-08 2.208349074155e-09 1.6170217386016e-08 5.21644838922334e-08 6.07167503010235e-09 1.05669345360099e-09 7.28329068140616e-10
"1656" 52822 2.821023872848e-08 1.47541109186808e-08 2.19847061592746e-09 1.62326011748314e-08 5.21808532841908e-08 6.06322932899746e-09 1.05277037139095e-09 7.28058691032565e-10
"1657" 52823 2.821023872848e-08 1.47830539108896e-08 2.18859215769992e-09 1.62949849636468e-08 5.21972226761482e-08 6.05478362789257e-09 1.04884728918091e-09 7.27788313924515e-10
"1658" 52824 2.821023872848e-08 1.48119969030984e-08 2.17871369947238e-09 1.63573687524621e-08 5.22135920681056e-08 6.04633792678768e-09 1.04492420697087e-09 7.27517936816465e-10
"1659" 52825 2.821023872848e-08 1.48409398953072e-08 2.16883524124484e-09 1.64197525412775e-08 5.22299614600631e-08 6.03789222568278e-09 1.04100112476083e-09 7.27247559708414e-10
"1660" 52826 2.821023872848e-08 1.48698828875161e-08 2.1589567830173e-09 1.64821363300928e-08 5.22463308520205e-08 6.02944652457789e-09 1.03707804255079e-09 7.26977182600364e-10
"1661" 52827 2.821023872848e-08 1.48988258797249e-08 2.14907832478976e-09 1.65445201189082e-08 5.22627002439779e-08 6.021000823473e-09 1.03315496034075e-09 7.26706805492314e-10
"1662" 52828 2.82258712101244e-08 1.49018544084509e-08 2.14207227769625e-09 1.66151078283823e-08 5.22855236061555e-08 6.00859819931807e-09 1.02994352104032e-09 7.25891081539491e-10
"1663" 52829 2.82415036917688e-08 1.49048829371768e-08 2.13506623060274e-09 1.66856955378564e-08 5.23083469683332e-08 5.99619557516315e-09 1.02673208173989e-09 7.25075357586667e-10
"1664" 52830 2.82700891025448e-08 1.48971909674834e-08 2.11245522585397e-09 1.66925052222642e-08 5.23339622991316e-08 6.04406409885154e-09 1.03086805374234e-09 7.25210546140693e-10
"1665" 52831 2.82600847363693e-08 1.49093050823873e-08 2.11440323141757e-09 1.66459086739663e-08 5.21511450313245e-08 6.09079093319153e-09 1.03471816241998e-09 7.2439482218787e-10
"1666" 52832 2.82500803701938e-08 1.49214191972913e-08 2.11635123698117e-09 1.65993121256684e-08 5.19683277635174e-08 6.13751776753152e-09 1.03856827109763e-09 7.23579098235047e-10
"1667" 52833 2.82400760040182e-08 1.49335333121952e-08 2.11829924254476e-09 1.65527155773705e-08 5.17855104957104e-08 6.18424460187151e-09 1.04241837977527e-09 7.22763374282223e-10
"1668" 52834 2.82300716378427e-08 1.49456474270991e-08 2.12024724810836e-09 1.65061190290726e-08 5.16026932279033e-08 6.2309714362115e-09 1.04626848845292e-09 7.219476503294e-10
"1669" 52835 2.82200672716672e-08 1.4957761542003e-08 2.12219525367196e-09 1.64595224807748e-08 5.14198759600962e-08 6.27769827055149e-09 1.05011859713056e-09 7.21131926376577e-10
"1670" 52836 2.82100629054917e-08 1.49698756569069e-08 2.12414325923555e-09 1.64129259324769e-08 5.12370586922892e-08 6.32442510489148e-09 1.05396870580821e-09 7.20316202423754e-10
"1671" 52837 2.82000585393161e-08 1.49819897718108e-08 2.12609126479915e-09 1.6366329384179e-08 5.10542414244821e-08 6.37115193923147e-09 1.05781881448585e-09 7.19500478470931e-10
"1672" 52838 2.81900541731406e-08 1.49941038867147e-08 2.12803927036274e-09 1.63197328358811e-08 5.0871424156675e-08 6.41787877357146e-09 1.0616689231635e-09 7.18684754518108e-10
"1673" 52839 2.81800498069651e-08 1.50062180016187e-08 2.12998727592634e-09 1.62731362875832e-08 5.0688606888868e-08 6.46460560791146e-09 1.06551903184114e-09 7.17869030565285e-10
"1674" 52840 2.81700454407895e-08 1.50183321165226e-08 2.13193528148994e-09 1.62265397392853e-08 5.05057896210609e-08 6.51133244225145e-09 1.06936914051879e-09 7.17053306612462e-10
"1675" 52841 2.8160041074614e-08 1.50304462314265e-08 2.13388328705353e-09 1.61799431909874e-08 5.03229723532539e-08 6.55805927659144e-09 1.07321924919643e-09 7.16237582659639e-10
"1676" 52842 2.81500367084385e-08 1.50312483761364e-08 2.14948824470878e-09 1.61303229370182e-08 5.0134638980854e-08 6.55691758724304e-09 1.07385791857365e-09 7.21001330451224e-10
"1677" 52843 2.8140032342263e-08 1.50320505208463e-08 2.16509320236403e-09 1.60807026830491e-08 4.99463056084542e-08 6.55577589789464e-09 1.07449658795087e-09 7.2576507824281e-10
"1678" 52844 2.81004304071613e-08 1.4997389872801e-08 2.18069816001928e-09 1.60744115763408e-08 4.93111677640418e-08 6.55374778353818e-09 1.07435064088608e-09 7.31661520822834e-10
"1679" 52845 2.80608284720595e-08 1.49627292247557e-08 2.19630311767453e-09 1.60681204696325e-08 4.86760299196295e-08 6.55171966918173e-09 1.07420469382129e-09 7.37557963402858e-10
"1680" 52846 2.80212265369578e-08 1.49280685767103e-08 2.21190807532978e-09 1.60618293629242e-08 4.80408920752171e-08 6.54969155482528e-09 1.0740587467565e-09 7.43454405982883e-10
"1681" 52847 2.79816246018561e-08 1.4893407928665e-08 2.22751303298502e-09 1.60555382562159e-08 4.74057542308047e-08 6.54766344046882e-09 1.07391279969171e-09 7.49350848562907e-10
"1682" 52848 2.79420226667544e-08 1.48587472806197e-08 2.24311799064027e-09 1.60492471495076e-08 4.67706163863923e-08 6.54563532611237e-09 1.07376685262692e-09 7.55247291142931e-10
"1683" 52849 2.79024207316527e-08 1.48240866325743e-08 2.25872294829552e-09 1.60429560427993e-08 4.61354785419799e-08 6.54360721175591e-09 1.07362090556213e-09 7.61143733722956e-10
"1684" 52850 2.7862818796551e-08 1.4789425984529e-08 2.27432790595077e-09 1.6036664936091e-08 4.55003406975675e-08 6.54157909739946e-09 1.07347495849734e-09 7.6704017630298e-10
"1685" 52851 2.77933026633537e-08 1.47577938652096e-08 2.27508778735289e-09 1.61235074522317e-08 4.48968464778833e-08 6.53955098304301e-09 1.07654045073298e-09 7.69487348161449e-10
"1686" 52852 2.77237865301563e-08 1.47261617458903e-08 2.27584766875501e-09 1.62103499683725e-08 4.42933522581992e-08 6.53752286868655e-09 1.07960594296861e-09 7.71934520019918e-10
"1687" 52853 2.76542703969589e-08 1.46945296265709e-08 2.27660755015712e-09 1.62971924845132e-08 4.3689858038515e-08 6.5354947543301e-09 1.08267143520425e-09 7.74381691878388e-10
"1688" 52854 2.75847542637616e-08 1.46628975072516e-08 2.27736743155924e-09 1.6384035000654e-08 4.30863638188308e-08 6.53346663997364e-09 1.08573692743989e-09 7.76828863736857e-10
"1689" 52855 2.75152381305642e-08 1.46312653879322e-08 2.27812731296136e-09 1.64708775167947e-08 4.24828695991466e-08 6.53143852561719e-09 1.08880241967552e-09 7.79276035595326e-10
"1690" 52856 2.74457219973669e-08 1.45996332686129e-08 2.27888719436348e-09 1.65577200329355e-08 4.18793753794624e-08 6.52941041126074e-09 1.09186791191116e-09 7.81723207453795e-10
"1691" 52857 2.73762058641695e-08 1.45680011492935e-08 2.2796470757656e-09 1.66445625490762e-08 4.12758811597783e-08 6.52738229690428e-09 1.0949334041468e-09 7.84170379312264e-10
"1692" 52858 2.73066897309722e-08 1.45363690299742e-08 2.28040695716772e-09 1.6731405065217e-08 4.06723869400941e-08 6.52535418254783e-09 1.09799889638243e-09 7.86617551170733e-10
"1693" 52859 2.72371735977748e-08 1.45047369106548e-08 2.28116683856984e-09 1.68182475813577e-08 4.00688927204099e-08 6.52332606819137e-09 1.10106438861807e-09 7.89064723029203e-10
"1694" 52860 2.71676574645775e-08 1.44731047913355e-08 2.28192671997195e-09 1.69050900974984e-08 3.94653985007257e-08 6.52129795383492e-09 1.10412988085371e-09 7.91511894887672e-10
"1695" 52861 2.70981413313801e-08 1.44414726720161e-08 2.28268660137407e-09 1.69919326136392e-08 3.88619042810415e-08 6.51926983947847e-09 1.10719537308934e-09 7.93959066746141e-10
"1696" 52862 2.70286251981827e-08 1.44098405526968e-08 2.28344648277619e-09 1.70787751297799e-08 3.82584100613573e-08 6.51724172512201e-09 1.11026086532498e-09 7.9640623860461e-10
"1697" 52863 2.69591090649854e-08 1.43782084333774e-08 2.28420636417831e-09 1.71656176459207e-08 3.76549158416732e-08 6.51521361076556e-09 1.11332635756062e-09 7.98853410463079e-10
"1698" 52864 2.6889592931788e-08 1.4346576314058e-08 2.28496624558043e-09 1.72524601620614e-08 3.7051421621989e-08 6.5131854964091e-09 1.11639184979625e-09 8.01300582321548e-10
"1699" 52865 2.68950865420352e-08 1.43494608026931e-08 2.28890926361285e-09 1.72795458650415e-08 3.72128550942268e-08 6.5470889328157e-09 1.11225587779381e-09 8.01482364603139e-10
"1700" 52866 2.6894922732982e-08 1.43524893314191e-08 2.28890926361285e-09 1.73066315680216e-08 3.7475744191382e-08 6.57016398375772e-09 1.11047375511739e-09 8.0805474995329e-10
"1701" 52867 2.69073842349544e-08 1.43577802541838e-08 2.28988326639465e-09 1.73460217018951e-08 3.74772106304301e-08 6.56934376252492e-09 1.10662364643974e-09 8.12315151998996e-10
"1702" 52868 2.69198457369267e-08 1.43630711769486e-08 2.29085726917645e-09 1.73854118357687e-08 3.74786770694783e-08 6.56852354129212e-09 1.1027735377621e-09 8.16575554044702e-10
"1703" 52869 2.6932307238899e-08 1.43683620997134e-08 2.29183127195825e-09 1.74248019696422e-08 3.74801435085264e-08 6.56770332005932e-09 1.09892342908445e-09 8.20835956090408e-10
"1704" 52870 2.69447687408713e-08 1.43736530224782e-08 2.29280527474004e-09 1.74641921035157e-08 3.74816099475746e-08 6.56688309882651e-09 1.09507332040681e-09 8.25096358136114e-10
"1705" 52871 2.69572302428437e-08 1.43789439452429e-08 2.29377927752184e-09 1.75035822373893e-08 3.74830763866227e-08 6.56606287759371e-09 1.09122321172916e-09 8.29356760181821e-10
"1706" 52872 2.6969691744816e-08 1.43842348680077e-08 2.29475328030364e-09 1.75429723712628e-08 3.74845428256709e-08 6.56524265636091e-09 1.08737310305152e-09 8.33617162227527e-10
"1707" 52873 2.69821532467883e-08 1.43895257907725e-08 2.29572728308544e-09 1.75823625051363e-08 3.7486009264719e-08 6.5644224351281e-09 1.08352299437387e-09 8.37877564273233e-10
"1708" 52874 2.69946147487607e-08 1.43948167135373e-08 2.29670128586724e-09 1.76217526390099e-08 3.74874757037672e-08 6.5636022138953e-09 1.07967288569623e-09 8.42137966318939e-10
"1709" 52875 2.7007076250733e-08 1.44001076363021e-08 2.29767528864903e-09 1.76611427728834e-08 3.74889421428153e-08 6.5627819926625e-09 1.07582277701858e-09 8.46398368364645e-10
"1710" 52876 2.70195377527053e-08 1.44053985590668e-08 2.29864929143083e-09 1.7700532906757e-08 3.74904085818635e-08 6.56196177142969e-09 1.07197266834094e-09 8.50658770410351e-10
"1711" 52877 2.70319992546776e-08 1.44106894818316e-08 2.29962329421263e-09 1.77399230406305e-08 3.74918750209116e-08 6.56114155019689e-09 1.06812255966329e-09 8.54919172456058e-10
"1712" 52878 2.704446075665e-08 1.44159804045964e-08 2.30059729699443e-09 1.7779313174504e-08 3.74933414599598e-08 6.56032132896409e-09 1.06427245098565e-09 8.59179574501764e-10
"1713" 52879 2.70569222586223e-08 1.44212713273612e-08 2.30157129977623e-09 1.78187033083776e-08 3.74948078990079e-08 6.55950110773129e-09 1.06042234230801e-09 8.6343997654747e-10
"1714" 52880 2.70693837605946e-08 1.4426562250126e-08 2.30254530255802e-09 1.78580934422511e-08 3.74962743380561e-08 6.55868088649848e-09 1.05657223363036e-09 8.67700378593176e-10
"1715" 52881 2.70818452625669e-08 1.44318531728907e-08 2.30351930533982e-09 1.78974835761246e-08 3.74977407771042e-08 6.55786066526568e-09 1.05272212495272e-09 8.71960780638882e-10
"1716" 52882 2.70943067645393e-08 1.44371440956555e-08 2.30449330812162e-09 1.79368737099982e-08 3.74992072161524e-08 6.55704044403288e-09 1.04887201627507e-09 8.76221182684589e-10
"1717" 52883 2.71067682665116e-08 1.44424350184203e-08 2.30546731090342e-09 1.79762638438717e-08 3.75006736552005e-08 6.55622022280007e-09 1.04502190759743e-09 8.80481584730295e-10
"1718" 52884 2.71192297684839e-08 1.44477259411851e-08 2.30644131368522e-09 1.80156539777453e-08 3.75021400942487e-08 6.55540000156727e-09 1.04117179891978e-09 8.84741986776001e-10
"1719" 52885 2.70203274941395e-08 1.44336888338578e-08 2.30513567226066e-09 1.79199216660202e-08 3.72567073561958e-08 6.52633991321876e-09 1.04053312954256e-09 8.85282740992102e-10
"1720" 52886 2.69142239224172e-08 1.44100367644138e-08 2.30587205021016e-09 1.79643503426161e-08 3.72522782187478e-08 6.51127801403967e-09 1.04060610307496e-09 8.85823495208202e-10
"1721" 52887 2.67978176702446e-08 1.43810217521595e-08 2.30791406958422e-09 1.79666202374187e-08 3.72449460235071e-08 6.52011138703542e-09 1.04060610307496e-09 8.82285629660188e-10
"1722" 52888 2.66814114180719e-08 1.43520067399052e-08 2.30995608895828e-09 1.79688901322213e-08 3.72376138282663e-08 6.52894476003116e-09 1.04060610307496e-09 8.78747764112173e-10
"1723" 52889 2.65650051658993e-08 1.43229917276509e-08 2.31199810833234e-09 1.79711600270238e-08 3.72302816330256e-08 6.5377781330269e-09 1.04060610307496e-09 8.75209898564158e-10
"1724" 52890 2.64485989137266e-08 1.42939767153966e-08 2.3140401277064e-09 1.79734299218264e-08 3.72229494377848e-08 6.54661150602264e-09 1.04060610307496e-09 8.71672033016144e-10
"1725" 52891 2.63321926615539e-08 1.42649617031423e-08 2.31608214708046e-09 1.7975699816629e-08 3.72156172425441e-08 6.55544487901838e-09 1.04060610307496e-09 8.68134167468129e-10
"1726" 52892 2.62157864093813e-08 1.4235946690888e-08 2.31812416645452e-09 1.79779697114316e-08 3.72082850473033e-08 6.56427825201412e-09 1.04060610307496e-09 8.64596301920115e-10
"1727" 52893 2.60993801572086e-08 1.42069316786337e-08 2.32016618582858e-09 1.79802396062342e-08 3.72009528520626e-08 6.57311162500986e-09 1.04060610307496e-09 8.610584363721e-10
"1728" 52894 2.5982973905036e-08 1.41779166663794e-08 2.32220820520264e-09 1.79825095010368e-08 3.71936206568218e-08 6.5819449980056e-09 1.04060610307496e-09 8.57520570824085e-10
"1729" 52895 2.59118086923706e-08 1.41489016541251e-08 2.32197058037034e-09 1.79941735065479e-08 3.71868468553052e-08 6.56770332005932e-09 1.04131774598457e-09 8.65547214426963e-10
"1730" 52896 2.58406434797053e-08 1.41198866418708e-08 2.32173295553805e-09 1.80058375120591e-08 3.71800730537886e-08 6.55346164211303e-09 1.04202938889418e-09 8.7357385802984e-10
"1731" 52897 2.576947826704e-08 1.40908716296165e-08 2.32149533070575e-09 1.80175015175702e-08 3.7173299252272e-08 6.53921996416675e-09 1.0427410318038e-09 8.81600501632718e-10
"1732" 52898 2.56983130543747e-08 1.40618566173622e-08 2.32125770587346e-09 1.80291655230814e-08 3.71665254507554e-08 6.52497828622046e-09 1.04345267471341e-09 8.89627145235595e-10
"1733" 52899 2.56271478417093e-08 1.40328416051079e-08 2.32102008104116e-09 1.80408295285925e-08 3.71597516492388e-08 6.51073660827418e-09 1.04416431762302e-09 8.97653788838473e-10
"1734" 52900 2.55734902698512e-08 1.40086853953456e-08 2.32078245620887e-09 1.80563106998082e-08 3.71496274853773e-08 6.51170101262097e-09 1.04487596053264e-09 8.96707468960297e-10
"1735" 52901 2.56557295895065e-08 1.40652452463156e-08 2.32353735007981e-09 1.81097169325138e-08 3.73366815325916e-08 6.51969283805976e-09 1.04893895900269e-09 9.09218297989365e-10
"1736" 52902 2.57379689091618e-08 1.41218050972856e-08 2.32629224395076e-09 1.81631231652195e-08 3.75237355798059e-08 6.52768466349855e-09 1.05300195747274e-09 9.21729127018433e-10
"1737" 52903 2.58202082288171e-08 1.41783649482556e-08 2.32904713782171e-09 1.82165293979251e-08 3.77107896270202e-08 6.53567648893734e-09 1.05706495594279e-09 9.34239956047501e-10
"1738" 52904 2.59024475484724e-08 1.42349247992256e-08 2.33180203169265e-09 1.82699356306307e-08 3.78978436742345e-08 6.54366831437614e-09 1.06112795441284e-09 9.4675078507657e-10
"1739" 52905 2.59846868681277e-08 1.42914846501956e-08 2.3345569255636e-09 1.83233418633364e-08 3.80848977214488e-08 6.55166013981493e-09 1.06519095288289e-09 9.59261614105638e-10
"1740" 52906 2.6066926187783e-08 1.43480445011656e-08 2.33731181943454e-09 1.8376748096042e-08 3.82719517686631e-08 6.55965196525372e-09 1.06925395135294e-09 9.71772443134706e-10
"1741" 52907 2.61491655074383e-08 1.44046043521355e-08 2.34006671330549e-09 1.84301543287476e-08 3.84590058158774e-08 6.56764379069251e-09 1.07331694982299e-09 9.84283272163774e-10
"1742" 52908 2.62314048270936e-08 1.44611642031055e-08 2.34282160717644e-09 1.84835605614533e-08 3.86460598630917e-08 6.57563561613131e-09 1.07737994829304e-09 9.96794101192843e-10
"1743" 52909 2.63136441467489e-08 1.45177240540755e-08 2.34557650104738e-09 1.85369667941589e-08 3.88331139103059e-08 6.5836274415701e-09 1.08144294676309e-09 1.00930493022191e-09
"1744" 52910 2.63958834664042e-08 1.45742839050455e-08 2.34833139491833e-09 1.85903730268645e-08 3.90201679575202e-08 6.59161926700889e-09 1.08550594523314e-09 1.02181575925098e-09
"1745" 52911 2.64781227860595e-08 1.46308437560155e-08 2.35108628878928e-09 1.86437792595702e-08 3.92072220047345e-08 6.59961109244769e-09 1.08956894370319e-09 1.03432658828005e-09
"1746" 52912 2.65603621057148e-08 1.46874036069855e-08 2.35384118266022e-09 1.86971854922758e-08 3.93942760519488e-08 6.60760291788648e-09 1.09363194217325e-09 1.04683741730912e-09
"1747" 52913 2.66426014253701e-08 1.47439634579555e-08 2.35659607653117e-09 1.87505917249814e-08 3.95813300991631e-08 6.61559474332527e-09 1.0976949406433e-09 1.05934824633818e-09
"1748" 52914 2.67248407450254e-08 1.48005233089255e-08 2.35935097040211e-09 1.88039979576871e-08 3.97683841463774e-08 6.62358656876406e-09 1.10175793911335e-09 1.07185907536725e-09
"1749" 52915 2.68070800646807e-08 1.48570831598955e-08 2.36210586427306e-09 1.88574041903927e-08 3.99554381935917e-08 6.63157839420286e-09 1.1058209375834e-09 1.08436990439632e-09
"1750" 52916 2.67187787850615e-08 1.4842300616493e-08 2.36486075814401e-09 1.89043181703782e-08 4.00013995050653e-08 6.6232106724367e-09 1.10439162095939e-09 1.08436990439632e-09
"1751" 52917 2.66328001360174e-08 1.48286749308266e-08 2.35954158832918e-09 1.90114367050913e-08 3.99526789931381e-08 6.61669378002538e-09 1.10417270036221e-09 1.08622972831112e-09
"1752" 52918 2.65468214869733e-08 1.48150492451603e-08 2.35422241851435e-09 1.91185552398044e-08 3.9903958481211e-08 6.61017688761406e-09 1.10395377976502e-09 1.08808955222593e-09
"1753" 52919 2.64608428379292e-08 1.48014235594939e-08 2.34890324869952e-09 1.92256737745175e-08 3.98552379692839e-08 6.60365999520275e-09 1.10373485916784e-09 1.08994937614073e-09
"1754" 52920 2.63748641888851e-08 1.47877978738276e-08 2.34358407888469e-09 1.93327923092305e-08 3.98065174573568e-08 6.59714310279143e-09 1.10351593857065e-09 1.09180920005553e-09
"1755" 52921 2.62888855398409e-08 1.47741721881612e-08 2.33826490906986e-09 1.94399108439436e-08 3.97577969454296e-08 6.59062621038011e-09 1.10329701797347e-09 1.09366902397033e-09
"1756" 52922 2.62893769670003e-08 1.47702181732463e-08 2.33529589381924e-09 1.95491264142261e-08 3.9735203953638e-08 6.58837593357094e-09 1.10450741400029e-09 1.09484831248634e-09
"1757" 52923 2.6288204662776e-08 1.47660841082177e-08 2.33399025239468e-09 1.96585658552921e-08 3.97237110036805e-08 6.56474547649712e-09 1.10571781002711e-09 1.09670813640114e-09
"1758" 52924 2.6477760151146e-08 1.4815599319711e-08 2.33565362622075e-09 1.97578063632305e-08 3.97862855137174e-08 6.53940837318244e-09 1.1058637570919e-09 1.09856796031594e-09
"1759" 52925 2.65151776238733e-08 1.48102363769008e-08 2.35367924879805e-09 1.97669369539911e-08 3.98244375050947e-08 6.5146031248726e-09 1.10707415311872e-09 1.09924849571474e-09
"1760" 52926 2.65525950966006e-08 1.48048734340905e-08 2.37170487137535e-09 1.97760675447517e-08 3.9862589496472e-08 6.48979787656275e-09 1.10828454914554e-09 1.09992903111354e-09
"1761" 52927 2.65900125693279e-08 1.47995104912803e-08 2.38973049395265e-09 1.97851981355124e-08 3.99007414878493e-08 6.46499262825291e-09 1.10949494517236e-09 1.10060956651234e-09
"1762" 52928 2.66274300420552e-08 1.479414754847e-08 2.40775611652995e-09 1.9794328726273e-08 3.99388934792266e-08 6.44018737994306e-09 1.11070534119918e-09 1.10129010191114e-09
"1763" 52929 2.66648475147825e-08 1.47887846056598e-08 2.42578173910724e-09 1.98034593170336e-08 3.99770454706039e-08 6.41538213163322e-09 1.111915737226e-09 1.10197063730993e-09
"1764" 52930 2.67022649875098e-08 1.47834216628495e-08 2.44380736168454e-09 1.98125899077943e-08 4.00151974619812e-08 6.39057688332337e-09 1.11312613325282e-09 1.10265117270873e-09
"1765" 52931 2.67396824602371e-08 1.47780587200393e-08 2.46183298426184e-09 1.98217204985549e-08 4.00533494533585e-08 6.36577163501353e-09 1.11433652927964e-09 1.10333170810753e-09
"1766" 52932 2.67770999329644e-08 1.4772695777229e-08 2.47985860683914e-09 1.98308510893155e-08 4.00915014447358e-08 6.34096638670368e-09 1.11554692530646e-09 1.10401224350633e-09
"1767" 52933 2.68145174056917e-08 1.47673328344188e-08 2.49788422941644e-09 1.98399816800762e-08 4.01296534361131e-08 6.31616113839384e-09 1.11675732133328e-09 1.10469277890513e-09
"1768" 52934 2.6851934878419e-08 1.47619698916085e-08 2.51590985199374e-09 1.98491122708368e-08 4.01678054274904e-08 6.29135589008399e-09 1.1179677173601e-09 1.10537331430392e-09
"1769" 52935 2.68893523511463e-08 1.47566069487983e-08 2.53393547457104e-09 1.98582428615974e-08 4.02059574188677e-08 6.26655064177415e-09 1.11917811338692e-09 1.10605384970272e-09
"1770" 52936 2.69267698238736e-08 1.4751244005988e-08 2.55196109714834e-09 1.98673734523581e-08 4.0244109410245e-08 6.2417453934643e-09 1.12038850941374e-09 1.10673438510152e-09
"1771" 52937 2.69641872966009e-08 1.47458810631778e-08 2.56998671972564e-09 1.98765040431187e-08 4.02822614016223e-08 6.21694014515446e-09 1.12159890544056e-09 1.10741492050032e-09
"1772" 52938 2.70016047693282e-08 1.47405181203675e-08 2.58801234230294e-09 1.98856346338793e-08 4.03204133929996e-08 6.19213489684461e-09 1.12280930146738e-09 1.10809545589911e-09
"1773" 52939 2.70390222420555e-08 1.47351551775573e-08 2.60603796488023e-09 1.989476522464e-08 4.03585653843769e-08 6.16732964853477e-09 1.1240196974942e-09 1.10877599129791e-09
"1774" 52940 2.70764397147828e-08 1.4729792234747e-08 2.62406358745753e-09 1.99038958154006e-08 4.03967173757542e-08 6.14252440022492e-09 1.12523009352102e-09 1.10945652669671e-09
"1775" 52941 2.711385718751e-08 1.47244292919368e-08 2.64208921003483e-09 1.99130264061612e-08 4.04348693671315e-08 6.11771915191507e-09 1.12644048954784e-09 1.11013706209551e-09
"1776" 52942 2.71512746602373e-08 1.47190663491265e-08 2.66011483261213e-09 1.99221569969219e-08 4.04730213585088e-08 6.09291390360523e-09 1.12765088557466e-09 1.11081759749431e-09
"1777" 52943 2.71915208426148e-08 1.46896552266221e-08 2.68042009939579e-09 1.9931063716899e-08 4.05319122386845e-08 6.05255977856257e-09 1.12336896650742e-09 1.11136294433908e-09
"1778" 52944 2.72267758308412e-08 1.46866987179416e-08 2.66495616245623e-09 1.99313697862009e-08 4.05740162426541e-08 6.05255977856257e-09 1.12521803191146e-09 1.109778090161e-09
"1779" 52945 2.72620308190676e-08 1.46837422092611e-08 2.64949222551668e-09 1.99316758555027e-08 4.06161202466238e-08 6.05255977856257e-09 1.1270670973155e-09 1.10819323598292e-09
"1780" 52946 2.72911332978555e-08 1.46808577206261e-08 2.62277108826104e-09 2.00793493275498e-08 4.06747427440683e-08 6.05170645544214e-09 1.1270670973155e-09 1.10574606412445e-09
"1781" 52947 2.73202357766434e-08 1.4677973231991e-08 2.59604995100541e-09 2.02270227995969e-08 4.07333652415127e-08 6.05085313232171e-09 1.1270670973155e-09 1.10329889226598e-09
"1782" 52948 2.73228970142615e-08 1.46740552270988e-08 2.56130175696923e-09 2.02907017017521e-08 4.07429011913466e-08 6.05202792355774e-09 1.12785171375751e-09 1.10116869124313e-09
"1783" 52949 2.73255582518796e-08 1.46701372222067e-08 2.52655356293305e-09 2.03543806039073e-08 4.07524371411805e-08 6.05320271479376e-09 1.12863633019952e-09 1.09903849022027e-09
"1784" 52950 2.73282194894976e-08 1.46662192173145e-08 2.49180536889688e-09 2.04180595060624e-08 4.07619730910144e-08 6.05437750602979e-09 1.12942094664152e-09 1.09690828919742e-09
"1785" 52951 2.73308807271157e-08 1.46623012124223e-08 2.4570571748607e-09 2.04817384082176e-08 4.07715090408482e-08 6.05555229726581e-09 1.13020556308353e-09 1.09477808817457e-09
"1786" 52952 2.73335419647338e-08 1.46583832075301e-08 2.42230898082452e-09 2.05454173103727e-08 4.07810449906821e-08 6.05672708850184e-09 1.13099017952554e-09 1.09264788715171e-09
"1787" 52953 2.73362032023519e-08 1.46544652026379e-08 2.38756078678834e-09 2.06090962125279e-08 4.0790580940516e-08 6.05790187973786e-09 1.13177479596755e-09 1.09051768612886e-09
"1788" 52954 2.73388644399699e-08 1.46505471977458e-08 2.35281259275217e-09 2.06727751146831e-08 4.08001168903499e-08 6.05907667097389e-09 1.13255941240956e-09 1.08838748510601e-09
"1789" 52955 2.7341525677588e-08 1.46466291928536e-08 2.31806439871599e-09 2.07364540168382e-08 4.08096528401837e-08 6.06025146220991e-09 1.13334402885156e-09 1.08625728408316e-09
"1790" 52956 2.70589477508897e-08 1.45562621599817e-08 2.22883718794731e-09 2.07194171125242e-08 4.00983742023034e-08 6.04143125130655e-09 1.12245046461018e-09 1.08000186956862e-09
"1791" 52957 2.69939716774522e-08 1.45499377209598e-08 2.22757855342798e-09 2.07855585932973e-08 3.98453192580168e-08 5.99559084197462e-09 1.12330805458459e-09 1.08000186956862e-09
"1792" 52958 2.69289956040146e-08 1.45436132819379e-08 2.22631991890866e-09 2.08517000740705e-08 3.95922643137302e-08 5.94975043264268e-09 1.12416564455899e-09 1.08000186956862e-09
"1793" 52959 2.68580235042338e-08 1.45375202144632e-08 2.23294732045418e-09 2.08456130135634e-08 3.94273179414103e-08 5.90273523207472e-09 1.12608768349542e-09 1.0817265049294e-09
"1794" 52960 2.6787051404453e-08 1.45314271469885e-08 2.2395747219997e-09 2.08395259530563e-08 3.92623715690903e-08 5.85572003150676e-09 1.12800972243186e-09 1.08345114029018e-09
"1795" 52961 2.67160793046721e-08 1.45253340795138e-08 2.24620212354523e-09 2.08334388925492e-08 3.90974251967704e-08 5.8087048309388e-09 1.12993176136829e-09 1.08517577565095e-09
"1796" 52962 2.66451072048913e-08 1.45192410120391e-08 2.25282952509075e-09 2.08273518320421e-08 3.89324788244504e-08 5.76168963037084e-09 1.13185380030472e-09 1.08690041101173e-09
"1797" 52963 2.65741351051105e-08 1.45131479445644e-08 2.25945692663627e-09 2.0821264771535e-08 3.87675324521304e-08 5.71467442980288e-09 1.13377583924115e-09 1.08862504637251e-09
"1798" 52964 2.65031630053297e-08 1.45070548770897e-08 2.26608432818179e-09 2.08151777110279e-08 3.86025860798105e-08 5.66765922923492e-09 1.13569787817759e-09 1.09034968173329e-09
"1799" 52965 2.64321909055489e-08 1.4500961809615e-08 2.27271172972732e-09 2.08090906505209e-08 3.84376397074905e-08 5.62064402866696e-09 1.13761991711402e-09 1.09207431709406e-09
"1800" 52966 2.63612188057681e-08 1.44948687421403e-08 2.27933913127284e-09 2.08030035900138e-08 3.82726933351706e-08 5.573628828099e-09 1.13954195605045e-09 1.09379895245484e-09
"1801" 52967 2.62902467059872e-08 1.44887756746656e-08 2.28596653281836e-09 2.07969165295067e-08 3.81077469628506e-08 5.52661362753104e-09 1.14146399498689e-09 1.09552358781562e-09
"1802" 52968 2.62192746062064e-08 1.44826826071909e-08 2.29259393436388e-09 2.07908294689996e-08 3.79428005905307e-08 5.47959842696308e-09 1.14338603392332e-09 1.0972482231764e-09
"1803" 52969 2.61483025064256e-08 1.44765895397162e-08 2.29922133590941e-09 2.07847424084925e-08 3.77778542182107e-08 5.43258322639512e-09 1.14530807285975e-09 1.09897285853717e-09
"1804" 52970 2.60773304066448e-08 1.44704964722415e-08 2.30584873745493e-09 2.07786553479854e-08 3.76129078458908e-08 5.38556802582716e-09 1.14723011179619e-09 1.10069749389795e-09
"1805" 52971 2.6006358306864e-08 1.44644034047668e-08 2.31247613900045e-09 2.07725682874783e-08 3.74479614735708e-08 5.3385528252592e-09 1.14915215073262e-09 1.10242212925873e-09
"1806" 52972 2.59353862070831e-08 1.44583103372921e-08 2.31910354054598e-09 2.07664812269712e-08 3.72830151012508e-08 5.29153762469124e-09 1.15107418966905e-09 1.10414676461951e-09
"1807" 52973 2.58644141073023e-08 1.44522172698174e-08 2.3257309420915e-09 2.07603941664642e-08 3.71180687289309e-08 5.24452242412327e-09 1.15299622860548e-09 1.10587139998029e-09
"1808" 52974 2.57921132202019e-08 1.4481586995098e-08 2.32371242617006e-09 2.07744612768466e-08 3.68599964331688e-08 5.19697536855048e-09 1.15385381857989e-09 1.10587139998029e-09
"1809" 52975 2.57198123331015e-08 1.45109567203786e-08 2.32169391024861e-09 2.0788528387229e-08 3.66019241374067e-08 5.14942831297769e-09 1.15471140855429e-09 1.10587139998029e-09
"1810" 52976 2.56475114460011e-08 1.45403264456591e-08 2.31967539432717e-09 2.08025954976114e-08 3.63438518416446e-08 5.10188125740490e-09 1.15556899852869e-09 1.10587139998029e-09
"1811" 52977 2.56137453911685e-08 1.45512630042149e-08 2.31969889777978e-09 2.06916909841618e-08 3.63661250021398e-08 5.10220272552049e-09 1.1563536149707e-09 1.10600658853431e-09
"1812" 52978 2.55799793363358e-08 1.45621995627707e-08 2.3197224012324e-09 2.05807864707123e-08 3.63883981626351e-08 5.10252419363609e-09 1.15713823141271e-09 1.10614177708834e-09
"1813" 52979 2.55159897801959e-08 1.45858003107812e-08 2.31604051148489e-09 2.05116751960075e-08 3.64038080607034e-08 5.09856727058606e-09 1.15215673104542e-09 1.10559643024356e-09
"1814" 52980 2.5452000224056e-08 1.46094010587917e-08 2.31235862173737e-09 2.04425639213028e-08 3.64192179587717e-08 5.09461034753603e-09 1.14717523067813e-09 1.10505108339879e-09
"1815" 52981 2.53880106679161e-08 1.46330018068022e-08 2.30867673198986e-09 2.03734526465981e-08 3.643462785684e-08 5.090653424486e-09 1.14219373031084e-09 1.10450573655402e-09
"1816" 52982 2.53240211117762e-08 1.46566025548127e-08 2.30499484224235e-09 2.03043413718933e-08 3.64500377549082e-08 5.08669650143597e-09 1.13721222994354e-09 1.10396038970924e-09
"1817" 52983 2.54167782026399e-08 1.48008196129321e-08 2.30734499680655e-09 2.02309651899171e-08 3.64503657782464e-08 5.08355979961874e-09 1.13223072957625e-09 1.10554524388733e-09
"1818" 52984 2.53669321947506e-08 1.47909165706334e-08 2.30437598155593e-09 2.01423713566733e-08 3.64652090905487e-08 5.0946647757478e-09 1.12831367817099e-09 1.10554524388733e-09
"1819" 52985 2.53170861868613e-08 1.47810135283348e-08 2.3014069663053e-09 2.00537775234294e-08 3.64800524028511e-08 5.10576975187686e-09 1.12439662676573e-09 1.10554524388733e-09
"1820" 52986 2.5267240178972e-08 1.47711104860361e-08 2.29843795105467e-09 1.99651836901855e-08 3.64948957151534e-08 5.11687472800591e-09 1.12047957536047e-09 1.10554524388733e-09
"1821" 52987 2.52173941710827e-08 1.47612074437374e-08 2.29546893580405e-09 1.98765898569416e-08 3.65097390274557e-08 5.12797970413497e-09 1.11656252395521e-09 1.10554524388733e-09
"1822" 52988 2.51675481631933e-08 1.47513044014388e-08 2.29249992055342e-09 1.97879960236978e-08 3.6524582339758e-08 5.13908468026403e-09 1.11264547254995e-09 1.10554524388733e-09
"1823" 52989 2.5117702155304e-08 1.47414013591401e-08 2.2895309053028e-09 1.96994021904539e-08 3.65394256520604e-08 5.15018965639309e-09 1.10872842114469e-09 1.10554524388733e-09
"1824" 52990 2.50678561474147e-08 1.47314983168414e-08 2.28656189005217e-09 1.961080835721e-08 3.65542689643627e-08 5.16129463252214e-09 1.10481136973943e-09 1.10554524388733e-09
"1825" 52991 2.50180101395254e-08 1.47215952745428e-08 2.28359287480154e-09 1.95222145239661e-08 3.6569112276665e-08 5.1723996086512e-09 1.10089431833417e-09 1.10554524388733e-09
"1826" 52992 2.49681641316361e-08 1.47116922322441e-08 2.28062385955092e-09 1.94336206907222e-08 3.65839555889673e-08 5.18350458478026e-09 1.0969772669289e-09 1.10554524388733e-09
"1827" 52993 2.49183181237468e-08 1.47017891899454e-08 2.27765484430029e-09 1.93450268574784e-08 3.65987989012697e-08 5.19460956090932e-09 1.09306021552364e-09 1.10554524388733e-09
"1828" 52994 2.48684721158575e-08 1.46918861476468e-08 2.27468582904967e-09 1.92564330242345e-08 3.6613642213572e-08 5.20571453703837e-09 1.08914316411838e-09 1.10554524388733e-09
"1829" 52995 2.48186261079682e-08 1.46819831053481e-08 2.27171681379904e-09 1.91678391909906e-08 3.66284855258743e-08 5.21681951316743e-09 1.08522611271312e-09 1.10554524388733e-09
"1830" 52996 2.47687801000789e-08 1.46720800630494e-08 2.26874779854841e-09 1.90792453577467e-08 3.66433288381766e-08 5.22792448929649e-09 1.08130906130786e-09 1.10554524388733e-09
"1831" 52997 2.47134075151321e-08 1.46581662972012e-08 2.26972180133021e-09 1.90780239807289e-08 3.66639186254577e-08 5.24245453347074e-09 1.08323110024429e-09 1.10640756156771e-09
"1832" 52998 2.47250499718389e-08 1.4651487145153e-08 2.2684866702635e-09 1.90542878773041e-08 3.65477225853683e-08 5.24130106855886e-09 1.06549490862203e-09 1.09552358781562e-09
"1833" 52999 2.47366924285456e-08 1.46448079931048e-08 2.26725153919679e-09 1.90305517738794e-08 3.6431526545279e-08 5.24014760364698e-09 1.04775871699976e-09 1.08463961406353e-09
"1834" 53000 2.47483348852523e-08 1.46381288410566e-08 2.26601640813008e-09 1.90068156704547e-08 3.63153305051896e-08 5.2389941387351e-09 1.03002252537749e-09 1.07375564031143e-09
"1835" 53001 2.4759977341959e-08 1.46314496890084e-08 2.26478127706337e-09 1.898307956703e-08 3.61991344651003e-08 5.23784067382323e-09 1.01228633375523e-09 1.06287166655934e-09
"1836" 53002 2.47716197986658e-08 1.46247705369602e-08 2.26354614599666e-09 1.89593434636052e-08 3.60829384250109e-08 5.23668720891135e-09 9.94550142132961e-10 1.05198769280724e-09
"1837" 53003 2.47832622553725e-08 1.46180913849121e-08 2.26231101492995e-09 1.89356073601805e-08 3.59667423849215e-08 5.23553374399947e-09 9.76813950510694e-10 1.04110371905515e-09
"1838" 53004 2.49096362439314e-08 1.4644916023173e-08 2.28019561679156e-09 1.89111996444054e-08 3.58425744869987e-08 5.24465548322318e-09 9.59077758888428e-10 1.03021974530305e-09
"1839" 53005 2.49084639397071e-08 1.46370800133887e-08 2.27822410777535e-09 1.90676239015895e-08 3.60726458276847e-08 5.2712004796615e-09 9.40277118304131e-10 1.01960614865901e-09
"1840" 53006 2.49072916354828e-08 1.46292440036043e-08 2.27625259875913e-09 1.92240481587735e-08 3.63027171683708e-08 5.29774547609983e-09 9.21476477719834e-10 1.00899255201497e-09
"1841" 53007 2.49061193312585e-08 1.46214079938199e-08 2.27428108974292e-09 1.93804724159575e-08 3.65327885090568e-08 5.32429047253816e-09 9.02675837135537e-10 9.98378955370923e-10
"1842" 53008 2.49049470270342e-08 1.46135719840356e-08 2.27230958072671e-09 1.95368966731415e-08 3.67628598497428e-08 5.35083546897649e-09 8.8387519655124e-10 9.87765358726879e-10
"1843" 53009 2.49037747228099e-08 1.46057359742512e-08 2.2703380717105e-09 1.96933209303256e-08 3.69929311904289e-08 5.37738046541482e-09 8.65074555966944e-10 9.77151762082835e-10
"1844" 53010 2.49026024185856e-08 1.45978999644668e-08 2.26836656269429e-09 1.98497451875096e-08 3.72230025311149e-08 5.40392546185315e-09 8.46273915382647e-10 9.66538165438791e-10
"1845" 53011 2.49014301143613e-08 1.45900639546825e-08 2.26639505367807e-09 2.00061694446936e-08 3.7453073871801e-08 5.43047045829148e-09 8.2747327479835e-10 9.55924568794747e-10
"1846" 53012 2.49030865197871e-08 1.45887990668781e-08 2.24632741172672e-09 2.01715202464371e-08 3.76054239429351e-08 5.408558423022e-09 8.28257891240358e-10 9.56875481301596e-10
"1847" 53013 2.49047429252129e-08 1.45875341790737e-08 2.22625976977536e-09 2.03368710481805e-08 3.77577740140692e-08 5.38664638775252e-09 8.29042507682366e-10 9.57826393808444e-10
"1848" 53014 2.49063993306388e-08 1.45862692912693e-08 2.206192127824e-09 2.0502221849924e-08 3.79101240852033e-08 5.36473435248304e-09 8.29827124124374e-10 9.58777306315292e-10
"1849" 53015 2.49080557360646e-08 1.45850044034649e-08 2.18612448587264e-09 2.06675726516674e-08 3.80624741563374e-08 5.34282231721355e-09 8.30611740566382e-10 9.5972821882214e-10
"1850" 53016 2.49097121414904e-08 1.45837395156605e-08 2.16605684392128e-09 2.08329234534109e-08 3.82148242274715e-08 5.32091028194407e-09 8.3139635700839e-10 9.60679131328989e-10
"1851" 53017 2.49092097253943e-08 1.45855031565821e-08 2.14598920196992e-09 2.08194883062143e-08 3.79992898040112e-08 5.26763122850232e-09 8.3139635700839e-10 9.60497349047398e-10
"1852" 53018 2.49028970698815e-08 1.45892978199953e-08 2.14005117146867e-09 2.07862050574301e-08 3.79548493280147e-08 5.24837846825701e-09 8.29328371007167e-10 9.59635031367009e-10
"1853" 53019 2.48965844143688e-08 1.45930924834084e-08 2.13411314096742e-09 2.07529218086459e-08 3.79104088520181e-08 5.22912570801169e-09 8.27260385005944e-10 9.5877271368662e-10
"1854" 53020 2.48902717588561e-08 1.45968871468216e-08 2.12817511046617e-09 2.07196385598617e-08 3.78659683760215e-08 5.20987294776637e-09 8.25192399004721e-10 9.57910396006231e-10
"1855" 53021 2.48839591033434e-08 1.46006818102348e-08 2.12223707996491e-09 2.06863553110775e-08 3.7821527900025e-08 5.19062018752106e-09 8.23124413003498e-10 9.57048078325842e-10
"1856" 53022 2.48776464478306e-08 1.46044764736479e-08 2.11629904946366e-09 2.06530720622933e-08 3.77770874240284e-08 5.17136742727574e-09 8.21056427002276e-10 9.56185760645454e-10
"1857" 53023 2.48713337923179e-08 1.46082711370611e-08 2.11036101896241e-09 2.06197888135091e-08 3.77326469480318e-08 5.15211466703043e-09 8.18988441001053e-10 9.55323442965065e-10
"1858" 53024 2.48650211368052e-08 1.46120658004742e-08 2.10442298846116e-09 2.05865055647249e-08 3.76882064720353e-08 5.13286190678511e-09 8.1692045499983e-10 9.54461125284676e-10
"1859" 53025 2.48587084812925e-08 1.46158604638874e-08 2.0984849579599e-09 2.05532223159407e-08 3.76437659960387e-08 5.11360914653979e-09 8.14852468998607e-10 9.53598807604287e-10
"1860" 53026 2.49255267470825e-08 1.46719728831737e-08 2.10461101608208e-09 2.05428108744155e-08 3.75987969466215e-08 5.08466969017831e-09 8.12784482997384e-10 9.53869184712338e-10
"1861" 53027 2.49923450128726e-08 1.47280853024601e-08 2.11073707420426e-09 2.05323994328902e-08 3.75538278972042e-08 5.05573023381682e-09 8.10716496996161e-10 9.54139561820388e-10
"1862" 53028 2.50591632786626e-08 1.47841977217464e-08 2.11686313232644e-09 2.0521987991365e-08 3.7508858847787e-08 5.02679077745534e-09 8.08648510994938e-10 9.54409938928438e-10
"1863" 53029 2.51259815444526e-08 1.48403101410327e-08 2.12298919044862e-09 2.05115765498398e-08 3.74638897983698e-08 4.99785132109385e-09 8.06580524993716e-10 9.54680316036488e-10
"1864" 53030 2.51927998102427e-08 1.48964225603191e-08 2.1291152485708e-09 2.05011651083146e-08 3.74189207489525e-08 4.96891186473236e-09 8.04512538992493e-10 9.54950693144539e-10
"1865" 53031 2.52596180760327e-08 1.49525349796054e-08 2.13524130669298e-09 2.04907536667893e-08 3.73739516995353e-08 4.93997240837088e-09 8.0244455299127e-10 9.55221070252589e-10
"1866" 53032 2.53264363418228e-08 1.50086473988918e-08 2.14136736481516e-09 2.04803422252641e-08 3.7328982650118e-08 4.91103295200939e-09 8.00376566990047e-10 9.5549144736064e-10
"1867" 53033 2.53932546076128e-08 1.50647598181781e-08 2.14749342293734e-09 2.04699307837389e-08 3.72840136007008e-08 4.8820934956479e-09 7.98308580988824e-10 9.5576182446869e-10
"1868" 53034 2.54572478267317e-08 1.51087941325833e-08 2.15877412670603e-09 2.04862989758919e-08 3.72613013276952e-08 4.88380014188876e-09 7.82342450433422e-10 9.4420190794647e-10
"1869" 53035 2.55190639094339e-08 1.51649065518696e-08 2.16886670631325e-09 2.04957356359544e-08 3.67688776553165e-08 4.88154986507959e-09 7.80274464432199e-10 9.4420190794647e-10
"1870" 53036 2.55808799921362e-08 1.52210189711559e-08 2.17895928592047e-09 2.05051722960168e-08 3.62764539829378e-08 4.87929958827042e-09 7.78206478430976e-10 9.4420190794647e-10
"1871" 53037 2.56426960748385e-08 1.52771313904423e-08 2.18905186552769e-09 2.05146089560792e-08 3.57840303105591e-08 4.87704931146125e-09 7.76138492429753e-10 9.4420190794647e-10
"1872" 53038 2.57045121575408e-08 1.53332438097286e-08 2.19914444513491e-09 2.05240456161417e-08 3.52916066381804e-08 4.87479903465208e-09 7.74070506428531e-10 9.4420190794647e-10
"1873" 53039 2.5766328240243e-08 1.5389356229015e-08 2.20923702474213e-09 2.05334822762041e-08 3.47991829658017e-08 4.8725487578429e-09 7.72002520427308e-10 9.4420190794647e-10
"1874" 53040 2.58281443229453e-08 1.54454686483013e-08 2.21932960434935e-09 2.05429189362666e-08 3.43067592934229e-08 4.87029848103373e-09 7.69934534426085e-10 9.4420190794647e-10
"1875" 53041 2.58475737166428e-08 1.5446162762943e-08 2.21809447328264e-09 2.05627670378543e-08 3.38172088585336e-08 4.86804820422456e-09 7.69934534426085e-10 9.47329615203737e-10
"1876" 53042 2.58444137259076e-08 1.54480857553664e-08 2.21809447328264e-09 2.05674400375281e-08 3.34406233826026e-08 4.90497726122202e-09 7.71424762972927e-10 9.48238526611691e-10
"1877" 53043 2.58412537351723e-08 1.54500087477897e-08 2.21809447328264e-09 2.05721130372019e-08 3.30640379066716e-08 4.94190631821948e-09 7.72914991519769e-10 9.49147438019646e-10
"1878" 53044 2.5838093744437e-08 1.54519317402131e-08 2.21809447328264e-09 2.05767860368757e-08 3.26874524307406e-08 4.97883537521694e-09 7.74405220066612e-10 9.50056349427601e-10
"1879" 53045 2.58349337537017e-08 1.54538547326364e-08 2.21809447328264e-09 2.05814590365496e-08 3.23108669548096e-08 5.01576443221441e-09 7.75895448613454e-10 9.50965260835555e-10
"1880" 53046 2.58317737629664e-08 1.54557777250598e-08 2.21809447328264e-09 2.05861320362234e-08 3.19342814788785e-08 5.05269348921187e-09 7.77385677160296e-10 9.5187417224351e-10
"1881" 53047 2.58286137722311e-08 1.54577007174831e-08 2.21809447328264e-09 2.05908050358972e-08 3.15576960029475e-08 5.08962254620933e-09 7.78875905707138e-10 9.52783083651464e-10
"1882" 53048 2.58254537814958e-08 1.54596237099065e-08 2.21809447328264e-09 2.05954780355711e-08 3.11811105270165e-08 5.12655160320679e-09 7.8036613425398e-10 9.53691995059419e-10
"1883" 53049 2.58222937907606e-08 1.54615467023298e-08 2.21809447328264e-09 2.06001510352449e-08 3.08045250510855e-08 5.16348066020425e-09 7.81856362800823e-10 9.54600906467373e-10
"1884" 53050 2.58191338000253e-08 1.54634696947532e-08 2.21809447328264e-09 2.06048240349187e-08 3.04279395751545e-08 5.20040971720172e-09 7.83346591347665e-10 9.55509817875328e-10
"1885" 53051 2.581597380929e-08 1.54653926871765e-08 2.21809447328264e-09 2.06094970345925e-08 3.00513540992235e-08 5.23733877419918e-09 7.84836819894507e-10 9.56418729283282e-10
"1886" 53052 2.58128138185547e-08 1.54673156795999e-08 2.21809447328264e-09 2.06141700342664e-08 2.96747686232925e-08 5.27426783119664e-09 7.86327048441349e-10 9.57327640691237e-10
"1887" 53053 2.58096538278194e-08 1.54692386720233e-08 2.21809447328264e-09 2.06188430339402e-08 2.92981831473615e-08 5.3111968881941e-09 7.87817276988192e-10 9.58236552099191e-10
"1888" 53054 2.58064938370841e-08 1.54711616644466e-08 2.21809447328264e-09 2.0623516033614e-08 2.89215976714305e-08 5.34812594519156e-09 7.89307505535034e-10 9.59145463507146e-10
"1889" 53055 2.58033338463488e-08 1.547308465687e-08 2.21809447328264e-09 2.06281890332879e-08 2.85450121954994e-08 5.38505500218902e-09 7.90797734081876e-10 9.600543749151e-10
"1890" 53056 2.58118199752992e-08 1.54664055048218e-08 2.20443752119099e-09 2.06475695687264e-08 2.81230998265095e-08 5.39529487963417e-09 7.94641811954742e-10 9.61914198829903e-10
"1891" 53057 2.58159884612057e-08 1.54324695942398e-08 2.18634138825584e-09 2.05115006284437e-08 2.81531144744524e-08 5.43564900467683e-09 7.98273000035202e-10 9.62823110237858e-10
"1892" 53058 2.58201569471122e-08 1.53985336836578e-08 2.16824525532069e-09 2.03754316881609e-08 2.81831291223952e-08 5.47600312971949e-09 8.01904188115662e-10 9.63732021645812e-10
"1893" 53059 2.58243254330186e-08 1.53645977730758e-08 2.15014912238555e-09 2.02393627478782e-08 2.8213143770338e-08 5.51635725476215e-09 8.05535376196122e-10 9.64640933053767e-10
"1894" 53060 2.58284939189251e-08 1.53306618624938e-08 2.1320529894504e-09 2.01032938075955e-08 2.82431584182809e-08 5.55671137980481e-09 8.09166564276582e-10 9.65549844461721e-10
"1895" 53061 2.58326624048316e-08 1.52967259519118e-08 2.11395685651525e-09 1.99672248673128e-08 2.82731730662237e-08 5.59706550484747e-09 8.12797752357042e-10 9.66458755869676e-10
"1896" 53062 2.6035695216303e-08 1.5280637123481e-08 2.09388921456389e-09 1.98170888166477e-08 2.81873196974154e-08 5.59824029608349e-09 8.13509395266655e-10 9.6736766727763e-10
"1897" 53063 2.62387280277744e-08 1.52645482950503e-08 2.07382157261254e-09 1.96669527659826e-08 2.8101466328607e-08 5.59941508731951e-09 8.14221038176268e-10 9.68276578685585e-10
"1898" 53064 2.62693377548507e-08 1.52484594666195e-08 2.05449030861068e-09 1.95195853632372e-08 2.80298166095082e-08 5.59856176419909e-09 8.14008148383862e-10 9.67460854732762e-10
"1899" 53065 2.62999474819269e-08 1.52323706381888e-08 2.03515904460882e-09 1.93722179604919e-08 2.79581668904095e-08 5.59770844107866e-09 8.13795258591456e-10 9.66645130779939e-10
"1900" 53066 2.63305572090032e-08 1.5216281809758e-08 2.01582778060697e-09 1.92248505577466e-08 2.78865171713107e-08 5.59685511795823e-09 8.1358236879905e-10 9.65829406827116e-10
"1901" 53067 2.63611669360795e-08 1.52001929813273e-08 1.99649651660511e-09 1.90774831550013e-08 2.78148674522119e-08 5.5960017948378e-09 8.13369479006644e-10 9.65013682874293e-10
"1902" 53068 2.63917766631558e-08 1.51841041528965e-08 1.97716525260326e-09 1.89301157522559e-08 2.77432177331131e-08 5.59514847171737e-09 8.13156589214238e-10 9.6419795892147e-10
"1903" 53069 2.64223863902321e-08 1.51680153244658e-08 1.9578339886014e-09 1.87827483495106e-08 2.76715680140143e-08 5.59429514859694e-09 8.12943699421832e-10 9.63382234968647e-10
"1904" 53070 2.59997383981365e-08 1.51322131300951e-08 1.94990094563132e-09 1.87666862266594e-08 2.76329552818651e-08 5.59411786359533e-09 8.12730809629426e-10 9.61657599607869e-10
"1905" 53071 2.60321756656496e-08 1.51483325813474e-08 1.94985393872609e-09 1.87755929466365e-08 2.76442558737818e-08 5.59411786359533e-09 8.11660329862617e-10 9.60841875655046e-10
"1906" 53072 2.60646129331626e-08 1.51644520325998e-08 1.94980693182086e-09 1.87844996666137e-08 2.76555564656986e-08 5.59411786359533e-09 8.10589850095808e-10 9.60026151702223e-10
"1907" 53073 2.60970502006757e-08 1.51805714838522e-08 1.94975992491562e-09 1.87934063865909e-08 2.76668570576153e-08 5.59411786359533e-09 8.09519370328999e-10 9.592104277494e-10
"1908" 53074 2.61294874681888e-08 1.51966909351046e-08 1.94971291801039e-09 1.88023131065681e-08 2.7678157649532e-08 5.59411786359533e-09 8.0844889056219e-10 9.58394703796577e-10
"1909" 53075 2.61619247357019e-08 1.5212810386357e-08 1.94966591110516e-09 1.88112198265453e-08 2.76894582414488e-08 5.59411786359533e-09 8.07378410795382e-10 9.57578979843754e-10
"1910" 53076 2.61943620032149e-08 1.52289298376094e-08 1.94961890419993e-09 1.88201265465224e-08 2.77007588333655e-08 5.59411786359533e-09 8.06307931028573e-10 9.56763255890931e-10
"1911" 53077 2.6226799270728e-08 1.52450492888618e-08 1.9495718972947e-09 1.88290332664996e-08 2.77120594252822e-08 5.59411786359533e-09 8.05237451261764e-10 9.55947531938108e-10
"1912" 53078 2.62592365382411e-08 1.52611687401141e-08 1.94952489038947e-09 1.88379399864768e-08 2.7723360017199e-08 5.59411786359533e-09 8.04166971494955e-10 9.55131807985285e-10
"1913" 53079 2.62916738057541e-08 1.52772881913665e-08 1.94947788348423e-09 1.8846846706454e-08 2.77346606091157e-08 5.59411786359533e-09 8.03096491728146e-10 9.54316084032462e-10
"1914" 53080 2.63241110732672e-08 1.52934076426189e-08 1.949430876579e-09 1.88557534264312e-08 2.77459612010325e-08 5.59411786359533e-09 8.02026011961337e-10 9.53500360079638e-10
"1915" 53081 2.63565483407803e-08 1.53095270938713e-08 1.94938386967377e-09 1.88646601464083e-08 2.77572617929492e-08 5.59411786359533e-09 8.00955532194528e-10 9.52684636126816e-10
"1916" 53082 2.63889856082934e-08 1.53256465451237e-08 1.94933686276854e-09 1.88735668663855e-08 2.77685623848659e-08 5.59411786359533e-09 7.99885052427719e-10 9.51868912173992e-10
"1917" 53083 2.64214228758064e-08 1.53417659963761e-08 1.94928985586331e-09 1.88824735863627e-08 2.77798629767827e-08 5.59411786359533e-09 7.9881457266091e-10 9.51053188221169e-10
"1918" 53084 2.64538601433195e-08 1.53578854476285e-08 1.94924284895807e-09 1.88913803063399e-08 2.77911635686994e-08 5.59411786359533e-09 7.97744092894102e-10 9.50237464268346e-10
"1919" 53085 2.64538601433195e-08 1.53843400614523e-08 1.9685271060547e-09 1.88972633206458e-08 2.79641280032399e-08 5.59443933171093e-09 8.00517691000159e-10 9.49421740315523e-10
"1920" 53086 2.6463016160398e-08 1.53814555728173e-08 1.96848009914947e-09 1.88970394498623e-08 2.80206280149599e-08 5.63752116035582e-09 7.99660101025756e-10 9.49151363207473e-10
"1921" 53087 2.64721721774766e-08 1.53785710841823e-08 1.96843309224424e-09 1.88968155790789e-08 2.80771280266798e-08 5.68060298900071e-09 7.98802511051353e-10 9.48880986099423e-10
"1922" 53088 2.64813281945551e-08 1.53756865955472e-08 1.968386085339e-09 1.88965917082954e-08 2.81336280383998e-08 5.7236848176456e-09 7.9794492107695e-10 9.48610608991372e-10
"1923" 53089 2.64904842116337e-08 1.53728021069122e-08 1.96833907843377e-09 1.8896367837512e-08 2.81901280501197e-08 5.7667666462905e-09 7.97087331102547e-10 9.48340231883322e-10
"1924" 53090 2.64996402287122e-08 1.53699176182772e-08 1.96829207152854e-09 1.88961439667285e-08 2.82466280618396e-08 5.80984847493539e-09 7.96229741128144e-10 9.48069854775272e-10
"1925" 53091 2.65087962457907e-08 1.53670331296422e-08 1.96824506462331e-09 1.88959200959451e-08 2.83031280735596e-08 5.85293030358028e-09 7.95372151153742e-10 9.47799477667221e-10
"1926" 53092 2.65146174741441e-08 1.53519625060577e-08 1.96518203556222e-09 1.88835221041474e-08 2.83610945243277e-08 5.87646145499122e-09 7.95372151153742e-10 9.46214623489141e-10
"1927" 53093 2.65254298966485e-08 1.53520345261032e-08 1.96513502865699e-09 1.88835221041474e-08 2.84190609750958e-08 5.90415991634143e-09 7.94660508244129e-10 9.46895158887939e-10
"1928" 53094 2.65362423191528e-08 1.53521065461487e-08 1.96508802175176e-09 1.88835221041474e-08 2.84770274258639e-08 5.93185837769164e-09 7.93948865334516e-10 9.47575694286737e-10
"1929" 53095 2.65470547416572e-08 1.53521785661942e-08 1.96504101484652e-09 1.88835221041474e-08 2.8534993876632e-08 5.95955683904185e-09 7.93237222424903e-10 9.48256229685535e-10
"1930" 53096 2.65578671641615e-08 1.53522505862396e-08 1.96499400794129e-09 1.88835221041474e-08 2.85929603274001e-08 5.98725530039206e-09 7.9252557951529e-10 9.48936765084333e-10
"1931" 53097 2.65686795866659e-08 1.53523226062851e-08 1.96494700103606e-09 1.88835221041474e-08 2.86509267781682e-08 6.01495376174227e-09 7.91813936605677e-10 9.4961730048313e-10
"1932" 53098 2.65794920091703e-08 1.53523946263306e-08 1.96489999413083e-09 1.88835221041474e-08 2.87088932289362e-08 6.04265222309248e-09 7.91102293696063e-10 9.50297835881928e-10
"1933" 53099 2.65903044316746e-08 1.5352466646376e-08 1.9648529872256e-09 1.88835221041474e-08 2.87668596797043e-08 6.07035068444269e-09 7.90390650786451e-10 9.50978371280726e-10
"1934" 53100 2.66022635175508e-08 1.53638506366155e-08 1.96383197753857e-09 1.88876141521857e-08 2.882575055988e-08 6.06156218889805e-09 7.95518098218531e-10 9.52838195195529e-10
"1935" 53101 2.66383228991271e-08 1.5366951185387e-08 1.96383197753857e-09 1.89000121439833e-08 2.88274257410525e-08 6.07556037806747e-09 7.94879428841313e-10 9.53518730594327e-10
"1936" 53102 2.66743822807035e-08 1.53700517341584e-08 1.96383197753857e-09 1.89124101357809e-08 2.88291009222249e-08 6.0895585672369e-09 7.94240759464095e-10 9.54199265993125e-10
"1937" 53103 2.67104416622798e-08 1.53731522829299e-08 1.96383197753857e-09 1.89248081275786e-08 2.88307761033974e-08 6.10355675640632e-09 7.93602090086877e-10 9.54879801391923e-10
"1938" 53104 2.67465010438561e-08 1.53762528317013e-08 1.96383197753857e-09 1.89372061193762e-08 2.88324512845698e-08 6.11755494557574e-09 7.92963420709659e-10 9.5556033679072e-10
"1939" 53105 2.67825604254324e-08 1.53793533804728e-08 1.96383197753857e-09 1.89496041111738e-08 2.88341264657423e-08 6.13155313474516e-09 7.92324751332441e-10 9.56240872189518e-10
"1940" 53106 2.68186198070088e-08 1.53824539292442e-08 1.96383197753857e-09 1.89620021029715e-08 2.88358016469147e-08 6.14555132391458e-09 7.91686081955223e-10 9.56921407588316e-10
"1941" 53107 2.68546791885851e-08 1.53855544780157e-08 1.96383197753857e-09 1.89744000947691e-08 2.88374768280872e-08 6.159549513084e-09 7.91047412578005e-10 9.57601942987114e-10
"1942" 53108 2.68907385701614e-08 1.53886550267871e-08 1.96383197753857e-09 1.89867980865667e-08 2.88391520092596e-08 6.17354770225342e-09 7.90408743200787e-10 9.58282478385912e-10
"1943" 53109 2.69267979517378e-08 1.53917555755586e-08 1.96383197753857e-09 1.89991960783643e-08 2.88408271904321e-08 6.18754589142285e-09 7.89770073823569e-10 9.5896301378471e-10
"1944" 53110 2.69628573333141e-08 1.539485612433e-08 1.96383197753857e-09 1.9011594070162e-08 2.88425023716045e-08 6.20154408059227e-09 7.8913140444635e-10 9.59643549183508e-10
"1945" 53111 2.69989167148904e-08 1.53979566731015e-08 1.96383197753857e-09 1.90239920619596e-08 2.8844177552777e-08 6.21554226976169e-09 7.88492735069132e-10 9.60324084582306e-10
"1946" 53112 2.70349760964667e-08 1.54010572218729e-08 1.96383197753857e-09 1.90363900537572e-08 2.88458527339494e-08 6.22954045893111e-09 7.87854065691914e-10 9.61004619981104e-10
"1947" 53113 2.70710354780431e-08 1.54041577706444e-08 1.96383197753857e-09 1.90487880455549e-08 2.88475279151218e-08 6.24353864810053e-09 7.87215396314696e-10 9.61685155379902e-10
"1948" 53114 2.71070948596194e-08 1.54072583194158e-08 1.96383197753857e-09 1.90611860373525e-08 2.88492030962943e-08 6.25753683726995e-09 7.86576726937478e-10 9.62365690778699e-10
"1949" 53115 2.71311951553195e-08 1.5404995925377e-08 1.9646153623933e-09 1.88924771738572e-08 2.84445301522405e-08 6.22972729469339e-09 7.8593805756026e-10 9.62911037623472e-10
"1950" 53116 2.71552954510197e-08 1.54027335313382e-08 1.96539874724804e-09 1.8723768310362e-08 2.80398572081868e-08 6.20191775211682e-09 7.85299388183042e-10 9.63456384468245e-10
"1951" 53117 2.71793957467198e-08 1.54004711372994e-08 1.96618213210277e-09 1.85550594468668e-08 2.7635184264133e-08 6.17410820954025e-09 7.84660718805824e-10 9.64001731313018e-10
"1952" 53118 2.72034960424199e-08 1.53982087432606e-08 1.9669655169575e-09 1.83863505833715e-08 2.72305113200793e-08 6.14629866696368e-09 7.84022049428606e-10 9.6454707815779e-10
"1953" 53119 2.72275963381201e-08 1.53959463492218e-08 1.96774890181224e-09 1.82176417198763e-08 2.68258383760255e-08 6.11848912438711e-09 7.83383380051388e-10 9.65092425002563e-10
"1954" 53120 2.72516966338202e-08 1.5393683955183e-08 1.96853228666697e-09 1.80489328563811e-08 2.64211654319718e-08 6.09067958181055e-09 7.82744710674169e-10 9.65637771847336e-10
"1955" 53121 2.72799837303214e-08 1.53935039050694e-08 1.96829466183468e-09 1.79170608874266e-08 2.60185173206903e-08 6.03719014147956e-09 7.82106041296951e-10 9.65502583293311e-10
"1956" 53122 2.73082708268226e-08 1.53933238549557e-08 1.96805703700238e-09 1.77851889184721e-08 2.56158692094088e-08 5.98370070114857e-09 7.81467371919733e-10 9.65367394739286e-10
"1957" 53123 2.77388182832572e-08 1.56931158756209e-08 1.99287458529351e-09 1.76198381167287e-08 2.55765273537564e-08 5.97639668939208e-09 7.80828702542515e-10 1.00177177966672e-09
"1958" 53124 2.81693657396918e-08 1.59929078962862e-08 2.01769213358465e-09 1.74544873149852e-08 2.5537185498104e-08 5.96909267763558e-09 7.80190033165297e-10 1.03817616459416e-09
"1959" 53125 2.85999131961264e-08 1.62926999169514e-08 2.04250968187578e-09 1.72891365132418e-08 2.54978436424516e-08 5.96178866587909e-09 7.79551363788079e-10 1.0745805495216e-09
"1960" 53126 2.9030460652561e-08 1.65924919376166e-08 2.06732723016691e-09 1.71237857114983e-08 2.54585017867992e-08 5.9544846541226e-09 7.78912694410861e-10 1.11098493444904e-09
"1961" 53127 2.94726395767655e-08 1.68975748810467e-08 2.09212127500543e-09 1.71090866379301e-08 2.57666171761973e-08 6.00437174140678e-09 7.78274025033643e-10 1.1468439725317e-09
"1962" 53128 2.99148185009701e-08 1.72026578244767e-08 2.11691531984395e-09 1.70943875643618e-08 2.60747325655954e-08 6.05425882869096e-09 7.77635355656425e-10 1.18270301061437e-09
"1963" 53129 3.03569974251746e-08 1.75077407679067e-08 2.14170936468246e-09 1.70796884907935e-08 2.63828479549935e-08 6.10414591597513e-09 7.76996686279207e-10 1.21856204869703e-09
"1964" 53130 3.07991763493791e-08 1.78128237113367e-08 2.16650340952098e-09 1.70649894172253e-08 2.66909633443916e-08 6.15403300325931e-09 7.76358016901989e-10 1.2544210867797e-09
"1965" 53131 3.12413552735837e-08 1.81179066547667e-08 2.1912974543595e-09 1.7050290343657e-08 2.69990787337897e-08 6.20392009054349e-09 7.7571934752477e-10 1.29028012486236e-09
"1966" 53132 3.16835341977882e-08 1.84229895981968e-08 2.21609149919802e-09 1.70355912700887e-08 2.73071941231878e-08 6.25380717782767e-09 7.75080678147552e-10 1.32613916294503e-09
"1967" 53133 3.21257131219928e-08 1.87280725416268e-08 2.24088554403653e-09 1.70208921965204e-08 2.76153095125859e-08 6.30369426511185e-09 7.74442008770334e-10 1.36199820102769e-09
"1968" 53134 3.25678920461973e-08 1.90331554850568e-08 2.26567958887505e-09 1.70061931229522e-08 2.7923424901984e-08 6.35358135239603e-09 7.73803339393116e-10 1.39785723911036e-09
"1969" 53135 3.15662905854554e-08 1.8384570296761e-08 2.2453743220914e-09 1.68851576123182e-08 2.79592292814289e-08 6.30101366376354e-09 7.68311024299061e-10 1.38221870282402e-09
"1970" 53136 3.05646891247134e-08 1.77359851084652e-08 2.22506905530774e-09 1.67641221016843e-08 2.79950336608738e-08 6.24844597513105e-09 7.62818709205005e-10 1.36658016653768e-09
"1971" 53137 2.95630876639714e-08 1.70873999201694e-08 2.20476378852409e-09 1.66430865910503e-08 2.80308380403187e-08 6.19587828649856e-09 7.5732639411095e-10 1.35094163025135e-09
"1972" 53138 2.85614862032295e-08 1.64388147318736e-08 2.18445852174043e-09 1.65220510804163e-08 2.80666424197635e-08 6.14331059786607e-09 7.51834079016894e-10 1.33530309396501e-09
"1973" 53139 2.75598847424875e-08 1.57902295435778e-08 2.16415325495678e-09 1.64010155697824e-08 2.81024467992084e-08 6.09074290923358e-09 7.46341763922839e-10 1.31966455767868e-09
"1974" 53140 2.65582832817455e-08 1.51416443552821e-08 2.14384798817313e-09 1.62799800591484e-08 2.81382511786533e-08 6.03817522060109e-09 7.40849448828783e-10 1.30402602139234e-09
"1975" 53141 2.55566818210036e-08 1.44930591669863e-08 2.12354272138947e-09 1.61589445485144e-08 2.81740555580982e-08 5.98560753196861e-09 7.35357133734727e-10 1.28838748510601e-09
"1976" 53142 2.45550803602616e-08 1.38444739786905e-08 2.10323745460582e-09 1.60379090378805e-08 2.82098599375431e-08 5.93303984333612e-09 7.29864818640672e-10 1.27274894881967e-09
"1977" 53143 2.35202592165302e-08 1.3224903802649e-08 2.14658455920373e-09 1.59882858837219e-08 2.82173248502176e-08 5.87801149100522e-09 7.24372503546616e-10 1.25642987713454e-09
"1978" 53144 2.24854380727988e-08 1.26053336266075e-08 2.18993166380164e-09 1.59386627295633e-08 2.82247897628921e-08 5.82298313867432e-09 7.18880188452561e-10 1.24011080544941e-09
"1979" 53145 2.14506169290674e-08 1.1985763450566e-08 2.23327876839955e-09 1.58890395754048e-08 2.82322546755666e-08 5.76795478634342e-09 7.13387873358505e-10 1.22379173376427e-09
"1980" 53146 2.0415795785336e-08 1.13661932745245e-08 2.27662587299747e-09 1.58394164212462e-08 2.82397195882411e-08 5.71292643401252e-09 7.0789555826445e-10 1.20747266207914e-09
"1981" 53147 1.93809746416046e-08 1.0746623098483e-08 2.31997297759538e-09 1.57897932670876e-08 2.82471845009156e-08 5.65789808168163e-09 7.02403243170394e-10 1.19115359039401e-09
"1982" 53148 1.83461534978732e-08 1.01270529224415e-08 2.36332008219329e-09 1.5740170112929e-08 2.82546494135901e-08 5.60286972935073e-09 6.96910928076339e-10 1.17483451870887e-09
"1983" 53149 1.73113323541418e-08 9.5074827464e-09 2.4066671867912e-09 1.56905469587705e-08 2.82621143262646e-08 5.54784137701983e-09 6.91418612982283e-10 1.15851544702374e-09
"1984" 53150 1.73311333216927e-08 9.53722788331874e-09 2.45445347223261e-09 1.57558212431885e-08 2.81750465170558e-08 5.53929637025206e-09 6.86291165550202e-10 1.15280078672531e-09
"1985" 53151 1.73203245621672e-08 9.56720439178471e-09 2.51786821878188e-09 1.5821350585358e-08 2.82058499291087e-08 5.51844804499224e-09 6.83371620379355e-10 1.15280078672531e-09
"1986" 53152 1.73095158026418e-08 9.59718090025068e-09 2.58128296533115e-09 1.58868799275275e-08 2.82366533411617e-08 5.49759971973243e-09 6.80452075208508e-10 1.15280078672531e-09
"1987" 53153 1.72987070431164e-08 9.62715740871665e-09 2.64469771188042e-09 1.5952409269697e-08 2.82674567532146e-08 5.47675139447261e-09 6.77532530037661e-10 1.15280078672531e-09
"1988" 53154 1.72878982835909e-08 9.65713391718262e-09 2.7081124584297e-09 1.60179386118665e-08 2.82982601652676e-08 5.4559030692128e-09 6.74612984866814e-10 1.15280078672531e-09
"1989" 53155 1.72770895240655e-08 9.68711042564859e-09 2.77152720497897e-09 1.6083467954036e-08 2.83290635773205e-08 5.43505474395298e-09 6.71693439695967e-10 1.15280078672531e-09
"1990" 53156 1.72630987959312e-08 9.78722114931736e-09 2.7835912936024e-09 1.60935252148985e-08 2.83111979260115e-08 5.42693051096369e-09 6.84101355703305e-10 1.15919138979387e-09
"1991" 53157 1.7249108067797e-08 9.88733187298612e-09 2.79565538222583e-09 1.6103582475761e-08 2.82933322747024e-08 5.41880627797439e-09 6.96509271710642e-10 1.16558199286243e-09
"1992" 53158 1.72351173396627e-08 9.98744259665488e-09 2.80771947084926e-09 1.61136397366235e-08 2.82754666233934e-08 5.41068204498509e-09 7.08917187717979e-10 1.17197259593099e-09
"1993" 53159 1.72211266115285e-08 1.00875533203236e-08 2.81978355947269e-09 1.6123696997486e-08 2.82576009720843e-08 5.4025578119958e-09 7.21325103725316e-10 1.17836319899954e-09
"1994" 53160 1.72071358833942e-08 1.01876640439924e-08 2.83184764809612e-09 1.61337542583485e-08 2.82397353207753e-08 5.3944335790065e-09 7.33733019732653e-10 1.1847538020681e-09
"1995" 53161 1.71931451552599e-08 1.02877747676612e-08 2.84391173671955e-09 1.6143811519211e-08 2.82218696694663e-08 5.3863093460172e-09 7.4614093573999e-10 1.19114440513666e-09
"1996" 53162 1.71791544271257e-08 1.03878854913299e-08 2.85597582534298e-09 1.61538687800735e-08 2.82040040181572e-08 5.37818511302791e-09 7.58548851747327e-10 1.19753500820522e-09
"1997" 53163 1.71651636989914e-08 1.04879962149987e-08 2.86803991396642e-09 1.6163926040936e-08 2.81861383668482e-08 5.37006088003861e-09 7.70956767754664e-10 1.20392561127378e-09
"1998" 53164 1.71397053121403e-08 1.04890297312559e-08 2.88010400258985e-09 1.61940354495874e-08 2.81462761298169e-08 5.34953402289439e-09 7.69466539207822e-10 1.20487652378063e-09
"1999" 53165 1.71142469252892e-08 1.0490063247513e-08 2.89216809121328e-09 1.62241448582388e-08 2.81064138927856e-08 5.32900716575017e-09 7.6797631066098e-10 1.20582743628748e-09
"2000" 53166 1.70887885384381e-08 1.04910967637702e-08 2.90423217983671e-09 1.62542542668902e-08 2.80665516557543e-08 5.30848030860595e-09 7.66486082114137e-10 1.20677834879433e-09
"2001" 53167 1.7063330151587e-08 1.04921302800273e-08 2.91629626846014e-09 1.62843636755415e-08 2.8026689418723e-08 5.28795345146173e-09 7.64995853567295e-10 1.20772926130117e-09
"2002" 53168 1.70378717647359e-08 1.04931637962845e-08 2.92836035708357e-09 1.63144730841929e-08 2.79868271816918e-08 5.26742659431751e-09 7.63505625020453e-10 1.20868017380802e-09
"2003" 53169 1.70124133778848e-08 1.04941973125416e-08 2.940424445707e-09 1.63445824928443e-08 2.79469649446605e-08 5.24689973717329e-09 7.62015396473611e-10 1.20963108631487e-09
"2004" 53170 1.69718578922958e-08 1.04861452426208e-08 2.95248853433043e-09 1.62702881029627e-08 2.79469649446605e-08 5.24134724910876e-09 7.52405201791446e-10 1.20963108631487e-09
"2005" 53171 1.69313024067068e-08 1.04780931727e-08 2.96455262295386e-09 1.61959937130811e-08 2.79469649446605e-08 5.23579476104424e-09 7.42795007109281e-10 1.20963108631487e-09
"2006" 53172 1.6911497776177e-08 1.04434325246547e-08 2.96471714712218e-09 1.59917684549742e-08 2.79469649446605e-08 5.22952135740978e-09 7.44224323733285e-10 1.21058199882172e-09
"2007" 53173 1.68916931456472e-08 1.04087718766094e-08 2.96488167129049e-09 1.57875431968673e-08 2.79469649446605e-08 5.22324795377533e-09 7.4565364035729e-10 1.21153291132857e-09
"2008" 53174 1.68718885151174e-08 1.0374111228564e-08 2.9650461954588e-09 1.55833179387603e-08 2.79469649446605e-08 5.21697455014087e-09 7.47082956981295e-10 1.21248382383542e-09
"2009" 53175 1.68520838845876e-08 1.03394505805187e-08 2.96521071962711e-09 1.53790926806534e-08 2.79469649446605e-08 5.21070114650642e-09 7.485122736053e-10 1.21343473634226e-09
"2010" 53176 1.68322792540579e-08 1.03047899324734e-08 2.96537524379542e-09 1.51748674225465e-08 2.79469649446605e-08 5.20442774287197e-09 7.49941590229304e-10 1.21438564884911e-09
"2011" 53177 1.68124746235281e-08 1.0270129284428e-08 2.96553976796373e-09 1.49706421644396e-08 2.79469649446605e-08 5.19815433923751e-09 7.51370906853309e-10 1.21533656135596e-09
"2012" 53178 1.67926699929983e-08 1.02354686363827e-08 2.96570429213204e-09 1.47664169063327e-08 2.79469649446605e-08 5.19188093560306e-09 7.52800223477314e-10 1.21628747386281e-09
"2013" 53179 1.67875149897942e-08 1.02354686363827e-08 2.9624741485965e-09 1.45511680680969e-08 2.79469649446605e-08 5.19116002003313e-09 7.52088580567701e-10 1.21696800926161e-09
"2014" 53180 1.67823599865901e-08 1.02354686363827e-08 2.95924400506097e-09 1.43359192298611e-08 2.79469649446605e-08 5.19043910446321e-09 7.51376937658088e-10 1.2176485446604e-09
"2015" 53181 1.68031108416494e-08 1.02201360184294e-08 2.94736794405846e-09 1.41112337315629e-08 2.80101656810702e-08 5.18416570082876e-09 7.52806254282093e-10 1.21778373321443e-09
"2016" 53182 1.68238616967086e-08 1.02048034004761e-08 2.93549188305596e-09 1.38865482332646e-08 2.80733664174799e-08 5.1778922971943e-09 7.54235570906097e-10 1.21791892176845e-09
"2017" 53183 1.68446125517679e-08 1.01894707825229e-08 2.92361582205346e-09 1.36618627349664e-08 2.81365671538897e-08 5.17161889355985e-09 7.55664887530102e-10 1.21805411032248e-09
"2018" 53184 1.68780216846629e-08 1.0179459710156e-08 2.92361582205346e-09 1.3675297882163e-08 2.80306175067394e-08 5.15540352946888e-09 7.57732873531325e-10 1.21805411032248e-09
"2019" 53185 1.69114308175579e-08 1.01694486377891e-08 2.92361582205346e-09 1.36887330293595e-08 2.79246678595892e-08 5.13918816537791e-09 7.59800859532548e-10 1.21805411032248e-09
"2020" 53186 1.69448399504529e-08 1.01594375654222e-08 2.92361582205346e-09 1.3702168176556e-08 2.78187182124389e-08 5.12297280128695e-09 7.61868845533771e-10 1.21805411032248e-09
"2021" 53187 1.6978249083348e-08 1.01494264930554e-08 2.92361582205346e-09 1.37156033237525e-08 2.77127685652887e-08 5.10675743719598e-09 7.63936831534993e-10 1.21805411032248e-09
"2022" 53188 1.7011658216243e-08 1.01394154206885e-08 2.92361582205346e-09 1.37290384709491e-08 2.76068189181384e-08 5.09054207310501e-09 7.66004817536216e-10 1.21805411032248e-09
"2023" 53189 1.7045067349138e-08 1.01294043483216e-08 2.92361582205346e-09 1.37424736181456e-08 2.75008692709882e-08 5.07432670901404e-09 7.68072803537439e-10 1.21805411032248e-09
"2024" 53190 1.7078476482033e-08 1.01193932759547e-08 2.92361582205346e-09 1.37559087653421e-08 2.7394919623838e-08 5.05811134492308e-09 7.70140789538662e-10 1.21805411032248e-09
"2025" 53191 1.7111885614928e-08 1.01093822035878e-08 2.92361582205346e-09 1.37693439125387e-08 2.72889699766877e-08 5.04189598083211e-09 7.72208775539885e-10 1.21805411032248e-09
"2026" 53192 1.71452947478231e-08 1.0099371131221e-08 2.92361582205346e-09 1.37827790597352e-08 2.71830203295375e-08 5.02568061674114e-09 7.74276761541108e-10 1.21805411032248e-09
"2027" 53193 1.71407730029579e-08 1.00577279395347e-08 2.94268854807654e-09 1.42152149367465e-08 2.71593918191661e-08 5.04567561888053e-09 7.74057840943923e-10 1.21692141553404e-09
"2028" 53194 1.71362512580927e-08 1.00160847478485e-08 2.96176127409962e-09 1.46476508137578e-08 2.71357633087947e-08 5.06567062101991e-09 7.73838920346738e-10 1.2157887207456e-09
"2029" 53195 1.71317295132275e-08 9.97444155616228e-09 2.9808340001227e-09 1.50800866907691e-08 2.71121347984234e-08 5.0856656231593e-09 7.73619999749553e-10 1.21465602595716e-09
"2030" 53196 1.71272077683624e-08 9.93279836447605e-09 2.99990672614578e-09 1.55125225677804e-08 2.7088506288052e-08 5.10566062529869e-09 7.73401079152369e-10 1.21352333116872e-09
"2031" 53197 1.71226860234972e-08 9.89115517278982e-09 3.01897945216886e-09 1.59449584447917e-08 2.70648777776807e-08 5.12565562743807e-09 7.73182158555184e-10 1.21239063638028e-09
"2032" 53198 1.7118164278632e-08 9.84951198110359e-09 3.03805217819194e-09 1.63773943218031e-08 2.70412492673093e-08 5.14565062957746e-09 7.72963237957999e-10 1.21125794159184e-09
"2033" 53199 1.71136425337668e-08 9.80786878941736e-09 3.05712490421503e-09 1.68098301988144e-08 2.7017620756938e-08 5.16564563171685e-09 7.72744317360814e-10 1.21012524680341e-09
"2034" 53200 1.71091207889017e-08 9.76622559773113e-09 3.07619763023811e-09 1.72422660758257e-08 2.69939922465666e-08 5.18564063385623e-09 7.7252539676363e-10 1.20899255201497e-09
"2035" 53201 1.70708586300563e-08 9.73063946349686e-09 3.07921365239397e-09 1.73035418731096e-08 2.71240557209856e-08 5.18681542509226e-09 7.70171547437606e-10 1.20804163950812e-09
"2036" 53202 1.70325964712109e-08 9.69505332926259e-09 3.08222967454982e-09 1.73648176703935e-08 2.72541191954045e-08 5.18799021632828e-09 7.67817698111582e-10 1.20709072700127e-09
"2037" 53203 1.69943343123656e-08 9.65946719502831e-09 3.08524569670568e-09 1.74260934676774e-08 2.73841826698234e-08 5.18916500756431e-09 7.65463848785558e-10 1.20613981449442e-09
"2038" 53204 1.69560721535202e-08 9.62388106079404e-09 3.08826171886154e-09 1.74873692649613e-08 2.75142461442424e-08 5.19033979880033e-09 7.63109999459534e-10 1.20518890198757e-09
"2039" 53205 1.69178099946749e-08 9.58829492655977e-09 3.0912777410174e-09 1.75486450622452e-08 2.76443096186613e-08 5.19151459003636e-09 7.60756150133511e-10 1.20423798948073e-09
"2040" 53206 1.68795478358295e-08 9.5527087923255e-09 3.09429376317325e-09 1.76099208595292e-08 2.77743730930802e-08 5.19268938127238e-09 7.58402300807487e-10 1.20328707697388e-09
"2041" 53207 1.68412856769841e-08 9.51712265809122e-09 3.09730978532911e-09 1.76711966568131e-08 2.79044365674992e-08 5.19386417250841e-09 7.56048451481463e-10 1.20233616446703e-09
"2042" 53208 1.68507546602532e-08 9.51730270820491e-09 3.09505364457537e-09 1.77793864340825e-08 2.80797456661084e-08 5.19386417250841e-09 7.49631603685388e-10 1.202200975913e-09
"2043" 53209 1.6851737514572e-08 9.49365063876087e-09 3.09291502108471e-09 1.78264648111047e-08 2.82170682589413e-08 5.19161389569923e-09 7.49418713892982e-10 1.20152044051421e-09
"2044" 53210 1.68527203688907e-08 9.46999856931682e-09 3.09077639759405e-09 1.7873543188127e-08 2.83543908517742e-08 5.18936361889006e-09 7.49205824100576e-10 1.20083990511541e-09
"2045" 53211 1.68537032232094e-08 9.44634649987278e-09 3.08863777410339e-09 1.79206215651492e-08 2.8491713444607e-08 5.18711334208089e-09 7.4899293430817e-10 1.20015936971661e-09
"2046" 53212 1.68546860775281e-08 9.42269443042874e-09 3.08649915061273e-09 1.79676999421714e-08 2.86290360374399e-08 5.18486306527172e-09 7.48780044515764e-10 1.19947883431781e-09
"2047" 53213 1.68556689318468e-08 9.3990423609847e-09 3.08436052712207e-09 1.80147783191937e-08 2.87663586302728e-08 5.18261278846255e-09 7.48567154723358e-10 1.19879829891901e-09
"2048" 53214 1.68566517861656e-08 9.37539029154066e-09 3.08222190363141e-09 1.80618566962159e-08 2.89036812231057e-08 5.18036251165337e-09 7.48354264930952e-10 1.19811776352022e-09
"2049" 53215 1.68576346404843e-08 9.35173822209662e-09 3.08008328014075e-09 1.81089350732382e-08 2.90410038159385e-08 5.1781122348442e-09 7.48141375138546e-10 1.19743722812142e-09
"2050" 53216 1.70469530602227e-08 9.34212325997984e-09 3.074881627589e-09 1.80516096517274e-08 2.90166625661476e-08 5.17497553302698e-09 7.48141375138546e-10 1.19657491044103e-09
"2051" 53217 1.70933480890597e-08 9.33218420765844e-09 3.06967997503725e-09 1.79891238398114e-08 2.89797033869092e-08 5.19491388215177e-09 7.48853018048159e-10 1.20160903534067e-09
"2052" 53218 1.71397431178968e-08 9.32224515533704e-09 3.0644783224855e-09 1.79266380278955e-08 2.89427442076707e-08 5.21485223127657e-09 7.49564660957772e-10 1.2066431602403e-09
"2053" 53219 1.71861381467338e-08 9.31230610301564e-09 3.05927666993375e-09 1.78641522159795e-08 2.89057850284322e-08 5.23479058040137e-09 7.50276303867385e-10 1.21167728513994e-09
"2054" 53220 1.72325331755708e-08 9.30236705069423e-09 3.054075017382e-09 1.78016664040636e-08 2.88688258491938e-08 5.25472892952617e-09 7.50987946776998e-10 1.21671141003957e-09
"2055" 53221 1.72789282044078e-08 9.29242799837283e-09 3.04887336483026e-09 1.77391805921476e-08 2.88318666699553e-08 5.27466727865097e-09 7.51699589686611e-10 1.22174553493921e-09
"2056" 53222 1.73253232332448e-08 9.28248894605143e-09 3.04367171227851e-09 1.76766947802316e-08 2.87949074907169e-08 5.29460562777577e-09 7.52411232596224e-10 1.22677965983884e-09
"2057" 53223 1.73717182620819e-08 9.27254989373002e-09 3.03847005972676e-09 1.76142089683157e-08 2.87579483114784e-08 5.31454397690056e-09 7.53122875505837e-10 1.23181378473848e-09
"2058" 53224 1.74181132909189e-08 9.26261084140862e-09 3.03326840717501e-09 1.75517231563997e-08 2.872098913224e-08 5.33448232602536e-09 7.5383451841545e-10 1.23684790963811e-09
"2059" 53225 1.74645083197559e-08 9.25267178908722e-09 3.02806675462326e-09 1.74892373444837e-08 2.86840299530015e-08 5.35442067515016e-09 7.54546161325063e-10 1.24188203453775e-09
"2060" 53226 1.75109033485929e-08 9.24273273676581e-09 3.02286510207151e-09 1.74267515325678e-08 2.8647070773763e-08 5.37435902427496e-09 7.55257804234676e-10 1.24691615943739e-09
"2061" 53227 1.75572983774299e-08 9.23279368444441e-09 3.01766344951976e-09 1.73642657206518e-08 2.86101115945246e-08 5.39429737339976e-09 7.55969447144289e-10 1.25195028433702e-09
"2062" 53228 1.7603693406267e-08 9.22285463212301e-09 3.01246179696801e-09 1.73017799087358e-08 2.85731524152861e-08 5.41423572252456e-09 7.56681090053902e-10 1.25698440923666e-09
"2063" 53229 1.76344559534596e-08 9.23883004328445e-09 3.00438773328223e-09 1.72310901761611e-08 2.85297392658274e-08 5.43813099469938e-09 7.56681090053902e-10 1.26256388098106e-09
"2064" 53230 1.76652185006522e-08 9.25480545444588e-09 2.99631366959646e-09 1.71604004435864e-08 2.84863261163688e-08 5.46202626687421e-09 7.56681090053902e-10 1.26814335272547e-09
"2065" 53231 1.76890241450564e-08 9.2624974241393e-09 2.99507853852975e-09 1.71522163475099e-08 2.84546362872535e-08 5.43837448347625e-09 7.53469650753476e-10 1.27372282446988e-09
"2066" 53232 1.77128297894606e-08 9.27018939383272e-09 2.99384340746304e-09 1.71440322514333e-08 2.84229464581382e-08 5.41472270007828e-09 7.50258211453049e-10 1.27930229621429e-09
"2067" 53233 1.77366354338648e-08 9.27788136352614e-09 2.99260827639633e-09 1.71358481553568e-08 2.83912566290229e-08 5.39107091668032e-09 7.47046772152622e-10 1.2848817679587e-09
"2068" 53234 1.77604410782691e-08 9.28557333321956e-09 2.99137314532962e-09 1.71276640592803e-08 2.83595667999077e-08 5.36741913328235e-09 7.43835332852196e-10 1.29046123970311e-09
"2069" 53235 1.77842467226733e-08 9.29326530291298e-09 2.99013801426291e-09 1.71194799632038e-08 2.83278769707924e-08 5.34376734988439e-09 7.40623893551769e-10 1.29604071144751e-09
"2070" 53236 1.78080523670775e-08 9.30095727260639e-09 2.9889028831962e-09 1.71112958671273e-08 2.82961871416771e-08 5.32011556648642e-09 7.37412454251343e-10 1.30162018319192e-09
"2071" 53237 1.78318580114817e-08 9.30864924229981e-09 2.98766775212949e-09 1.71031117710507e-08 2.82644973125618e-08 5.29646378308846e-09 7.34201014950916e-10 1.30719965493633e-09
"2072" 53238 1.81768899671986e-08 9.29657113741863e-09 2.98773826248734e-09 1.72902065639395e-08 2.82494452581352e-08 5.25714026616784e-09 7.3006504294847e-10 1.30706446638231e-09
"2073" 53239 1.85219219229154e-08 9.28449303253746e-09 2.98780877284519e-09 1.74773013568282e-08 2.82343932037086e-08 5.21781674924722e-09 7.25929070946025e-10 1.30692927782828e-09
"2074" 53240 1.86025414669342e-08 9.36251457895817e-09 2.99790135245241e-09 1.76374124698375e-08 2.82539340361901e-08 5.17012551056044e-09 7.24146948269603e-10 1.31087270903837e-09
"2075" 53241 1.86831610109529e-08 9.44053612537888e-09 3.00799393205962e-09 1.77975235828467e-08 2.82734748686715e-08 5.12243427187366e-09 7.22364825593181e-10 1.31481614024846e-09
"2076" 53242 1.87637805549716e-08 9.51855767179959e-09 3.01808651166684e-09 1.7957634695856e-08 2.8293015701153e-08 5.07474303318688e-09 7.20582702916759e-10 1.31875957145855e-09
"2077" 53243 1.88444000989903e-08 9.60789118841429e-09 3.01452213918241e-09 1.81207695145365e-08 2.83180726382273e-08 5.07492031818849e-09 7.22012019540764e-10 1.31712353092423e-09
"2078" 53244 1.8925019643009e-08 9.697224705029e-09 3.01095776669798e-09 1.82839043332171e-08 2.83431295753015e-08 5.07509760319011e-09 7.23441336164768e-10 1.31548749038992e-09
"2079" 53245 1.90056391870277e-08 9.78655822164371e-09 3.00739339421354e-09 1.84470391518976e-08 2.83681865123757e-08 5.07527488819172e-09 7.24870652788773e-10 1.3138514498556e-09
"2080" 53246 1.90862587310465e-08 9.87589173825842e-09 3.00382902172911e-09 1.86101739705782e-08 2.839324344945e-08 5.07545217319333e-09 7.26299969412778e-10 1.31221540932128e-09
"2081" 53247 1.91668782750652e-08 9.96522525487313e-09 3.00026464924468e-09 1.87733087892588e-08 2.84183003865242e-08 5.07562945819494e-09 7.27729286036783e-10 1.31057936878696e-09
"2082" 53248 1.92474978190839e-08 1.00545587714878e-08 2.99670027676024e-09 1.89364436079393e-08 2.84433573235984e-08 5.07580674319655e-09 7.29158602660787e-10 1.30894332825264e-09
"2083" 53249 1.93281173631026e-08 1.01438922881025e-08 2.99313590427581e-09 1.90995784266199e-08 2.84684142606727e-08 5.07598402819816e-09 7.30587919284792e-10 1.30730728771832e-09
"2084" 53250 1.94087369071213e-08 1.02332258047173e-08 2.98957153179138e-09 1.92627132453004e-08 2.84934711977469e-08 5.07616131319977e-09 7.32017235908797e-10 1.30567124718401e-09
"2085" 53251 1.9381979036782e-08 1.02331537846718e-08 2.97467944863302e-09 1.93558468681495e-08 2.8492844971374e-08 5.09571199043372e-09 7.32017235908797e-10 1.3000917754396e-09
"2086" 53252 1.93851353645384e-08 1.02300532359003e-08 2.97463244172778e-09 1.93558468681495e-08 2.84605751202729e-08 5.11526266766767e-09 7.2880579660837e-10 1.29796157441674e-09
"2087" 53253 1.93882916922948e-08 1.02269526871289e-08 2.97458543482255e-09 1.93558468681495e-08 2.84283052691718e-08 5.13481334490162e-09 7.25594357307944e-10 1.29583137339389e-09
"2088" 53254 1.93914480200511e-08 1.02238521383574e-08 2.97453842791732e-09 1.93558468681495e-08 2.83960354180707e-08 5.15436402213557e-09 7.22382918007517e-10 1.29370117237104e-09
"2089" 53255 1.93946043478075e-08 1.0220751589586e-08 2.97449142101209e-09 1.93558468681495e-08 2.83637655669696e-08 5.17391469936952e-09 7.1917147870709e-10 1.29157097134819e-09
"2090" 53256 1.93977606755639e-08 1.02176510408145e-08 2.97444441410686e-09 1.93558468681495e-08 2.83314957158685e-08 5.19346537660347e-09 7.15960039406664e-10 1.28944077032533e-09
"2091" 53257 1.94009170033202e-08 1.02145504920431e-08 2.97439740720163e-09 1.93558468681495e-08 2.82992258647674e-08 5.21301605383742e-09 7.12748600106237e-10 1.28731056930248e-09
"2092" 53258 1.94040733310766e-08 1.02114499432716e-08 2.97435040029639e-09 1.93558468681495e-08 2.82669560136663e-08 5.23256673107138e-09 7.0953716080581e-10 1.28518036827963e-09
"2093" 53259 1.94072296588329e-08 1.02083493945002e-08 2.97430339339116e-09 1.93558468681495e-08 2.82346861625652e-08 5.25211740830532e-09 7.06325721505384e-10 1.28305016725677e-09
"2094" 53260 1.94853920670549e-08 1.02939701919569e-08 2.9981025223014e-09 1.9437713215504e-08 2.88351088909919e-08 5.34351208554404e-09 7.04324678231777e-10 1.28917498584595e-09
"2095" 53261 1.95635544752768e-08 1.03795909894136e-08 3.02190165121164e-09 1.95195795628585e-08 2.94355316194185e-08 5.43490676278276e-09 7.0232363495817e-10 1.29529980443513e-09
"2096" 53262 1.96417168834987e-08 1.04652117868704e-08 3.04570078012188e-09 1.9601445910213e-08 3.00359543478452e-08 5.52630144002148e-09 7.00322591684564e-10 1.30142462302432e-09
"2097" 53263 1.97198792917206e-08 1.05508325843271e-08 3.06949990903212e-09 1.96833122575674e-08 3.06363770762719e-08 5.6176961172602e-09 6.98321548410957e-10 1.3075494416135e-09
"2098" 53264 1.97980416999425e-08 1.06364533817838e-08 3.09329903794236e-09 1.97651786049219e-08 3.12367998046985e-08 5.70909079449891e-09 6.9632050513735e-10 1.31367426020268e-09
"2099" 53265 1.98762041081644e-08 1.07220741792406e-08 3.1170981668526e-09 1.98470449522764e-08 3.18372225331252e-08 5.80048547173763e-09 6.94319461863744e-10 1.31979907879186e-09
"2100" 53266 1.99497029403416e-08 1.08078390167882e-08 3.13797528741745e-09 1.99919355138286e-08 3.23341782400821e-08 5.85683502322136e-09 6.96454390592583e-10 1.32818928695792e-09
"2101" 53267 2.0028859191819e-08 1.0893459814245e-08 3.16279542601472e-09 2.01368260753807e-08 3.27296783221217e-08 5.92401296016965e-09 6.96235469995398e-10 1.33018889205542e-09
"2102" 53268 2.0095390132271e-08 1.09768182176629e-08 3.18664156183019e-09 2.02694122060394e-08 3.33866010622683e-08 6.01508616929277e-09 6.98084535399436e-10 1.33450048045736e-09
"2103" 53269 2.01619210727229e-08 1.10601766210808e-08 3.21048769764566e-09 2.04019983366981e-08 3.40435238024149e-08 6.10615937841589e-09 6.99933600803474e-10 1.33881206885931e-09
"2104" 53270 2.02284520131749e-08 1.11435350244988e-08 3.23433383346113e-09 2.05345844673568e-08 3.47004465425615e-08 6.19723258753902e-09 7.01782666207512e-10 1.34312365726125e-09
"2105" 53271 2.02949829536269e-08 1.12268934279167e-08 3.2581799692766e-09 2.06671705980155e-08 3.53573692827081e-08 6.28830579666214e-09 7.0363173161155e-10 1.34743524566319e-09
"2106" 53272 2.03615138940788e-08 1.13102518313346e-08 3.28202610509207e-09 2.07997567286742e-08 3.60142920228547e-08 6.37937900578526e-09 7.05480797015589e-10 1.35174683406514e-09
"2107" 53273 2.04280448345308e-08 1.13936102347526e-08 3.30587224090755e-09 2.09323428593329e-08 3.66712147630013e-08 6.47045221490838e-09 7.07329862419627e-10 1.35605842246708e-09
"2108" 53274 2.04945757749827e-08 1.14769686381705e-08 3.32971837672302e-09 2.10649289899916e-08 3.7328137503148e-08 6.5615254240315e-09 7.09178927823665e-10 1.36037001086903e-09
"2109" 53275 2.05012453524331e-08 1.14745622040408e-08 3.32971837672302e-09 2.10174567831421e-08 3.74020804377503e-08 6.56323207027236e-09 7.09963544265673e-10 1.35629139110491e-09
"2110" 53276 2.0610952723324e-08 1.1488599311368e-08 3.32874437394122e-09 2.10501931674482e-08 3.74174008749081e-08 6.56878455833689e-09 7.09677680940872e-10 1.35234795989482e-09
"2111" 53277 2.05993212555541e-08 1.14884192612543e-08 3.32777037115942e-09 2.10263550409229e-08 3.75773679080978e-08 6.5686403752229e-09 7.09604707408477e-10 1.34840452868473e-09
"2112" 53278 2.05876897877841e-08 1.14882392111407e-08 3.32679636837762e-09 2.10025169143976e-08 3.77373349412875e-08 6.56849619210892e-09 7.09531733876082e-10 1.34446109747464e-09
"2113" 53279 2.05760583200141e-08 1.1488059161027e-08 3.32582236559583e-09 2.09786787878722e-08 3.78973019744772e-08 6.56835200899493e-09 7.09458760343687e-10 1.34051766626455e-09
"2114" 53280 2.05644268522442e-08 1.14878791109133e-08 3.32484836281403e-09 2.09548406613469e-08 3.80572690076669e-08 6.56820782588095e-09 7.09385786811292e-10 1.33657423505446e-09
"2115" 53281 2.05527953844742e-08 1.14876990607996e-08 3.32387436003223e-09 2.09310025348216e-08 3.82172360408566e-08 6.56806364276696e-09 7.09312813278897e-10 1.33263080384437e-09
"2116" 53282 2.05411639167043e-08 1.14875190106859e-08 3.32290035725043e-09 2.09071644082962e-08 3.83772030740463e-08 6.56791945965298e-09 7.09239839746502e-10 1.32868737263428e-09
"2117" 53283 2.05295324489343e-08 1.14873389605722e-08 3.32192635446863e-09 2.08833262817709e-08 3.8537170107236e-08 6.56777527653899e-09 7.09166866214107e-10 1.32474394142419e-09
"2118" 53284 2.05179009811644e-08 1.14871589104586e-08 3.32095235168684e-09 2.08594881552456e-08 3.86971371404256e-08 6.56763109342501e-09 7.09093892681712e-10 1.3208005102141e-09
"2119" 53285 2.05062695133944e-08 1.14869788603449e-08 3.31997834890504e-09 2.08356500287202e-08 3.88571041736153e-08 6.56748691031102e-09 7.09020919149317e-10 1.31685707900401e-09
"2120" 53286 2.04946380456244e-08 1.14867988102312e-08 3.31900434612324e-09 2.08118119021949e-08 3.9017071206805e-08 6.56734272719704e-09 7.08947945616923e-10 1.31291364779392e-09
"2121" 53287 2.04830065778545e-08 1.14866187601175e-08 3.31803034334144e-09 2.07879737756696e-08 3.91770382399947e-08 6.56719854408305e-09 7.08874972084528e-10 1.30897021658383e-09
"2122" 53288 2.04816777905349e-08 1.14918016528141e-08 3.31575069913509e-09 2.08062944309376e-08 3.93399083309772e-08 6.54315908879424e-09 7.08874972084528e-10 1.30910540513785e-09
"2123" 53289 2.04803490032153e-08 1.14969845455106e-08 3.31347105492873e-09 2.08246150862056e-08 3.95027784219597e-08 6.51911963350543e-09 7.08874972084528e-10 1.30924059369188e-09
"2124" 53290 2.04790202158958e-08 1.15021674382072e-08 3.31119141072238e-09 2.08429357414736e-08 3.96656485129423e-08 6.49508017821661e-09 7.08874972084528e-10 1.3093757822459e-09
"2125" 53291 2.04776914285762e-08 1.15073503309038e-08 3.30891176651602e-09 2.08612563967416e-08 3.98285186039248e-08 6.4710407229278e-09 7.08874972084528e-10 1.30951097079993e-09
"2126" 53292 2.04763626412566e-08 1.15125332236003e-08 3.30663212230966e-09 2.08795770520096e-08 3.99913886949073e-08 6.44700126763899e-09 7.08874972084528e-10 1.30964615935396e-09
"2127" 53293 2.0475033853937e-08 1.15177161162969e-08 3.30435247810331e-09 2.08978977072776e-08 4.01542587858898e-08 6.42296181235018e-09 7.08874972084528e-10 1.30978134790798e-09
"2128" 53294 2.04737050666174e-08 1.15228990089935e-08 3.30207283389695e-09 2.09162183625456e-08 4.03171288768723e-08 6.39892235706136e-09 7.08874972084528e-10 1.30991653646201e-09
"2129" 53295 2.04723762792979e-08 1.152808190169e-08 3.2997931896906e-09 2.09345390178136e-08 4.04799989678548e-08 6.37488290177255e-09 7.08874972084528e-10 1.31005172501603e-09
"2130" 53296 2.04795262949708e-08 1.1551878011225e-08 3.3358444348452e-09 2.10190437032086e-08 4.04808771928754e-08 6.37801960358978e-09 7.07950439382509e-10 1.3068774240312e-09
"2131" 53297 2.06113792418612e-08 1.15928270882696e-08 3.3358444348452e-09 2.10032876496591e-08 4.05030608924602e-08 6.37773123736181e-09 7.0702590668049e-10 1.29885078042832e-09
"2132" 53298 2.07432321887516e-08 1.16337761653141e-08 3.3358444348452e-09 2.09875315961097e-08 4.05252445920451e-08 6.37744287113384e-09 7.0610137397847e-10 1.29082413682544e-09
"2133" 53299 2.08750851356419e-08 1.16747252423586e-08 3.3358444348452e-09 2.09717755425603e-08 4.054742829163e-08 6.37715450490587e-09 7.05176841276451e-10 1.28279749322257e-09
"2134" 53300 2.10069380825323e-08 1.17156743194031e-08 3.3358444348452e-09 2.09560194890109e-08 4.05696119912149e-08 6.3768661386779e-09 7.04252308574432e-10 1.27477084961969e-09
"2135" 53301 2.11387910294227e-08 1.17566233964477e-08 3.3358444348452e-09 2.09402634354615e-08 4.05917956907997e-08 6.37657777244993e-09 7.03327775872413e-10 1.26674420601681e-09
"2136" 53302 2.1147667047121e-08 1.17261580590742e-08 3.32679636837762e-09 2.0884536296403e-08 4.03680806673817e-08 6.36089426336379e-09 6.96910928076339e-10 1.25777124253576e-09
"2137" 53303 2.11565430648193e-08 1.16956927217007e-08 3.31774830191005e-09 2.08288091573444e-08 4.01443656439637e-08 6.34521075427766e-09 6.90494080280264e-10 1.2487982790547e-09
"2138" 53304 2.11654190825176e-08 1.16652273843273e-08 3.30870023544248e-09 2.07730820182859e-08 3.99206506205456e-08 6.32952724519152e-09 6.8407723248419e-10 1.23982531557365e-09
"2139" 53305 2.11742951002159e-08 1.16347620469538e-08 3.2996521689749e-09 2.07173548792274e-08 3.96969355971276e-08 6.31384373610539e-09 6.77660384688115e-10 1.2308523520926e-09
"2140" 53306 2.11831711179142e-08 1.16042967095803e-08 3.29060410250733e-09 2.06616277401689e-08 3.94732205737096e-08 6.29816022701925e-09 6.7124353689204e-10 1.22187938861154e-09
"2141" 53307 2.11920471356125e-08 1.15738313722068e-08 3.28155603603976e-09 2.06059006011104e-08 3.92495055502915e-08 6.28247671793312e-09 6.64826689095966e-10 1.21290642513049e-09
"2142" 53308 2.12009231533109e-08 1.15433660348334e-08 3.27250796957218e-09 2.05501734620519e-08 3.90257905268735e-08 6.26679320884699e-09 6.58409841299891e-10 1.20393346164944e-09
"2143" 53309 2.12097991710092e-08 1.15129006974599e-08 3.26345990310461e-09 2.04944463229933e-08 3.88020755034555e-08 6.25110969976085e-09 6.51992993503817e-10 1.19496049816838e-09
"2144" 53310 2.12186751887075e-08 1.14824353600864e-08 3.25441183663704e-09 2.04387191839348e-08 3.85783604800374e-08 6.23542619067472e-09 6.45576145707742e-10 1.18598753468733e-09
"2145" 53311 2.12275512064058e-08 1.1451970022713e-08 3.24536377016946e-09 2.03829920448763e-08 3.83546454566194e-08 6.21974268158858e-09 6.39159297911668e-10 1.17701457120627e-09
"2146" 53312 2.12364272241041e-08 1.14215046853395e-08 3.23631570370189e-09 2.03272649058178e-08 3.81309304332013e-08 6.20405917250245e-09 6.32742450115593e-10 1.16804160772522e-09
"2147" 53313 2.12453032418024e-08 1.1391039347966e-08 3.22726763723432e-09 2.02715377667593e-08 3.79072154097833e-08 6.18837566341631e-09 6.26325602319518e-10 1.15906864424417e-09
"2148" 53314 2.12541792595007e-08 1.13605740105926e-08 3.21821957076674e-09 2.02158106277007e-08 3.76835003863653e-08 6.17269215433018e-09 6.19908754523444e-10 1.15009568076311e-09
"2149" 53315 2.1263055277199e-08 1.13301086732191e-08 3.20917150429917e-09 2.01600834886422e-08 3.74597853629472e-08 6.15700864524404e-09 6.13491906727369e-10 1.14112271728206e-09
"2150" 53316 2.12719312948973e-08 1.12996433358456e-08 3.2001234378316e-09 2.01043563495837e-08 3.72360703395292e-08 6.14132513615791e-09 6.07075058931295e-10 1.13214975380101e-09
"2151" 53317 2.14513479118701e-08 1.13405203928447e-08 3.19107537136402e-09 2.00551214632453e-08 3.71534480518519e-08 6.14200117427673e-09 6.06150526229276e-10 1.13568761934902e-09
"2152" 53318 2.14491890903481e-08 1.13393635351085e-08 3.19033899341452e-09 1.9946730539964e-08 3.7150097689507e-08 6.14111474926867e-09 6.0636944682646e-10 1.13364601315263e-09
"2153" 53319 2.14486976631888e-08 1.13433175500234e-08 3.20150217992014e-09 1.98394589706001e-08 3.7150097689507e-08 6.13926391991383e-09 6.04234518097621e-10 1.13160440695623e-09
"2154" 53320 2.14482062360294e-08 1.13472715649383e-08 3.21266536642576e-09 1.97321874012361e-08 3.7150097689507e-08 6.13741309055899e-09 6.02099589368782e-10 1.12956280075984e-09
"2155" 53321 2.14477148088701e-08 1.13512255798533e-08 3.22382855293137e-09 1.96249158318721e-08 3.7150097689507e-08 6.13556226120414e-09 5.99964660639943e-10 1.12752119456345e-09
"2156" 53322 2.14472233817107e-08 1.13551795947682e-08 3.23499173943699e-09 1.95176442625081e-08 3.7150097689507e-08 6.1337114318493e-09 5.97829731911104e-10 1.12547958836705e-09
