time,channel1,channel2,channel3,channel4,channel5,channel6,channel7,channel8,class
44284,9.948199995732539e-9,1.1678775873182374e-8,6.1410515567765705e-9,2.095413045662479e-8,5.622211546022514e-8,3.3654011844146876e-9,6.977402585449733e-10,8.883235413013969e-10,0
44285,1.0000648972148965e-8,1.170653857080587e-8,6.2039631639914155e-9,2.1162265556036942e-8,5.627464292125008e-8,3.3662659498166353e-9,6.981941012496128e-10,8.837170363337697e-10,0
44286,1.005309794856539e-8,1.1734301268429368e-8,6.266874771206261e-9,2.1370400655449097e-8,5.6327170382275015e-8,3.367130715218583e-9,6.986479439542521e-10,8.791105313661427e-10,0
44287,1.0105546924981816e-8,1.1762063966052864e-8,6.329786378421106e-9,2.157853575486125e-8,5.6379697843299946e-8,3.3679954806205307e-9,6.991017866588916e-10,8.745040263985156e-10,0
44288,1.0157995901398242e-8,1.178982666367636e-8,6.392697985635951e-9,2.1786670854273404e-8,5.6432225304324883e-8,3.3688602460224784e-9,6.99555629363531e-10,8.698975214308884e-10,0
44289,1.0210444877814668e-8,1.1817589361299857e-8,6.455609592850796e-9,2.1994805953685556e-8,5.648475276534982e-8,3.369725011424426e-9,7.000094720681704e-10,8.652910164632613e-10,0
44290,1.0262893854231094e-8,1.1845352058923353e-8,6.518521200065642e-9,2.220294105309771e-8,5.653728022637475e-8,3.370589776826374e-9,7.004633147728098e-10,8.606845114956342e-10,0
44291,1.027990472628926e-8,1.1847109657472155e-8,6.518521200065642e-9,2.231980051290779e-8,5.638978159995644e-8,3.370589776826374e-9,7.009171574774493e-10,8.549081837387361e-10,0
44292,1.0368944261799404e-8,1.1848771554912333e-8,6.53391486281744e-9,2.231673619816592e-8,5.641504782423449e-8,3.370589776826374e-9,7.017633828103168e-10,8.507640387935873e-10,0
44293,1.0457983797309545e-8,1.185043345235251e-8,6.549308525569239e-9,2.231367188342405e-8,5.6440314048512543e-8,3.370589776826374e-9,7.026096081431843e-10,8.466198938484387e-10,0
44294,1.0547023332819689e-8,1.1852095349792688e-8,6.564702188321038e-9,2.231060756868218e-8,5.64655802727906e-8,3.370589776826374e-9,7.034558334760518e-10,8.4247574890329e-10,0
44295,1.0636062868329832e-8,1.1853757247232865e-8,6.580095851072837e-9,2.230754325394031e-8,5.6490846497068656e-8,3.370589776826374e-9,7.043020588089193e-10,8.383316039581414e-10,0
44296,1.0725102403839974e-8,1.1855419144673043e-8,6.595489513824636e-9,2.2304478939198436e-8,5.651611272134671e-8,3.370589776826374e-9,7.051482841417867e-10,8.341874590129926e-10,0
44297,1.0814141939350117e-8,1.1857081042113218e-8,6.610883176576435e-9,2.2301414624456566e-8,5.654137894562476e-8,3.370589776826374e-9,7.059945094746542e-10,8.30043314067844e-10,0
44298,1.090318147486026e-8,1.1858742939553396e-8,6.626276839328233e-9,2.2298350309714697e-8,5.6566645169902814e-8,3.370589776826374e-9,7.068407348075217e-10,8.258991691226953e-10,0
44299,1.0992221010370402e-8,1.1860404836993573e-8,6.6416705020800325e-9,2.2295285994972824e-8,5.659191139418087e-8,3.370589776826374e-9,7.076869601403892e-10,8.217550241775467e-10,0
44300,1.1081260545880546e-8,1.186206673443375e-8,6.657064164831832e-9,2.2292221680230954e-8,5.661717761845892e-8,3.370589776826374e-9,7.085331854732567e-10,8.176108792323979e-10,0
44301,1.117030008139069e-8,1.1863728631873928e-8,6.67245782758363e-9,2.2289157365489084e-8,5.664244384273698e-8,3.370589776826374e-9,7.093794108061242e-10,8.134667342872493e-10,0
44302,1.1259339616900831e-8,1.1865390529314106e-8,6.687851490335429e-9,2.228609305074721e-8,5.666771006701503e-8,3.370589776826374e-9,7.102256361389917e-10,8.093225893421006e-10,0
44303,1.1348379152410974e-8,1.1867052426754282e-8,6.703245153087228e-9,2.228302873600534e-8,5.6692976291293085e-8,3.370589776826374e-9,7.110718614718591e-10,8.051784443969519e-10,0
44304,1.1437418687921118e-8,1.1868714324194459e-8,6.718638815839027e-9,2.2279964421263472e-8,5.671824251557114e-8,3.370589776826374e-9,7.119180868047266e-10,8.010342994518032e-10,0
44305,1.152645822343126e-8,1.1870376221634637e-8,6.734032478590826e-9,2.2276900106521602e-8,5.674350873984919e-8,3.370589776826374e-9,7.127643121375941e-10,7.968901545066546e-10,0
44306,1.1615497758941403e-8,1.1872038119074814e-8,6.749426141342625e-9,2.227383579177973e-8,5.676877496412724e-8,3.370589776826374e-9,7.136105374704616e-10,7.927460095615059e-10,0
44307,1.1704537294451546e-8,1.1873700016514991e-8,6.7648198040944234e-9,2.227077147703786e-8,5.6794041188405296e-8,3.370589776826374e-9,7.144567628033291e-10,7.886018646163572e-10,0
44308,1.179357682996169e-8,1.1875361913955169e-8,6.780213466846223e-9,2.226770716229599e-8,5.6819307412683355e-8,3.370589776826374e-9,7.153029881361966e-10,7.844577196712085e-10,0
44309,1.1882616365471832e-8,1.1877023811395345e-8,6.795607129598022e-9,2.2264642847554117e-8,5.684457363696141e-8,3.370589776826374e-9,7.161492134690641e-10,7.803135747260599e-10,0
44310,1.1971655900981975e-8,1.1878685708835522e-8,6.81100079234982e-9,2.2261578532812247e-8,5.686983986123946e-8,3.370589776826374e-9,7.169954388019316e-10,7.761694297809111e-10,0
44311,1.2060695436492118e-8,1.18803476062757e-8,6.826394455101619e-9,2.2258514218070378e-8,5.6895106085517513e-8,3.370589776826374e-9,7.178416641347991e-10,7.720252848357625e-10,0
44312,1.214973497200226e-8,1.1882009503715877e-8,6.8417881178534184e-9,2.2255449903328505e-8,5.6920372309795566e-8,3.370589776826374e-9,7.186878894676666e-10,7.678811398906139e-10,0
44313,1.2209835935055288e-8,1.1921718350875185e-8,6.861375887752873e-9,2.224982002696197e-8,5.6774540127428374e-8,3.3737351424860436e-9,7.186878894676666e-10,7.612614259067945e-10,0
44314,1.2269936898108315e-8,1.1961427198034492e-8,6.880963657652329e-9,2.224419015059544e-8,5.662870794506118e-8,3.3768805081457134e-9,7.186878894676666e-10,7.546417119229752e-10,0
44315,1.2330037861161341e-8,1.20011360451938e-8,6.900551427551784e-9,2.2238560274228902e-8,5.648287576269399e-8,3.380025873805383e-9,7.186878894676666e-10,7.480219979391559e-10,0
44316,1.2390138824214369e-8,1.2040844892353108e-8,6.920139197451239e-9,2.223293039786237e-8,5.63370435803268e-8,3.383171239465053e-9,7.186878894676666e-10,7.414022839553365e-10,0
44317,1.2450239787267395e-8,1.2080553739512417e-8,6.939726967350694e-9,2.2227300521495833e-8,5.6191211397959605e-8,3.3863166051247227e-9,7.186878894676666e-10,7.347825699715173e-10,0
44318,1.2510340750320423e-8,1.2120262586671724e-8,6.95931473725015e-9,2.22216706451293e-8,5.604537921559241e-8,3.3894619707843925e-9,7.186878894676666e-10,7.281628559876979e-10,0
44319,1.257044171337345e-8,1.2159971433831032e-8,6.9789025071496044e-9,2.2216040768762763e-8,5.589954703322522e-8,3.3926073364440623e-9,7.186878894676666e-10,7.215431420038786e-10,0
44320,1.2573802244870249e-8,1.2159899657999562e-8,6.982507272482848e-9,2.229171528880736e-8,5.575661047623022e-8,3.410968673196178e-9,7.240843529318083e-10,7.169366370362515e-10,0
44321,1.2586652402112262e-8,1.2157619381056398e-08,6.982507272482848e-9,2.2332102833841538e-8,5.561176399911615e-8,3.4156706165793533e-9,7.256869827724081e-10,7.104892396072892e-10,0
44322,1.2599502559354276e-8,1.2155339104113231e-8,6.982507272482848e-9,2.237249037887572e-8,5.5466917522002066e-8,3.4203725599625292e-9,7.27289612613008e-10,7.04041842178327e-10,0
44323,1.260820531829842e-8,1.2113349980010757e-8,6.970174842881056e-9,2.237940112647799e-8,5.545858530174645e-8,3.413470440817478e-9,7.280460171207404e-10,7.030625324912773e-10,0
44324,1.2616908077242563e-8,1.2071360855908283e-8,6.957842413279265e-9,2.2386311874080257e-8,5.545025308149083e-8,3.4065683216724266e-9,7.288024216284728e-10,7.020832228042277e-10,0
44325,1.2629758234484576e-8,1.197184948523845e-8,6.951585609781163e-9,2.239963461616759e-8,5.544499847228821e-8,3.4120948182096266e-9,7.304050514690726e-10,7.01103913117178e-10,0
44326,1.2642608391726591e-8,1.1872338114568617e-8,6.945328806283061e-9,2.241295735825492e-8,5.5439743863085584e-8,3.4176213147468267e-9,7.320076813096724e-10,7.001246034301282e-10,0
44327,1.2655458548968605e-8,1.1823292832142239e-8,6.941361686160994e-9,2.2462609643553344e-8,5.533944479712113e-8,3.423473611320844e-9,7.327640858174048e-10,7.002969199849853e-10,0
44328,1.2668308706210618e-8,1.177424754971586e-8,6.9373945660389266e-9,2.2512261928851764e-8,5.5239145731156675e-8,3.4293259078948617e-9,7.335204903251372e-10,7.004692365398424e-10,0
44329,1.2681158863452632e-8,1.1725202267289481e-8,6.933427445916859e-9,2.2561914214150188e-8,5.5138846665192224e-8,3.4351782044688792e-09,7.342768948328696e-10,7.006415530946994e-10,0
44330,1.2694009020694645e-8,1.1676156984863103e-8,6.929460325794792e-9,2.261156649944861e-8,5.5038547599227766e-8,3.4410305010428967e-9,7.350332993406019e-10,7.008138696495566e-10,0
44331,1.2706859177936659e-8,1.1627111702436723e-8,6.9254932056727244e-9,2.266121878474703e-8,5.4938248533263315e-8,3.4468827976169142e-9,7.357897038483344e-10,7.009861862044137e-10,0
44332,1.2719709335178672e-8,1.1578066420010345e-8,6.921526085550657e-9,2.2710871070045455e-8,5.483794946729886e-8,3.4527350941909317e-9,7.365461083560667e-10,7.011585027592708e-10,0
44333,1.2732559492420685e-8,1.1529021137583966e-8,6.917558965428589e-9,2.276052335534388e-8,5.4737650401334406e-8,3.4585873907649492e-9,7.373025128637991e-10,7.013308193141278e-10,0
44334,1.27454096496627e-8,1.1479975855157588e-8,6.9135918453065214e-09,2.28101756406423e-8,5.463735133536995e-8,3.4644396873389667e-9,7.380589173715314e-10,7.015031358689849e-10,0
44335,1.2758259806904714e-8,1.1430930572731208e-8,6.909624725184454e-9,2.2859827925940722e-8,5.4537052269405497e-8,3.4702919839129842e-9,7.388153218792638e-10,7.01675452423842e-10,0
44336,1.2767448002447781e-8,1.1417651963080795e-8,6.917355913783737e-9,2.2859827925940722e-8,5.4460596459735924e-8,3.4706177839498017e-9,7.401603003293383e-10,7.01675452423842e-10,0
44337,1.277663619799085e-8,1.1384471079296415e-8,6.92572122326346e-9,2.2859468945747576e-8,5.4357645244467233e-8,3.4726329025425914e-9,7.409167048370706e-10,7.01675452423842e-10,0
44338,1.2785824393533919e-8,1.1351290195512032e-8,6.934086532743185e-9,2.2859109965554434e-8,5.425469402919854e-8,3.4746480211353807e-9,7.41673109344803e-10,7.01675452423842e-10,0
44339,1.2795012589076988e-8,1.1318109311727652e-8,6.9424518422229094e-9,2.285875098536129e-8,5.415174281392985e-8,3.4766631397281705e-9,7.424295138525354e-10,7.01675452423842e-10,0
44340,1.2804200784620055e-8,1.1284928427943271e-8,6.950817151702633e-9,2.2858392005168146e-8,5.404879159866116e-8,3.47867825832096e-9,7.431859183602678e-10,7.01675452423842e-10,0
44341,1.2813388980163124e-8,1.125174754415889e-8,6.959182461182358e-9,2.2858033024975e-8,5.394584038339247e-8,3.4806933769137495e-9,7.439423228680001e-10,7.01675452423842e-10,0
44342,1.2822577175706193e-8,1.121856666037451e-8,6.967547770662082e-9,2.2857674044781858e-8,5.3842889168123773e-8,3.4827084955065392e-9,7.446987273757325e-10,7.01675452423842e-10,0
44343,1.2831765371249262e-8,1.118538577659013e-8,6.975913080141806e-9,2.2857315064588713e-8,5.373993795285508e-8,3.4847236140993285e-9,7.454551318834649e-10,7.01675452423842e-10,0
44344,1.2840953566792329e-8,1.1152204892805749e-8,6.98427838962153e-9,2.285695608439557e-8,5.363698673758639e-8,3.4867387326921183e-9,7.462115363911973e-10,7.01675452423842e-10,0
44345,1.2850141762335398e-8,1.1119024009021369e-8,6.992643699101255e-9,2.2856597104202425e-8,5.35340355223177e-8,3.4887538512849076e-9,7.469679408989296e-10,7.01675452423842e-10,0
44346,1.2859329957878467e-8,1.1085843125236988e-8,7.001009008580979e-9,2.2856238124009282e-8,5.343108430704901e-8,3.4907689698776973e-9,7.477243454066619e-10,7.01675452423842e-10,0
44347,1.2868518153421535e-8,1.1052662241452608e-8,7.009374318060703e-9,2.2855879143816137e-8,5.332813309178032e-8,3.492784088470487e-9,7.484807499143944e-10,7.01675452423842e-10,0
44348,1.2877706348964603e-8,1.1019481357668225e-8,7.017739627540428e-9,2.285552016362299e-8,5.322518187651163e-8,3.4947992070632764e-9,7.492371544221267e-10,7.01675452423842e-10,0
44349,1.2886894544507671e-8,1.0986300473883845e-8,7.026104937020151e-9,2.285516118342985e-8,5.312223066124293e-8,3.496814325656066e-9,7.499935589298591e-10,7.01675452423842e-10,0
44350,1.2898563189118492e-8,1.0972121897959181e-8,7.036532942850321e-9,2.2843051335692817e-8,5.311432390273607e-8,3.4979847849708697e-9,7.519436609861195e-10,7.008320661969209e-10,0
44351,1.2925967977528313e-8,1.102014574887399e-8,7.035512531800319e-9,2.286349639434511e-8,5.323234889131398e-8,3.516346121722985e-9,7.509012443391379e-10,7.010043827517779e-10,0
44352,1.2931848907647711e-8,1.1082773314147662e-8,7.074959837690848e-9,2.286278607226521e-8,5.334084539577845e-8,3.517669427994216e-9,7.509012443391379e-10,7.030175917679701e-10,0
44353,1.293772983776711e-8,1.1145400879421335e-8,7.114407143581376e-9,2.286207575018531e-8,5.344934190024291e-8,3.518992734265448e-9,7.509012443391379e-10,7.050308007841623e-10,0
44354,1.2943610767886506e-8,1.1208028444695008e-8,7.1538544494719046e-9,2.2861365428105413e-8,5.355783840470738e-8,3.520316040536679e-9,7.509012443391379e-10,7.070440098003545e-10,0
44355,1.2949491698005904e-8,1.127065600996868e-8,7.193301755362433e-9,2.2860655106025514e-8,5.366633490917185e-8,3.5216393468079105e-9,7.509012443391379e-10,7.090572188165468e-10,0
44356,1.2955372628125303e-8,1.1333283575242353e-8,7.232749061252961e-9,2.2859944783945615e-8,5.377483141363632e-8,3.522962653079142e-9,7.509012443391379e-10,7.110704278327389e-10,0
44357,1.2961253558244701e-8,1.1395911140516026e-8,7.2721963671434905e-9,2.2859234461865717e-08,5.3883327918100793e-8,3.5242859593503735e-9,7.509012443391379e-10,7.130836368489311e-10,0
44358,1.29671344883641e-8,1.1458538705789697e-8,7.311643673034019e-9,2.2858524139785818e-8,5.399182442256526e-8,3.525609265621605e-9,7.509012443391379e-10,7.150968458651233e-10,0
44359,1.2973015418483496e-8,1.152116627106337e-8,7.351090978924547e-9,2.285781381770592e-8,5.410032092702973e-8,3.526932571892836e-9,7.509012443391379e-10,7.171100548813156e-10,0
44360,1.2978896348602894e-8,1.1583793836337044e-8,7.390538284815076e-9,2.285710349562602e-8,5.42088174314942e-8,3.5282558781640675e-9,7.509012443391379e-10,7.191232638975077e-10,0
44361,1.2984777278722293e-8,1.1646421401610715e-8,7.429985590705604e-9,2.285639317354612e-8,5.431731393595867e-8,3.529579184435299e-9,7.509012443391379e-10,7.211364729136999e-10,0
44362,1.2990658208841691e-8,1.1709048966884388e-8,7.469432896596133e-9,2.2855682851466223e-8,5.442581044042313e-8,3.5309024907065305e-9,7.509012443391379e-10,7.231496819298921e-10,0
44363,1.299653913896109e-8,1.1771676532158061e-8,7.508880202486662e-9,2.2854972529386324e-8,5.45343069448876e-8,3.532225796977762e-9,7.509012443391379e-10,7.251628909460844e-10,0
44364,1.3002420069080488e-8,1.1834304097431735e-8,7.54832750837719e-9,2.2854262207306425e-8,5.464280344935207e-8,3.533549103248993e-9,7.509012443391379e-10,7.271760999622765e-10,0
44365,1.289878352798852e-8,1.1896979513259719e-8,7.583875378027269e-9,2.2854832756462263e-8,5.4847351232313434e-8,3.5323384316862665e-9,7.52094941887666e-10,7.255075240557985e-10,0
44366,1.2912959254703659e-8,1.1958348233101797e-8,7.621622342356176e-9,2.2796701668171322e-8,5.499866721348925e-8,3.530516372297828e-9,7.531373585346474e-10,7.266773468450696e-10,0
44367,1.2927134981418798e-8,1.2019716952943872e-8,7.659369306685083e-9,2.273857057988038e-8,5.514998319466507e-8,3.5286943129093895e-9,7.54179775181629e-10,7.278471696343406e-10,0
44368,1.2941310708133935e-8,1.208108567278595e-8,7.69711627101399e-9,2.268043949158944e-8,5.530129917584089e-8,3.526872253520951e-9,7.552221918286105e-10,7.290169924236117e-10,0
44369,1.2955486434849073e-8,1.2142454392628027e-8,7.734863235342897e-9,2.2622308403298497e-8,5.545261515701671e-8,3.525050194132513e-9,7.56264608475592e-10,7.301868152128827e-10,0
44370,1.2969662161564212e-8,1.2203823112470105e-8,7.772610199671804e-9,2.2564177315007556e-8,5.5603931138192526e-8,3.5232281347440746e-9,7.573070251225736e-10,7.313566380021538e-10,0
44371,1.298383788827935e-8,1.226519183231218e-8,7.81035716400071e-9,2.2506046226716615e-8,5.5755247119368344e-8,3.521406075355636e-9,7.583494417695551e-10,7.325264607914248e-10,0
44372,1.2998013614994488e-8,1.2326560552154258e-8,7.848104128329618e-9,2.2447915138425674e-8,5.590656310054416e-8,3.5195840159671976e-9,7.593918584165366e-10,7.336962835806959e-10,0
44373,1.3012189341709626e-8,1.2387929271996335e-8,7.885851092658525e-9,2.2389784050134733e-8,5.605787908171998e-8,3.517761956578759e-9,7.604342750635181e-10,7.348661063699669e-10,0
44374,1.3026365068424765e-8,1.2449297991838413e-8,7.923598056987432e-9,2.2331652961843792e-8,5.62091950628958e-8,3.5159398971903207e-9,7.614766917104997e-10,7.36035929159238e-10,0
44375,1.3040540795139904e-8,1.2510666711680488e-8,7.96134502131634e-9,2.2273521873552852e-8,5.636051104407162e-8,3.5141178378018827e-9,7.625191083574812e-10,7.37205751948509e-10,0
44376,1.305471652185504e-8,1.2572035431522566e-8,7.999091985645247e-9,2.221539078526191e-8,5.6511827025247436e-8,3.512295778413444e-9,7.635615250044627e-10,7.3837557473778e-10,0
44377,1.306889224857018e-8,1.2633404151364643e-8,8.036838949974154e-9,2.215725969697097e-8,5.6663143006423254e-8,3.5104737190250057e-9,7.646039416514443e-10,7.395453975270511e-10,0
44378,1.3083067975285318e-8,1.269477287120672e-8,8.074585914303061e-9,2.209912860868003e-8,5.681445898759907e-8,3.5086516596365673e-9,7.656463582984257e-10,7.407152203163221e-10,0
44379,1.3097243702000457e-8,1.2756141591048796e-8,8.112332878631968e-9,2.204099752038909e-8,5.696577496877489e-8,3.506829600248129e-9,7.666887749454073e-10,7.418850431055932e-10,0
44380,1.3108859080538149e-8,1.2754122653302813e-8,8.144977787710863e-9,2.209592834016729e-8,5.691546239432414e-8,3.5027068344780067e-9,7.666887749454073e-10,7.413680934410219e-10,0
44381,1.3120474459075841e-8,1.275210371555683e-8,8.177622696789758e-9,2.2150859159945492e-8,5.686514981987338e-8,3.4985840687078846e-9,7.666887749454073e-10,7.408511437764507e-10,0
44382,1.3132089837613534e-8,1.2750084777810844e-8,8.210267605868653e-9,2.2205789979723695e-8,5.681483724542263e-8,3.4944613029377625e-9,7.666887749454073e-10,7.403341941118794e-10,0
44383,1.3143705216151226e-8,1.274806584006486e-8,8.242912514947547e-9,2.2260720799501895e-8,5.6764524670971875e-8,3.4903385371676404e-9,7.666887749454073e-10,7.398172444473082e-10,0
44384,1.3155320594688919e-8,1.2746046902318876e-8,8.275557424026442e-9,2.23156516192801e-8,5.671421209652112e-8,3.4862157713975183e-9,7.666887749454073e-10,7.393002947827369e-10,0
44385,1.3166935973226613e-8,1.2744027964572892e-8,8.308202333105337e-9,2.23705824390583e-8,5.6663899522070366e-8,3.482093005627396e-9,7.666887749454073e-10,7.387833451181657e-10,0
44386,1.3177449738242805e-8,1.2742769119141296e-8,8.305481580493713e-9,2.231458613616025e-8,5.6610667720284816e-8,3.483649583350902e-9,7.673388089641607e-10,7.399531679074367e-10,0
44387,1.3115710883855397e-8,1.2671517360360628e-8,8.306275004518127e-9,2.2283584008548398e-8,5.660111811968944e-8,3.48006578294591e-9,7.637577163185768e-10,7.376681119709874e-10,0
44388,1.3098070518356374e-8,1.2573027421202366e-8,8.301355157227675e-9,2.2248319948457156e-8,5.631883814181223e-8,3.4847677263290855e-9,7.644077503373302e-10,7.388379347602585e-10,0
44389,1.308043015285735e-8,1.2474537482044103e-8,8.296435309937224e-9,2.221305588836591e-8,5.6036558163935033e-8,3.4894696697122614e-9,7.650577843560836e-10,7.400077575495295e-10,0
44390,1.3062789787358328e-8,1.237604754288584e-8,8.29151546264677e-9,2.217779182827467e-8,5.575427818605783e-8,3.494171613095437e-9,7.657078183748372e-10,7.411775803388006e-10,0
44391,1.3045149421859305e-8,1.2277557603727577e-8,8.286595615356319e-9,2.2142527768183424e-8,5.547199820818063e-8,3.498873556478613e-9,7.663578523935906e-10,7.423474031280716e-10,0
44392,1.3027509056360282e-8,1.2179067664569314e-8,8.281675768065865e-9,2.2107263708092183e-8,5.518971823030343e-8,3.5035754998617883e-9,7.67007886412344e-10,7.435172259173427e-10,0
44393,1.3009868690861259e-8,1.2080577725411051e-8,8.276755920775414e-9,2.2071999648000937e-8,5.4907438252426225e-8,3.5082774432449638e-9,7.676579204310975e-10,7.446870487066137e-10,0
44394,1.2992228325362236e-8,1.198208778625279e-8,8.271836073484962e-9,2.2036735587909696e-8,5.4625158274549026e-8,3.5129793866281397e-9,7.68307954449851e-10,7.458568714958848e-10,0
44395,1.2962919315252392e-8,1.1946225412368199e-8,8.290312843637209e-9,2.2016075141141518e-8,5.45198244734873e-8,3.532716345988106e-9,7.725390811141884e-10,7.451858018238207e-10,0
44396,1.2974732016705145e-8,1.1848922542810063e-8,8.29355422361648e-9,2.1988076989692492e-8,5.4409980777888763e-8,3.5335811113900537e-9,7.743379022689023e-10,7.443424155968996e-10,0
44397,1.29865447181579e-8,1.1751619673251927e-8,8.296795603595752e-9,2.1960078838243466e-8,5.430013708229023e-8,3.5344458767920015e-9,7.761367234236162e-10,7.434990293699784e-10,0
44398,1.2998357419610652e-8,1.1654316803693791e-8,8.300036983575024e-9,2.193208068679444e-8,5.419029338669169e-8,3.535310642193949e-9,7.779355445783301e-10,7.426556431430572e-10,0
44399,1.3010170121063405e-8,1.1557013934135654e-8,8.303278363554294e-9,2.1904082535345418e-8,5.4080449691093155e-8,3.536175407595897e-9,7.79734365733044e-10,7.418122569161361e-10,0
44400,1.302198282251616e-8,1.1459711064577519e-8,8.306519743533566e-9,2.1876084383896392e-8,5.397060599549461e-8,3.5370401729978446e-9,7.815331868877579e-10,7.40968870689215e-10,0
44401,1.3033795523968912e-8,1.1362408195019382e-8,8.309761123512837e-9,2.1848086232447366e-8,5.3860762299896077e-8,3.5379049383997923e-9,7.833320080424718e-10,7.401254844622938e-10,0
44402,1.3045608225421665e-8,1.1265105325461247e-8,8.313002503492109e-9,2.182008808099834e-8,5.375091860429754e-8,3.53876970380174e-9,7.851308291971857e-10,7.392820982353726e-10,0
44403,1.3057420926874419e-8,1.116780245590311e-8,8.316243883471381e-9,2.1792089929549315e-8,5.3641074908699005e-8,3.5396344692036877e-9,7.869296503518996e-10,7.384387120084515e-10,0
44404,1.3069233628327172e-8,1.1070499586344975e-8,8.319485263450652e-9,2.1764091778100292e-8,5.353123121310047e-8,3.5404992346056354e-9,7.887284715066135e-10,7.375953257815304e-10,0
44405,1.3081046329779926e-8,1.0973196716786838e-8,8.322726643429924e-9,2.1736093626651267e-8,5.342138751750193e-8,3.541364000007583e-9,7.905272926613274e-10,7.367519395546092e-10,0
44406,1.3092859031232679e-8,1.0875893847228703e-8,8.325968023409194e-9,2.170809547520224e-8,5.331154382190339e-8,3.5422287654095308e-9,7.923261138160412e-10,7.359085533276881e-10,0
44407,1.3104671732685432e-8,1.0778590977670566e-8,8.329209403388466e-9,2.1680097323753215e-8,5.3201700126304854e-8,3.5430935308114785e-9,7.941249349707551e-10,7.350651671007669e-10,0
44408,1.3116484434138186e-8,1.068128810811243e-8,8.332450783367738e-9,2.165209917230419e-8,5.309185643070632e-8,3.543958296213426e-9,7.95923756125469e-10,7.342217808738457e-10,0
44409,1.3116484434138186e-8,1.0682000349872505e-8,8.311480247629457e-9,2.1375136142717473e-8,5.2905625245845364e-8,3.538431799676226e-9,7.951673516177367e-10,7.325350084200035e-10,0
44410,1.2986702091518113e-8,1.0593176283306889e-8,8.319279120110355e-9,2.1381192976162587e-8,5.2898569410836014e-8,3.538431799676226e-9,7.960135769506042e-10,7.326891284274963e-10,0
44411,1.285691974889804e-8,1.0504352216741271e-8,8.327077992591255e-9,2.1387249809607698e-8,5.2891513575826664e-8,3.538431799676226e-9,7.968598022834717e-10,7.328432484349891e-10,0
44412,1.2727137406277968e-8,1.0415528150175653e-8,8.334876865072155e-9,2.1393306643052812e-8,5.2884457740817314e-8,3.538431799676226e-9,7.977060276163392e-10,7.329973684424819e-10,0
44413,1.2597355063657895e-8,1.0326704083610035e-8,8.342675737553055e-9,2.1399363476497923e-8,5.2877401905807964e-8,3.538431799676226e-9,7.985522529492067e-10,7.331514884499747e-10,0
44414,1.2467572721037822e-8,1.0237880017044419e-8,8.350474610033955e-9,2.1405420309943037e-8,5.2870346070798614e-8,3.538431799676226e-9,7.993984782820742e-10,7.333056084574675e-10,0
44415,1.2337790378417751e-8,1.0149055950478801e-8,8.358273482514855e-9,2.1411477143388148e-8,5.286329023578927e-8,3.538431799676226e-9,8.002447036149417e-10,7.334597284649603e-10,0
44416,1.2208008035797679e-8,1.0060231883913183e-8,8.366072354995753e-9,2.1417533976833262e-8,5.285623440077992e-8,3.538431799676226e-9,8.010909289478091e-10,7.336138484724531e-10,0
44417,1.2078225693177606e-8,9.971407817347567e-9,8.373871227476653e-9,2.1423590810278373e-8,5.284917856577057e-8,3.538431799676226e-9,8.019371542806766e-10,7.33767968479946e-10,0
44418,1.1948443350557533e-8,9.882583750781949e-9,8.381670099957553e-9,2.1429647643723488e-8,5.284212273076122e-8,3.538431799676226e-9,8.027833796135441e-10,7.339220884874388e-10,0
44419,1.181866100793746e-8,9.793759684216331e-9,8.389468972438453e-9,2.14357044771686e-8,5.283506689575187e-8,3.538431799676226e-9,8.036296049464116e-10,7.340762084949316e-10,0
44420,1.1688878665317388e-8,9.704935617650715e-9,8.397267844919353e-9,2.1441761310613713e-8,5.282801106074252e-8,3.538431799676226e-9,8.044758302792791e-10,7.342303285024244e-10,0
44421,1.1559096322697315e-8,9.616111551085097e-9,8.405066717400252e-9,2.1447818144058824e-8,5.282095522573318e-8,3.538431799676226e-9,8.053220556121466e-10,7.343844485099172e-10,0
44422,1.1429313980077244e-8,9.527287484519479e-9,8.412865589881152e-9,2.1453874977503938e-8,5.281389939072383e-8,3.538431799676226e-9,8.06168280945014e-10,7.3453856851741e-10,0
44423,1.1394676059038337e-8,9.503443036002169e-9,8.39708666752494e-9,2.1387465197723587e-8,5.272075305309977e-8,3.5037644570127083e-9,7.921866439993748e-10,7.263498089925127e-10,0
44424,1.1379673515967281e-8,9.504179203039402e-9,8.393890066611699e-9,2.1399080111496602e-8,5.260366905133043e-8,3.502075138456736e-9,7.914302394916424e-10,7.246630365386704e-10,0
44425,1.1364670972896225e-8,9.504915370076635e-9,8.390693465698457e-9,2.141069502526962e-8,5.248658504956109e-8,3.5003858199007637e-9,7.9067383498391e-10,7.229762640848281e-10,0
44426,1.1349668429825169e-8,9.505651537113866e-9,8.387496864785213e-9,2.142230993904264e-8,5.236950104779176e-8,3.498696501344792e-9,7.899174304761776e-10,7.212894916309858e-10,0
44427,1.1334665886754113e-8,9.506387704151099e-9,8.384300263871971e-9,2.143392485281566e-8,5.225241704602242e-8,3.4970071827888195e-9,7.891610259684453e-10,7.196027191771435e-10,0
44428,1.1319663343683057e-8,9.507123871188332e-9,8.381103662958729e-9,2.1445539766588677e-8,5.213533304425308e-8,3.4953178642328477e-9,7.884046214607129e-10,7.179159467233012e-10,0
44429,1.1386547102602751e-8,9.527193622262392e-9,8.369201272027379e-9,2.147076460660354e-8,5.223273897032599e-8,3.4991550422140754e-9,7.864545194044526e-10,7.170543639490158e-10,0
44430,1.1453430861522443e-8,9.547263373336454e-9,8.357298881096029e-9,2.1495989446618406e-8,5.2330144896398907e-8,3.5029922201953032e-9,7.845044173481922e-10,7.161927811747303e-10,0
44431,1.1520314620442137e-8,9.567333124410514e-9,8.345396490164679e-9,2.152121428663327e-8,5.242755082247182e-8,3.5068293981765314e-9,7.825543152919318e-10,7.153311984004449e-10,0
44432,1.1587198379361829e-8,9.587402875484575e-9,8.333494099233329e-9,2.1546439126648135e-8,5.2524956748544735e-8,3.510666576157759e-9,7.806042132356715e-10,7.144696156261595e-10,0
44433,1.1654082138281523e-8,9.607472626558637e-9,8.321591708301979e-9,2.1571663966663e-8,5.2622362674617646e-8,3.5145037541389874e-9,7.786541111794111e-10,7.136080328518741e-10,0
44434,1.1720965897201215e-8,9.627542377632697e-9,8.309689317370629e-9,2.159688880667786e-8,5.2719768600690564e-8,3.518340932120215e-9,7.767040091231507e-10,7.127464500775887e-10,0
44435,1.1787849656120909e-8,9.647612128706759e-9,8.297786926439279e-9,2.1622113646692727e-8,5.2817174526763475e-8,3.5221781101014434e-09,7.747539070668903e-10,7.118848673033032e-10,0
44436,1.1865759249692283e-8,9.663881418208876e-9,8.295678420457656e-9,2.1672279961721136e-8,5.303166445460573e-8,3.526015288082671e-9,7.747539070668903e-10,7.1303649354521e-10,0
44437,1.1943668843263658e-8,9.680150707710994e-9,8.293569914476035e-9,2.1722446276749544e-8,5.3246154382447984e-8,3.529852466063899e-9,7.747539070668903e-10,7.141881197871168e-10,0
44438,1.2021578436835034e-8,9.696419997213112e-9,8.291461408494411e-9,2.1772612591777952e-8,5.3460644310290235e-8,3.533689644045127e-9,7.747539070668903e-10,7.153397460290236e-10,0
44439,1.2099488030406408e-8,9.71268928671523e-9,8.289352902512788e-9,2.182277890680636e-8,5.367513423813249e-8,3.537526822026355e-9,7.747539070668903e-10,7.164913722709304e-10,0
44440,1.2177397623977784e-8,9.728958576217347e-9,8.287244396531167e-9,2.1872945221834768e-8,5.3889624165974744e-8,3.541364000007583e-9,7.747539070668903e-10,7.176429985128371e-10,0
44441,1.2255307217549158e-8,9.745227865719465e-9,8.285135890549544e-9,2.1923111536863176e-8,5.4104114093816995e-8,3.545201177988811e-9,7.747539070668903e-10,7.187946247547439e-10,0
44442,1.2333216811120533e-8,9.761497155221584e-9,8.283027384567923e-9,2.1973277851891584e-8,5.431860402165925e-8,3.5490383559700386e-9,7.747539070668903e-10,7.199462509966507e-10,0
44443,1.2411126404691909e-8,9.7777664447237e-9,8.2809188785863e-9,2.2023444166919993e-8,5.45330939495015e-8,3.552875533951267e-9,7.747539070668903e-10,7.210978772385575e-10,0
44444,1.2489035998263283e-8,9.794035734225818e-9,8.278810372604676e-9,2.20736104819484e-8,5.4747583877343754e-8,3.5567127119324946e-9,7.747539070668903e-10,7.222495034804643e-10,0
44445,1.2566945591834659e-8,9.810305023727937e-9,8.276701866623055e-9,2.212377679697681e-8,5.4962073805186005e-8,3.5605498899137228e-9,7.747539070668903e-10,7.234011297223711e-10,0
44446,1.2644855185406033e-8,9.826574313230055e-9,8.274593360641432e-9,2.2173943112005217e-8,5.517656373302826e-8,3.5643870678949506e-9,7.747539070668903e-10,7.245527559642779e-10,0
44447,1.2722764778977409e-8,9.842843602732172e-9,8.27248485465981e-9,2.2224109427033625e-8,5.5391053660870514e-8,3.5682242458761788e-9,7.747539070668903e-10,7.257043822061846e-10,0
44448,1.2800674372548784e-8,9.85911289223429e-9,8.270376348678188e-9,2.2274275742062033e-8,5.5605543588712765e-8,3.5720614238574065e-9,7.747539070668903e-10,7.268560084480914e-10,0
44449,1.2878583966120158e-8,9.875382181736408e-9,8.268267842696564e-9,2.232444205709044e-8,5.582003351655502e-8,3.5758986018386343e-9,7.747539070668903e-10,7.280076346899982e-10,0
44450,1.2956493559691534e-8,9.891651471238526e-9,8.266159336714943e-9,2.237460837211885e-8,5.6034523444397274e-8,3.5797357798198625e-9,7.747539070668903e-10,7.29159260931905e-10,0
44451,1.2981497798143293e-8,9.887874934943739e-9,8.26425491294332e-9,2.2378450985826054e-8,5.6151607446166614e-8,3.587156758206082e-9,7.759476046154183e-10,7.293315774867621e-10,0
44452,1.2877076815109426e-8,9.78814639792796e-9,8.25799810944522e-9,2.238279617180366e-8,5.6265358559833704e-8,3.58124414326018e-9,7.769900212623998e-10,7.252056290889776e-10,0
44453,1.2778312806243333e-8,9.692098696098343e-9,8.267134968698915e-9,2.239455849680713e-8,5.643487561477758e-8,3.5717477279092855e-9,7.825826760406556e-10,7.267564780826914e-10,0
44454,1.267954879737724e-8,9.596050994268727e-9,8.276271827952613e-9,2.24063208218106e-8,5.660439266972145e-8,3.5622513125583915e-9,7.881753308189113e-10,7.283073270764051e-10,0
44455,1.2580784788511146e-8,9.50000329243911e-9,8.28540868720631e-9,2.241808314681407e-8,5.6773909724665324e-8,3.552754897207497e-9,7.93767985597167e-10,7.298581760701188e-10,0
44456,1.2482020779645053e-8,9.403955590609493e-9,8.294545546460007e-9,2.242984547181754e-8,5.6943426779609197e-8,3.5432584818566026e-9,7.993606403754227e-10,7.314090250638327e-10,0
44457,1.238325677077896e-8,9.307907888779876e-9,8.303682405713705e-9,2.2441607796821013e-8,5.7112943834553076e-8,3.5337620665057086e-9,8.049532951536785e-10,7.329598740575464e-10,0
44458,1.2284492761912867e-8,9.21186018695026e-9,8.3128192649674e-9,2.2453370121824482e-8,5.728246088949695e-8,3.524265651154814e-9,8.105459499319342e-10,7.345107230512602e-10,0
44459,1.2298551064822636e-8,9.203499171491985e-9,8.31651461899785e-9,2.2351118094490662e-8,5.742332914265467e-8,3.5147692358039197e-9,8.162898856117363e-10,7.400334004352655e-10,0
44460,1.232921227744217e-8,9.177135193259946e-9,8.301439562533995e-9,2.2272258582546107e-8,5.731348544705613e-8,3.4949196417354487e-9,8.124676912394708e-10,7.331236429838249e-10,0
44461,1.2359873490061702e-8,9.150771215027905e-9,8.286364506070138e-9,2.2193399070601556e-8,5.7203641751457596e-8,3.4750700476669777e-9,8.086454968672052e-10,7.262138855323841e-10,0
44462,1.2390534702681235e-8,9.124407236795866e-9,8.271289449606282e-9,2.2114539558657002e-8,5.709379805585906e-8,3.4552204535985063e-9,8.048233024949396e-10,7.193041280809434e-10,0
44463,1.2421195915300769e-8,9.098043258563827e-9,8.256214393142426e-9,2.2035680046712448e-8,5.6983954360260524e-8,3.4353708595300353e-9,8.01001108122674e-10,7.123943706295027e-10,0
44464,1.24518571279203e-8,9.071679280331788e-9,8.24113933667857e-9,2.1956820534767897e-8,5.687411066466198e-8,3.4155212654615643e-9,7.971789137504084e-10,7.054846131780621e-10,0
44465,1.2473276878923637e-8,9.083673280421913e-9,8.231073685637224e-9,2.1901462757911115e-8,5.664259481042754e-8,3.3964359061752323e-9,7.901514596969431e-10,6.93877368022173e-10,0
44466,1.2494696629926974e-8,9.095667280512036e-9,8.221008034595878e-9,2.1846104981054334e-8,5.64110789561931e-8,3.377350546888901e-9,7.831240056434778e-10,6.822701228662838e-10,0
44467,1.2491231991143088e-8,9.066382559408224e-9,8.215725832516601e-9,2.1846104981054334e-8,5.652081644295994e-8,3.382663878097788e-9,7.779402831572939e-10,6.738095164211294e-10,0
44468,1.2487767352359204e-8,9.037097838304411e-9,8.210443630437326e-9,2.1846104981054334e-8,5.6630553929726775e-8,3.3879772093066753e-9,7.727565606711101e-10,6.653489099759749e-10,0
44469,1.248430271357532e-8,9.007813117200599e-9,8.205161428358049e-9,2.1846104981054334e-8,5.674029141649361e-8,3.3932905405155625e-9,7.675728381849263e-10,6.568883035308205e-10,0
44470,1.2480838074791435e-8,8.978528396096787e-9,8.199879226278774e-9,2.1846104981054334e-8,5.685002890326045e-8,3.3986038717244498e-9,7.623891156987424e-10,6.484276970856661e-10,0
44471,1.247737343600755e-8,8.949243674992976e-9,8.194597024199497e-9,2.1846104981054334e-8,5.6959766390027286e-8,3.403917202933337e-9,7.572053932125585e-10,6.399670906405116e-10,0
44472,1.2473908797223665e-8,8.919958953889164e-9,8.18931482212022e-9,2.1846104981054334e-8,5.706950387679412e-8,3.4092305341422243e-9,7.520216707263746e-10,6.315064841953571e-10,0
44473,1.247044415843978e-8,8.890674232785352e-9,8.184032620040945e-9,2.1846104981054334e-8,5.717924136356096e-8,3.4145438653511115e-9,7.468379482401909e-10,6.230458777502027e-10,0
44474,1.2466979519655896e-8,8.86138951168154e-9,8.178750417961668e-9,2.1846104981054334e-8,5.728897885032779e-8,3.4198571965599988e-9,7.41654225754007e-10,6.145852713050483e-10,0
44475,1.2463514880872012e-8,8.832104790577728e-9,8.173468215882392e-9,2.1846104981054334e-8,5.739871633709463e-8,3.4251705277688864e-9,7.364705032678231e-10,6.061246648598939e-10,0
44476,1.2460050242088127e-8,8.802820069473915e-9,8.168186013803115e-9,2.1846104981054334e-8,5.7508453823861464e-8,3.4304838589777737e-9,7.312867807816392e-10,5.976640584147395e-10,0
44477,1.2456585603304243e-8,8.773535348370103e-9,8.162903811723838e-9,2.1846104981054334e-8,5.76181913106283e-8,3.435797190186661e-9,7.261030582954554e-10,5.89203451969585e-10,0
44478,1.2453120964520357e-8,8.744250627266291e-9,8.157621609644563e-9,2.1846104981054334e-8,5.772792879739514e-8,3.441110521395548e-9,7.209193358092716e-10,5.807428455244305e-10,0
44479,1.2449656325736473e-8,8.714965906162479e-9,8.152339407565286e-9,2.1846104981054334e-8,5.7837666284161975e-8,3.4464238526044354e-9,7.157356133230877e-10,5.722822390792761e-10,0
44480,1.2446191686952588e-8,8.685681185058666e-9,8.14705720548601e-9,2.1846104981054334e-8,5.794740377092881e-8,3.4517371838133226e-9,7.105518908369038e-10,5.638216326341217e-10,0
44481,1.2431701213517022e-8,8.614836155989657e-9,8.170339298850767e-9,2.192946090936014e-8,5.833916595852359e-8,3.480278746202625e-9,7.141329834824878e-10,5.67276511359842e-10,0
44482,1.2417210740081454e-8,8.543991126920648e-9,8.193621392215523e-9,2.2012816837665945e-8,5.873092814611838e-8,3.508820308591928e-9,7.177140761280719e-10,5.707313900855624e-10,0
44483,1.2402720266645888e-8,8.473146097851638e-9,8.21690348558028e-9,2.2096172765971752e-8,5.912269033371316e-8,3.5373618709812307e-9,7.212951687736558e-10,5.741862688112827e-10,0
44484,1.2388229793210321e-8,8.402301068782629e-9,8.240185578945037e-9,2.2179528694277556e-8,5.951445252130795e-8,3.565903433370533e-9,7.248762614192399e-10,5.776411475370031e-10,0
44485,1.2373739319774755e-8,8.331456039713618e-9,8.263467672309794e-9,2.2262884622583363e-8,5.990621470890273e-8,3.594444995759836e-9,7.284573540648238e-10,5.810960262627234e-10,0
44486,1.2359248846339187e-8,8.260611010644609e-9,8.28674976567455e-9,2.2346240550889166e-8,6.029797689649752e-8,3.6229865581491384e-9,7.320384467104079e-10,5.845509049884437e-10,0
44487,1.23232345146132e-8,8.236575159910048e-9,8.295817910481482e-9,2.2436862387837193e-8,6.05175580788629e-8,3.653828826920125e-9,7.364208542762917e-10,5.885227333787353e-10,0
44488,1.2290055328230239e-8,8.283384338244498e-9,8.283666658274103e-9,2.2472126447928434e-8,6.037307557311042e-8,3.663091970818745e-9,7.376145518248198e-10,5.883686133712425e-10,0
44489,1.2310490889517443e-8,8.260607332941532e-9,8.276049993752763e-9,2.2469421113379707e-8,6.024680345662664e-8,3.6794905053146903e-9,7.419969593907036e-10,5.905177458475632e-10,0
44490,1.2330926450804647e-8,8.237830327638567e-9,8.268433329231424e-9,2.2466715778830983e-8,6.012053134014288e-8,3.695889039810636e-9,7.463793669565876e-10,5.92666878323884e-10,0
44491,1.235136201209185e-8,8.215053322335602e-9,8.260816664710083e-9,2.2464010444282256e-8,5.999425922365912e-8,3.7122875743065814e-9,7.507617745224716e-10,5.948160108002047e-10,0
44492,1.2371797573379055e-8,8.192276317032638e-9,8.253200000188743e-9,2.2461305109733528e-8,5.986798710717534e-8,3.728686108802527e-9,7.551441820883554e-10,5.969651432765255e-10,0
44493,1.239223313466626e-8,8.169499311729673e-9,8.245583335667404e-9,2.24585997751848e-8,5.974171499069158e-8,3.7450846432984725e-9,7.595265896542394e-10,5.991142757528463e-10,0
44494,1.2412668695953464e-8,8.146722306426708e-9,8.237966671146064e-9,2.2455894440636074e-8,5.961544287420781e-8,3.761483177794418e-9,7.639089972201234e-10,6.012634082291669e-10,0
44495,1.2433104257240668e-8,8.123945301123743e-9,8.230350006624723e-9,2.245318910608735e-8,5.9489170757724035e-8,3.777881712290363e-9,7.682914047860072e-10,6.034125407054877e-10,0
44496,1.2453539818527872e-8,8.101168295820777e-9,8.222733342103384e-9,2.2450483771538622e-8,5.936289864124027e-8,3.794280246786309e-9,7.726738123518912e-10,6.055616731818085e-10,0
44497,1.2473975379815076e-8,8.078391290517812e-9,8.215116677582044e-9,2.2447778436989895e-8,5.92366265247565e-8,3.810678781282255e-9,7.770562199177752e-10,6.077108056581292e-10,0
44498,1.249441094110228e-8,8.055614285214849e-9,8.207500013060705e-9,2.2445073102441167e-8,5.911035440827273e-8,3.8270773157782005e-9,7.81438627483659e-10,6.0985993813445e-10,0
44499,1.2514846502389484e-8,8.032837279911883e-9,8.199883348539365e-9,2.2442367767892443e-8,5.898408229178897e-8,3.843475850274145e-9,7.85821035049543e-10,6.120090706107707e-10,0
44500,1.253528206367669e-8,8.010060274608918e-9,8.192266684018024e-9,2.2439662433343716e-8,5.88578101753052e-8,3.859874384770091e-9,7.90203442615427e-10,6.141582030870914e-10,0
44501,1.2555717624963893e-8,7.987283269305953e-9,8.184650019496685e-9,2.243695709879499e-8,5.8731538058821427e-8,3.876272919266037e-9,7.945858501813108e-10,6.163073355634122e-10,0
44502,1.2576153186251097e-8,7.964506264002988e-9,8.177033354975345e-9,2.243425176424626e-8,5.860526594233766e-8,3.892671453761983e-9,7.989682577471948e-10,6.18456468039733e-10,0
44503,1.2596588747538301e-8,7.941729258700024e-9,8.169416690454006e-9,2.2431546429697534e-8,5.847899382585389e-8,3.909069988257928e-9,8.033506653130787e-10,6.206056005160537e-10,0
44504,1.2617024308825505e-8,7.918952253397059e-9,8.161800025932664e-9,2.242884109514881e-8,5.835272170937012e-8,3.925468522753873e-9,8.077330728789626e-10,6.227547329923744e-10,0
44505,1.2637459870112709e-8,7.896175248094094e-9,8.154183361411325e-9,2.2426135760600083e-8,5.822644959288635e-8,3.941867057249819e-9,8.121154804448466e-10,6.249038654686951e-10,0
44506,1.2657895431399913e-8,7.873398242791128e-9,8.146566696889985e-9,2.2423430426051355e-8,5.810017747640259e-8,3.958265591745764e-9,8.164978880107304e-10,6.270529979450159e-10,0
44507,1.2678330992687119e-8,7.850621237488163e-9,8.138950032368646e-9,2.2420725091502628e-8,5.797390535991882e-8,3.97466412624171e-9,8.208802955766144e-10,6.292021304213367e-10,0
44508,1.2698766553974323e-8,7.827844232185198e-9,8.131333367847305e-9,2.2418019756953904e-8,5.784763324343505e-8,3.991062660737656e-9,8.252627031424984e-10,6.313512628976574e-10,0
44509,1.2719202115261526e-8,7.805067226882234e-9,8.123716703325965e-9,2.2415314422405176e-8,5.7721361126951284e-8,4.007461195233601e-9,8.296451107083822e-10,6.335003953739782e-10,0
44510,1.269401629527216e-8,7.821999068738577e-9,8.108301166323726e-9,2.242991803572824e-8,5.755124842555915e-8,4.0200426578722805e-9,8.297963916099287e-10,6.340173450385494e-10,0
44511,1.2660837108889198e-8,7.832995562594287e-9,8.104515223596071e-9,2.2459268854451628e-8,5.747486342177738e-8,4.026486236148048e-9,8.297963916099287e-10,6.338632250310566e-10,0
44512,1.2627657922506237e-8,7.843992056449996e-9,8.100729280868415e-9,2.248861967317502e-8,5.739847841799561e-8,4.032929814423815e-9,8.297963916099287e-10,6.337091050235638e-10,0
44513,1.2594478736123277e-8,7.854988550305706e-9,8.09694333814076e-9,2.2517970491898407e-8,5.732209341421384e-8,4.039373392699583e-9,8.297963916099287e-10,6.33554985016071e-10,0
44514,1.2561299549740316e-8,7.865985044161417e-9,8.093157395413104e-9,2.2547321310621795e-8,5.724570841043207e-8,4.0458169709753505e-9,8.297963916099287e-10,6.334008650085782e-10,0
44515,1.2528120363357355e-8,7.876981538017126e-9,8.089371452685449e-9,2.2576672129345182e-8,5.71693234066503e-8,4.052260549251118e-9,8.297963916099287e-10,6.332467450010853e-10,0
44516,1.2494941176974394e-8,7.887978031872836e-9,8.085585509957794e-9,2.260602294806857e-8,5.709293840286853e-8,4.058704127526885e-9,8.297963916099287e-10,6.330926249935925e-10,0
44517,1.2461761990591434e-8,7.898974525728547e-9,8.081799567230138e-9,2.263537376679196e-8,5.701655339908676e-8,4.065147705802653e-9,8.297963916099287e-10,6.329385049860997e-10,0
44518,1.2428582804208473e-8,7.909971019584255e-9,8.078013624502483e-9,2.266472458551535e-8,5.694016839530499e-8,4.0715912840784205e-9,8.297963916099287e-10,6.327843849786069e-10,0
44519,1.2395403617825511e-8,7.920967513439966e-9,8.074227681774827e-9,2.2694075404238737e-8,5.686378339152322e-8,4.078034862354188e-9,8.297963916099287e-10,6.326302649711141e-10,0
44520,1.2390573460013657e-8,7.921254616765843e-9,8.085857276049412e-9,2.262290111970859e-8,5.692023938709866e-8,4.080355674859833e-9,8.294489193942683e-10,6.328025815259712e-10,0
44521,1.2292924381187344e-8,7.955028115924517e-9,8.096013515787964e-9,2.2653676401744972e-8,5.70160353885463e-8,4.085821853025149e-9,8.291014471786077e-10,6.326484615184784e-10,0
44522,1.2195275302361033e-8,7.988801615083193e-9,8.106169755526515e-9,2.268445168378135e-8,5.7111831389993945e-8,4.091288031190464e-9,8.287539749629473e-10,6.324943415109855e-10,0
44523,1.2097626223534721e-8,8.022575114241867e-9,8.116325995265067e-9,2.2715226965817732e-8,5.720762739144158e-8,4.096754209355779e-9,8.284065027472867e-10,6.323402215034927e-10,0
44524,1.2053434519018361e-8,8.022766516459118e-9,8.061983779739946e-9,2.2498892609261188e-8,5.712814117464422e-8,4.089079853393323e-9,8.273475364364614e-10,6.324943415109855e-10,0
44525,1.1988335133134153e-8,8.015807898095376e-9,8.012561411505278e-9,2.2366432029893624e-8,5.713902865087302e-8,4.081405497430867e-9,8.237498941270336e-10,6.323220249561285e-10,0
44526,1.1923235747249946e-8,8.008849279731636e-9,7.96313904327061e-9,2.2233971450526064e-8,5.7149916127101825e-8,4.073731141468411e-9,8.201522518176058e-10,6.321497084012714e-10,0
44527,1.1858136361365737e-8,8.001890661367894e-9,7.913716675035942e-9,2.2101510871158505e-8,5.716080360333063e-8,4.066056785505955e-9,8.165546095081781e-10,6.319773918464142e-10,0
44528,1.179303697548153e-8,7.994932043004152e-9,7.864294306801274e-9,2.1969050291790945e-8,5.717169107955943e-8,4.058382429543499e-9,8.129569671987503e-10,6.318050752915572e-10,0
44529,1.1727937589597321e-8,7.987973424640412e-9,7.814871938566606e-9,2.1836589712423385e-8,5.718257855578823e-8,4.050708073581044e-9,8.093593248893224e-10,6.316327587367001e-10,0
44530,1.1662838203713114e-8,7.98101480627667e-9,7.765449570331938e-9,2.1704129133055825e-8,5.7193466032017036e-8,4.0430337176185874e-9,8.057616825798946e-10,6.31460442181843e-10,0
44531,1.1597738817828907e-8,7.974056187912928e-9,7.71602720209727e-9,2.157166855368826e-8,5.720435350824584e-8,4.035359361656132e-9,8.021640402704668e-10,6.31288125626986e-10,0
44532,1.1532639431944698e-8,7.967097569549186e-9,7.666604833862602e-9,2.1439207974320702e-8,5.721524098447464e-8,4.0276850056936755e-9,7.98566397961039e-10,6.311158090721289e-10,0
44533,1.1467540046060491e-8,7.960138951185446e-9,7.617182465627934e-9,2.1306747394953142e-8,5.7226128460703444e-8,4.02001064973122e-9,7.949687556516113e-10,6.309434925172717e-10,0
44534,1.1402440660176283e-8,7.953180332821704e-9,7.567760097393264e-9,2.1174286815585582e-8,5.7237015936932246e-8,4.0123362937687635e-9,7.913711133421835e-10,6.307711759624147e-10,0
44535,1.1337341274292076e-8,7.946221714457962e-9,7.518337729158596e-9,2.1041826236218022e-8,5.724790341316105e-8,4.004661937806308e-9,7.877734710327557e-10,6.305988594075576e-10,0
44536,1.1272241888407867e-8,7.93926309609422e-9,7.468915360923928e-9,2.0909365656850462e-8,5.725879088938985e-8,3.9969875818438524e-9,7.841758287233279e-10,6.304265428527005e-10,0
44537,1.120714250252366e-8,7.93230447773048e-9,7.41949299268926e-9,2.0776905077482902e-8,5.7269678365618654e-8,3.989313225881396e-9,7.805781864139001e-10,6.302542262978435e-10,0
44538,1.1142043116639453e-8,7.925345859366739e-9,7.3700706244545924e-9,2.064444449811534e-8,5.728056584184746e-8,3.9816388699189405e-9,7.769805441044723e-10,6.300819097429864e-10,0
44539,1.1076943730755244e-8,7.918387241002997e-9,7.3206482562199244e-9,2.051198391874778e-8,5.729145331807626e-8,3.973964513956484e-9,7.733829017950446e-10,6.299095931881293e-10,0
44540,1.0957976583353512e-8,7.878582692735065e-9,7.326452116231996e-9,2.0545188808637956e-8,5.739408776590854e-8,3.973964513956484e-9,7.714327997387842e-10,6.26227808265459e-10,0
44541,1.0869446692619686e-8,7.806905795520196e-9,7.3286512109108244e-9,2.0631839716414297e-8,5.748446145893471e-8,3.974483373197653e-9,7.712815188372377e-10,6.203786943191038e-10,0
44542,1.0780916801885862e-8,7.735228898305328e-9,7.330850305589653e-9,2.071849062419064e-8,5.7574835151960875e-8,3.9750022324388215e-9,7.711302379356912e-10,6.145295803727485e-10,0
44543,1.0692386911152036e-8,7.663552001090462e-9,7.3330494002684816e-9,2.080514153196698e-8,5.766520884498704e-8,3.97552109167999e-9,7.709789570341447e-10,6.086804664263933e-10,0
44544,1.0603857020418212e-8,7.591875103875594e-9,7.335248494947309e-9,2.089179243974332e-8,5.77555825380132e-8,3.976039950921159e-9,7.708276761325982e-10,6.02831352480038e-10,0
44545,1.0515327129684386e-8,7.520198206660727e-9,7.337447589626138e-9,2.0978443347519665e-8,5.7845956231039373e-8,3.976558810162327e-9,7.706763952310517e-10,5.969822385336829e-10,0
44546,1.0426797238950561e-8,7.448521309445859e-9,7.3396466843049665e-9,2.1065094255296005e-8,5.793632992406554e-8,3.977077669403496e-9,7.705251143295053e-10,5.911331245873276e-10,0
44547,1.0338267348216736e-8,7.376844412230992e-9,7.341845778983795e-9,2.1151745163072346e-8,5.80267036170917e-8,3.977596528644665e-9,7.703738334279588e-10,5.852840106409724e-10,0
44548,1.0249737457482911e-8,7.305167515016124e-9,7.344044873662624e-9,2.123839607084869e-8,5.811707731011787e-8,3.978115387885833e-9,7.702225525264123e-10,5.794348966946171e-10,0
44549,1.0161207566749086e-8,7.233490617801257e-9,7.346243968341451e-9,2.132504697862503e-8,5.8207451003144035e-8,3.978634247127002e-9,7.700712716248659e-10,5.735857827482619e-10,0
44550,1.0072677676015261e-8,7.16181372058639e-9,7.34844306302028e-9,2.141169788640137e-8,5.82978246961702e-8,3.97915310636817e-9,7.699199907233194e-10,5.677366688019066e-10,0
44551,9.984147785281435e-9,7.090136823371522e-9,7.3506421576991085e-9,2.1498348794177714e-8,5.838819838919636e-8,3.9796719656093394e-9,7.697687098217729e-10,5.618875548555514e-10,0
44552,9.895617894547611e-9,7.018459926156655e-9,7.352841252377937e-9,2.1584999701954055e-8,5.8478572082222533e-8,3.980190824850508e-9,7.696174289202265e-10,5.560384409091961e-10,0
44553,9.807088003813785e-9,6.946783028941788e-9,7.355040347056766e-9,2.1671650609730395e-8,5.85689457752487e-8,3.980709684091676e-9,7.6946614801868e-10,5.501893269628409e-10,0
44554,9.804607554746034e-9,6.9534085322768785e-9,7.35687708694677e-9,2.1528535199164354e-8,5.8458700219864e-8,3.9447270371921924e-9,7.65083740452796e-10,5.458910620101994e-10,0
44555,9.813795750289101e-9,6.955070429717055e-9,7.353000555521909e-9,2.1303469227839527e-8,5.823213400837708e-8,3.908744390292708e-9,7.642989751963399e-10,5.436060060737501e-10,0
44556,9.82298394583217e-9,6.956732327157233e-9,7.349124024097047e-9,2.1078403256514698e-8,5.800556779689016e-8,3.8727617433932236e-9,7.635142099398837e-10,5.413209501373008e-10,0
44557,9.832172141375239e-9,6.95839422459741e-9,7.345247492672186e-9,2.0853337285189872e-8,5.777900158540324e-8,3.83677909649374e-9,7.627294446834277e-10,5.390358942008514e-10,0
44558,9.841360336918307e-9,6.960056122037587e-9,7.341370961247324e-9,2.0628271313865043e-8,5.7552435373916316e-8,3.8007964495942556e-9,7.619446794269715e-10,5.367508382644022e-10,0
44559,9.850548532461375e-9,6.961718019477764e-9,7.337494429822463e-9,2.0403205342540216e-8,5.7325869162429395e-8,3.764813802694772e-9,7.611599141705154e-10,5.344657823279529e-10,0
44560,9.859736728004444e-9,6.963379916917942e-9,7.333617898397602e-9,2.0178139371215387e-8,5.7099302950942473e-8,3.7288311557952875e-9,7.603751489140592e-10,5.321807263915036e-10,0
44561,9.870250493020638e-9,6.967322091301285e-9,7.331532297231568e-9,2.01507117689222e-8,5.7053649339246085e-8,3.7039739244307848e-9,7.59590383657603e-10,5.317183663690252e-10,0
44562,9.88076425803683e-9,6.971264265684628e-9,7.3294466960655336e-9,2.012328416662901e-8,5.70079957275497e-8,3.6791166930662824e-9,7.58805618401147e-10,5.312560063465467e-10,0
44563,9.891278023053022e-9,6.975206440067971e-9,7.3273610948994995e-9,2.009585656433582e-8,5.696234211585331e-8,3.6542594617017796e-9,7.580208531446908e-10,5.307936463240683e-10,0
44564,9.901791788069216e-9,6.979148614451314e-9,7.325275493733465e-9,2.006842896204263e-8,5.691668850415692e-8,3.629402230337277e-9,7.572360878882347e-10,5.303312863015898e-10,0
44565,9.912305553085409e-9,6.983090788834657e-9,7.323189892567431e-9,2.0041001359749442e-8,5.6871034892460526e-8,3.6045449989727744e-9,7.564513226317785e-10,5.298689262791114e-10,0
44566,9.922819318101601e-9,6.987032963218e-9,7.321104291401398e-9,2.001357375745625e-8,5.682538128076414e-8,3.5796877676082716e-9,7.556665573753224e-10,5.29406566256633e-10,0
44567,9.933333083117795e-9,6.990975137601343e-9,7.319018690235364e-9,1.9986146155163063e-8,5.677972766906775e-8,3.5548305362437693e-9,7.548817921188663e-10,5.289442062341545e-10,0
44568,9.943846848133988e-9,6.9949173119846866e-9,7.31693308906933e-9,1.9958718552869872e-8,5.673407405737136e-8,3.5299733048792665e-9,7.540970268624102e-10,5.28481846211676e-10,0
44569,9.948532949103911e-9,7.015009149484366e-9,7.318361664539333e-9,1.994519188012624e-8,5.67938536255484e-8,3.5062865328295673e-9,7.500620915121868e-10,5.260062771730054e-10,0
44570,9.98423253410947e-9,7.015982730441624e-9,7.3168883100033005e-9,1.9920976003805374e-8,5.682396328374227e-8,3.4922691292111522e-9,7.458309648478493e-10,5.238571446966846e-10,0
44571,1.0019932119115032e-8,7.016956311398881e-9,7.315414955467268e-9,1.9896760127484506e-8,5.6854072941936144e-8,3.4782517255927367e-9,7.415998381835118e-10,5.217080122203639e-10,0
44572,1.0055631704120591e-8,7.0179298923561385e-9,7.3139416009312356e-9,1.987254425116364e-8,5.6884182600130017e-8,3.4642343219743217e-9,7.373687115191743e-10,5.195588797440432e-10,0
44573,1.009133128912615e-8,7.018903473313396e-9,7.312468246395203e-9,1.9848328374842776e-8,5.691429225832389e-8,3.450216918355906e-9,7.331375848548368e-10,5.174097472677224e-10,0
44574,1.0127030874131712e-8,7.019877054270654e-9,7.310994891859171e-9,1.9824112498521908e-8,5.6944401916517756e-8,3.436199514737491e-9,7.289064581904995e-10,5.152606147914017e-10,0
44575,1.0144394017605981e-8,7.011944854949655e-9,7.3116977271863786e-9,1.980531111045169e-8,5.698387670414556e-8,3.445868883168775e-9,7.271076370357856e-10,5.147436651268305e-10,0
44576,1.0181077792327672e-8,6.987861153660782e-9,7.287214045377207e-9,1.978650972238147e-8,5.7021053998330083e-8,3.448117273213839e-9,7.271076370357856e-10,5.150701016891804e-10,0
44577,1.0217761567049364e-8,6.963777452371909e-9,7.2627303635680355e-9,1.9767708334311253e-8,5.70582312925146e-8,3.450365663258903e-9,7.271076370357856e-10,5.153965382515302e-10,0
44578,1.0254445341771056e-8,6.9396937510830354e-9,7.238246681758864e-9,1.9748906946241036e-8,5.7095408586699125e-8,3.4526140533039668e-9,7.271076370357856e-10,5.157229748138801e-10,0
44579,1.0291129116492748e-8,6.915610049794162e-9,7.213762999949693e-9,1.9730105558170816e-8,5.713258588088364e-8,3.454862443349031e-9,7.271076370357856e-10,5.160494113762301e-10,0
44580,1.032781289121444e-8,6.891526348505289e-9,7.189279318140522e-9,1.97113041701006e-8,5.7169763175068167e-8,3.457110833394095e-9,7.271076370357856e-10,5.163758479385799e-10,0
44581,1.0364496665936132e-8,6.867442647216416e-9,7.164795636331351e-9,1.969250278203038e-8,5.7206940469252684e-8,3.4593592234391587e-9,7.271076370357856e-10,5.167022845009298e-10,0
44582,1.0398870681468568e-8,6.864378352681705e-9,7.153166042056766e-9,1.9616420400673183e-8,5.6878229247550036e-8,3.4582892947441637e-9,7.269114457216715e-10,5.167022845009298e-10,0
44583,1.0417297913768662e-8,6.872643667031354e-9,7.141536447782182e-9,1.9572262037970428e-8,5.647572616646335e-8,3.447549997617884e-9,7.267152544075574e-10,5.16548164493437e-10,0
44584,1.0485549616575496e-8,6.872643667031354e-9,7.1311084419520125e-9,1.94992439713551e-8,5.6065997065667814e-8,3.434968534979205e-9,7.267152544075574e-10,5.163940444859442e-10,0
44585,1.0553801319382332e-8,6.872643667031354e-9,7.120680436121843e-9,1.9426225904739774e-8,5.565626796487228e-8,3.422387072340526e-9,7.267152544075574e-10,5.162399244784514e-10,0
44586,1.0622053022189167e-8,6.872643667031354e-9,7.110252430291673e-9,1.9353207838124445e-8,5.524653886407674e-8,3.409805609701847e-9,7.267152544075574e-10,5.160858044709586e-10,0
44587,1.0690304724996001e-8,6.872643667031354e-9,7.0998244244615035e-9,1.928018977150912e-8,5.4836809763281207e-8,3.3972241470631673e-9,7.267152544075574e-10,5.159316844634658e-10,0
44588,1.0758556427802837e-8,6.872643667031354e-9,7.089396418631334e-9,1.920717170489379e-8,5.442708066248567e-8,3.384642684424488e-9,7.267152544075574e-10,5.15777564455973e-10,0
44589,1.0826808130609671e-8,6.872643667031354e-9,7.078968412801164e-9,1.9134153638278465e-8,5.4017351561690135e-8,3.372061221785809e-9,7.267152544075574e-10,5.156234444484801e-10,0
44590,1.0895059833416507e-8,6.872643667031354e-9,7.068540406970994e-9,1.9061135571663136e-8,5.36076224608946e-8,3.35947975914713e-9,7.267152544075574e-10,5.154693244409873e-10,0
44591,1.0963311536223343e-8,6.872643667031354e-9,7.058112401140824e-9,1.898811750504781e-8,5.3197893360099064e-8,3.3468982965084507e-9,7.267152544075574e-10,5.153152044334945e-10,0
44592,1.1031563239030177e-8,6.872643667031354e-9,7.047684395310654e-9,1.8915099438432485e-8,5.278816425930353e-8,3.3343168338697712e-9,7.267152544075574e-10,5.151610844260017e-10,0
44593,1.1099814941837013e-8,6.872643667031354e-9,7.037256389480485e-9,1.8842081371817156e-8,5.237843515850799e-8,3.321735371231092e-9,7.267152544075574e-10,5.150069644185089e-10,0
44594,1.1168066644643848e-8,6.872643667031354e-9,7.026828383650315e-9,1.876906330520183e-8,5.196870605771246e-8,3.309153908592413e-9,7.267152544075574e-10,5.148528444110161e-10,0
44595,1.1236318347450683e-8,6.872643667031354e-9,7.016400377820145e-9,1.8696045238586502e-8,5.155897695691692e-8,3.296572445953734e-9,7.267152544075574e-10,5.146987244035233e-10,0
44596,1.1304570050257518e-8,6.872643667031354e-9,7.005972371989976e-9,1.8623027171971176e-8,5.1149247856121385e-8,3.2839909833150547e-9,7.267152544075574e-10,5.145446043960305e-10,0
44597,1.1366796766103023e-8,6.840914869747358e-9,7.00717396043439e-9,1.8626881243137962e-8,5.113861565694184e-8,3.280479605370644e-9,7.27062726623218e-10,5.147169209508875e-10,0
44598,1.1429023481948527e-8,6.809186072463362e-9,7.008375548878804e-9,1.8630735314304752e-8,5.112798345776229e-8,3.2769682274262336e-9,7.274101988388784e-10,5.148892375057446e-10,0
44599,1.1491250197794032e-8,6.777457275179366e-9,7.009577137323219e-9,1.8634589385471538e-8,5.111735125858274e-8,3.273456849481823e-9,7.27757671054539e-10,5.150615540606017e-10,0
44600,1.1553476913639537e-8,6.74572847789537e-9,7.010778725767634e-9,1.8638443456638327e-8,5.110671905940319e-8,3.2699454715374125e-9,7.281051432701996e-10,5.152338706154587e-10,0
44601,1.1615703629485043e-8,6.713999680611374e-9,7.011980314212048e-9,1.8642297527805113e-8,5.109608686022364e-8,3.266434093593002e-9,7.2845261548586e-10,5.154061871703158e-10,0
44602,1.1677930345330548e-8,6.6822708833273776e-9,7.013181902656462e-9,1.8646151598971903e-8,5.1085454661044096e-8,3.2629227156485914e-9,7.288000877015206e-10,5.15578503725173e-10,0
44603,1.1740157061176053e-8,6.650542086043382e-9,7.0143834911008764e-9,1.865000567013869e-8,5.107482246186454e-8,3.259411337704181e-9,7.29147559917181e-10,5.1575082028003e-10,0
44604,1.1802383777021558e-8,6.618813288759385e-9,7.0155850795452915e-9,1.865385974130548e-8,5.1064190262684995e-8,3.2558999597597703e-9,7.294950321328416e-10,5.159231368348871e-10,0
44605,1.1864610492867062e-8,6.5870844914753894e-9,7.016786667989706e-9,1.8657713812472264e-8,5.105355806350545e-8,3.25238858181536e-9,7.29842504348502e-10,5.160954533897442e-10,0
44606,1.1926837208712567e-8,6.555355694191394e-9,7.01798825643412e-9,1.8661567883639054e-8,5.1042925864325894e-8,3.2488772038709497e-9,7.301899765641626e-10,5.162677699446012e-10,0
44607,1.1989063924558072e-8,6.523626896907397e-9,7.019189844878534e-9,1.866542195480584e-8,5.103229366514635e-8,3.245365825926539e-9,7.30537448779823e-10,5.164400864994583e-10,0
44608,1.2051290640403577e-8,6.491898099623401e-9,7.020391433322949e-9,1.8669276025972626e-8,5.10216614659668e-8,3.2418544479821286e-9,7.308849209954836e-10,5.166124030543154e-10,0
44609,1.2113517356249082e-8,6.4601693023394056e-9,7.021593021767364e-9,1.8673130097139416e-8,5.101102926678725e-8,3.238343070037718e-9,7.3123239321114405e-10,5.167847196091725e-10,0
44610,1.2175744072094588e-8,6.428440505055409e-9,7.022794610211778e-9,1.86769841683062e-8,5.10003970676077e-8,3.2348316920933075e-9,7.315798654268046e-10,5.169570361640296e-10,0
44611,1.2237970787940093e-8,6.396711707771413e-9,7.023996198656192e-9,1.868083823947299e-8,5.098976486842815e-8,3.2313203141488967e-9,7.319273376424651e-10,5.171293527188867e-10,0
44612,1.2300197503785596e-8,6.364982910487417e-9,7.025197787100607e-9,1.8684692310639777e-8,5.0979132669248605e-8,3.2278089362044864e-9,7.322748098581256e-10,5.173016692737438e-10,0
44613,1.2297522156661955e-8,6.338714633364003e-9,7.018600503064122e-9,1.8589422826946855e-8,5.0868444880172554e-8,3.208470199341919e-9,7.318209671534862e-10,5.174739858286008e-10,0
44614,1.2267282222909108e-8,6.3086458946686465e-9,7.010801630583222e-9,1.8484888602989693e-8,5.075677138584339e-8,3.1926428404237614e-9,7.367635879129885e-10,5.18317372055522e-10,0
44615,1.223704228915626e-8,6.278577155973289e-9,7.0030027581023226e-9,1.8380354379032527e-8,5.064509789151423e-8,3.1768154815056043e-9,7.417062086724907e-10,5.191607582824432e-10,0
44616,1.2206802355403412e-8,6.248508417277932e-9,6.9952038856214226e-9,1.8275820155075364e-8,5.053342439718506e-8,3.160988122587447e-9,7.46648829431993e-10,5.200041445093643e-10,0
44617,1.2176562421650566e-8,6.218439678582575e-9,6.9874050131405226e-9,1.81712859311182e-8,5.04217509028559e-8,3.14516076366929e-9,7.515914501914952e-10,5.208475307362854e-10,0
44618,1.2148997835021359e-8,6.176687968400127e-9,6.9796061406596234e-9,1.81392183203865e-8,5.03649284504382e-8,3.148000435416104e-9,7.537377435618697e-10,5.180091320405364e-10,0
44619,1.2121433248392154e-8,6.134936258217678e-9,6.9718072681787234e-9,1.81071507096548e-8,5.030810599802051e-8,3.150840107162918e-9,7.55884036932244e-10,5.151707333447873e-10,0
44620,1.209386866176295e-8,6.09318454803523e-9,6.9640083956978234e-9,1.80750830989231e-8,5.025128354560281e-8,3.153679778909732e-9,7.580303303026185e-10,5.123323346490382e-10,0
44621,1.2066304075133744e-8,6.051432837852781e-9,6.956209523216924e-9,1.8043015488191403e-8,5.0194461093185116e-8,3.156519450656546e-9,7.601766236729928e-10,5.094939359532892e-10,0
44622,1.203873948850454e-8,6.009681127670333e-9,6.948410650736024e-9,1.8010947877459702e-8,5.013763864076742e-8,3.15935912240336e-9,7.623229170433673e-10,5.0665553725754e-10,0
44623,1.2011174901875333e-8,5.967929417487884e-9,6.940611778255125e-9,1.7978880266728005e-8,5.0080816188349725e-8,3.162198794150174e-9,7.644692104137417e-10,5.03817138561791e-10,0
44624,1.1983610315246128e-8,5.926177707305436e-9,6.932812905774225e-9,1.7946812655996304e-8,5.002399373593203e-8,3.165038465896988e-9,7.666155037841161e-10,5.009787398660419e-10,0
44625,1.1956045728616923e-8,5.884425997122987e-9,6.925014033293325e-9,1.7914745045264604e-8,4.9967171283514333e-8,3.167878137643802e-9,7.687617971544905e-10,4.981403411702928e-10,0
44626,1.1928481141987718e-8,5.842674286940539e-9,6.917215160812426e-9,1.7882677434532906e-8,4.991034883109664e-8,3.170717809390616e-9,7.709080905248649e-10,4.953019424745437e-10,0
44627,1.1887058000222974e-8,5.802893663949762e-9,6.917215160812426e-9,1.7877119354205002e-8,4.986514428311161e-8,3.1718882687054196e-9,7.676579204310976e-10,4.917924741067305e-10,0
44628,1.1822953695714008e-8,5.79121069246267e-9,6.908509370794318e-9,1.784804044302335e-8,4.980832183069391e-8,3.1837980251465023e-9,7.665989541202723e-10,4.90586258222731e-10,0
44629,1.1758849391205043e-8,5.779527720975579e-9,6.89980358077621e-9,1.7818961531841697e-8,4.9751499378276216e-8,3.195707781587585e-9,7.655399878094469e-10,4.893800423387314e-10,0
44630,1.1694745086696078e-8,5.767844749488488e-9,6.891097790758103e-9,1.7789882620660045e-8,4.969467692585852e-8,3.2076175380286676e-9,7.644810214986217e-10,4.881738264547318e-10,0
44631,1.1630640782187114e-8,5.756161778001397e-9,6.882392000739995e-9,1.7760803709478393e-8,4.9637854473440824e-8,3.2195272944697503e-9,7.634220551877964e-10,4.869676105707322e-10,0
44632,1.1566536477678149e-8,5.744478806514305e-9,6.873686210721887e-9,1.773172479829674e-8,4.958103202102313e-8,3.231437050910833e-9,7.623630888769711e-10,4.857613946867326e-10,0
44633,1.157283626180506e-8,5.774523619932506e-9,6.873686210721887e-9,1.772188568972347e-8,4.9581457482771884e-8,3.244018513549512e-9,7.637080673270455e-10,4.879105271630534e-10,0
44634,1.1579293419292188e-8,5.804568433350707e-9,6.8644368885205436e-9,1.7465541864091858e-8,4.9016531070175225e-8,3.2136347856478093e-9,7.595218510752756e-10,4.900596596393742e-10,0
44635,1.1585750576779313e-8,5.834613246768907e-9,6.8551875663192e-9,1.7209198038460248e-8,4.8451604657578566e-8,3.183251057746107e-9,7.553356348235057e-10,4.922087921156948e-10,0
44636,1.159220773426644e-8,5.864658060187108e-9,6.8459382441178565e-9,1.6952854212828638e-8,4.788667824498191e-8,3.152867329844404e-9,7.511494185717358e-10,4.943579245920156e-10,0
44637,1.1598664891753568e-8,5.894702873605309e-9,6.836688921916512e-9,1.6696510387197028e-8,4.732175183238525e-8,3.1224836019427016e-9,7.469632023199659e-10,4.965070570683364e-10,0
44638,1.1605122049240693e-8,5.92474768702351e-9,6.827439599715169e-9,1.6440166561565417e-8,4.675682541978859e-8,3.0920998740409987e-9,7.42776986068196e-10,4.986561895446571e-10,0
44639,1.161157920672782e-8,5.9547925004417106e-9,6.818190277513825e-9,1.6183822735933807e-8,4.619189900719193e-8,3.0617161461392963e-9,7.385907698164261e-10,5.008053220209779e-10,0
44640,1.1618036364214946e-8,5.984837313859911e-9,6.808940955312482e-9,1.5927478910302197e-8,4.562697259459527e-8,3.0313324182375934e-9,7.344045535646562e-10,5.029544544972986e-10,0
44641,1.161786567433645e-8,5.996711687564253e-9,6.824176345485457e-9,1.5719880755539197e-8,4.5077569019019185e-8,2.991878605641622e-9,7.360686434816675e-10,5.034714041618699e-10,0
44642,1.161786567433645e-8,5.998658849478769e-9,6.817035529265735e-9,1.5481998433550636e-8,4.462797507179099e-8,2.9581765589998603e-9,7.318824272298976e-10,5.034714041618699e-10,0
44643,1.161786567433645e-8,6.000606011393283e-9,6.809894713046014e-9,1.5244116111562076e-08,4.417838112456279e-8,2.9244745123580983e-9,7.276962109781277e-10,5.034714041618699e-10,0
44644,1.161786567433645e-8,6.002553173307799e-9,6.802753896826292e-9,1.500623378957351e-8,4.37287871773346e-8,2.890772465716336e-9,7.235099947263578e-10,5.034714041618699e-10,0
44645,1.161786567433645e-8,6.004500335222314e-9,6.795613080606571e-9,1.4768351467584949e-8,4.3279193230106405e-8,2.857070419074574e-9,7.193237784745879e-10,5.034714041618699e-10,0
44646,1.161786567433645e-8,6.006447497136829e-9,6.78847226438685e-9,1.4530469145596386e-8,4.2829599282878215e-8,2.823368372432812e-9,7.15137562222818e-10,5.034714041618699e-10,0
44647,1.161786567433645e-8,6.0083946590513444e-9,6.7813314481671285e-9,1.4292586823607824e-8,4.238000533565002e-8,2.78966632579105e-9,7.109513459710481e-10,5.034714041618699e-10,0
44648,1.161786567433645e-8,6.01034182096586e-9,6.774190631947407e-9,1.4054704501619263e-8,4.193041138842182e-8,2.7559642791492883e-9,7.067651297192782e-10,5.034714041618699e-10,0
44649,1.161786567433645e-8,6.012288982880375e-9,6.767049815727686e-9,1.38168221796307e-8,4.148081744119363e-8,2.722262232507526e-9,7.025789134675083e-10,5.034714041618699e-10,0
44650,1.161786567433645e-8,6.01423614479489e-9,6.759908999507965e-9,1.3578939857642138e-8,4.1031223493965435e-8,2.688560185865764e-9,6.983926972157384e-10,5.034714041618699e-10,0
44651,1.161786567433645e-8,6.0161833067094055e-9,6.752768183288243e-9,1.3341057535653576e-8,4.0581629546737245e-8,2.654858139224002e-9,6.942064809639685e-10,5.034714041618699e-10,0
44652,1.161786567433645e-8,6.018130468623921e-9,6.745627367068522e-9,1.3103175213665013e-8,4.013203559950905e-8,2.62115609258224e-9,6.900202647121986e-10,5.034714041618699e-10,0
44653,1.161786567433645e-8,6.020077630538436e-9,6.738486550848801e-9,1.2865292891676451e-8,3.968244165228085e-8,2.5874540459404782e-9,6.858340484604287e-10,5.034714041618699e-10,0
44654,1.161786567433645e-8,6.022024792452951e-9,6.7313457346290794e-9,1.2627410569687888e-8,3.923284770505266e-8,2.5537519992987163e-9,6.816478322086589e-10,5.034714041618699e-10,0
44655,1.161786567433645e-8,6.0239719543674665e-9,6.724204918409358e-9,1.2389528247699326e-8,3.8783253757824465e-8,2.520049952656954e-9,6.77461615956889e-10,5.034714041618699e-10,0
44656,1.161786567433645e-8,5.990126679377323e-9,6.556557217711342e-9,1.2380562149049184e-8,3.887865970046725e-8,2.523633753061946e-9,6.800002919554914e-10,5.036255241693627e-10,0
44657,1.161786567433645e-8,5.956281404387178e-9,6.388909517013326e-9,1.2371596050399043e-8,3.8974065643110036e-8,2.527217553466938e-9,6.825389679540938e-10,5.037796441768555e-10,0
44658,1.161786567433645e-8,5.9224361293970346e-09,6.22126181631531e-9,1.2362629951748901e-8,3.906947158575282e-8,2.53080135387193e-9,6.850776439526963e-10,5.039337641843483e-10,0
44659,1.161786567433645e-8,5.888590854406891e-9,6.053614115617294e-9,1.235366385309876e-8,3.916487752839561e-8,2.5343851542769217e-9,6.876163199512988e-10,5.040878841918411e-10,0
44660,1.161786567433645e-8,5.854745579416746e-9,5.885966414919278e-9,1.2344697754448618e-8,3.926028347103839e-8,2.5379689546819136e-9,6.901549959499013e-10,5.042420041993339e-10,0
44661,1.161786567433645e-8,5.8209003044266026e-9,5.718318714221262e-9,1.2335731655798477e-8,3.935568941368118e-8,2.5415527550869054e-9,6.926936719485038e-10,5.043961242068268e-10,0
44662,1.1629363629068776e-8,5.788788702708105e-9,5.549469425078832e-9,1.2325401432414388e-8,3.9362378791848274e-8,2.54421947375333e-9,6.934949868688037e-10,5.050671938788908e-10,0
44663,1.163503391975483e-8,5.7529723405262894e-9,5.382093490472434e-9,1.235204691658905e-8,3.935534655880152e-8,2.539517530370154e-9,6.934949868688037e-10,5.052213138863836e-10,0
44664,1.1640704210440885e-8,5.717155978344474e-9,5.2147175558660365e-9,1.2378692400763712e-8,3.934831432575477e-8,2.5348155869869786e-9,6.934949868688037e-10,5.053754338938764e-10,0
44665,1.1646374501126942e-8,5.681339616162659e-9,5.047341621259639e-9,1.2405337884938374e-8,3.9341282092708026e-8,2.530113643603803e-9,6.934949868688037e-10,5.055295539013693e-10,0
44666,1.1652044791812997e-8,5.645523253980843e-9,4.879965686653241e-9,1.2431983369113036e-8,3.933424985966128e-8,2.5254117002206273e-9,6.934949868688037e-10,5.056836739088621e-10,0
44667,1.1657715082499051e-8,5.609706891799027e-9,4.712589752046843e-9,1.2458628853287696e-8,3.932721762661453e-8,2.5207097568374518e-9,6.934949868688037e-10,5.058377939163549e-10,0
44668,1.1663385373185106e-8,5.5738905296172116e-9,4.5452138174404454e-9,1.2485274337462359e-8,3.932018539356778e-8,2.516007813454276e-9,6.934949868688037e-10,5.059919139238477e-10,0
44669,1.1660720917720576e-8,5.538361270761272e-9,4.531996344551886e-9,1.2544047770947764e-8,3.9306463782353935e-8,2.5077220696661086e-9,6.934949868688037e-10,5.054749642592764e-10,0
44670,1.1658056462256044e-8,5.502832011905333e-9,4.518778871663327e-9,1.260282120443317e-8,3.92927421711401e-8,2.499436325877941e-9,6.934949868688037e-10,5.049580145947052e-10,0
44671,1.1655392006791514e-8,5.467302753049394e-9,4.5055613987747684e-9,1.2661594637918576e-8,3.9279020559926256e-8,2.4911505820897735e-9,6.934949868688037e-10,5.044410649301339e-10,0
44672,1.1652727551326982e-8,5.431773494193454e-9,4.49234392588621e-9,1.2720368071403981e-8,3.9265298948712414e-8,2.4828648383016058e-9,6.934949868688037e-10,5.039241152655627e-10,0
44673,1.1650063095862451e-8,5.396244235337515e-9,4.47912645299765e-9,1.2779141504889387e-8,3.925157733749857e-8,2.4745790945134385e-9,6.934949868688037e-10,5.034071656009915e-10,0
44674,1.164739864039792e-8,5.360714976481576e-9,4.4659089801090914e-9,1.2837914938374793e-8,3.923785572628473e-8,2.4662933507252707e-9,6.934949868688037e-10,5.028902159364202e-10,0
44675,1.1644734184933387e-8,5.325185717625637e-9,4.452691507220533e-9,1.2896688371860199e-8,3.9224134115070886e-8,2.4580076069371034e-9,6.934949868688037e-10,5.02373266271849e-10,0
44676,1.1642069729468857e-8,5.289656458769697e-9,4.439474034331974e-9,1.2955461805345604e-8,3.921041250385704e-8,2.4497218631489357e-9,6.934949868688037e-10,5.018563166072777e-10,0
44677,1.1639405274004325e-8,5.254127199913758e-9,4.426256561443414e-9,1.301423523883101e-8,3.91966908926432e-8,2.4414361193607683e-9,6.934949868688037e-10,5.013393669427065e-10,0
44678,1.1636740818539795e-8,5.218597941057819e-9,4.413039088554856e-9,1.3073008672316416e-8,3.918296928142936e-8,2.4331503755726006e-9,6.934949868688037e-10,5.008224172781352e-10,0
44679,1.1634076363075263e-8,5.183068682201879e-9,4.399821615666297e-9,1.3131782105801821e-8,3.9169247670215515e-8,2.4248646317844333e-9,6.934949868688037e-10,5.00305467613564e-10,0
44680,1.163141190761073e-8,5.14753942334594e-9,4.386604142777738e-9,1.3190555539287227e-8,3.915552605900167e-8,2.4165788879962656e-9,6.934949868688037e-10,4.997885179489927e-10,0
44681,1.16287474521462e-8,5.11201016449e-9,4.373386669889179e-9,1.3249328972772633e-8,3.914180444778783e-8,2.4082931442080982e-9,6.934949868688037e-10,4.992715682844215e-10,0
44682,1.1626082996681668e-8,5.076480905634062e-9,4.36016919700062e-9,1.3308102406258039e-8,3.9128082836573994e-8,2.4000074004199305e-9,6.934949868688037e-10,4.987546186198501e-10,0
44683,1.1623418541217138e-8,5.040951646778122e-9,4.346951724112061e-9,1.3366875839743444e-8,3.911436122536015e-8,2.391721656631763e-9,6.934949868688037e-10,4.982376689552789e-10,0
44684,1.1620754085752606e-8,5.005422387922183e-9,4.3337342512235025e-9,1.342564927322885e-8,3.910063961414631e-8,2.3834359128435955e-9,6.934949868688037e-10,4.977207192907076e-10,0
44685,1.1566152723507138e-8,5.000197442830087e-9,4.279324351816764e-9,1.3209817488942705e-8,3.8987431972040973e-8,2.3825711474416478e-9,6.926936719485038e-10,4.958798268293726e-10,0
44686,1.1526553904332725e-8,4.982457658105043e-9,4.217296757323539e-9,1.2995406348816359e-8,3.878740588459772e-8,2.3805560288488584e-9,6.930860545767318e-10,4.940389343680374e-10,0
44687,1.1486955085158313e-8,4.964717873379999e-9,4.155269162830313e-9,1.2780995208690011e-8,3.858737979715447e-8,2.3785409102560687e-9,6.934784372049599e-10,4.921980419067024e-10,0
44688,1.1447356265983902e-8,4.946978088654955e-9,4.093241568337087e-9,1.2566584068563663e-8,3.838735370971122e-8,2.376525791663279e-9,6.93870819833188e-10,4.903571494453672e-10,0
44689,1.140775744680949e-8,4.929238303929911e-9,4.031213973843862e-9,1.2352172928437316e-8,3.818732762226797e-8,2.3745106730704897e-9,6.94263202461416e-10,4.885162569840321e-10,0
44690,1.1368158627635077e-8,4.911498519204867e-9,3.969186379350636e-9,1.213776178831097e-8,3.798730153482472e-8,2.3724955544777e-9,6.946555850896441e-10,4.86675364522697e-10,0
44691,1.1328559808460665e-8,4.893758734479823e-9,3.907158784857411e-9,1.1923350648184622e-8,3.7787275447381466e-8,2.3704804358849106e-9,6.950479677178722e-10,4.848344720613618e-10,0
44692,1.1324399093644512e-8,4.902024048829472e-9,3.90804279757903e-9,1.1800215147660347e-8,3.7787275447381466e-8,2.3693300826940686e-9,6.954403503461003e-10,4.841634023892978e-10,0
44693,1.1248209715376384e-8,4.910385064287747e-9,3.8935331475488505e-9,1.1797003421688023e-8,3.76145105966851e-8,2.3681797295032266e-9,6.954403503461003e-10,4.818601499054842e-10,0
44694,1.1172020337108254e-8,4.918746079746022e-9,3.879023497518671e-9,1.17937916957157e-8,3.7441745745988726e-8,2.367029376312385e-9,6.954403503461003e-10,4.795568974216707e-10,0
44695,1.1095830958840124e-8,4.9271070952042974e-9,3.864513847488492e-9,1.1790579969743377e-8,3.726898089529236e-8,2.365879023121543e-9,6.954403503461003e-10,4.772536449378571e-10,0
44696,1.1019641580571996e-8,4.935468110662573e-9,3.8500041974583125e-09,1.1787368243771054e-8,3.709621604459599e-8,2.364728669930701e-9,6.954403503461003e-10,4.749503924540435e-10,0
44697,1.0943452202303866e-8,4.943829126120848e-9,3.835494547428133e-9,1.1784156517798732e-8,3.692345119389962e-8,2.3635783167398593e-9,6.954403503461003e-10,4.7264713997023e-10,0
44698,1.0867262824035738e-8,4.952190141579123e-9,3.820984897397954e-9,1.1780944791826409e-8,3.675068634320325e-8,2.3624279635490173e-9,6.954403503461003e-10,4.703438874864164e-10,0
44699,1.0777751168444951e-8,4.949221548153038e-9,3.821709606975602e-9,1.1817485904000191e-8,3.657783640015713e-8,2.3624279635490173e-9,6.945941250132328e-10,4.681947550100957e-10,0
44700,1.0692072164431608e-8,4.965371211269373e-9,3.818014252945152e-9,1.1814920342375528e-8,3.640565539492772e-8,2.3649619413829757e-9,6.934004274647047e-10,4.665625721983462e-10,0
44701,1.0606393160418263e-8,4.9815208743857095e-9,3.814318898914703e-9,1.1812354780750864e-8,3.623347438969831e-8,2.3674959192169337e-9,6.922067299161768e-10,4.649303893865967e-10,0
44702,1.052071415640492e-8,4.997670537502046e-9,3.810623544884254e-9,1.1809789219126201e-8,3.60612933844689e-8,2.3700298970508917e-9,6.910130323676487e-10,4.632982065748472e-10,0
44703,1.0435035152391575e-8,5.013820200618381e-9,3.8069281908538045e-9,1.1807223657501536e-8,3.588911237923949e-8,2.37256387488485e-9,6.898193348191208e-10,4.616660237630977e-10,0
44704,1.0349356148378232e-8,5.0299698637347175e-9,3.803232836823355e-9,1.1804658095876873e-8,3.571693137401008e-8,2.375097852718808e-9,6.886256372705927e-10,4.6003384095134824e-10,0
44705,1.0263677144364887e-8,5.046119526851054e-9,3.799537482792905e-9,1.180209253425221e-8,3.5544750368780667e-8,2.3776318305527662e-9,6.874319397220648e-10,4.584016581395987e-10,0
44706,1.0177998140351544e-8,5.06226918996739e-9,3.795842128762456e-9,1.1799526972627546e-8,3.537256936355126e-8,2.3801658083867246e-9,6.862382421735367e-10,4.567694753278492e-10,0
44707,1.00923191363382e-8,5.0784188530837256e-9,3.792146774732007e-9,1.1796961411002881e-8,3.5200388358321845e-8,2.3826997862206827e-9,6.850445446250088e-10,4.5513729251609975e-10,0
44708,1.0006640132324856e-8,5.094568516200062e-9,3.788451420701558e-9,1.1794395849378217e-8,3.502820735309244e-8,2.385233764054641e-9,6.838508470764808e-10,4.5350510970435024e-10,0
44709,9.920961128311511e-9,5.110718179316398e-9,3.7847560666711085e-9,1.1791830287753554e-8,3.4856026347863024e-8,2.387767741888599e-9,6.826571495279528e-10,4.5187292689260073e-10,0
44710,9.835282124298168e-9,5.126867842432734e-9,3.7810607126406585e-9,1.178926472612889e-8,3.468384534263361e-8,2.390301719722557e-9,6.814634519794248e-10,4.5024074408085127e-10,0
44711,9.749603120284823e-9,5.14301750554907e-9,3.777365358610209e-9,1.1786699164504227e-8,3.45116643374042e-8,2.3928356975565156e-9,6.802697544308968e-10,4.4860856126910176e-10,0
44712,9.66392411627148e-9,5.159167168665406e-9,3.77367000457976e-9,1.1784133602879562e-8,3.433948333217479e-8,2.3953696753904736e-9,6.790760568823688e-10,4.4697637845735225e-10,0
44713,9.578245112258135e-9,5.1753168317817425e-9,3.769974650549311e-9,1.1781568041254899e-8,3.416730232694538e-8,2.3979036532244316e-9,6.778823593338408e-10,4.453441956456028e-10,0
44714,9.521504680701908e-9,5.153419545178948e-9,3.762085189371205e-9,1.1781568041254899e-8,3.416621972836121e-8,2.3972922653987202e-9,6.775348871181803e-10,4.461875818725239e-10,0
44715,9.464764249145679e-9,5.131522258576153e-9,3.754195728193099e-9,1.1781568041254899e-8,3.416513712977705e-8,2.3966808775730085e-9,6.771874149025197e-10,4.4703096809944505e-10,0
44716,9.408023817589451e-9,5.1096249719733585e-9,3.746306267014994e-9,1.1781568041254899e-8,3.416405453119289e-8,2.3960694897472967e-9,6.768399426868593e-10,4.478743543263662e-10,0
44717,9.351283386033222e-9,5.087727685370564e-9,3.738416805836888e-9,1.1781568041254899e-8,3.416297193260872e-8,2.3954581019215854e-9,6.764924704711987e-10,4.4871774055328735e-10,0
44718,9.294542954476995e-9,5.065830398767769e-9,3.730527344658782e-9,1.1781568041254899e-8,3.416188933402456e-8,2.3948467140958736e-9,6.761449982555382e-10,4.4956112678020853e-10,0
44719,9.237802522920767e-9,5.043933112164975e-9,3.7226378834806763e-9,1.1781568041254899e-8,3.416080673544039e-8,2.394235326270162e-9,6.757975260398777e-10,4.5040451300712965e-10,0
44720,9.181062091364538e-9,5.0220358255621806e-9,3.7147484223025708e-9,1.1781568041254899e-8,3.4159724136856226e-8,2.3936239384444505e-9,6.754500538242172e-10,4.5124789923405083e-10,0
44721,9.184670786990355e-9,5.04013448944457e-9,3.7201888969606706e-9,1.1698196836336315e-8,3.415640304973528e-8,2.3744380485383108e-9,6.69706118144415e-10,4.5171025925652924e-10,0
44722,9.178789856870957e-9,5.0424147663877355e-9,3.73188720568202e-9,1.1774668751112214e-8,3.426709083881133e-8,2.3722700829890933e-9,6.681034883038151e-10,4.518643792640221e-10,0
44723,9.17290892675156e-9,5.044695043330902e-9,3.74358551440337e-9,1.1851140665888114e-8,3.437777862788738e-8,2.370102117439876e-9,6.665008584632153e-10,4.520184992715149e-10,0
44724,9.167027996632162e-9,5.046975320274068e-9,3.755283823124719e-9,1.1927612580664015e-8,3.448846641696343e-8,2.3679341518906584e-9,6.648982286226155e-10,4.521726192790077e-10,0
44725,9.161147066512763e-9,5.0492555972172336e-9,3.766982131846069e-9,1.2004084495439914e-8,3.4599154206039474e-8,2.365766186341441e-9,6.632955987820155e-10,4.523267392865005e-10,0
44726,9.155266136393365e-9,5.051535874160399e-9,3.778680440567418e-9,1.2080556410215813e-8,3.4709841995115525e-8,2.3635982207922235e-9,6.616929689414157e-10,4.5248085929399336e-10,0
44727,9.149385206273967e-9,5.053816151103566e-9,3.790378749288768e-9,1.2157028324991712e-8,3.4820529784191576e-8,2.361430255243006e-9,6.600903391008158e-10,4.5263497930148617e-10,0
44728,9.14350427615457e-9,5.056096428046732e-9,3.802077058010117e-9,1.2233500239767611e-8,3.493121757326763e-8,2.359262289693788e-9,6.58487709260216e-10,4.5278909930897897e-10,0
44729,9.137623346035171e-9,5.058376704989897e-9,3.813775366731467e-9,1.2309972154543512e-8,3.504190536234368e-8,2.3570943241445707e-9,6.568850794196161e-10,4.5294321931647177e-10,0
44730,9.131742415915773e-9,5.060656981933063e-9,3.825473675452816e-9,1.2386444069319411e-8,3.515259315141973e-8,2.354926358595353e-9,6.552824495790162e-10,4.5309733932396463e-10,0
44731,9.125861485796375e-9,5.06293725887623e-9,3.8371719841741656e-9,1.246291598409531e-8,3.526328094049578e-8,2.3527583930461357e-9,6.536798197384164e-10,4.5325145933145743e-10,0
44732,9.119980555676976e-9,5.0652175358193955e-9,3.8488702928955156e-9,1.253938789887121e-8,3.5373968729571824e-8,2.3505904274969183e-9,6.520771898978165e-10,4.5340557933895023e-10,0
44733,9.114099625557578e-9,5.067497812762561e-9,3.860568601616865e-9,1.261585981364711e-8,3.5484656518647875e-8,2.348422461947701e-9,6.504745600572167e-10,4.5355969934644304e-10,0
44734,9.108218695438181e-9,5.069778089705727e-9,3.872266910338215e-9,1.269233172842301e-8,3.5595344307723926e-8,2.3462544963984834e-9,6.488719302166168e-10,4.5371381935393584e-10,0
44735,9.102337765318783e-9,5.0720583666488936e-9,3.883965219059564e-9,1.2768803643198909e-8,3.5706032096799977e-8,2.344086530849266e-9,6.472693003760169e-10,4.538679393614287e-10,0
44736,9.096456835199385e-9,5.074338643592059e-9,3.895663527780914e-9,1.2845275557974808e-8,3.581671988587603e-8,2.3419185653000484e-9,6.456666705354171e-10,4.540220593689215e-10,0
44737,9.094237866778933e-9,5.040852247759261e-9,3.895663527780914e-9,1.297139975804913e-8,3.590356441865719e-8,2.345277096288031e-9,6.434754667524751e-10,4.5434849593127137e-10,0
44738,9.092018898358479e-9,5.027268126060428e-9,3.895029406900471e-9,1.3097882938316597e-8,3.6016904357037477e-8,2.3469463087200418e-9,6.418728369118753e-10,4.546749324936213e-10,0
44739,9.089799929938027e-9,5.0136840043615964e-9,3.894395286020029e-9,1.3224366118584062e-8,3.613024429541777e-8,2.348615521152052e-9,6.402702070712754e-10,4.5500136905597116e-10,0
44740,9.087580961517573e-9,5.000099882662764e-9,3.893761165139587e-9,1.3350849298851529e-8,3.624358423379805e-8,2.350284733584063e-9,6.386675772306755e-10,4.553278056183211e-10,0
44741,9.085361993097121e-9,4.986515760963932e-9,3.893127044259145e-9,1.3477332479118994e-8,3.635692417217834e-8,2.351953946016073e-9,6.370649473900757e-10,4.55654242180671e-10,0
44742,9.083143024676667e-9,4.9729316392651005e-9,3.8924929233787034e-9,1.360381565938646e-8,3.6470264110558624e-08,2.3536231584480834e-9,6.354623175494758e-10,4.559806787430209e-10,0
44743,9.080924056256215e-9,4.959347517566268e-9,3.891858802498261e-9,1.3730298839653927e-8,3.6583604048938915e-8,2.355292370880094e-9,6.33859687708876e-10,4.563071153053708e-10,0
44744,9.093406200704671e-9,4.94348311892427e-9,3.888571612887812e-9,1.3730298839653927e-8,3.658893194950999e-8,2.3557509117493778e-9,6.344482616512181e-10,4.566335518677207e-10,0
44745,9.084218005161604e-9,4.92859230123953e-9,3.879843948619264e-9,1.3738989211609137e-8,3.6595902692169583e-8,2.3654202801806615e-9,6.344482616512181e-10,4.5680586842257774e-10,0
44746,9.075029809618535e-9,4.913701483554789e-9,3.871116284350716e-9,1.3747679583564347e-8,3.6602873434829184e-8,2.3750896486119457e-9,6.344482616512181e-10,4.5697818497743486e-10,0
44747,9.065841614075466e-9,4.898810665870049e-9,3.8623886200821676e-9,1.3756369955519558e-8,3.6609844177488784e-8,2.3847590170432294e-9,6.344482616512181e-10,4.5715050153229193e-10,0
44748,9.056653418532398e-9,4.883919848185308e-9,3.853660955813619e-9,1.3765060327474768e-8,3.661681492014838e-8,2.394428385474513e-9,6.344482616512181e-10,4.57322818087149e-10,0
44749,9.04746522298933e-9,4.869029030500568e-9,3.844933291545071e-9,1.377375069942998e-8,3.662378566280798e-8,2.404097753905797e-9,6.344482616512181e-10,4.574951346420061e-10,0
44750,9.038277027446262e-9,4.854138212815827e-9,3.836205627276523e-9,1.378244107138519e-8,3.663075640546757e-8,2.413767122337081e-9,6.344482616512181e-10,4.576674511968632e-10,0
44751,9.029088831903193e-9,4.839247395131087e-9,3.8274779630079746e-9,1.37911314433404e-8,3.663772714812717e-8,2.4234364907683647e-9,6.344482616512181e-10,4.5783976775172025e-10,0
44752,8.994714816370757e-9,4.791175693661966e-9,3.8301987156195984e-9,1.3779376756643318e-8,3.643029305529427e-8,2.415609287849481e-9,6.36247082805932e-10,4.5783976775172025e-10,0
44753,8.981864659128743e-9,4.728500277833981e-9,3.7924517512906915e-9,1.3788777450678428e-8,3.62323874465748e-8,2.424820115411481e-9,6.370034873136643e-10,4.5599887529038515e-10,0
44754,8.96901450188673e-9,4.665824862005995e-9,3.754704786961784e-9,1.3798178144713537e-8,3.603448183785533e-8,2.4340309429734812e-9,6.377598918213967e-10,4.5415798282905004e-10,0
44755,8.956164344644716e-9,4.60314944617801e-9,3.7169578226328768e-9,1.3807578838748646e-8,3.5836576229135855e-8,2.4432417705354813e-9,6.38516296329129e-10,4.5231709036771493e-10,0
44756,8.943314187402703e-9,4.5404740303500245e-9,3.67921085830397e-9,1.3816979532783756e-8,3.563867062041639e-8,2.4524525980974814e-9,6.392727008368615e-10,4.504761979063798e-10,0
44757,8.93046403016069e-9,4.477798614522039e-9,3.641463893975063e-9,1.3826380226818864e-8,3.544076501169692e-8,2.4616634256594815e-9,6.400291053445938e-10,4.486353054450447e-10,0
44758,8.916288303445551e-9,4.4164298946799624e-9,3.599908082102912e-9,1.3828515012211755e-8,3.5241216560888926e-8,2.4595155662342256e-9,6.389866886976123e-10,4.469485329912024e-10,0
44759,8.902112576730412e-9,4.355061174837885e-9,3.558352270230761e-9,1.3830649797604646e-8,3.504166811008093e-8,2.4573677068089697e-9,6.379442720506307e-10,4.452617605373601e-10,0
44760,8.887936850015274e-9,4.2936924549958084e-9,3.51679645835861e-9,1.3832784582997537e-8,3.484211965927294e-8,2.455219847383714e-9,6.369018554036492e-10,4.435749880835178e-10,0
44761,8.873761123300137e-9,4.232323735153731e-9,3.4752406464864592e-9,1.3834919368390428e-8,3.4642571208464946e-8,2.453071987958458e-9,6.358594387566677e-10,4.418882156296755e-10,0
44762,8.859585396584998e-9,4.1709550153116544e-9,3.4336848346143082e-9,1.3837054153783319e-8,3.444302275765695e-8,2.4509241285332024e-9,6.348170221096862e-10,4.402014431758332e-10,0
44763,8.84540966986986e-9,4.109586295469577e-9,3.3921290227421572e-9,1.383918893917621e-8,3.424347430684896e-8,2.4487762691079465e-9,6.337746054627047e-10,4.385146707219909e-10,0
44764,8.83123394315472e-9,4.0482175756275e-9,3.350573210870006e-9,1.38413237245691e-8,3.404392585604096e-8,2.4466284096826906e-9,6.327321888157231e-10,4.368278982681486e-10,0
44765,8.817058216439584e-9,3.986848855785423e-9,3.309017398997855e-9,1.3843458509961992e-8,3.384437740523297e-8,2.4444805502574347e-9,6.316897721687416e-10,4.351411258143063e-10,0
44766,8.802882489724445e-9,3.925480135943346e-9,3.2674615871257046e-9,1.3845593295354881e-8,3.364482895442498e-8,2.442332690832179e-9,6.306473555217601e-10,4.3345435336046397e-10,0
44767,8.788706763009306e-9,3.864111416101269e-9,3.2259057752535536e-9,1.3847728080747772e-8,3.344528050361698e-8,2.440184831406923e-9,6.296049388747785e-10,4.3176758090662167e-10,0
44768,8.774531036294168e-9,3.802742696259192e-9,3.1843499633814026e-9,1.3849862866140663e-8,3.324573205280899e-8,2.438036971981667e-9,6.285625222277971e-10,4.3008080845277936e-10,0
44769,8.76035530957903e-9,3.741373976417115e-9,3.1427941515092516e-9,1.3851997651533554e-8,3.3046183602001e-8,2.4358891125564115e-9,6.275201055808155e-10,4.2839403599893706e-10,0
44770,8.746179582863892e-9,3.680005256575038e-9,3.101238339637101e-9,1.3854132436926445e-8,3.2846635151193e-8,2.4337412531311556e-9,6.264776889338339e-10,4.2670726354509475e-10,0
44771,8.732003856148753e-9,3.618636536732961e-9,3.05968252776495e-9,1.3856267222319336e-8,3.264708670038501e-8,2.4315933937058997e-9,6.254352722868525e-10,4.250204910912525e-10,0
44772,8.717828129433615e-9,3.557267816890884e-9,3.018126715892799e-9,1.3858402007712227e-8,3.244753824957702e-8,2.429445534280644e-9,6.243928556398709e-10,4.233337186374102e-10,0
44773,8.703652402718478e-9,3.495899097048807e-9,2.976570904020648e-9,1.3860536793105117e-8,3.224798979876902e-8,2.427297674855388e-9,6.233504389928894e-10,4.216469461835679e-10,0
44774,8.689476676003339e-9,3.43453037720673e-9,2.935015092148497e-9,1.3862671578498008e-8,3.204844134796103e-8,2.425149815430132e-9,6.223080223459079e-10,4.199601737297256e-10,0
44775,8.6753009492882e-9,3.373161657364653e-9,2.8934592802763463e-9,1.38648063638909e-8,3.184889289715304e-8,2.4230019560048765e-9,6.212656056989263e-10,4.182734012758833e-10,0
44776,8.661125222573062e-9,3.311792937522576e-9,2.8519034684041953e-9,1.386694114928379e-8,3.164934444634504e-8,2.4208540965796206e-9,6.202231890519448e-10,4.16586628822041e-10,0
44777,8.646949495857925e-9,3.250424217680499e-9,2.8103476565320443e-9,1.3869075934676681e-8,3.144979599553705e-8,2.4187062371543647e-9,6.191807724049633e-10,4.1489985636819867e-10,0
44778,8.632773769142786e-9,3.189055497838422e-9,2.7687918446598933e-9,1.3871210720069572e-8,3.1250247544729054e-8,2.416558377729109e-9,6.181383557579818e-10,4.1321308391435637e-10,0
44779,8.618598042427647e-9,3.127686777996345e-9,2.7272360327877423e-9,1.3873345505462463e-8,3.105069909392106e-8,2.414410518303853e-9,6.170959391110002e-10,4.1152631146051406e-10,0
44780,8.604422315712509e-9,3.066318058154268e-9,2.6856802209155917e-9,1.3875480290855354e-8,3.085115064311307e-8,2.412262658878597e-9,6.160535224640188e-10,4.0983953900667176e-10,0
44781,8.592806937174816e-9,3.0683369959002522e-9,2.6492264642934528e-9,1.37645531681791e-8,3.0853230747931646e-8,2.412415505835025e-9,6.160535224640188e-10,4.0983953900667176e-10,0
44782,8.581191558637124e-9,3.0703559336462365e-9,2.612772707671314e-9,1.3653626045502849e-8,3.085531085275023e-8,2.412568352791453e-9,6.160535224640188e-10,4.0983953900667176e-10,0
44783,8.569576180099431e-9,3.072374871392221e-9,2.576318951049175e-9,1.3542698922826596e-8,3.085739095756881e-8,2.412721199747881e-9,6.160535224640188e-10,4.0983953900667176e-10,0
44784,8.557960801561739e-9,3.074393809138205e-9,2.539865194427036e-9,1.3431771800150344e-8,3.0859471062387384e-8,2.4128740467043088e-9,6.160535224640188e-10,4.0983953900667176e-10,0
44785,8.546345423024046e-9,3.0764127468841895e-9,2.5034114378048975e-9,1.3320844677474091e-8,3.0861551167205966e-8,2.4130268936607365e-9,6.160535224640188e-10,4.0983953900667176e-10,0
44786,8.534730044486352e-9,3.078431684630174e-9,2.4669576811827586e-9,1.320991755479784e-8,3.086363127202455e-8,2.4131797406171646e-9,6.160535224640188e-10,4.0983953900667176e-10,0
44787,8.52421627947016e-9,3.079690530061769e-9,2.4658695862511384e-9,1.320991755479784e-8,3.086863060417791e-8,2.4076532440799646e-9,6.154034884452652e-10,4.0815276655282945e-10,0
44788,8.51254763485934e-9,3.079690530061769e-9,2.4658695862511384e-9,1.3217183463440057e-8,3.086863060417791e-8,2.402951300696789e-9,6.157958710734934e-10,4.0646599409898715e-10,0
44789,8.501207053487228e-9,3.0789065124702244e-9,2.4656884088567265e-9,1.3224449372082276e-8,3.087154983151271e-8,2.397271957203161e-9,6.153420283688539e-10,4.052961713097161e-10,0
44790,8.489866472115117e-9,3.0781224948786792e-9,2.4655072314623147e-9,1.3231715280724494e-8,3.08744690588475e-8,2.391592613709533e-9,6.148881856642145e-10,4.0412634852044505e-10,0
44791,8.478525890743007e-9,3.077338477287134e-9,2.4653260540679024e-9,1.3238981189366712e-8,3.087738828618229e-8,2.385913270215905e-9,6.144343429595751e-10,4.02956525731174e-10,0
44792,8.467185309370896e-9,3.0765544596955894e-9,2.4651448766734905e-9,1.3246247098008931e-8,3.088030751351708e-8,2.380233926722277e-9,6.139805002549357e-10,4.0178670294190295e-10,0
44793,8.455844727998786e-9,3.0757704421040442e-9,2.4649636992790783e-9,1.3253513006651149e-8,3.088322674085187e-8,2.374554583228649e-9,6.135266575502962e-10,4.006168801526319e-10,0
44794,8.444504146626675e-9,3.0749864245124995e-9,2.4647825218846664e-9,1.3260778915293366e-8,3.0886145968186656e-8,2.368875239735021e-9,6.130728148456567e-10,3.9944705736336085e-10,0
44795,8.433163565254564e-9,3.0742024069209544e-9,2.464601344490254e-9,1.3268044823935586e-8,3.088906519552145e-8,2.3631958962413933e-09,6.126189721410174e-10,3.982772345740898e-10,0
44796,8.433491628493275e-9,3.0107908240557365e-9,2.441023549653143e-9,1.3260707119254738e-8,3.0715038246040763e-8,2.342481536770974e-9,6.08584036790794e-10,3.9894830424615386e-10,0
44797,8.392697980169388e-9,3.0088197368640653e-9,2.4326811449890075e-9,1.3260707119254738e-8,3.054552119109689e-8,2.340639371258574e-9,6.069814069501941e-10,3.9979169047307504e-10,0
44798,8.351904331845501e-9,3.0068486496723937e-9,2.4243387403248716e-9,1.3260707119254738e-8,3.037600413615302e-8,2.338797205746174e-9,6.053787771095942e-10,4.0063507669999616e-10,0
44799,8.311110683521614e-9,3.004877562480722e-9,2.415996335660736e-9,1.3260707119254738e-8,3.0206487081209144e-8,2.336955040233774e-9,6.037761472689943e-10,4.0147846292691734e-10,0
44800,8.270317035197729e-9,3.0029064752890504e-9,2.4076539309966e-9,1.3260707119254738e-8,3.003697002626527e-8,2.335112874721374e-9,6.021735174283945e-10,4.0232184915383847e-10,0
44801,8.229523386873842e-9,3.000935388097379e-9,2.3993115263324644e-9,1.3260707119254738e-8,2.98674529713214e-8,2.333270709208974e-9,6.005708875877947e-10,4.0316523538075965e-10,0
44802,8.189241808185443e-9,3.0027647624776506e-9,2.3900622041311205e-9,1.3250664080025164e-8,2.9726584718163672e-8,2.335551309466696e-9,5.986207855315343e-10,4.0431686162266643e-10,0
44803,8.149274976217474e-9,3.0005562613659537e-9,2.3868208241518492e-9,1.3263782891456193e-8,2.9553819867467306e-8,2.3335361908739068e-9,5.968219643768204e-10,4.046432981850163e-10,0
44804,8.109308144249505e-9,2.9983477602542568e-9,2.3835794441725775e-9,1.3276901702887221e-8,2.9381055016770936e-8,2.331521072281117e-9,5.950231432221065e-10,4.0496973474736623e-10,0
44805,8.069341312281535e-9,2.99613925914256e-9,2.3803380641933062e-09,1.329002051431825e-8,2.9208290166074566e-8,2.3295059536883277e-9,5.932243220673926e-10,4.052961713097161e-10,0
44806,8.029374480313567e-9,2.993930758030863e-9,2.3770966842140345e-9,1.3303139325749279e-8,2.90355253153782e-8,2.327490835095538e-9,5.914255009126787e-10,4.05622607872066e-10,0
44807,7.989407648345597e-9,2.991722256919166e-9,2.373855304234763e-9,1.3316258137180307e-8,2.886276046468183e-8,2.3254757165027483e-9,5.896266797579648e-10,4.059490444344159e-10,0
44808,7.949440816377627e-9,2.989513755807469e-9,2.3706139242554915e-9,1.3329376948611336e-8,2.868999561398546e-8,2.323460597909959e-9,5.878278586032508e-10,4.062754809967658e-10,0
44809,7.90947398440966e-9,2.9873052546957722e-9,2.36737254427622e-9,1.3342495760042364e-8,2.851723076328909e-8,2.3214454793171692e-9,5.86029037448537e-10,4.066019175591157e-10,0
44810,7.910300800765576e-9,2.9863316737385145e-9,2.364674696480185e-9,1.3325821519058647e-8,2.8517315855638843e-8,2.321119679280352e-9,5.849866208015555e-10,4.066019175591157e-10,0
44811,7.911127617121494e-9,2.9853580927812568e-9,2.361976848684149e-9,1.330914727807493e-8,2.8517400947988592e-8,2.3207938792435344e-9,5.839442041545739e-10,4.066019175591157e-10,0
44812,7.911954433477411e-9,2.9843845118239994e-9,2.359279000888114e-9,1.3292473037091215e-8,2.8517486040338345e-8,2.320468079206717e-9,5.829017875075925e-10,4.066019175591157e-10,0
44813,7.91278124983333e-9,2.9834109308667417e-9,2.3565811530920786e-9,1.3275798796107498e-8,2.8517571132688095e-8,2.3201422791698995e-9,5.818593708606109e-10,4.066019175591157e-10,0
44814,7.913608066189247e-9,2.982437349909484e-9,2.3538833052960433e-9,1.325912455512378e-8,2.8517656225037848e-8,2.319816479133082e-9,5.808169542136293e-10,4.066019175591157e-10,0
44815,7.914434882545164e-9,2.9814637689522267e-9,2.3511854575000076e-9,1.3242450314140064e-8,2.8517741317387597e-8,2.3194906790962646e-9,5.797745375666479e-10,4.066019175591157e-10,0
44816,7.917782097523681e-9,2.9815116195065394e-9,2.3435677624135202e-9,1.3204325869963252e-8,2.85323871434674e-8,2.320315232250289e-9,5.787321209196663e-10,4.062754809967658e-10,0
44817,7.921129312502198e-9,2.981559470060852e-9,2.3359500673270325e-9,1.316620142578644e-8,2.8547032969547208e-8,2.3211397854043134e-9,5.776897042726848e-10,4.059490444344159e-10,0
44818,7.924476527480715e-9,2.9816073206151648e-9,2.328332372240545e-9,1.3128076981609628e-8,2.8561678795627012e-8,2.321964338558338e-9,5.766472876257033e-10,4.05622607872066e-10,0
44819,7.92782374245923e-9,2.9816551711694775e-9,2.320714677154057e-9,1.3089952537432816e-8,2.857632462170682e-8,2.3227888917123625e-9,5.756048709787218e-10,4.052961713097161e-10,0
44820,7.931170957437747e-9,2.98170302172379e-9,2.3130969820675694e-9,1.3051828093256005e-8,2.8590970447786623e-8,2.3236134448663867e-9,5.745624543317402e-10,4.0496973474736623e-10,0
44821,7.934518172416264e-9,2.981750872278103e-9,2.3054792869810816e-9,1.3013703649079193e-8,2.8605616273866426e-8,2.3244379980204113e-9,5.735200376847587e-10,4.046432981850163e-10,0
44822,7.937865387394781e-9,2.9817987228324156e-9,2.2978615918945943e-9,1.297557920490238e-8,2.8620262099946233e-8,2.3252625511744355e-9,5.724776210377772e-10,4.0431686162266643e-10,0
44823,7.941212602373298e-9,2.9818465733867283e-9,2.2902438968081066e-9,1.2937454760725568e-8,2.8634907926026037e-8,2.32608710432846e-9,5.714352043907956e-10,4.039904250603165e-10,0
44824,7.945189310792672e-9,2.981894423941041e-9,2.285709309122067e-9,1.2899330316548757e-8,2.8634907926026037e-8,2.328234963753716e-9,5.705889790579281e-10,4.039904250603165e-10,0
44825,7.949166019212046e-9,2.9819422744953537e-9,2.281174721436027e-9,1.2861205872371945e-8,2.8634907926026037e-8,2.330382823178972e-9,5.697427537250606e-10,4.039904250603165e-10,0
44826,7.95314272763142e-9,2.9819901250496664e-9,2.2766401337499874e-9,1.2823081428195134e-8,2.8634907926026037e-8,2.3325306826042278e-9,5.688965283921931e-10,4.039904250603165e-10,0
44827,7.957119436050794e-9,2.982037975603979e-9,2.2721055460639477e-9,1.2784956984018321e-8,2.8634907926026037e-8,2.3346785420294832e-9,5.680503030593256e-10,4.039904250603165e-10,0
44828,7.961096144470166e-9,2.982085826158292e-9,2.267570958377908e-9,1.274683253984151e-8,2.8634907926026037e-8,2.336826401454739e-9,5.672040777264581e-10,4.039904250603165e-10,0
44829,7.96507285288954e-9,2.9821336767126045e-9,2.263036370691868e-9,1.2708708095664698e-8,2.8634907926026037e-8,2.338974260879995e-9,5.663578523935907e-10,4.039904250603165e-10,0
44830,7.887163259318166e-9,2.962847943230088e-9,2.267207573023936e-9,1.2656973725246039e-8,2.8420417998183783e-8,2.335595623768051e-9,5.667053246092512e-10,4.0316523538075965e-10,0
44831,7.80925366574679e-9,2.943562209747572e-9,2.2713787753560037e-9,1.2605239354827382e-8,2.820592807034153e-8,2.3322169866561067e-9,5.670527968249118e-10,4.0234004570120273e-10,0
44832,7.731344072175416e-9,2.924276476265056e-9,2.2755499776880715e-9,1.2553504984408723e-8,2.7991438142499277e-8,2.3288383495441626e-9,5.674002690405722e-10,4.0151485602164587e-10,0
44833,7.65343447860404e-9,2.90499074278254e-9,2.2797211800201397e-9,1.2501770613990066e-8,2.7776948214657026e-8,2.325459712432218e-9,5.677477412562328e-10,4.00689666342089e-10,0
44834,7.575524885032665e-9,2.885705009300024e-9,2.2838923823522075e-9,1.2450036243571408e-8,2.7562458286814772e-8,2.322081075320274e-9,5.680952134718932e-10,3.998644766625321e-10,0
44835,7.497615291461291e-9,2.866419275817508e-9,2.2880635846842753e-9,1.239830187315275e-8,2.7347968358972518e-8,2.3187024382083297e-9,5.684426856875538e-10,3.9903928698297523e-10,0
44836,7.419705697889915e-9,2.847133542334992e-9,2.2922347870163435e-9,1.2346567502734092e-8,2.7133478431130267e-8,2.3153238010963855e-9,5.687901579032142e-10,3.9821409730341837e-10,0
44837,7.3417961043185404e-9,2.8278478088524758e-9,2.2964059893484113e-9,1.2294833132315434e-8,2.6918988503288012e-8,2.3119451639844413e-9,5.691376301188748e-10,3.9738890762386146e-10,0
44838,7.2638865107471656e-9,2.8085620753699597e-9,2.300577191680479e-9,1.2243098761896776e-8,2.6704498575445758e-8,2.308566526872497e-9,5.694851023345353e-10,3.965637179443046e-10,0
44839,7.1825122783919055e-9,2.7884923242958986e-9,2.3007812738904795e-9,1.2190295089205075e-8,2.6511686706730058e-8,2.3063985613232797e-9,5.694851023345353e-10,3.955844082572549e-10,0
44840,7.102778362230199e-9,2.7703936604135094e-9,2.302889779872102e-9,1.2214450626946896e-8,2.6341477112006876e-8,2.3007192178296515e-9,5.702864172548352e-10,3.944327820153481e-10,0
44841,7.023044446068493e-9,2.75229499653112e-9,2.3049982858537243e-9,1.2238606164688718e-8,2.617126751728369e-8,2.2950398743360237e-9,5.710877321751352e-10,3.932811557734413e-10,0
44842,6.943310529906786e-9,2.7341963326487303e-9,2.3071067918353466e-9,1.226276170243054e-8,2.600105792256051e-8,2.2893605308423955e-9,5.718890470954351e-10,3.921295295315346e-10,0
44843,6.863576613745079e-9,2.7160976687663407e-9,2.309215297816969e-9,1.2286917240172362e-8,2.583084832783733e-8,2.2836811873487677e-9,5.72690362015735e-10,3.909779032896278e-10,0
44844,6.783842697583373e-9,2.6979990048839515e-9,2.3113238037985914e-9,1.2311072777914184e-8,2.5660638733114144e-8,2.2780018438551395e-9,5.734916769360349e-10,3.89826277047721e-10,0
44845,6.7041087814216665e-9,2.679900341001562e-9,2.313432309780214e-9,1.2335228315656005e-8,2.5490429138390962e-8,2.2723225003615117e-9,5.742929918563348e-10,3.886746508058142e-10,0
44846,6.624374865259959e-9,2.6618016771191724e-9,2.3155408157618363e-9,1.2359383853397827e-8,2.5320219543667778e-8,2.266643156867884e-9,5.750943067766348e-10,3.8752302456390744e-10,0
44847,6.544640949098253e-9,2.643703013236783e-9,2.317649321743459e-9,1.2383539391139647e-8,2.5150009948944596e-8,2.2609638133742557e-9,5.758956216969347e-10,3.8637139832200065e-10,0
44848,6.4649070329365466e-9,2.6256043493543932e-9,2.319757827725081e-9,1.2407694928881469e-8,2.497980035422141e-8,2.255284469880628e-9,5.766969366172346e-10,3.8521977208009387e-10,0
44849,6.38517311677484e-9,2.607505685472004e-9,2.3218663337067034e-9,1.243185046662329e-8,2.480959075949823e-8,2.2496051263869996e-9,5.774982515375346e-10,3.840681458381871e-10,0
44850,6.305439200613133e-9,2.5894070215896145e-9,2.323974839688326e-9,1.2456006004365113e-8,2.4639381164775045e-8,2.243925782893372e-9,5.782995664578345e-10,3.829165195962803e-10,0
44851,6.225705284451427e-9,2.571308357707225e-9,2.3260833456699483e-9,1.2480161542106934e-8,2.4469171570051864e-8,2.2382464393997436e-9,5.791008813781345e-10,3.817648933543735e-10,0
44852,6.198876723409336e-9,2.57325551962174e-9,2.32798776944157e-9,1.255064078116996e-8,2.4396367901401593e-8,2.228983295501124e-9,5.787084987499063e-10,3.8159257679951645e-10,0
44853,6.172048162367244e-9,2.5752026815362555e-9,2.3298921932131923e-9,1.2621120020232988e-8,2.4323564232751326e-8,2.219720151602504e-9,5.783161161216783e-10,3.814202602446594e-10,0
44854,6.1395626271573795e-9,2.573469008264609e-9,2.316402954233015e-9,1.2684182120270148e-8,2.4194994622824273e-8,2.214040808108876e-9,5.733734953621761e-10,3.7557114629830413e-10,0
44855,6.107077091947515e-9,2.571735334992963e-9,2.302913715252838e-9,1.2747244220307309e-8,2.4066425012897223e-8,2.2083614646152483e-9,5.684308746026738e-10,3.697220323519489e-10,0
44856,6.07459155673765e-9,2.5700016617213165e-9,2.289424476272661e-9,1.281030632034447e-8,2.3937855402970173e-8,2.20268212112162e-9,5.634882538431715e-10,3.6387291840559364e-10,0
44857,6.042106021527786e-9,2.56826798844967e-9,2.275935237292484e-9,1.2873368420381632e-8,2.3809285793043123e-8,2.1970027776279923e-9,5.585456330836692e-10,3.580238044592384e-10,0
44858,6.009620486317922e-9,2.5665343151780243e-9,2.2624459983123073e-9,1.2936430520418792e-8,2.3680716183116073e-8,2.191323434134364e-9,5.53603012324167e-10,3.5217469051288314e-10,0
44859,5.977134951108057e-9,2.564800641906378e-9,2.2489567593321303e-9,1.2999492620455953e-8,2.3552146573189023e-8,2.1856440906407363e-9,5.486603915646647e-10,3.463255765665279e-10,0
44860,5.9446494158981925e-9,2.5630669686347316e-9,2.2354675203519534e-9,1.3062554720493115e-8,2.3423576963261973e-8,2.179964747147108e-9,5.437177708051625e-10,3.4047646262017265e-10,0
44861,5.911691760607685e-9,2.5948914670273532e-9,2.244354487764473e-9,1.3062554720493115e-8,2.3272405079342408e-8,2.1749571098510767e-9,5.381251160269067e-10,3.3479966522867447e-10,0
44862,5.9682457609079636e-9,2.734877293725497e-9,2.2287567428026736e-9,1.304936793217665e-8,2.3122849950068112e-8,2.173400532127571e-9,5.391060725974769e-10,3.355702652661386e-10,0
44863,5.959004299291767e-9,2.830924995555114e-9,2.2859988272035345e-9,1.3086192409351756e-8,2.295996326838483e-8,2.1683928948315397e-9,5.337096091333352e-10,3.32196720358454e-10,0
44864,5.94976283767557e-9,2.9269726973847307e-9,2.343240911604395e-9,1.3123016886526859e-8,2.2797076586701553e-8,2.163385257535508e-9,5.283131456691935e-10,3.2882317545076937e-10,0
44865,5.940521376059373e-9,3.0230203992143475e-9,2.400482996005256e-9,1.3159841363701962e-8,2.2634189905018272e-8,2.1583776202394765e-9,5.229166822050518e-10,3.2544963054308476e-10,0
44866,5.940521376059373e-9,3.0807101227218013e-9,2.452715674983606e-9,1.3173164105789294e-8,2.2592975381970895e-8,2.1526057481613057e-9,5.207254784221098e-10,3.267735733398486e-10,0
44867,5.940521376059373e-9,3.138399846229255e-9,2.5049483539619565e-9,1.3186486847876624e-8,2.2551760858923518e-8,2.146833876083135e-9,5.185342746391679e-10,3.280975161366125e-10,0
44868,5.965405765846594e-9,3.2373682909306448e-9,2.5523975839782374e-9,1.3144451813107175e-8,2.2169292994874864e-8,2.1166633135097448e-9,5.144993392889445e-10,3.262748202226416e-10,0
44869,5.990290155633814e-9,3.3363367356320343e-9,2.5998468139945184e-9,1.3102416778337726e-8,2.178682513082621e-8,2.0864927509363547e-9,5.104644039387211e-10,3.244521243086708e-10,0
44870,6.015174545421035e-9,3.4353051803334243e-9,2.6472960440107993e-9,1.3060381743568276e-8,2.1404357266777555e-8,2.056322188362965e-9,5.064294685884977e-10,3.2262942839469994e-10,0
44871,6.040058935208256e-9,3.534273625034814e-9,2.6947452740270803e-9,1.3018346708798827e-8,2.10218894027289e-8,2.026151625789575e-9,5.023945332382742e-10,3.208067324807291e-10,0
44872,6.064943324995476e-9,3.6332420697362035e-9,2.742194504043361e-9,1.2976311674029378e-8,2.0639421538680247e-8,1.995981063216185e-9,4.983595978880508e-10,3.1898403656675825e-10,0
44873,6.089827714782697e-9,3.732210514437593e-9,2.789643734059642e-9,1.2934276639259928e-8,2.0256953674631592e-8,1.9658105006427954e-9,4.943246625378273e-10,3.171613406527874e-10,0
44874,6.092662860125724e-9,3.756246365172154e-9,2.7645478056204694e-9,1.2842589319192055e-8,1.988324349258731e-8,1.977933422412191e-9,4.902897271876039e-10,3.1286307570014593e-10,0
44875,6.0954980054687525e-9,3.780282215906714e-9,2.7394518771812966e-9,1.2750901999124184e-8,1.950953331054303e-8,1.9900563441815865e-9,4.862547918373805e-10,3.0856481074750445e-10,0
44876,6.09833315081178e-9,3.804318066641275e-9,2.714355948742124e-9,1.2659214679056311e-8,1.913582312849875e-8,2.0021792659509816e-9,4.822198564871571e-10,3.0426654579486297e-10,0
44877,6.101168296154807e-9,3.828353917375835e-9,2.689260020302951e-9,1.256752735898844e-8,1.8762112946454467e-8,2.014302187720377e-9,4.781849211369337e-10,2.9996828084222143e-10,0
44878,6.104003441497835e-9,3.852389768110396e-9,2.6641640918637784e-9,1.2475840038920569e-8,1.8388402764410185e-8,2.0264251094897726e-9,4.741499857867103e-10,2.9567001588957995e-10,0
44879,6.106838586840863e-9,3.876425618844956e-9,2.6390681634246056e-9,1.2384152718852696e-8,1.8014692582365903e-8,2.038548031259168e-9,4.701150504364869e-10,2.9137175093693847e-10,0
44880,6.10967373218389e-9,3.900461469579517e-9,2.613972234985433e-9,1.2292465398784825e-8,1.764098240032162e-8,2.0506709530285636e-9,4.660801150862635e-10,2.87073485984297e-10,0
44881,6.112508877526918e-9,3.9244973203140775e-9,2.5888763065462605e-9,1.2200778078716952e-8,1.7267272218277342e-8,2.062793874797959e-9,4.6204517973604e-10,2.827752210316555e-10,0
44882,6.11750972521727e-9,3.929650489574704e-9,2.564392624737089e-9,1.2124759855091995e-8,1.68749261852156e-8,2.0445330686656518e-9,4.580102443858166e-10,2.78476956079014e-10,0
44883,6.122510572907622e-9,3.93480365883533e-9,2.539908942927918e-9,1.2048741631467035e-8,1.6482580152153856e-8,2.026272262533345e-9,4.5397530903559313e-10,2.741786911263725e-10,0
44884,6.127511420597974e-9,3.939956828095956e-9,2.5154252611187467e-9,1.1972723407842078e-8,1.6090234119092113e-8,2.0080114564010375e-9,4.4994037368536973e-10,2.69880426173731e-10,0
44885,6.132512268288326e-9,3.9451099973565825e-9,2.490941579309575e-9,1.1896705184217119e-8,1.569788808603037e-8,1.98975065026873e-9,4.459054383351463e-10,2.6558216122108953e-10,0
44886,6.137513115978678e-9,3.950263166617208e-9,2.466457897500404e-9,1.1820686960592161e-8,1.5305542052968627e-8,1.9714898441364232e-9,4.418705029849229e-10,2.6128389626844805e-10,0
44887,6.1425139636690295e-9,3.955416335877834e-9,2.441974215691233e-9,1.1744668736967203e-8,1.4913196019906888e-8,1.953229038004116e-9,4.378355676346995e-10,2.5698563131580657e-10,0
44888,6.147514811359382e-9,3.960569505138461e-9,2.4174905338820614e-9,1.1668650513342244e-8,1.4520849986845145e-8,1.934968231871809e-9,4.3380063228447604e-10,2.5268736636316504e-10,0
44889,6.149680513706706e-9,3.894877645330077e-9,2.4142262490872015e-9,1.1647990066574066e-8,1.4492567641901248e-8,1.938286550611868e-9,4.3295440695160854e-10,2.5251504980830797e-10,0
44890,6.098231468383865e-9,3.898771969159107e-9,2.406427376606302e-9,1.1665299014445859e-8,1.4446074907688647e-8,1.934469478754602e-9,4.2891947160138514e-10,2.5003948076963733e-10,0
44891,6.046782423061024e-9,3.902666292988138e-9,2.3986285041254024e-9,1.168260796231765e-8,1.4399582173476047e-8,1.9306524068973356e-9,4.2488453625116173e-10,2.475639117309667e-10,0
44892,5.995333377738184e-9,3.906560616817168e-9,2.3908296316445024e-9,1.1699916910189443e-8,1.4353089439263446e-8,1.9268353350400694e-9,4.208496009009383e-10,2.4508834269229606e-10,0
44893,5.943884332415343e-9,3.910454940646199e-9,2.383030759163603e-9,1.1717225858061234e-8,1.4306596705050845e-8,1.9230182631828028e-9,4.1681466555071486e-10,2.4261277365362537e-10,0
44894,5.892435287092502e-9,3.914349264475229e-9,2.3752318866827032e-9,1.1734534805933027e-8,1.4260103970838244e-8,1.9192011913255365e-9,4.1277973020049145e-10,2.4013720461495473e-10,0
44895,5.836300140799738e-9,3.912330326729245e-9,2.3676141915962155e-9,1.1737240140481753e-8,1.4232247087643105e-8,1.9192011913255365e-9,4.0959102018313554e-10,2.37988072138634e-10,0
44896,5.780164994506974e-9,3.91031138898326e-9,2.3599964965097278e-9,1.173994547503048e-8,1.4204390204447965e-8,1.9192011913255365e-9,4.064023101657796e-10,2.3583893966231325e-10,0
44897,5.72402984821421e-9,3.908292451237276e-9,2.35237880142324e-9,1.1742650809579206e-8,1.4176533321252825e-8,1.9192011913255365e-9,4.0321360014842366e-10,2.336898071859925e-10,0
44898,5.667894701921446e-9,3.906273513491292e-9,2.3447611063367523e-9,1.1745356144127933e-8,1.4148676438057684e-8,1.9192011913255365e-9,4.0002489013106775e-10,2.3154067470967177e-10,0
44899,5.6117595556286815e-9,3.904254575745307e-9,2.337143411250265e-9,1.174806147867666e-8,1.4120819554862546e-8,1.9192011913255365e-9,3.9683618011371184e-10,2.2939154223335103e-10,0
44900,5.555624409335917e-9,3.902235637999323e-9,2.3295257161637773e-9,1.1750766813225386e-8,1.4092962671667405e-8,1.9192011913255365e-9,3.9364747009635587e-10,2.2724240975703026e-10,0
44901,5.499489263043153e-9,3.900216700253339e-9,2.3219080210772896e-9,1.1753472147774113e-8,1.4065105788472265e-8,1.9192011913255365e-9,3.9045876007899996e-10,2.2509327728070952e-10,0
44902,5.443354116750389e-9,3.898197762507355e-9,2.314290325990802e-9,1.1756177482322839e-8,1.4037248905277125e-8,1.9192011913255365e-9,3.8727005006164405e-10,2.2294414480438878e-10,0
44903,5.387218970457625e-9,3.896178824761371e-9,2.306672630904314e-9,1.1758882816871567e-8,1.4009392022081986e-8,1.9192011913255365e-9,3.840813400442881e-10,2.2079501232806804e-10,0
44904,5.331083824164861e-9,3.894159887015387e-9,2.2990549358178264e-9,1.1761588151420292e-8,1.3981535138886846e-8,1.9192011913255365e-9,3.8089263002693217e-10,2.1864587985174728e-10,0
44905,5.274948677872097e-9,3.892140949269402e-9,2.2914372407313387e-9,1.176429348596902e-8,1.3953678255691705e-8,1.9192011913255365e-9,3.7770392000957626e-10,2.1649674737542654e-10,0
44906,5.2188135315793325e-9,3.890122011523418e-9,2.2838195456448514e-9,1.1766998820517747e-8,1.3925821372496565e-8,1.9192011913255365e-9,3.745152099922203e-10,2.143476148991058e-10,0
44907,5.162678385286568e-9,3.888103073777434e-9,2.2762018505583637e-9,1.1769704155066473e-8,1.3897964489301426e-8,1.9192011913255365e-9,3.713264999748644e-10,2.1219848242278506e-10,0
44908,5.106543238993804e-9,3.886084136031449e-9,2.268584155471876e-9,1.17724094896152e-8,1.3870107606106286e-8,1.9192011913255365e-9,3.6813778995750847e-10,2.1004934994646432e-10,0
44909,5.05040809270104e-9,3.884065198285465e-9,2.2609664603853883e-9,1.1775114824163926e-8,1.3842250722911146e-8,1.9192011913255365e-9,3.649490799401525e-10,2.0790021747014355e-10,0
44910,4.994272946408276e-9,3.882046260539481e-9,2.2533487652989005e-9,1.1777820158712653e-8,1.3814393839716005e-8,1.9192011913255365e-9,3.617603699227966e-10,2.057510849938228e-10,0
44911,4.983759181392083e-9,3.840318475634189e-9,2.253529942693313e-9,1.1763216545389588e-8,1.383037754142923e-8,1.9230182631828028e-9,3.628027865697781e-10,2.0523413532925155e-10,0
44912,4.981238782769484e-9,3.80452603872953e-9,2.2420815258131407e-9,1.1733865726666198e-8,1.375263354553209e-8,1.932973219402981e-9,3.639964841183061e-10,2.0538825533674438e-10,0
44913,4.978718384146884e-9,3.7687336018248704e-9,2.2306331089329682e-9,1.170451490794281e-8,1.3674889549634952e-8,1.942928175623159e-9,3.651901816668341e-10,2.0554237534423719e-10,0
44914,4.976197985524285e-9,3.732941164920211e-9,2.219184692052796e-9,1.1675164089219423e-8,1.3597145553737814e-8,1.952883131843337e-9,3.663838792153621e-10,2.0569649535173002e-10,0
44915,4.973677586901686e-9,3.6971487280155517e-9,2.207736275172624e-9,1.1645813270496033e-8,1.3519401557840676e-8,1.962838088063515e-9,3.675775767638901e-10,2.0585061535922282e-10,0
44916,4.971157188279087e-9,3.6613562911108925e-9,2.196287858292452e-9,1.1616462451772645e-8,1.3441657561943538e-8,1.972793044283693e-9,3.687712743124181e-10,2.0600473536671565e-10,0
44917,4.9686367896564875e-9,3.6255638542062333e-9,2.18483944141228e-9,1.1587111633049256e-8,1.33639135660464e-8,1.982748000503871e-9,3.699649718609461e-10,2.0615885537420845e-10,0
44918,4.970802492003812e-9,3.6096019156040718e-9,2.1783108718225598e-9,1.155669533120602e-8,1.3267862287549505e-8,2.0192696127684853e-9,3.70766286781246e-10,2.0799974783554356e-10,0
44919,4.972968194351136e-9,3.5936399770019103e-9,2.17178230223284e-9,1.1526279029362784e-8,1.3171811009052611e-8,2.0557912250330996e-9,3.71567601701546e-10,2.098406402968787e-10,0
44920,4.97513389669846e-9,3.5776780383997483e-9,2.16525373264312e-9,1.1495862727519546e-8,1.3075759730555716e-8,2.0923128372977143e-9,3.723689166218459e-10,2.116815327582138e-10,0
44921,4.977299599045785e-9,3.561716099797587e-9,2.1587251630534003e-9,1.146544642567631e-8,1.2979708452058821e-8,2.1288344495623286e-9,3.731702315421458e-10,2.135224252195489e-10,0
44922,4.979465301393109e-9,3.5457541611954253e-9,2.1521965934636802e-9,1.1435030123833074e-8,1.2883657173561928e-8,2.165356061826943e-9,3.7397154646244577e-10,2.1536331768088404e-10,0
44923,4.981631003740433e-9,3.5297922225932638e-9,2.1456680238739606e-9,1.1404613821989838e-8,1.2787605895065032e-8,2.201877674091557e-9,3.747728613827457e-10,2.1720421014221915e-10,0
44924,4.983796706087758e-9,3.513830283991102e-9,2.1391394542842405e-9,1.13741975201466e-8,1.2691554616568139e-8,2.2383992863561714e-9,3.7557417630304564e-10,2.1904510260355426e-10,0
44925,4.968730005284463e-9,3.5178663206315323e-9,2.144059301574693e-9,1.1373132037026753e-8,1.2658029463402919e-8,2.280692770698957e-9,3.7383681522474306e-10,2.2073187505739656e-10,0
44926,4.974570985849014e-9,3.529052377852955e-9,2.144059301574693e-9,1.1288192776717918e-8,1.2534130617211534e-8,2.322986255041742e-9,3.74638130145043e-10,2.2274508407358877e-10,0
44927,4.980411966413566e-9,3.5402384350743775e-9,2.144059301574693e-9,1.1203253516409085e-8,1.241023177102015e-8,2.3652797393845276e-9,3.7543944506534293e-10,2.2475829308978097e-10,0
44928,4.986252946978118e-9,3.5514244922958e-9,2.144059301574693e-9,1.1118314256100251e-8,1.2286332924828764e-8,2.407573223727313e-9,3.762407599856429e-10,2.2677150210597317e-10,0
44929,4.9920939275426695e-9,3.5626105495172228e-9,2.144059301574693e-9,1.1033374995791417e-8,1.216243407863738e-8,2.4498667080700983e-9,3.770420749059428e-10,2.2878471112216537e-10,0
44930,4.997934908107221e-9,3.5737966067386454e-9,2.144059301574693e-9,1.0948435735482582e-8,1.2038535232445994e-8,2.492160192412884e-9,3.778433898262427e-10,2.3079792013835757e-10,0
44931,4.9990897877018495e-9,3.565912257971959e-9,2.138346030259827e-9,1.086221178478482e-8,1.191597426188803e-8,2.4998345483753394e-9,3.781908620419032e-10,2.3112435670070747e-10,0
44932,4.99941785094056e-9,3.557267816890884e-9,2.1326327589449615e-9,1.0776203222202942e-8,1.1801625016292029e-8,2.5075089043377953e-9,3.789921769622032e-10,2.3112435670070747e-10,0
44933,4.9997459141792705e-9,3.548623375809809e-9,2.1269194876300956e-9,1.0690194659621065e-8,1.1687275770696028e-8,2.5151832603002513e-9,3.797934918825031e-10,2.3112435670070747e-10,0
44934,5.000073977417981e-9,3.539978934728734e-9,2.1212062163152297e-9,1.0604186097039188e-8,1.1572926525100025e-8,2.5228576162627073e-9,3.8059480680280305e-10,2.3112435670070747e-10,0
44935,5.0004020406566915e-9,3.5313344936476593e-9,2.1154929450003643e-9,1.0518177534457312e-8,1.1458577279504024e-8,2.5305319722251632e-9,3.8139612172310296e-10,2.3112435670070747e-10,0
44936,5.000730103895402e-9,3.5226900525665843e-9,2.1097796736854984e-9,1.0432168971875435e-8,1.1344228033908023e-8,2.5382063281876192e-9,3.8219743664340287e-10,2.3112435670070747e-10,0
44937,5.001058167134113e-9,3.5140456114855092e-9,2.1040664023706325e-9,1.0346160409293558e-8,1.1229878788312022e-8,2.545880684150075e-9,3.8299875156370284e-10,2.3112435670070747e-10,0
44938,5.001386230372823e-9,3.505401170404434e-9,2.098353131055767e-9,1.0260151846711681e-8,1.1115529542716021e-8,2.5535550401125307e-9,3.8380006648400275e-10,2.3112435670070747e-10,0
44939,5.001714293611534e-9,3.496756729323359e-9,2.092639859740901e-9,1.0174143284129804e-8,1.100118029712002e-8,2.5612293960749867e-9,3.846013814043027e-10,2.3112435670070747e-10,0
44940,5.002554426485734e-9,3.4878509490451027e-9,2.0868359997288293e-9,1.0090269506940817e-08,1.0880200678263426e-8,2.572069223821074e-9,3.849488536199632e-10,2.3129667325556454e-10,0
44941,5.0033945593599335e-9,3.478945168766846e-9,2.0810321397167575e-9,1.0006395729751831e-8,1.0759221059406833e-8,2.5829090515671613e-9,3.852963258356237e-10,2.3146898981042163e-10,0
44942,5.004234692234133e-9,3.4700393884885894e-9,2.075228279704686e-9,9.922521952562847e-9,1.0638241440550238e-8,2.5937488793132486e-9,3.856437980512842e-10,2.3164130636527872e-10,0
44943,5.005074825108333e-9,3.461133608210333e-9,2.0694244196926142e-9,9.83864817537386e-9,1.0517261821693644e-8,2.6045887070593364e-9,3.8599127026694473e-10,2.318136229201358e-10,0
44944,5.0059149579825324e-9,3.452227827932076e-9,2.0636205596805424e-9,9.754774398184874e-9,1.039628220283705e-8,2.6154285348054237e-9,3.8633874248260523e-10,2.3198593947499289e-10,0
44945,5.006755090856732e-9,3.4433220476538195e-9,2.0578166996684706e-9,9.670900620995888e-9,1.0275302583980456e-8,2.626268362551511e-9,3.8668621469826574e-10,2.3215825602984995e-10,0
44946,5.0075952237309326e-9,3.4344162673755627e-9,2.0520128396563988e-9,9.587026843806902e-9,1.0154322965123862e-8,2.6371081902975983e-9,3.8703368691392624e-10,2.3233057258470705e-10,0
44947,5.008435356605132e-9,3.425510487097306e-9,2.046208979644327e-9,9.503153066617915e-9,1.0033343346267269e-8,2.6479480180436856e-9,3.8738115912958675e-10,2.3250288913956414e-10,0
