time,channel1,channel2,channel3,channel4,channel5,channel6,channel7,channel8,class
47106,6.946966299269725e-10,5.845391370104861e-10,8.950702960882465e-10,2.3187908217560403e-9,1.50998830984992e-8,3.249656323148888e-8,4.477225182084112e-9,6.168761757809394e-9,6
47107,7.003669206130279e-10,5.824962739873454e-10,8.94186283366627e-10,2.318363864677462e-9,1.5085906210236102e-8,3.247271561044749e-8,4.481366487923314e-9,6.1489026158579355e-9,6
47108,7.118648753453527e-10,5.841581714275227e-10,8.933022706450076e-10,2.317936907598884e-9,1.508998132752351e-8,3.256012214475591e-8,4.471935089108949e-9,6.131709556047369e-9,6
47109,7.233628300776775e-10,5.858200688676998e-10,8.924182579233881e-10,2.317509950520306e-9,1.509405644481092e-8,3.264752867906434e-8,4.462503690294584e-9,6.114516496236804e-9,6
47110,7.326418163895496e-10,5.875776674165025e-10,8.915342452017686e-10,2.318794640909235e-9,1.5081162155131986e-8,3.262335525798613e-8,4.450925998109844e-9,6.090821449355183e-9,6
47111,7.419208027014216e-10,5.89335265965305e-10,8.906502324801491e-10,2.3200793312981643e-9,1.5068267865453057e-8,3.259918183690792e-8,4.439348305925105e-9,6.067126402473562e-9,6
47112,7.511997890132937e-10,5.910928645141077e-10,8.897662197585296e-10,2.3213640216870936e-9,1.5055373575774125e-8,3.257500841582971e-8,4.4277706137403655e-9,6.04343135559194e-9,6
47113,7.604787753251657e-10,5.928504630629103e-10,8.888822070369101e-10,2.3226487120760226e-9,1.5042479286095195e-8,3.25508349947515e-8,4.416192921555626e-9,6.01973630871032e-9,6
47114,7.697577616370378e-10,5.94608061611713e-10,8.879981943152906e-10,2.323933402464952e-9,1.5029584996416266e-8,3.252666157367329e-8,4.404615229370887e-9,5.996041261828699e-9,6
47115,7.790367479489099e-10,5.963656601605155e-10,8.87114181593671e-10,2.325218092853881e-9,1.5016690706737334e-8,3.250248815259508e-8,4.393037537186147e-9,5.9723462149470776e-9,6
47116,7.883157342607818e-10,5.981232587093182e-10,8.862301688720515e-10,2.3265027832428104e-9,1.5003796417058404e-8,3.247831473151687e-8,4.381459845001408e-9,5.948651168065457e-9,6
47117,7.975947205726539e-10,5.998808572581208e-10,8.85346156150432e-10,2.3277874736317398e-9,1.4990902127379475e-8,3.2454141310438656e-8,4.3698821528166675e-9,5.924956121183836e-9,6
47118,8.06873706884526e-10,6.016384558069234e-10,8.85346156150432e-10,2.32621941824149e-9,1.498800650200728e-8,3.2451667650976585e-8,4.366754902875723e-9,5.924956121183836e-9,6
47119,8.161526931963981e-10,6.03396054355726e-10,8.85346156150432e-10,2.32465136285124e-9,1.498511087663509e-8,3.2449193991514514e-8,4.363627652934779e-9,5.924956121183836e-9,6
47120,8.2543167950827e-10,6.051536529045287e-10,8.85346156150432e-10,2.3230833074609905e-9,1.49822152512629e-8,3.244672033205244e-8,4.360500402993834e-9,5.924956121183836e-9,6
47121,8.347106658201421e-10,6.069112514533312e-10,8.85346156150432e-10,2.3215152520707406e-9,1.497931962589071e-8,3.2444246672590365e-8,4.35737315305289e-9,5.924956121183836e-9,6
47122,8.439896521320142e-10,6.086688500021339e-10,8.85346156150432e-10,2.3199471966804907e-9,1.497642400051852e-8,3.2441773013128293e-8,4.354245903111945e-9,5.924956121183836e-9,6
47123,8.532686384438862e-10,6.104264485509365e-10,8.85346156150432e-10,2.318379141290241e-9,1.497352837514633e-8,3.243929935366622e-8,4.351118653171e-9,5.924956121183836e-9,6
47124,8.625476247557582e-10,6.121840470997391e-10,8.85346156150432e-10,2.3168110858999913e-9,1.497063274977414e-8,3.2436825694204144e-8,4.347991403230056e-9,5.924956121183836e-9,6
47125,8.718266110676303e-10,6.139416456485417e-10,8.85346156150432e-10,2.3152430305097414e-9,1.496773712440195e-8,3.243435203474207e-8,4.3448641532891116e-9,5.924956121183836e-9,6
47126,8.811055973795024e-10,6.156992441973443e-10,8.85346156150432e-10,2.313674975119492e-9,1.496484149902976e-8,3.243187837528e-8,4.341736903348166e-9,5.924956121183836e-9,6
47127,8.903845836913744e-10,6.174568427461469e-10,8.85346156150432e-10,2.312106919729242e-9,1.4961945873657566e-8,3.2429404715817924e-8,4.338609653407222e-9,5.924956121183836e-9,6
47128,8.996635700032464e-10,6.192144412949495e-10,8.85346156150432e-10,2.310538864338992e-9,1.4959050248285376e-8,3.242693105635585e-8,4.3354824034662776e-9,5.924956121183836e-9,6
47129,8.998209433634607e-10,6.171715782718089e-10,8.854367448476381e-10,2.317302200710809e-9,1.5060928180470552e-8,3.242560775008462e-8,4.328908792117452e-9,5.923115228722501e-9,6
47130,9.004903863591641e-10,6.188334757119861e-10,8.854367448476381e-10,2.3140942938916806e-9,1.5057607093349607e-8,3.243481857764662e-8,4.322183899867079e-9,5.930541935838512e-9,6
47131,9.011598293548674e-10,6.227277995410166e-10,8.8734116861926e-10,2.3217909787656715e-9,1.5057607093349607e-8,3.243481857764662e-8,4.316260322537007e-9,5.949421768102921e-9,6
47132,9.018292723505707e-10,6.26622123370047e-10,8.892455923908819e-10,2.329487663639663e-9,1.5057607093349607e-8,3.243481857764662e-8,4.310336745206934e-9,5.968301600367329e-9,6
47133,9.024987153462741e-10,6.305164471990774e-10,8.911500161625038e-10,2.337184348513654e-9,1.5057607093349607e-8,3.243481857764662e-8,4.304413167876862e-9,5.9871814326317375e-9,6
47134,9.031681583419774e-10,6.34410771028108e-10,8.930544399341258e-10,2.344881033387645e-9,1.5057607093349607e-8,3.243481857764662e-8,4.298489590546789e-9,6.006061264896145e-9,6
47135,9.038376013376808e-10,6.383050948571384e-10,8.949588637057477e-10,2.3525777182616364e-9,1.5057607093349607e-8,3.243481857764662e-8,4.292566013216717e-9,6.024941097160554e-9,6
47136,9.045070443333841e-10,6.421994186861689e-10,8.968632874773695e-10,2.3602744031356274e-9,1.5057607093349607e-8,3.243481857764662e-8,4.286642435886644e-9,6.043820929424962e-9,6
47137,9.051764873290875e-10,6.460937425151993e-10,8.987677112489915e-10,2.3679710880096187e-9,1.5057607093349607e-8,3.243481857764662e-8,4.280718858556572e-9,6.062700761689371e-9,6
47138,9.058459303247908e-10,6.499880663442297e-10,9.006721350206134e-10,2.37566777288361e-9,1.5057607093349607e-8,3.243481857764662e-8,4.2747952812265e-9,6.0815805939537785e-9,6
47139,9.065153733204942e-10,6.538823901732602e-10,9.025765587922353e-10,2.383364457757601e-9,1.5057607093349607e-8,3.243481857764662e-8,4.268871703896427e-9,6.100460426218187e-9,6
47140,9.071848163161976e-10,6.577767140022906e-10,9.044809825638573e-10,2.3910611426315923e-9,1.5057607093349607e-8,3.243481857764662e-8,4.262948126566355e-9,6.119340258482595e-9,6
47141,9.078542593119009e-10,6.616710378313211e-10,9.063854063354792e-10,2.3987578275055837e-9,1.5057607093349607e-8,3.243481857764662e-8,4.257024549236282e-9,6.138220090747004e-9,6
47142,9.085237023076043e-10,6.655653616603516e-10,9.08289830107101e-10,2.4064545123795746e-9,1.5057607093349607e-8,3.243481857764662e-8,4.25110097190621e-9,6.157099923011412e-9,6
47143,9.085237023076043e-10,6.653279477403263e-10,9.031888054222367e-10,2.404387703872118e-9,1.5052924528632642e-8,3.256420079829628e-8,4.184974809716676e-9,6.162930840410402e-9,6
47144,9.083530124291079e-10,6.676082246834922e-10,8.993122739973754e-10,2.3947716217211223e-9,1.5047523336693115e-8,3.2350115074270716e-8,4.15668061327358e-9,6.1589590120201115e-9,6
47145,9.093372021452397e-10,6.686296561950625e-10,8.951410716653075e-10,2.3851555395701267e-9,1.5047523336693115e-8,3.216048835911225e-8,4.1311827442196125e-9,6.1605098610138245e-9,6
47146,9.103213918613716e-10,6.696510877066328e-10,8.909698693332396e-10,2.375539457419131e-9,1.5047523336693115e-8,3.197086164395379e-8,4.105684875165645e-9,6.162060710007538e-9,6
47147,9.106361385818e-10,6.6673034483486e-10,8.900629517960317e-10,2.3688440979327486e-9,1.506843556467191e-8,3.181300228134015e-8,4.108481202554773e-9,6.163611559001252e-9,6
47148,9.109508853022286e-10,6.638096019630871e-10,8.891560342588237e-10,2.362148738446366e-9,1.50893477926507e-8,3.1655142918726504e-8,4.111277529943901e-9,6.165162407994966e-9,6
47149,9.112656320226571e-10,6.608888590913144e-10,8.882491167216158e-10,2.3554533789599837e-9,1.5110260020629495e-8,3.1497283556112866e-8,4.114073857333029e-9,6.16671325698868e-9,6
47150,9.115803787430855e-10,6.579681162195415e-10,8.873421991844078e-10,2.3487580194736012e-9,1.5131172248608286e-8,3.133942419349922e-8,4.116870184722157e-9,6.1682641059823936e-9,6
47151,9.11895125463514e-10,6.550473733477686e-10,8.864352816471999e-10,2.3420626599872188e-9,1.515208447658708e-8,3.1181564830885575e-8,4.119666512111284e-9,6.169814954976107e-9,6
47152,9.122098721839425e-10,6.521266304759958e-10,8.855283641099919e-10,2.3353673005008363e-9,1.5172996704565872e-8,3.1023705468271937e-8,4.122462839500412e-9,6.171365803969821e-9,6
47153,9.12524618904371e-10,6.492058876042229e-10,8.84621446572784e-10,2.328671941014454e-9,1.5193908932544666e-8,3.086584610565829e-8,4.1252591668895404e-9,6.172916652963535e-9,6
47154,9.128393656247995e-10,6.462851447324501e-10,8.83714529035576e-10,2.3219765815280714e-9,1.521482116052346e-8,3.070798674304465e-8,4.128055494278668e-9,6.174467501957249e-9,6
47155,9.13154112345228e-10,6.433644018606772e-10,8.828076114983681e-10,2.315281222041689e-9,1.5235733388502252e-08,3.055012738043101e-8,4.130851821667796e-9,6.176018350950963e-9,6
47156,9.134688590656564e-10,6.404436589889044e-10,8.819006939611601e-10,2.3085858625553064e-9,1.5256645616481046e-8,3.039226801781736e-8,4.1336481490569234e-9,6.1775691999446765e-9,6
47157,9.13783605786085e-10,6.375229161171316e-10,8.809937764239522e-10,2.3018905030689236e-9,1.5277557844459837e-8,3.0234408655203724e-8,4.136444476446052e-9,6.17912004893839e-9,6
47158,9.140983525065135e-10,6.346021732453588e-10,8.800868588867442e-10,2.295195143582541e-9,1.529847007243863e-8,3.007654929259008e-8,4.13924080383518e-9,6.180670897932103e-9,6
47159,9.144130992269419e-10,6.316814303735859e-10,8.791799413495363e-10,2.2884997840961586e-9,1.5319382300417423e-8,2.991868992997644e-8,4.142037131224307e-9,6.182221746925817e-9,6
47160,9.147278459473704e-10,6.287606875018131e-10,8.782730238123283e-10,2.281804424609776e-9,1.5340294528396217e-8,2.9760830567362795e-8,4.144833458613435e-9,6.183772595919531e-9,6
47161,9.150425926677989e-10,6.258399446300402e-10,8.773661062751204e-10,2.2751090651233937e-9,1.536120675637501e-8,2.9602971204749153e-8,4.1476297860025634e-9,6.185323444913245e-9,6
47162,9.153573393882274e-10,6.229192017582673e-10,8.764591887379124e-10,2.2684137056370113e-9,1.5382118984353803e-8,2.944511184213551e-8,4.150426113391691e-9,6.1868742939069585e-9,6
47163,9.16184155744145e-10,6.2296705231258e-10,8.764591887379124e-10,2.2674879954412263e-9,1.5385733236948554e-8,2.9233656524510282e-08,4.152073653644858e-9,6.186103693869495e-9,6
47164,9.16184155744145e-10,6.230149028668927e-10,8.761645178307059e-10,2.260792635954844e-9,1.5415963390436077e-8,2.9258115533377385e-8,4.148946403703914e-9,6.1766091880951976e-09,6
47165,9.16184155744145e-10,6.230627534212054e-10,8.758698469234994e-10,2.254097276468461e-9,1.54461935439236e-8,2.9282574542244488e-8,4.145819153762969e-9,6.1671146823209004e-9,6
47166,9.16184155744145e-10,6.231106039755181e-10,8.755751760162929e-10,2.2474019169820785e-9,1.5476423697411123e-8,2.930703355111159e-8,4.142691903822025e-9,6.157620176546604e-9,6
47167,9.16184155744145e-10,6.231584545298308e-10,8.752805051090864e-10,2.240706557495696e-9,1.5506653850898647e-8,2.9331492559978697e-8,4.13956465388108e-9,6.148125670772307e-9,6
47168,9.16184155744145e-10,6.232063050841435e-10,8.7498583420188e-10,2.2340111980093135e-9,1.553688400438617e-8,2.93559515688458e-8,4.136437403940135e-9,6.13863116499801e-9,6
47169,9.16184155744145e-10,6.232541556384562e-10,8.746911632946734e-10,2.227315838522931e-9,1.5567114157873693e-8,2.9380410577712903e-8,4.133310153999191e-9,6.129136659223713e-9,6
47170,9.16184155744145e-10,6.23302006192769e-10,8.743964923874669e-10,2.2206204790365486e-9,1.559734431136122e-8,2.9404869586580006e-8,4.1301829040582465e-9,6.119642153449416e-9,6
47171,9.16184155744145e-10,6.233498567470817e-10,8.741018214802604e-10,2.213925119550166e-9,1.5627574464848743e-8,2.9429328595447112e-8,4.127055654117302e-9,6.110147647675119e-9,6
47172,9.16184155744145e-10,6.22376275789824e-10,8.748952455046739e-10,2.20744514817967e-9,1.5639192369281404e-8,2.9429328595447112e-8,4.17496905269686e-9,6.095130464516817e-9,6
47173,9.16184155744145e-10,6.214026948325665e-10,8.756886695290874e-10,2.200965176809174e-9,1.5650810273714066e-8,2.9429328595447112e-8,4.222882451276417e-9,6.080113281358515e-9,6
47174,9.26697920760338e-10,6.266037146475052e-10,8.872963895532309e-10,2.22762211844342e-9,1.5659021998676033e-8,2.9378049552959333e-8,4.225723689078113e-9,6.084275622851028e-9,6
47175,9.37211685776531e-10,6.318047344624441e-10,8.989041095773744e-10,2.2542790600776658e-9,1.5667233723637997e-8,2.9326770510471557e-8,4.2285649268798085e-9,6.0884379643435404e-9,6
47176,9.47725450792724e-10,6.370057542773828e-10,9.105118296015179e-10,2.280936001711912e-9,1.567544544859996e-8,2.927549146798378e-8,4.231406164681504e-9,6.092600305836053e-9,6
47177,9.58239215808917e-10,6.422067740923216e-10,9.221195496256615e-10,2.307592943346158e-9,1.5683657173561928e-8,2.9224212425496005e-8,4.234247402483199e-9,6.096762647328566e-9,6
47178,9.6875298082511e-10,6.474077939072604e-10,9.33727269649805e-10,2.3342498849804038e-9,1.569186889852389e-8,2.917293338300823e-8,4.237088640284895e-9,6.10092498882108e-9,6
47179,9.767463472187039e-10,6.533449807594315e-10,9.453349896739485e-10,2.367386797985146e-9,1.565755182676766e-8,2.917661771403303e-8,4.242272362771079e-9,5.940716058913452e-9,6
47180,9.880869285908145e-10,6.585460005743703e-10,9.55128874623676e-10,2.3978863533265953e-9,1.5652869262050695e-8,2.915941473250702e-8,4.2518384928231465e-9,5.837828445680107e-9,6
47181,9.994275099629251e-10,6.637470203893091e-10,9.649227595734036e-10,2.4283859086680447e-9,1.564818669733373e-8,2.9142211750981014e-8,4.261404622875214e-9,5.734940832446761e-9,6
47182,1.0107680913350356e-9,6.689480402042479e-10,9.747166445231314e-10,2.458885464009494e-9,1.5643504132616764e-8,2.9125008769455006e-8,4.270970752927282e-9,5.6320532192134154e-9,6
47183,1.0221086727071462e-9,6.741490600191867e-10,9.84510529472859e-10,2.4893850193509436e-9,1.56388215678998e-8,2.9107805787928996e-8,4.280536882979349e-9,5.52916560598007e-9,6
47184,1.0334492540792569e-9,6.793500798341255e-10,9.943044144225865e-10,2.519884574692393e-9,1.5634139003182833e-8,2.9090602806402988e-8,4.290103013031417e-9,5.426277992746724e-9,6
47185,1.0384900513244551e-9,6.845032490947515e-10,9.936702935421443e-10,2.543620793662026e-9,1.5643433326728966e-8,2.907011371634958e-8,4.2420879825418444e-9,5.3958273084211556e-09,6
47186,1.0435308485696534e-9,6.896564183553776e-10,9.930361726617024e-10,2.567357012631659e-9,1.5652727650275095e-8,2.904962462629617e-8,4.194072952052272e-9,5.3653766240955865e-9,6
47187,1.0372310644427413e-9,6.886349868438073e-10,9.815877557815301e-10,2.5586666406764486e-9,1.5765483743188423e-8,2.9066602338405167e-8,4.1448807736780145e-9,5.334925939770017e-9,6
47188,1.030931280315829e-9,6.87613555332237e-10,9.70139338901358e-10,2.549976268721238e-9,1.5878239836101754e-8,2.9083580050514166e-8,4.095688595303757e-9,5.304475255444449e-9,6
47189,1.0254583125448342e-9,6.906299993126353e-10,9.617740294216337e-10,2.5779744201702633e-9,1.6041878062470844e-8,2.9066023160792113e-8,4.038107434762116e-9,5.254518609905715e-9,6
47190,1.0199853447738397e-9,6.936464432930335e-10,9.534087199419096e-10,2.6059725716192883e-9,1.6205516288839933e-8,2.904846627107006e-8,3.980526274220475e-9,5.204561964366981e-9,6
47191,1.014512377002845e-9,6.966628872734318e-10,9.450434104621853e-10,2.6339707230683136e-9,1.6369154515209026e-8,2.9030909381348008e-8,3.922945113678835e-9,5.154605318828247e-9,6
47192,1.0090394092318502e-9,6.9967933125383e-10,9.366781009824612e-10,2.6619688745173386e-9,1.6532792741578116e-8,2.9013352491625956e-8,3.865363953137194e-9,5.104648673289513e-9,6
47193,1.0035664414608555e-9,7.026957752342282e-10,9.283127915027368e-10,2.6899670259663635e-9,1.6696430967947206e-8,2.8995795601903903e-8,3.807782792595553e-9,5.054692027750779e-9,6
47194,9.980934736898608e-10,7.057122192146264e-10,9.199474820230126e-10,2.717965177415389e-9,1.6860069194316295e-8,2.897823871218185e-8,3.750201632053912e-9,5.004735382212045e-9,6
47195,9.926205059188662e-10,7.087286631950247e-10,9.115821725432883e-10,2.745963328864414e-9,1.702370742068539e-8,2.8960681822459798e-8,3.6926204715122713e-9,4.954778736673311e-9,6
47196,9.871475381478715e-10,7.117451071754229e-10,9.032168630635641e-10,2.773961480313439e-9,1.7187345647054478e-8,2.8943124932737746e-8,3.6350393109706306e-9,4.904822091134577e-9,6
47197,9.816745703768768e-10,7.147615511558212e-10,8.948515535838399e-10,2.801959631762464e-9,1.7350983873423568e-8,2.8925568043015693e-8,3.57745815042899e-9,4.854865445595843e-9,6
47198,9.76201602605882e-10,7.177779951362194e-10,8.864862441041157e-10,2.829957783211489e-9,1.751462209979266e-8,2.890801115329364e-8,3.519876989887349e-9,4.804908800057109e-9,6
47199,9.73681203983283e-10,7.207944391166177e-10,8.897505288989756e-10,2.8632986268725336e-9,1.767826032616175e-8,2.891430188461298e-8,3.5131520976369765e-9,4.763765941701822e-9,6
47200,9.711608053606838e-10,7.23810883097016e-10,8.930148136938355e-10,2.8966394705335778e-9,1.784189855253084e-8,2.892059261593232e-8,3.506427205386604e-9,4.722623083346536e-9,6
47201,9.70307355968202e-10,7.239065842056414e-10,8.911780738038312e-10,2.9201412056213505e-9,1.7806094536923638e-8,2.8923524816263677e-8,3.5028295630771765e-9,4.701730042065935e-9,6
47202,9.6945390657572e-10,7.240022853142668e-10,8.893413339138269e-10,2.9436429407091236e-9,1.7770290521316436e-8,2.8926457016595034e-8,3.4992319207677485e-9,4.680837000785334e-9,6
47203,9.686004571832382e-10,7.240979864228921e-10,8.875045940238224e-10,2.9671446757968963e-9,1.7734486505709233e-8,2.892938921692639e-8,3.495634278458321e-9,4.659943959504734e-9,6
47204,9.677470077907563e-10,7.241936875315175e-10,8.856678541338181e-10,2.990646410884669e-9,1.7698682490102034e-8,2.8932321417257748e-8,3.492036636148893e-9,4.639050918224134e-9,6
47205,9.668935583982747e-10,7.24289388640143e-10,8.838311142438138e-10,3.014148145972442e-9,1.7662878474494832e-8,2.8935253617589104e-8,3.4884389938394654e-9,4.6181578769435335e-9,6
47206,9.660401090057928e-10,7.243850897487684e-10,8.819943743538094e-10,3.037649881060215e-9,1.762707445888763e-8,2.8938185817920465e-8,3.4848413515300374e-9,4.597264835662932e-9,6
47207,9.65186659613311e-10,7.244807908573938e-10,8.801576344638051e-10,3.0611516161479875e-9,1.7591270443280428e-8,2.8941118018251822e-8,3.48124370922061e-9,4.576371794382332e-9,6
47208,9.64333210220829e-10,7.245764919660192e-10,8.783208945738008e-10,3.0846533512357606e-9,1.7555466427673225e-8,2.894405021858318e-8,3.477646066911182e-9,4.555478753101732e-9,6
47209,9.634797608283472e-10,7.246721930746446e-10,8.764841546837964e-10,3.1081550863235333e-9,1.7519662412066023e-8,2.8946982418914536e-8,3.4740484246017542e-9,4.5345857118211315e-9,6
47210,9.651467100584645e-10,7.209674326113268e-10,8.764841546837964e-10,3.1015277037225847e-9,1.732660706728237e-8,2.897829123059007e-8,3.489767422625696e-9,4.563649316079265e-9,6
47211,9.642932606659826e-10,7.172865974251653e-10,8.728564845349646e-10,3.0883409154061223e-9,1.7148173946615922e-8,2.8986291386589343e-8,3.556571979582708e-9,4.579591219282524e-9,6
47212,9.634398112735007e-10,7.136057622390038e-10,8.692288143861328e-10,3.0751541270896594e-9,1.6969740825949472e-8,2.8994291542588615e-8,3.6233765365397197e-9,4.595533122485784e-9,6
47213,9.62586361881019e-10,7.099249270528423e-10,8.65601144237301e-10,3.061967338773197e-9,1.6791307705283026e-8,2.900229169858789e-8,3.6901810934967318e-9,4.611475025689043e-9,6
47214,9.617329124885372e-10,7.062440918666808e-10,8.619734740884692e-10,3.048780550456734e-9,1.6612874584616576e-8,2.9010291854587164e-8,3.756985650453744e-9,4.627416928892302e-9,6
47215,9.608794630960553e-10,7.025632566805193e-10,8.583458039396374e-10,3.0355937621402716e-9,1.643444146395013e-8,2.9018292010586435e-8,3.823790207410755e-9,4.643358832095561e-9,6
47216,9.600260137035734e-10,6.988824214943578e-10,8.547181337908057e-10,3.0224069738238087e-9,1.625600834328368e-8,2.902629216658571e-8,3.890594764367767e-9,4.65930073529882e-9,6
47217,9.591725643110916e-10,6.952015863081963e-10,8.510904636419739e-10,3.009220185507346e-9,1.6077575222617233e-8,2.903429232258498e-8,3.957399321324779e-9,4.675242638502079e-9,6
47218,9.583191149186097e-10,6.915207511220349e-10,8.474627934931421e-10,2.9960333971908834e-9,1.5899142101950783e-8,2.9042292478584256e-8,4.024203878281791e-9,4.691184541705339e-9,6
47219,9.574656655261278e-10,6.878399159358734e-10,8.438351233443103e-10,2.9828466088744205e-9,1.5720708981284336e-8,2.905029263458353e-8,4.091008435238803e-9,4.707126444908598e-9,6
47220,9.56612216133646e-10,6.841590807497118e-10,8.402074531954785e-10,2.969659820557958e-9,1.5542275860617886e-8,2.9058292790582802e-8,4.157812992195815e-9,4.723068348111857e-9,6
47221,9.557587667411641e-10,6.804782455635503e-10,8.365797830466467e-10,2.956473032241495e-9,1.536384273995144e-8,2.9066292946582077e-8,4.224617549152827e-9,4.739010251315116e-9,6
47222,9.565855830970817e-10,6.785310836490352e-10,8.389600551198871e-10,2.9524791881506446e-9,1.5375557537715152e-8,2.906522301788708e-8,4.2447686037341844e-9,4.766405279666771e-9,6
47223,9.565855830970817e-10,6.747545473542482e-10,8.348794414850252e-10,2.927118394364912e-9,1.536886815954806e-8,2.901965142705216e-8,4.31078839543474e-9,4.7904813527528345e-9,6
47224,9.556013933809499e-10,6.70954085782305e-10,8.295066507085429e-10,2.9051052803223707e-9,1.540171257391527e-8,2.89789668367695e-8,4.313130880119228e-9,4.781404266277709e-9,6
47225,9.546172036648182e-10,6.671536242103617e-10,8.241338599320605e-10,2.8830921662798294e-9,1.543455698828248e-8,2.893828224648684e-8,4.315473364803717e-9,4.7723271798025835e-9,6
47226,9.536330139486864e-10,6.633531626384185e-10,8.187610691555781e-10,2.861079052237288e-9,1.546740140264969e-8,2.889759765620418e-8,4.317815849488205e-9,4.763250093327458e-9,6
47227,9.526488242325545e-10,6.595527010664753e-10,8.133882783790959e-10,2.8390659381947465e-9,1.5500245817016897e-8,2.885691306592152e-8,4.320158334172694e-9,4.754173006852332e-9,6
47228,9.516646345164226e-10,6.55752239494532e-10,8.080154876026135e-10,2.817052824152205e-9,1.553309023138411e-8,2.881622847563886e-8,4.322500818857182e-9,4.745095920377206e-9,6
47229,9.506804448002908e-10,6.519517779225888e-10,8.026426968261311e-10,2.795039710109664e-9,1.5565934645751318e-8,2.87755438853562e-8,4.32484330354167e-9,4.7360188339020805e-9,6
47230,9.5320084342289e-10,6.481513163506455e-10,7.963858933280293e-10,2.7687532061281462e-9,1.5584145035020024e-8,2.880046143509259e-8,4.3216545935243145e-9,4.723259962504285e-9,6
47231,9.55721242045489e-10,6.443508547787022e-10,7.901290898299274e-10,2.7424667021466285e-9,1.560235542428873e-8,2.8825378984828975e-8,4.318465883506959e-9,4.710501091106489e-9,6
47232,9.582416406680882e-10,6.40550393206759e-10,7.838722863318257e-10,2.716180198165111e-9,1.5620565813557433e-8,2.8850296534565364e-8,4.3152771734896025e-9,4.697742219708693e-9,6
47233,9.607620392906873e-10,6.367499316348158e-10,7.776154828337238e-10,2.689893694183593e-9,1.563877620282614e-8,2.8875214084301752e-8,4.312088463472247e-9,4.684983348310897e-9,6
47234,9.632824379132865e-10,6.329494700628725e-10,7.71358679335622e-10,2.6636071902020754e-9,1.565698659209484e-8,2.8900131634038138e-8,4.308899753454891e-9,4.672224476913101e-9,6
47235,9.658028365358856e-10,6.291490084909293e-10,7.651018758375201e-10,2.6373206862205577e-9,1.5675196981363548e-8,2.8925049183774526e-8,4.305711043437535e-9,4.659465605515305e-9,6
47236,9.68323235158485e-10,6.253485469189861e-10,7.588450723394183e-10,2.61103418223904e-9,1.5693407370632254e-8,2.8949966733510912e-8,4.302522333420179e-9,4.6467067341175095e-09,6
47237,9.708436337810841e-10,6.215480853470427e-10,7.525882688413164e-10,2.5847476782575223e-9,1.5711617759900957e-8,2.89748842832473e-8,4.299333623402823e-9,4.633947862719713e-9,6
47238,9.733640324036833e-10,6.177476237750995e-10,7.463314653432146e-10,2.5584611742760046e-9,1.5729828149169663e-8,2.899980183298369e-8,4.296144913385467e-9,4.621188991321917e-9,6
47239,9.758844310262824e-10,6.139471622031563e-10,7.400746618451128e-10,2.5321746702944865e-9,1.574803853843837e-8,2.9024719382720075e-8,4.292956203368112e-9,4.608430119924121e-9,6
47240,9.784048296488815e-10,6.10146700631213e-10,7.338178583470109e-10,2.505888166312969e-9,1.5766248927707072e-8,2.9049636932456463e-8,4.289767493350755e-9,4.595671248526325e-9,6
47241,9.809252282714807e-10,6.063462390592698e-10,7.275610548489091e-10,2.479601662331451e-9,1.5784459316975778e-8,2.9074554482192852e-8,4.2865787833333996e-9,4.5829123771285295e-9,6
47242,9.82592177501598e-10,6.056100720220375e-10,7.239562895156658e-10,2.478316971942522e-9,1.5804456645589256e-8,2.9058505955911115e-8,4.276239699109755e-9,4.5663357973479345e-9,6
47243,9.842591267317152e-10,6.048739049848051e-10,7.203515241824224e-10,2.4770322815535927e-9,1.5824453974202737e-8,2.904245742962938e-8,4.2659006148861116e-9,4.5497592175673405e-9,6
47244,9.867795253543146e-10,6.048739049848051e-10,7.203515241824224e-10,2.4757475911646638e-9,1.586397596575574e-8,2.912348070403392e-8,4.24777767210127e-9,4.518736993935107e-9,6
47245,9.892999239769137e-10,6.048739049848051e-10,7.203515241824224e-10,2.4744629007757344e-9,1.5903497957308742e-8,2.9204503978438462e-8,4.229654729316428e-9,4.487714770302875e-9,6
47246,9.88473107620996e-10,6.046364910647798e-10,7.222559479540443e-10,2.4760309561659843e-9,1.5903497957308742e-8,2.920764934409813e-8,4.217062981233431e-9,4.466132462802845e-9,6
47247,9.876462912650785e-10,6.043990771447545e-10,7.241603717256663e-10,2.4775990115562338e-9,1.5903497957308742e-8,2.92107947097578e-8,4.204471233150434e-9,4.444550155302817e-9,6
47248,9.864914116704501e-10,6.043990771447545e-10,7.241603717256663e-10,2.4775990115562338e-9,1.59110879483792e-8,2.923534624720945e-8,4.189537000382948e-9,4.44851343606453e-9,6
47249,9.85336532075822e-10,6.043990771447545e-10,7.241603717256663e-10,2.4775990115562338e-9,1.5918677939449656e-8,2.9259897784661096e-8,4.174602767615462e-9,4.452476716826242e-9,6
47250,9.84181652481194e-10,6.043990771447545e-10,7.241603717256663e-10,2.4775990115562338e-9,1.592626793052011e-8,2.928444932211274e-8,4.159668534847977e-9,4.456439997587955e-9,6
47251,9.830267728865656e-10,6.043990771447545e-10,7.241603717256663e-10,2.4775990115562338e-9,1.5933857921590567e-8,2.9309000859564387e-8,4.1447343020804905e-9,4.4604032783496685e-9,6
47252,9.818718932919375e-10,6.043990771447545e-10,7.241603717256663e-10,2.4775990115562338e-9,1.5941447912661024e-8,2.9333552397016035e-8,4.129800069313005e-9,4.464366559111382e-9,6
47253,9.807170136973092e-10,6.043990771447545e-10,7.241603717256663e-10,2.4775990115562338e-9,1.5949037903731478e-8,2.9358103934467682e-8,4.11486583654552e-9,4.468329839873094e-9,6
47254,9.79562134102681e-10,6.043990771447545e-10,7.241603717256663e-10,2.4775990115562338e-9,1.5956627894801935e-8,2.938265547191933e-8,4.099931603778033e-9,4.472293120634807e-9,6
47255,9.784072545080527e-10,6.043990771447545e-10,7.241603717256663e-10,2.4775990115562338e-9,1.5964217885872392e-8,2.9407207009370977e-8,4.084997371010548e-9,4.4762564013965204e-9,6
47256,9.772523749134246e-10,6.043990771447545e-10,7.241603717256663e-10,2.4775990115562338e-9,1.597180787694285e-8,2.9431758546822624e-8,4.0700631382430624e-9,4.480219682158233e-9,6
47257,9.76924311674714e-10,6.043990771447545e-10,7.222559479540443e-10,2.4792388629851125e-9,1.5908612813794464e-8,2.9392397262811192e-8,4.066056563641563e-9,4.4674062211183446e-9,6
47258,9.765962484360033e-10,6.043990771447545e-10,7.203515241824224e-10,2.480878714413991e-9,1.5845417750646078e-8,2.9353035978799764e-8,4.0620499890400625e-9,4.4545927600784555e-9,6
47259,9.765962484360033e-10,6.036629101075222e-10,7.19648688855215e-10,2.4819480166870337e-9,1.5858737502073766e-8,2.934374472674192e-8,4.056866266553879e-9,4.487102695433731e-9,6
47260,9.765962484360033e-10,6.0292674307029e-10,7.189458535280074e-10,2.4830173189600764e-9,1.587205725350145e-8,2.933445347468407e-8,4.051682544067695e-9,4.5196126307890064e-9,6
47261,9.765962484360033e-10,6.021905760330576e-10,7.182430182008e-10,2.484086621233119e-9,1.5885377004929137e-8,2.9325162222626227e-8,4.0464988215815116e-9,4.552122566144281e-9,6
47262,9.767669383144997e-10,6.012169950758e-10,7.175401828735925e-10,2.4834442760386547e-9,1.5887383818379267e-8,2.9290494879962708e-8,4.0498388125004136e-9,4.550798623347518e-9,6
47263,9.769376281929962e-10,6.002434141185424e-10,7.168373475463851e-10,2.48280193084419e-9,1.5889390631829393e-8,2.925582753729919e-8,4.053178803419316e-9,4.5494746805507536e-9,6
47264,9.771083180714924e-10,5.992698331612849e-10,7.161345122191776e-10,2.4821595856497257e-9,1.589139744527952e-8,2.9221160194635673e-8,4.056518794338218e-9,4.548150737753989e-9,6
47265,9.772790079499889e-10,5.982962522040272e-10,7.154316768919701e-10,2.481517240455261e-9,1.589340425872965e-8,2.9186492851972154e-8,4.059858785257121e-9,4.546826794957226e-9,6
47266,9.774496978284851e-10,5.973226712467696e-10,7.147288415647626e-10,2.4808748952607963e-9,1.5895411072179777e-8,2.9151825509308635e-8,4.063198776176023e-9,4.545502852160462e-9,6
47267,9.776203877069816e-10,5.96349090289512e-10,7.140260062375552e-10,2.480232550066332e-9,1.5897417885629907e-8,2.911715816664512e-8,4.066538767094926e-9,4.544178909363698e-9,6
47268,9.777910775854778e-10,5.953755093322543e-10,7.133231709103478e-10,2.479590204871867e-9,1.5899424699080033e-8,2.90824908239816e-8,4.069878758013828e-9,4.542854966566934e-9,6
47269,9.779617674639743e-10,5.944019283749967e-10,7.126203355831403e-10,2.4789478596774024e-9,1.5901431512530163e-8,2.9047823481318084e-8,4.073218748932731e-9,4.54153102377017e-9,6
47270,9.781324573424707e-10,5.934283474177392e-10,7.119175002559328e-10,2.478305514482938e-9,1.590343832598029e-8,2.9013156138654565e-8,4.076558739851633e-9,4.540207080973406e-9,6
47271,9.78303147220967e-10,5.924547664604816e-10,7.112146649287253e-10,2.477663169288473e-9,1.5905445139430416e-8,2.8978488795991046e-8,4.0798987307705356e-9,4.538883138176643e-9,6
47272,9.784738370994634e-10,5.914811855032239e-10,7.105118296015179e-10,2.4770208240940086e-9,1.5907451952880546e-8,2.894382145332753e-8,4.0832387216894376e-9,4.5375591953798786e-09,6
47273,9.786445269779597e-10,5.905076045459663e-10,7.098089942743104e-10,2.476378478899544e-9,1.5909458766330673e-8,2.890915411066401e-8,4.08657871260834e-9,4.536235252583115e-9,6
47274,9.786445269779597e-10,5.897953627858903e-10,7.112823488103429e-10,2.475807929743708e-9,1.590854635244601e-8,2.8924108702144957e-8,4.108266198374922e-9,4.534603069771365e-9,6
47275,9.786445269779597e-10,5.890831210258144e-10,7.127557033463754e-10,2.4752373805878724e-9,1.5907633938561347e-8,2.89390632936259e-8,4.129953684141504e-9,4.532970886959616e-9,6
47276,9.786445269779597e-10,5.883708792657384e-10,7.142290578824079e-10,2.4746668314320364e-9,1.5906721524676684e-8,2.8954017885106844e-8,4.151641169908086e-9,4.531338704147866e-9,6
47277,9.786445269779597e-10,5.876586375056625e-10,7.157024124184404e-10,2.474096282276201e-9,1.590580911079202e-8,2.896897247658779e-8,4.1733286556746675e-9,4.529706521336117e-9,6
47278,9.786445269779597e-10,5.869463957455866e-10,7.171757669544728e-10,2.473525733120365e-9,1.590489669690736e-8,2.8983927068068732e-8,4.19501614144125e-9,4.528074338524368e-9,6
47279,9.786445269779597e-10,5.862341539855106e-10,7.186491214905054e-10,2.472955183964529e-9,1.5903984283022698e-8,2.8998881659549678e-8,4.216703627207831e-9,4.526442155712618e-9,6
47280,9.620549337864793e-10,5.802012660247141e-10,7.117800713624021e-10,2.446313518943062e-9,1.585075248123715e-8,2.9047679040540115e-8,4.247957243026481e-9,4.49045059745568e-9,6
47281,9.620549337864793e-10,5.802012660247141e-10,7.132534258984346e-10,2.441038803616477e-9,1.5833891768583164e-8,2.906263363202106e-8,4.27886338662947e-9,4.489280774666408e-9,6
47282,9.620549337864793e-10,5.802012660247141e-10,7.147267804344671e-10,2.435764088289892e-9,1.581703105592918e-8,2.9077588223502003e-8,4.309769530232459e-9,4.4881109518771375e-9,6
47283,9.645353828542322e-10,5.802012660247141e-10,7.140239451072597e-10,2.4490188534917886e-9,1.6110992914106845e-8,2.9264741279198392e-8,4.371692926506381e-9,4.5511711019233815e-9,6
47284,9.670158319219848e-10,5.802012660247141e-10,7.133211097800522e-10,2.4622736186936858e-9,1.6404954772284512e-8,2.9451894334894782e-8,4.433616322780301e-9,4.6142312519696255e-9,6
47285,9.678559647961847e-10,5.83977802319501e-10,7.188750779509466e-10,2.4703896223398654e-9,1.6394736233872418e-8,2.953591813003783e-8,4.439993742815013e-9,4.624976914351229e-9,6
47286,9.686960976703843e-10,5.877543386142879e-10,7.244290461218409e-10,2.4785056259860454e-9,1.6384517695460325e-8,2.9619941925180876e-8,4.446371162849725e-9,4.635722576732833e-9,6
47287,9.695362305445842e-10,5.915308749090749e-10,7.299830142927353e-10,2.4866216296322254e-9,1.637429915704823e-8,2.9703965720323923e-8,4.4527485828844365e-9,4.6464682391144366e-9,6
47288,9.703763634187838e-10,5.953074112038617e-10,7.355369824636297e-10,2.494737633278405e-9,1.636408061863614e-8,2.978798951546697e-8,4.4591260029191486e-9,4.657213901496041e-9,6
47289,9.712164962929835e-10,5.990839474986486e-10,7.41090950634524e-10,2.502853636924585e-9,1.6353862080224047e-8,2.987201331061002e-8,4.465503422953861e-9,4.667959563877644e-9,6
47290,9.720566291671833e-10,6.028604837934355e-10,7.466449188054184e-10,2.510969640570765e-9,1.6343643541811953e-8,2.9956037105753065e-8,4.471880842988573e-9,4.678705226259248e-9,6
47291,9.72896762041383e-10,6.066370200882224e-10,7.521988869763128e-10,2.519085644216945e-9,1.633342500339986e-8,3.004006090089611e-8,4.478258263023285e-9,4.689450888640852e-9,6
47292,9.734088316768721e-10,6.084663944684941e-10,7.583651017772086e-10,2.5311954919539756e-9,1.6176173674223407e-8,3.0156604179277425e-8,4.484635683057996e-9,4.702209760038648e-9,6
47293,9.73920901312361e-10,6.102957688487657e-10,7.645313165781045e-10,2.5433053396910058e-9,1.601892234504696e-8,3.027314745765873e-8,4.491013103092708e-9,4.714968631436444e-9,6
47294,9.744329709478502e-10,6.121251432290374e-10,7.706975313790002e-10,2.5554151874280363e-9,1.5861671015870507e-8,3.038969073604004e-8,4.49739052312742e-9,4.7277275028342394e-9,6
47295,9.749450405833394e-10,6.139545176093091e-10,7.768637461798961e-10,2.567525035165067e-9,1.5704419686694055e-8,3.050623401442135e-8,4.503767943162132e-9,4.740486374232035e-9,6
47296,9.754571102188286e-10,6.157838919895807e-10,7.830299609807919e-10,2.5796348829020974e-9,1.5547168357517603e-8,3.062277729280266e-8,4.510145363196843e-9,4.753245245629831e-9,6
47297,9.759691798543175e-10,6.176132663698524e-10,7.891961757816877e-10,2.591744730639128e-9,1.5389917028341154e-8,3.0739320571183973e-8,4.516522783231555e-9,4.766004117027627e-9,6
47298,9.764812494898067e-10,6.19442640750124e-10,7.953623905825835e-10,2.6038545783761584e-9,1.5232665699164702e-8,3.085586384956528e-8,4.522900203266267e-9,4.778762988425423e-9,6
47299,9.769933191252959e-10,6.212720151303958e-10,8.015286053834794e-10,2.615964426113189e-9,1.507541436998825e-8,3.097240712794659e-8,4.529277623300979e-9,4.791521859823219e-9,6
47300,9.77505388760785e-10,6.231013895106674e-10,8.076948201843752e-10,2.6280742738502195e-9,1.49181630408118e-8,3.10889504063279e-8,4.535655043335691e-9,4.8042807312210146e-9,6
47301,9.78017458396274e-10,6.249307638909391e-10,8.13861034985271e-10,2.64018412158725e-9,1.4760911711635348e-8,3.120549368470921e-8,4.5420324633704025e-9,4.817039602618811e-9,6
47302,9.785295280317631e-10,6.267601382712107e-10,8.200272497861668e-10,2.6522939693242806e-9,1.4603660382458896e-8,3.1322036963090516e-8,4.5484098834051145e-9,4.829798474016607e-9,6
47303,9.790415976672523e-10,6.285895126514825e-10,8.261934645870627e-10,2.664403817061311e-9,1.4446409053282446e-8,3.143858024147183e-8,4.5547873034398266e-9,4.842557345414403e-9,6
47304,9.795536673027415e-10,6.304188870317541e-10,8.323596793879584e-10,2.6765136647983412e-9,1.4289157724105994e-8,3.1555123519853134e-8,4.561164723474539e-9,4.855316216812199e-9,6
47305,9.800657369382304e-10,6.322482614120258e-10,8.385258941888543e-10,2.6886235125353717e-9,1.4131906394929544e-8,3.1671666798234446e-8,4.567542143509251e-9,4.868075088209995e-9,6
47306,9.80892553294148e-10,6.300397603003289e-10,8.385258941888543e-10,2.6873426412996374e-9,1.3969350767144618e-8,3.1712331282393144e-8,4.5707923136030174e-9,4.883418707930647e-9,6
47307,9.817193696500657e-10,6.27831259188632e-10,8.385258941888543e-10,2.686061770063903e-9,1.3806795139359692e-8,3.175299576655184e-8,4.574042483696785e-9,4.898762327651299e-9,6
47308,9.817193696500657e-10,6.275699199914504e-10,8.364402930228204e-10,2.6833564355151764e-9,1.3789825732393354e-8,3.179244957914781e-8,4.573257718440328e-9,4.90980768241931e-9,6
47309,9.817193696500657e-10,6.273085807942686e-10,8.343546918567864e-10,2.6806511009664495e-9,1.3772856325427017e-8,3.183190339174379e-8,4.5724729531838725e-9,4.920853037187321e-9,6
47310,9.817193696500657e-10,6.27047241597087e-10,8.322690906907525e-10,2.677945766417723e-9,1.375588691846068e-8,3.1871357204339756e-8,4.571688187927417e-9,4.931898391955331e-9,6
47311,9.814046229296372e-10,6.289944035116022e-10,8.307957361547199e-10,2.6784483386881247e-9,1.3750535415927005e-8,3.187196859216547e-8,4.574030672611905e-9,4.928443513229611e-9,6
47312,9.810898762092087e-10,6.309415654261175e-10,8.293223816186874e-10,2.6789509109585264e-9,1.374518391339333e-8,3.187257997999118e-8,4.576373157296394e-9,4.92498863450389e-9,6
47313,9.807751294887803e-10,6.328887273406326e-10,8.27849027082655e-10,2.679453483228928e-9,1.3739832410859656e-8,3.187319136781689e-8,4.578715641980881e-9,4.92153375577817e-9,6
47314,9.804603827683518e-10,6.348358892551479e-10,8.263756725466225e-10,2.67995605549933e-9,1.3734480908325982e-8,3.18738027556426e-8,4.58105812666537e-9,4.91807887705245e-9,6
47315,9.77625237425324e-10,6.370443903668448e-10,8.212746478617582e-10,2.6600739076964845e-9,1.3654704011535464e-8,3.1836947341305906e-8,4.540278552628256e-9,4.907242231934025e-9,6
47316,9.747900920822964e-10,6.392528914785417e-10,8.161736231768939e-10,2.640191759893639e-9,1.3574927114744947e-8,3.1800091926969206e-8,4.499498978591143e-9,4.8964055868155995e-9,6
47317,9.753021617177855e-10,6.404399610786683e-10,8.106196550059995e-10,2.6300089477400025e-9,1.3565001741806658e-8,3.180354298654173e-8,4.505876398625855e-9,4.866226749410288e-9,6
47318,9.758142313532747e-10,6.416270306787948e-10,8.050656868351052e-10,2.619826135586366e-9,1.355507636886837e-8,3.180699404611426e-8,4.512253818660567e-9,4.836047912004976e-9,6
47319,9.75486168114564e-10,6.408430130872498e-10,7.995117186642108e-10,2.6096433234327292e-9,1.3558362053045416e-8,3.180699404611426e-8,4.512707661365206e-9,4.807038897388935e-9,6
47320,9.751581048758533e-10,6.400589954957049e-10,7.939577504933164e-10,2.5994605112790926e-9,1.3561647737222462e-8,3.180699404611426e-8,4.513161504069845e-9,4.7780298827728945e-9,6
47321,9.748300416371428e-10,6.392749779041598e-10,7.88403782322422e-10,2.589277699125456e-9,1.3564933421399508e-8,3.180699404611426e-8,4.513615346774485e-9,4.7490208681568536e-9,6
47322,9.745019783984322e-10,6.384909603126148e-10,7.828498141515277e-10,2.5790948869718193e-9,1.3568219105576554e-8,3.180699404611426e-8,4.514069189479124e-9,4.720011853540813e-9,6
47323,9.741739151597215e-10,6.377069427210699e-10,7.772958459806333e-10,2.5689120748181826e-9,1.3571504789753601e-8,3.180699404611426e-8,4.514523032183763e-9,4.691002838924773e-9,6
47324,9.73845851921011e-10,6.369229251295248e-10,7.717418778097389e-10,2.558729262664546e-9,1.3574790473930647e-8,3.180699404611426e-8,4.514976874888403e-9,4.661993824308732e-9,6
47325,9.735177886823003e-10,6.368750745752121e-10,7.661879096388445e-10,2.545338543691781e-9,1.3566141486238626e-8,3.180699404611426e-8,4.533946043006112e-9,4.685925426306088e-9,6
47326,9.731897254435896e-10,6.368272240208994e-10,7.606339414679501e-10,2.531947824719016e-9,1.3557492498546604e-8,3.180699404611426e-8,4.552915211123821e-9,4.709857028303444e-9,6
47327,9.728616622048791e-10,6.367793734665867e-10,7.550799732970558e-10,2.518557105746251e-9,1.3548843510854584e-8,3.180699404611426e-8,4.57188437924153e-9,4.733788630300801e-9,6
47328,9.725335989661684e-10,6.36731522912274e-10,7.495260051261614e-10,2.5051663867734863e-9,1.3540194523162563e-8,3.180699404611426e-8,4.59085354735924e-9,4.7577202322981575e-9,6
47329,9.72205535727458e-10,6.366836723579613e-10,7.43972036955267e-10,2.491775667800721e-9,1.3531545535470541e-8,3.180699404611426e-8,4.609822715476949e-9,4.781651834295514e-9,6
47330,9.718774724887473e-10,6.366358218036486e-10,7.384180687843727e-10,2.478384948827956e-9,1.3522896547778521e-8,3.180699404611426e-8,4.628791883594658e-9,4.805583436292871e-9,6
47331,9.715494092500366e-10,6.365879712493359e-10,7.328641006134782e-10,2.464994229855191e-9,1.35142475600865e-8,3.180699404611426e-8,4.647761051712367e-9,4.829515038290227e-9,6
47332,9.71221346011326e-10,6.365401206950232e-10,7.273101324425839e-10,2.451603510882426e-9,1.3505598572394478e-8,3.180699404611426e-8,4.666730219830076e-9,4.853446640287583e-9,6
47333,9.708932827726154e-10,6.364922701407105e-10,7.217561642716896e-10,2.4382127919096612e-9,1.3496949584702458e-8,3.180699404611426e-8,4.685699387947786e-9,4.87737824228494e-9,6
47334,9.705652195339047e-10,6.364444195863978e-10,7.162021961007951e-10,2.4248220729368963e-9,1.3488300597010437e-8,3.180699404611426e-8,4.7046685560654946e-9,4.901309844282297e-9,6
47335,9.702371562951942e-10,6.363965690320851e-10,7.106482279299008e-10,2.411431353964131e-9,1.3479651609318415e-8,3.180699404611426e-8,4.7236377241832035e-9,4.925241446279653e-9,6
47336,9.607874801048258e-10,6.350898730461767e-10,7.113510632571082e-10,2.4082234471450027e-9,1.3264930006389508e-8,3.1628106628082075e-8,4.727779030022406e-9,4.8980101868542755e-9,6
47337,9.513378039144574e-10,6.337831770602684e-10,7.120538985843157e-10,2.4050155403258744e-9,1.3050208403460602e-8,3.1449219210049897e-8,4.731920335861608e-9,4.870778927428899e-9,6
47338,9.360071976046908e-10,6.34756758017526e-10,7.126661452143172e-10,2.403375688896996e-9,1.3013676445130191e-8,3.1424361978685396e-8,4.74763933388555e-9,4.890747248664542e-9,6
47339,9.206765912949244e-10,6.357303389747837e-10,7.132783918443186e-10,2.4017358374681173e-9,1.2977144486799778e-8,3.139950474732089e-8,4.763358331909492e-9,4.910715569900186e-9,6
47340,9.05345984985158e-10,6.367039199320413e-10,7.138906384743201e-10,2.400095986039239e-9,1.2940612528469367e-8,3.1374647515956387e-8,4.779077329933434e-9,4.93068389113583e-9,6
47341,8.900153786753915e-10,6.376775008892989e-10,7.145028851043215e-10,2.39845613461036e-9,1.2904080570138955e-8,3.1349790284591886e-8,4.794796327957376e-9,4.950652212371473e-9,6
47342,8.771652214333778e-10,6.386989324008692e-10,7.165884862703554e-10,2.4067875263724264e-9,1.2914114637389595e-8,3.1336842809668465e-8,4.799587667815331e-9,4.915666707977527e-9,6
47343,8.643150641913642e-10,6.397203639124395e-10,7.186740874363894e-10,2.415118918134493e-9,1.2924148704640235e-8,3.1323895334745044e-8,4.804379007673288e-9,4.8806812035835815e-09,6
47344,8.493125211203083e-10,6.399817031096211e-10,7.221882640724267e-10,2.418753782032199e-9,1.289024529365146e-8,3.1339344577289764e-8,4.8123141471360315e-9,4.849993964142277e-9,6
47345,8.343099780492524e-10,6.402430423068029e-10,7.257024407084641e-10,2.4223886459299057e-9,1.2856341882662686e-8,3.135479381983448e-8,4.820249286598775e-9,4.819306724700972e-9,6
47346,8.193074349781966e-10,6.405043815039845e-10,7.292166173445014e-10,2.4260235098276122e-9,1.2822438471673911e-8,3.13702430623792e-8,4.82818442606152e-9,4.788619485259668e-9,6
47347,8.043048919071408e-10,6.407657207011662e-10,7.327307939805387e-10,2.4296583737253188e-9,1.2788535060685136e-8,3.138569230492393e-8,4.836119565524264e-9,4.757932245818364e-9,6
47348,7.893023488360849e-10,6.410270598983478e-10,7.36244970616576e-10,2.4332932376230253e-9,1.2754631649696362e-8,3.140114154746865e-8,4.844054704987008e-9,4.72724500637706e-9,6
47349,7.884755324801674e-10,6.402669675839592e-10,7.400538181598199e-10,2.438639748988239e-9,1.2737967209185128e-8,3.073774348319331e-8,4.855240014543519e-9,4.7106502300491e-9,6
47350,7.876487161242497e-10,6.395068752695705e-10,7.438626657030637e-10,2.4439862603534533e-9,1.2721302768673895e-8,3.007434541891797e-8,4.866425324100031e-9,4.6940554537211415e-9,6
47351,7.868218997683321e-10,6.387467829551819e-10,7.476715132463075e-10,2.449332771718667e-9,1.2704638328162663e-8,2.941094735464263e-8,4.877610633656542e-9,4.677460677393183e-9,6
47352,7.859950834124145e-10,6.379866906407933e-10,7.514803607895514e-10,2.454679283083881e-9,1.268797388765143e-8,2.8747549290367294e-8,4.888795943213054e-9,4.660865901065224e-9,6
47353,7.85168267056497e-10,6.372265983264046e-10,7.552892083327952e-10,2.460025794449095e-9,1.2671309447140197e-8,2.8084151226091957e-8,4.899981252769565e-9,4.644271124737264e-9,6
47354,7.843414507005793e-10,6.36466506012016e-10,7.59098055876039e-10,2.465372305814309e-9,1.2654645006628963e-8,2.742075316181662e-8,4.911166562326077e-9,4.627676348409306e-9,6
47355,7.835146343446617e-10,6.357064136976273e-10,7.629069034192828e-10,2.4707188171795226e-9,1.263798056611773e-8,2.675735509754128e-8,4.922351871882588e-9,4.611081572081347e-9,6
47356,7.826878179887442e-10,6.349463213832386e-10,7.667157509625267e-10,2.476065328544737e-9,1.2621316125606498e-8,2.6093957033265943e-8,4.9335371814391e-9,4.594486795753388e-9,6
47357,7.818610016328265e-10,6.3418622906885e-10,7.705245985057705e-10,2.4814118399099506e-9,1.2604651685095265e-8,2.5430558968990606e-8,4.944722490995611e-9,4.5778920194254285e-9,6
47358,7.821890648715371e-10,6.322390671543348e-10,7.741293638390138e-10,2.483981220687809e-9,1.2614870223507357e-8,2.4852089879579783e-8,4.955453957847483e-9,4.558023228555186e-9,6
47359,7.825171281102478e-10,6.302919052398195e-10,7.777341291722572e-10,2.4865506014656673e-9,1.2625088761919451e-8,2.4273620790168963e-8,4.966185424699355e-9,4.538154437684942e-9,6
47360,7.828451913489584e-10,6.283447433253044e-10,7.813388945055005e-10,2.4891199822435257e-9,1.2635307300331543e-8,2.369515170075814e-8,4.976916891551227e-9,4.518285646814698e-9,6
47361,7.83173254587669e-10,6.263975814107891e-10,7.849436598387439e-10,2.4916893630213845e-9,1.2645525838743637e-8,2.311668261134732e-8,4.987648358403099e-9,4.4984168559444546e-9,6
47362,7.835013178263796e-10,6.244504194962738e-10,7.885484251719872e-10,2.494258743799243e-9,1.265574437715573e-8,2.2538213521936496e-8,4.998379825254971e-9,4.478548065074211e-9,6
47363,7.838293810650903e-10,6.225032575817586e-10,7.921531905052306e-10,2.496828124577101e-9,1.2665962915567823e-08,2.1959744432525675e-8,5.0091112921068435e-9,4.458679274203967e-9,6
47364,7.841574443038009e-10,6.205560956672434e-10,7.957579558384739e-10,2.4993975053549596e-9,1.2676181453979916e-8,2.1381275343114852e-8,5.019842758958715e-9,4.4388104833337235e-9,6
47365,7.844855075425114e-10,6.186089337527282e-10,7.993627211717173e-10,2.501966886132818e-9,1.268639999239201e-8,2.0802806253704032e-8,5.030574225810587e-9,4.41894169246348e-9,6
47366,7.84813570781222e-10,6.166617718382129e-10,8.029674865049606e-10,2.5045362669106767e-9,1.2696618530804102e-8,2.0224337164293208e-8,5.041305692662459e-9,4.399072901593237e-9,6
47367,7.851416340199327e-10,6.147146099236978e-10,8.065722518382039e-10,2.507105647688535e-9,1.2706837069216196e-8,1.9645868074882388e-8,5.052037159514331e-9,4.379204110722993e-9,6
47368,7.854696972586433e-10,6.127674480091825e-10,8.101770171714473e-10,2.5096750284663934e-9,1.2717055607628288e-8,1.9067398985471565e-8,5.062768626366204e-9,4.35933531985275e-9,6
47369,7.857977604973539e-10,6.108202860946672e-10,8.137817825046906e-10,2.512244409244252e-9,1.2727274146040382e-8,1.848892989606074e-8,5.073500093218075e-9,4.339466528982506e-9,6
47370,7.861258237360645e-10,6.088731241801521e-10,8.17386547837934e-10,2.51481379002211e-9,1.2737492684452475e-8,1.791046080664992e-8,5.0842315600699475e-9,4.319597738112262e-9,6
47371,7.861258237360645e-10,6.069259622656368e-10,8.1747713653514e-10,2.5121084554733836e-9,1.2735849842363952e-8,1.729101353713228e-8,5.08596892114825e-9,4.2974438913055695e-9,6
47372,7.864538869747752e-10,6.056910421111976e-10,8.172730543251395e-10,2.5099736700804927e-9,1.2735849842363952e-8,1.669556673561246e-8,5.101912471235029e-9,4.457152966805783e-9,6
47373,7.782765141844028e-10,6.044561219567583e-10,8.172730543251395e-10,2.5101890581963794e-9,1.2742820585023549e-8,1.671974015669067e-8,5.116707234185849e-9,4.586075272499291e-9,6
47374,7.700991413940305e-10,6.03221201802319e-10,8.172730543251395e-10,2.5104044463122656e-9,1.2749791327683147e-8,1.674391357776888e-8,5.131501997136668e-9,4.7149975781928e-9,6
47375,7.692723250381129e-10,6.03221201802319e-10,8.151645483435171e-10,2.5057002801415163e-9,1.2756762070342744e-8,1.667661001510516e-8,5.14464921983432e-9,4.893024595569543e-9,6
47376,7.684455086821952e-10,6.03221201802319e-10,8.130560423618947e-10,2.500996113970767e-9,1.2763732813002341e-8,1.6609306452441446e-8,5.157796442531971e-9,5.071051612946285e-9,6
47377,7.697710781553199e-10,6.02508960042243e-10,8.112422072874788e-10,2.495721398644182e-9,1.2814825505062808e-8,1.6521513799724322e-8,5.165731581994716e-9,5.073717695087177e-9,6
47378,7.694563314348913e-10,6.015353790849854e-10,8.091337013058564e-10,2.4950752342965226e-9,1.2829386238792861e-8,1.643665334733855e-8,5.163327637233816e-9,5.068040897695679e-9,6
47379,7.691415847144629e-10,6.005617981277278e-10,8.070251953242341e-10,2.4944290699488635e-9,1.2843946972522915e-8,1.6351792894952784e-8,5.160923692472916e-9,5.062364100304181e-9,6
47380,7.688268379940344e-10,5.995882171704702e-10,8.049166893426116e-10,2.493782905601204e-9,1.2858507706252969e-8,1.6266932442567016e-8,5.158519747712016e-9,5.056687302912683e-9,6
47381,7.685120912736059e-10,5.986146362132126e-10,8.028081833609892e-10,2.493136741253545e-9,1.2873068439983023e-8,1.6182071990181246e-8,5.156115802951116e-9,5.051010505521185e-9,6
47382,7.681973445531774e-10,5.97641055255955e-10,8.006996773793669e-10,2.4924905769058855e-9,1.2887629173713077e-8,1.609721153779548e-8,5.1537118581902165e-9,5.045333708129687e-9,6
47383,7.670424649585491e-10,5.96928813495879e-10,7.994980889349524e-10,2.4871440655406717e-9,1.290218990744313e-8,1.6274783651591694e-8,5.174070915170568e-9,5.074470098577277e-9,6
47384,7.667277182381207e-10,5.959552325386214e-10,7.982965004905379e-10,2.4818693502140864e-9,1.2928685313042251e-8,1.635387223189929e-8,5.177198165111512e-9,5.0771361807181694e-9,6
47385,7.664129715176922e-10,5.949816515813638e-10,7.970949120461235e-10,2.4765946348875015e-9,1.2955180718641373e-8,1.643296081220689e-8,5.180325415052457e-9,5.079802262859062e-9,6
47386,7.660982247972637e-10,5.940080706241062e-10,7.95893323601709e-10,2.471319919560916e-9,1.2981676124240494e-8,1.6512049392514487e-8,5.183452664993402e-9,5.082468344999953e-9,6
47387,7.657834780768353e-10,5.930344896668486e-10,7.946917351572945e-10,2.4660452042343312e-9,1.3008171529839614e-8,1.6591137972822085e-8,5.186579914934346e-9,5.085134427140845e-9,6
47388,7.654687313564067e-10,5.920609087095909e-10,7.934901467128802e-10,2.460770488907746e-9,1.3034666935438735e-8,1.6670226553129682e-8,5.1897071648752905e-9,5.087800509281737e-9,6
47389,7.651539846359782e-10,5.910873277523333e-10,7.922885582684657e-10,2.455495773581161e-9,1.3061162341037857e-8,1.674931513343728e-8,5.192834414816236e-9,5.0904665914226295e-9,6
47390,7.648392379155498e-10,5.901137467950757e-10,7.910869698240513e-10,2.450221058254576e-9,1.3087657746636978e-8,1.6828403713744878e-8,5.19596166475718e-9,5.093132673563522e-9,6
47391,7.645244911951213e-10,5.891401658378181e-10,7.898853813796368e-10,2.444946342927991e-9,1.3114153152236098e-8,1.6907492294052476e-8,5.1990889146981245e-9,5.095798755704413e-9,6
47392,7.642097444746927e-10,5.881665848805605e-10,7.886837929352223e-10,2.439671627601406e-9,1.314064855783522e-8,1.6986580874360073e-8,5.202216164639069e-9,5.098464837845305e-9,6
47393,7.638949977542643e-10,5.871930039233029e-10,7.874822044908079e-10,2.4343969122748206e-9,1.3167143963434341e-8,1.7065669454667668e-8,5.205343414580013e-9,5.101130919986197e-9,6
47394,7.635802510338358e-10,5.862194229660453e-10,7.862806160463935e-10,2.4291221969482357e-9,1.3193639369033463e-8,1.7144758034975266e-8,5.2084706645209585e-9,5.1037970021270895e-9,6
47395,7.632655043134073e-10,5.852458420087876e-10,7.85079027601979e-10,2.4238474816216504e-9,1.3220134774632583e-8,1.7223846615282863e-8,5.211597914461903e-9,5.106463084267981e-9,6
47396,7.629507575929789e-10,5.8427226105153e-10,7.838774391575646e-10,2.4185727662950655e-9,1.3246630180231704e-8,1.730293519559046e-8,5.214725164402847e-9,5.109129166408873e-9,6
47397,7.626360108725503e-10,5.832986800942724e-10,7.826758507131501e-10,2.41329805096848e-9,1.3273125585830826e-8,1.738202377589806e-8,5.217852414343792e-9,5.111795248549765e-9,6
47398,7.623212641521218e-10,5.823250991370148e-10,7.814742622687357e-10,2.4080233356418952e-9,1.3299620991429946e-8,1.7461112356205656e-8,5.220979664284737e-9,5.1144613306906574e-9,6
47399,7.620065174316934e-10,5.813515181797572e-10,7.802726738243212e-10,2.4027486203153103e-9,1.3326116397029067e-8,1.7540200936513254e-8,5.224106914225681e-9,5.11712741283155e-9,6
47400,7.625185870671824e-10,5.790712412365913e-10,7.787993192882887e-10,2.3995407134961817e-9,1.33427336336151e-8,1.76558031270502e-8,5.230484334260393e-9,5.101475553095911e-9,6
47401,7.630306567026716e-10,5.767909642934253e-10,7.773259647522563e-10,2.3963328066770534e-9,1.3359350870201133e-8,1.7771405317587146e-8,5.2368617542951045e-9,5.085823693360273e-9,6
47402,7.635427263381607e-10,5.745106873502593e-10,7.758526102162237e-10,2.393124899857925e-9,1.3375968106787166e-8,1.7887007508124096e-8,5.2432391743298165e-9,5.070171833624636e-9,6
47403,7.640547959736498e-10,5.722304104070934e-10,7.743792556801912e-10,2.389916993038797e-9,1.3392585343373199e-8,1.800260969866104e-8,5.2496165943645286e-9,5.054519973888998e-9,6
47404,7.645668656091389e-10,5.699501334639274e-10,7.729059011441587e-10,2.3867090862196686e-9,1.3409202579959231e-8,1.8118211889197988e-8,5.255994014399241e-9,5.03886811415336e-9,6
47405,7.65078935244628e-10,5.676698565207615e-10,7.714325466081262e-10,2.38350117940054e-9,1.3425819816545263e-8,1.8233814079734934e-8,5.262371434433952e-9,5.023216254417723e-9,6
47406,7.655910048801171e-10,5.653895795775955e-10,7.699591920720937e-10,2.3802932725814116e-9,1.3442437053131296e-8,1.834941627027188e-8,5.268748854468664e-9,5.007564394682084e-9,6
47407,7.661030745156063e-10,5.640828835916872e-10,7.675789199988533e-10,2.3770135697236545e-9,1.3437886784689282e-8,1.843992795799205e-8,5.294319994683923e-9,4.987695603811841e-9,6
47408,7.666151441510953e-10,5.627761876057788e-10,7.651986479256129e-10,2.3737338668658973e-9,1.3433336516247268e-8,1.853043964571222e-8,5.319891134899182e-9,4.967826812941598e-9,6
47409,7.674419605070129e-10,5.615173421741832e-10,7.639064707839924e-10,2.397167625068236e-9,1.3424042192701139e-8,1.8475649225280033e-8,5.319694943585067e-9,4.9436597571187124e-09,6
47410,7.684261502231448e-10,5.625387736857535e-10,7.589866234935402e-10,2.4238092900897033e-9,1.334984847353095e-8,1.8456310488417464e-8,5.310280094434546e-9,4.9425081308768055e-9,6
47411,7.694103399392766e-10,5.635602051973239e-10,7.540667762030878e-10,2.4504509551111704e-9,1.327565475436076e-8,1.84369717515549e-8,5.300865245284025e-9,4.941356504634899e-9,6
47412,7.703945296554084e-10,5.645816367088942e-10,7.491469289126356e-10,2.4770926201326374e-9,1.3201461035190571e-8,1.841763301469233e-8,5.2914503961335035e-9,4.940204878392992e-9,6
47413,7.713787193715403e-10,5.656030682204645e-10,7.442270816221833e-10,2.5037342851541045e-9,1.3127267316020382e-8,1.8398294277829763e-8,5.282035546982982e-9,4.939053252151085e-9,6
47414,7.723629090876722e-10,5.666244997320348e-10,7.393072343317311e-10,2.5303759501755716e-9,1.3053073596850194e-8,1.8378955540967195e-8,5.272620697832461e-9,4.937901625909179e-9,6
47415,7.73347098803804e-10,5.676459312436051e-10,7.343873870412788e-10,2.5570176151970387e-9,1.2978879877680005e-8,1.8359616804104626e-8,5.26320584868194e-9,4.936749999667272e-9,6
47416,7.736618455242325e-10,5.686673627551754e-10,7.345685644356909e-10,2.5804513733993775e-9,1.2957870756370161e-8,1.82947265825311e-8,5.256632237333114e-9,4.920173419886677e-9,6
47417,7.746460352403643e-10,5.674802931550489e-10,7.347497418301028e-10,2.6070930384208446e-9,1.2958126033419413e-8,1.829489953561149e-8,5.247217388182593e-9,4.914324305940322e-9,6
47418,7.756302249564961e-10,5.662932235549223e-10,7.349309192245149e-10,2.6337347034423117e-9,1.2958381310468667e-8,1.829507248869188e-8,5.237802539032071e-9,4.908475191993966e-9,6
47419,7.76614414672628e-10,5.651061539547957e-10,7.35112096618927e-10,2.660376368463779e-9,1.2958636587517921e-8,1.829524544177227e-8,5.22838768988155e-9,4.902626078047611e-9,6
47420,7.775986043887598e-10,5.639190843546692e-10,7.35293274013339e-10,2.687018033485246e-9,1.2958891864567175e-8,1.8295418394852657e-8,5.218972840731028e-9,4.896776964101256e-9,6
47421,7.782680473844632e-10,5.627320147545426e-10,7.35293274013339e-10,2.6948583104364946e-9,1.3118445658148208e-8,1.834536612903394e-8,5.209406710678961e-9,4.896776964101256e-9,6
47422,7.789374903801665e-10,5.61544945154416e-10,7.35293274013339e-10,2.7026985873877433e-9,1.3277999451729243e-8,1.8395313863215218e-8,5.199840580626893e-9,4.896776964101256e-9,6
47423,7.846077810662218e-10,5.655110448149155e-10,7.381952040193748e-10,2.7059064942068715e-9,1.3292231617041592e-8,1.8575045940525387e-8,5.209591090908195e-9,4.893403419193571e-9,6
47424,7.902780717522771e-10,5.69477144475415e-10,7.410971340254107e-10,2.7091144010260002e-9,1.330646378235394e-8,1.8754778017835553e-8,5.2193416011894965e-9,4.890029874285887e-9,6
47425,7.959483624383325e-10,5.734432441359145e-10,7.439990640314467e-10,2.7123223078451285e-9,1.332069594766629e-8,1.8934510095145722e-8,5.2290921114707985e-9,4.886656329378202e-9,6
47426,8.016186531243878e-10,5.77409343796414e-10,7.469009940374825e-10,2.7155302146642568e-9,1.333492811297864e-8,1.911424217245589e-8,5.238842621752101e-9,4.8832827844705176e-9,6
47427,8.07288943810443e-10,5.813754434569136e-10,7.498029240435184e-10,2.718738121483385e-9,1.3349160278290988e-8,1.929397424976606e-8,5.248593132033403e-9,4.879909239562833e-9,6
47428,8.065020770093718e-10,5.85269767285944e-10,7.512314995135217e-10,2.7046370804307213e-9,1.3335438667077147e-8,1.9452819014525418e-8,5.255003651395802e-9,4.879909239562833e-9,6
47429,8.057152102083006e-10,5.891640911149744e-10,7.526600749835251e-10,2.6905360393780576e-9,1.3321717055863304e-8,1.961166377928478e-8,5.261414170758201e-9,4.879909239562833e-9,6
47430,8.113855008943559e-10,5.950773526899891e-10,7.55562004989561e-10,2.693743946197186e-9,1.3321717055863304e-8,1.9787100137744434e-8,5.265555476597403e-9,4.881233182359597e-9,6
47431,8.170557915804112e-10,6.009906142650039e-10,7.584639349955969e-10,2.696951853016314e-9,1.3321717055863304e-8,1.9962536496204092e-8,5.269696782436606e-9,4.882557125156361e-9,6
47432,8.227260822664665e-10,6.069038758400187e-10,7.613658650016328e-10,2.700159759835443e-9,1.3321717055863304e-8,2.013797285466375e-8,5.273838088275809e-9,4.883881067953125e-9,6
47433,8.283963729525218e-10,6.128171374150334e-10,7.642677950076687e-10,2.703367666654571e-9,1.3321717055863304e-8,2.0313409213123405e-8,5.2779793941150105e-9,4.885205010749888e-9,6
47434,8.340666636385771e-10,6.187303989900482e-10,7.671697250137045e-10,2.7065755734736994e-9,1.3321717055863304e-8,2.0488845571583063e-8,5.282120699954213e-9,4.8865289535466524e-9,6
47435,8.397369543246324e-10,6.246436605650629e-10,7.700716550197404e-10,2.7097834802928276e-9,1.3321717055863304e-8,2.0664281930042718e-8,5.286262005793415e-9,4.887852896343417e-9,6
47436,8.454072450106877e-10,6.305569221400776e-10,7.729735850257763e-10,2.712991387111956e-9,1.3321717055863304e-8,2.0839718288502376e-8,5.290403311632618e-9,4.88917683914018e-9,6
47437,8.51077535696743e-10,6.364701837150923e-10,7.758755150318121e-10,2.7161992939310846e-9,1.3321717055863304e-8,2.101515464696203e-8,5.29454461747182e-9,4.890500781936944e-9,6
47438,8.567478263827983e-10,6.423834452901071e-10,7.78777445037848e-10,2.719407200750213e-9,1.3321717055863304e-8,2.119059100542169e-8,5.2986859233110225e-9,4.8918247247337074e-9,6
47439,8.624181170688537e-10,6.482967068651218e-10,7.816793750438839e-10,2.722615107569341e-9,1.3321717055863304e-8,2.1366027363881347e-8,5.302827229150224e-9,4.893148667530472e-9,6
47440,8.680884077549089e-10,6.542099684401365e-10,7.845813050499198e-10,2.7258230143884694e-9,1.3321717055863304e-8,2.1541463722341e-8,5.306968534989427e-9,4.894472610327236e-9,6
47441,8.737586984409642e-10,6.601232300151513e-10,7.874832350559557e-10,2.7290309212075977e-9,1.3321717055863304e-8,2.171690008080066e-8,5.311109840828629e-9,4.895796553123999e-9,6
47442,8.794289891270195e-10,6.66036491590166e-10,7.903851650619916e-10,2.732238828026726e-9,1.3321717055863304e-8,2.1892336439260314e-8,5.315251146667832e-9,4.897120495920763e-9,6
47443,8.850992798130748e-10,6.719497531651807e-10,7.932870950680275e-10,2.7354467348458546e-9,1.3321717055863304e-8,2.2067772797719972e-8,5.319392452507034e-9,4.8984444387175274e-09,6
47444,8.849285899345785e-10,6.719258278880244e-10,7.92674848438026e-10,2.7354467348458546e-9,1.3321717055863304e-8,2.2080048566445794e-8,5.304564590228527e-9,4.9089728438209665e-9,6
47445,8.850859632947927e-10,6.726859202024131e-10,7.959391332328859e-10,2.7358018958858036e-9,1.3308822766184374e-8,2.2167229831337208e-8,5.324122332288579e-9,4.914440931562879e-9,6
47446,8.852433366550069e-10,6.734460125168018e-10,7.992034180277458e-10,2.736157056925753e-9,1.3295928476505443e-8,2.2254411096228624e-8,5.34368007434863e-9,4.919909019304792e-9,6
47447,8.854007100152212e-10,6.742061048311903e-10,8.024677028226058e-10,2.7365122179657024e-9,1.3283034186826513e-8,2.2341592361120038e-8,5.363237816408681e-9,4.925377107046704e-9,6
47448,8.855580833754354e-10,6.74966197145579e-10,8.057319876174657e-10,2.7368673790056518e-9,1.3270139897147582e-8,2.242877362601145e-8,5.382795558468732e-9,4.9308451947886165e-9,6
47449,8.857154567356496e-10,6.757262894599676e-10,8.089962724123257e-10,2.737222540045601e-9,1.3257245607468652e-8,2.2515954890902865e-8,5.402353300528783e-9,4.9363132825305296e-9,6
47450,8.85872830095864e-10,6.764863817743563e-10,8.122605572071856e-10,2.7375777010855505e-9,1.3244351317789722e-8,2.2603136155794278e-8,5.421911042588834e-9,4.941781370272442e-9,6
47451,8.837204442668218e-10,6.764863817743563e-10,8.099708738311512e-10,2.730882341599168e-9,1.3244776779538477e-8,2.254066337736437e-8,5.4562966469273926e-9,4.875021238756163e-9,6
47452,8.79743735847448e-10,6.772703993659013e-10,8.141420761632191e-10,2.7313092986777463e-9,1.3235458854029747e-8,2.247819059893446e-8,5.4908784425800645e-9,4.881314516177633e-9,6
47453,8.799011092076623e-10,6.780304916802899e-10,8.180186075880806e-10,2.72703590873877e-9,1.3150306852742955e-8,2.2295574535576127e-8,5.4996929067033635e-9,4.8870908439345304e-9,6
47454,8.800584825678765e-10,6.787905839946786e-10,8.218951390129419e-10,2.7227625187997935e-9,1.3065154851456163e-8,2.211295847221779e-8,5.508507370826663e-9,4.892867171691429e-9,6
47455,8.802158559280908e-10,6.795506763090673e-10,8.257716704378033e-10,2.718489128860817e-9,1.2980002850169371e-8,2.193034240885945e-8,5.517321834949962e-9,4.898643499448327e-9,6
47456,8.80373229288305e-10,6.803107686234559e-10,8.296482018626647e-10,2.7142157389218406e-9,1.2894850848882579e-8,2.1747726345501115e-8,5.526136299073261e-9,4.904419827205225e-9,6
47457,8.805306026485192e-10,6.810708609378446e-10,8.335247332875261e-10,2.709942348982864e-9,1.2809698847595787e-8,2.1565110282142777e-8,5.534950763196561e-9,4.910196154962124e-9,6
47458,8.806879760087335e-10,6.818309532522332e-10,8.374012647123875e-10,2.7056689590438877e-9,1.2724546846308996e-8,2.138249421878444e-8,5.54376522731986e-9,4.915972482719022e-9,6
47459,8.808453493689477e-10,6.906189459962463e-10,8.374012647123875e-10,2.708880685016211e-9,1.270411225496546e-8,2.1209680264689852e-8,5.549100230707591e-9,4.956271954847387e-9,6
47460,8.81002722729162e-10,6.994069387402593e-10,8.374012647123875e-10,2.712092410988534e-9,1.2683677663621925e-8,2.1036866310595268e-8,5.5544352340953205e-9,4.996571426975753e-9,6
47461,8.811600960893762e-10,7.081949314842724e-10,8.374012647123875e-10,2.715304136960857e-9,1.2663243072278389e-8,2.086405235650068e-8,5.559770237483051e-9,5.036870899104119e-9,6
47462,8.813174694495905e-10,7.169829242282855e-10,8.374012647123875e-10,2.71851586293318e-9,1.2642808480934853e-8,2.0691238402406093e-8,5.565105240870782e-9,5.077170371232484e-9,6
47463,8.814748428098048e-10,7.257709169722985e-10,8.374012647123875e-10,2.7217275889055032e-9,1.2622373889591317e-8,2.0518424448311505e-8,5.570440244258511e-9,5.1174698433608495e-9,6
47464,8.81632216170019e-10,7.345828349934679e-10,8.355874296379716e-10,2.7151002063045547e-9,1.263766505152523e-8,2.057656539769641e-8,5.570440244258511e-9,5.158612701716137e-9,6
47465,8.817895895302332e-10,7.433947530146374e-10,8.337735945635557e-10,2.7084728237036065e-9,1.2652956213459145e-8,2.0634706347081314e-8,5.570440244258511e-9,5.199755560071423e-9,6
47466,8.819469628904475e-10,7.522066710358068e-10,8.319597594891398e-10,2.701845441102658e-9,1.266824737539306e-8,2.0692847296466216e-8,5.570440244258511e-9,5.24089841842671e-9,6
47467,8.821043362506617e-10,7.610185890569762e-10,8.301459244147239e-10,2.6952180585017097e-9,1.2683538537326973e-8,2.0750988245851122e-8,5.570440244258511e-9,5.282041276781997e-9,6
47468,8.822617096108759e-10,7.698305070781457e-10,8.28332089340308e-10,2.688590675900761e-9,1.2698829699260888e-8,2.0809129195236025e-8,5.570440244258511e-9,5.323184135137283e-9,6
47469,8.824190829710901e-10,7.786424250993151e-10,8.265182542658921e-10,2.6819632932998126e-9,1.2714120861194801e-8,2.086727014462093e-8,5.570440244258511e-9,5.36432699349257e-9,6
47470,8.825764563313044e-10,7.874543431204845e-10,8.247044191914762e-10,2.6753359106988644e-9,1.2729412023128716e-8,2.0925411094005833e-8,5.570440244258511e-9,5.4054698518478565e-9,6
47471,8.827338296915187e-10,7.96266261141654e-10,8.228905841170603e-10,2.668708528097916e-9,1.274470318506263e-8,2.098355204339074e-8,5.570440244258511e-9,5.4466127102031435e-9,6
47472,8.805814438624765e-10,8.042941615712783e-10,8.231852550242668e-10,2.673843470500438e-9,1.2749960279745904e-8,2.1060657715318205e-8,5.600892545156861e-9,5.487429131996081e-9,6
47473,8.797546275065589e-10,8.131060795924478e-10,8.232758437214728e-10,2.6784758406325588e-9,1.2680730489785184e-8,2.115764108947337e-8,5.5887262790297796e-9,5.52742036410946e-9,6
47474,8.789278111506413e-10,8.219179976136172e-10,8.233664324186788e-10,2.683108210764679e-9,1.2611500699824464e-8,2.1254624463628533e-8,5.576560012902699e-9,5.56741159622284e-9,6
47475,8.781009947947237e-10,8.307299156347866e-10,8.234570211158849e-10,2.6877405808967996e-9,1.2542270909863746e-8,2.1351607837783697e-8,5.564393746775617e-9,5.60740282833622e-9,6
47476,8.772741784388061e-10,8.395418336559561e-10,8.235476098130909e-10,2.69237295102892e-9,1.2473041119903026e-8,2.144859121193886e-8,5.552227480648535e-9,5.6473940604496005e-9,6
47477,8.764473620828885e-10,8.483537516771255e-10,8.236381985102969e-10,2.6970053211610404e-9,1.2403811329942308e-8,2.1545574586094025e-8,5.540061214521453e-9,5.68738529256298e-9,6
47478,8.75620545726971e-10,8.571656696982949e-10,8.237287872075029e-10,2.701637691293161e-9,1.2334581539981588e-8,2.164255796024919e-8,5.527894948394372e-9,5.72737652467636e-9,6
47479,8.747937293710533e-10,8.659775877194644e-10,8.238193759047089e-10,2.7062700614252813e-9,1.2265351750020868e-8,2.1739541334404353e-8,5.51572868226729e-9,5.76736775678974e-9,6
47480,8.739669130151357e-10,8.747895057406337e-10,8.239099646019149e-10,2.710902431557402e-9,1.219612196006015e-8,2.1836524708559517e-8,5.503562416140209e-9,5.80735898890312e-9,6
47481,8.855822915528284e-10,8.747895057406337e-10,8.247939773235344e-10,2.7123230757171992e-9,1.2063756111857546e-8,2.185174067965196e-8,5.469708664246545e-9,6.018167788555395e-9,6
47482,8.847554751969108e-10,8.755256727778661e-10,8.245898951135339e-10,2.7235828284502682e-9,1.1935113210562045e-8,2.1888596093988657e-8,5.429886424610242e-9,6.01785954854041e-9,6
47483,8.839286588409933e-10,8.762618398150983e-10,8.243858129035334e-10,2.7348425811833372e-9,1.1806470309266543e-8,2.1925451508325354e-8,5.390064184973939e-9,6.017551308525424e-9,6
47484,8.831018424850757e-10,8.769980068523306e-10,8.24181730693533e-10,2.746102333916406e-9,1.1677827407971042e-8,2.196230692266205e-8,5.350241945337635e-9,6.017243068510438e-9,6
47485,8.82275026129158e-10,8.77734173889563e-10,8.239776484835325e-10,2.757362086649475e-9,1.154918450667554e-8,2.1999162336998748e-8,5.3104197057013315e-9,6.016934828495452e-9,6
47486,8.81762956493669e-10,8.787077548468206e-10,8.175167627754301e-10,2.761858503010727e-9,1.1532945527913063e-8,2.2028628983161884e-8,5.312067245954499e-9,5.988451311172562e-9,6
47487,8.820910197323796e-10,8.787077548468206e-10,8.175167627754301e-10,2.773620828014198e-9,1.1525355536842608e-8,2.206862976315825e-8,5.311282480698043e-9,5.989294697399483e-9,6
47488,8.765781024065385e-10,8.794439218840528e-10,8.173126805654297e-10,2.7881602836050235e-9,1.1531742434035247e-8,2.210945509630864e-8,5.295563482674101e-9,5.984288969680049e-9,6
47489,8.710651850806975e-10,8.801800889212852e-10,8.171085983554292e-10,2.8026997391958497e-9,1.1538129331227887e-8,2.2150280429459035e-8,5.279844484650159e-9,5.9792832419606145e-9,6
47490,8.655522677548564e-10,8.809162559585174e-10,8.169045161454287e-10,2.817239194786676e-9,1.1544516228420526e-8,2.2191105762609425e-8,5.264125486626217e-9,5.974277514241181e-9,6
47491,8.600393504290153e-10,8.816524229957497e-10,8.167004339354282e-10,2.831778650377502e-9,1.1550903125613165e-8,2.2231931095759816e-8,5.248406488602276e-9,5.969271786521746e-9,6
47492,8.545264331031742e-10,8.823885900329821e-10,8.164963517254277e-10,2.8463181059683277e-9,1.1557290022805805e-8,2.2272756428910206e-8,5.2326874905783335e-9,5.964266058802313e-9,6
47493,8.490135157773333e-10,8.831247570702143e-10,8.162922695154273e-10,2.860857561559154e-9,1.1563676919998444e-8,2.23135817620606e-8,5.216968492554391e-9,5.959260331082878e-9,6
47494,8.498003825784044e-10,8.919366750913838e-10,8.184684593786672e-10,2.8743200765705476e-9,1.1570999833038348e-8,2.233276765196674e-8,5.20124949453045e-9,5.953411217136523e-9,6
47495,8.441300918923491e-10,8.927206926829287e-10,8.193524721002868e-10,2.877097207157903e-9,1.1573663783323884e-8,2.2451458789773302e-8,5.184471530195682e-9,5.953411217136523e-9,6
47496,8.384598012062939e-10,8.935047102744738e-10,8.202364848219063e-10,2.8798743377452585e-9,1.1576327733609421e-8,2.257014992757987e-8,5.1676935658609155e-9,5.953411217136523e-9,6
47497,8.327895105202386e-10,8.942887278660188e-10,8.211204975435258e-10,2.882651468332614e-9,1.1578991683894959e-8,2.2688841065386435e-8,5.150915601526149e-9,5.953411217136523e-9,6
47498,8.271192198341832e-10,8.950727454575638e-10,8.220045102651453e-10,2.8854285989199693e-9,1.1581655634180496e-8,2.2807532203193e-8,5.134137637191381e-9,5.953411217136523e-9,6
47499,8.214489291481279e-10,8.958567630491088e-10,8.228885229867648e-10,2.8882057295073247e-9,1.1584319584466033e-8,2.2926223340999564e-8,5.117359672856614e-9,5.953411217136523e-9,6
47500,8.157786384620726e-10,8.966407806406537e-10,8.237725357083842e-10,2.8909828600946805e-9,1.1586983534751571e-8,2.304491447880613e-8,5.100581708521847e-9,5.953411217136523e-9,6
47501,8.102657211362315e-10,8.974247982321988e-10,8.235684534983838e-10,2.8942625629524377e-9,1.15962778582977e-8,2.3068762099847522e-8,5.102347430348873e-9,5.9475621031901675e-9,6
47502,8.047528038103905e-10,8.982088158237438e-10,8.233643712883833e-10,2.897542265810195e-9,1.1605572181843831e-8,2.3092609720888914e-8,5.1041131521759e-9,5.941712989243813e-9,6
47503,7.992398864845494e-10,8.989928334152888e-10,8.231602890783828e-10,2.900821968667952e-9,1.161486650538996e-8,2.3116457341930307e-8,5.105878874002926e-9,5.935863875297458e-9,6
47504,7.937269691587084e-10,8.997768510068338e-10,8.229562068683823e-10,2.904101671525709e-9,1.1624160828936092e-8,2.31403049629717e-8,5.107644595829952e-9,5.930014761351102e-9,6
47505,7.882140518328674e-10,9.005608685983788e-10,8.227521246583818e-10,2.9073813743834663e-9,1.1633455152482221e-8,2.316415258401309e-8,5.109410317656978e-9,5.924165647404747e-9,6
47506,7.827011345070263e-10,9.013448861899238e-10,8.225480424483814e-10,2.9106610772412234e-9,1.1642749476028352e-8,2.3188000205054483e-8,5.111176039484005e-9,5.918316533458392e-9,6
47507,7.771882171811852e-10,9.021289037814688e-10,8.223439602383809e-10,2.9139407800989806e-9,1.1652043799574482e-8,2.3211847826095875e-8,5.112941761311031e-9,5.912467419512036e-9,6
47508,7.716752998553441e-10,9.029129213730137e-10,8.221398780283804e-10,2.9172204829567377e-9,1.1661338123120613e-8,2.3235695447137267e-8,5.114707483138057e-9,5.906618305565681e-9,6
47509,7.603347184832336e-10,8.99992178501241e-10,8.219357958183799e-10,2.920500185814495e-9,1.165258044111624e-8,2.3148288912828844e-8,5.130045909618651e-9,5.898103109478434e-9,6
47510,7.489941371111229e-10,8.970714356294681e-10,8.217317136083795e-10,2.923779888672252e-9,1.1643822759111868e-8,2.3060882378520422e-8,5.145384336099245e-9,5.889587913391187e-9,6
47511,7.398725241594651e-10,8.940549916490699e-10,8.21527631398379e-10,2.9253479440625015e-9,1.1652034484073832e-8,2.308505579959863e-8,5.162869055950213e-9,5.887574704374994e-9,6
47512,7.307509112078074e-10,8.910385476686716e-10,8.213235491883785e-10,2.9269159994527514e-9,1.1660246209035797e-8,2.310922922067684e-8,5.180353775801181e-9,5.885561495358803e-9,6
47513,7.216292982561495e-10,8.880221036882734e-10,8.21119466978378e-10,2.9284840548430013e-9,1.1668457933997763e-8,2.313340264175505e-8,5.1978384956521495e-9,5.88354828634261e-9,6
47514,7.125076853044918e-10,8.850056597078751e-10,8.209153847683774e-10,2.9300521102332508e-9,1.1676669658959728e-8,2.315757606283326e-8,5.215323215503118e-9,5.881535077326418e-9,6
47515,7.033860723528339e-10,8.819892157274769e-10,8.20711302558377e-10,2.9316201656235007e-9,1.1684881383921694e-8,2.318174948391147e-8,5.232807935354085e-9,5.879521868310225e-9,6
47516,6.942644594011761e-10,8.789727717470786e-10,8.205072203483765e-10,2.9331882210137506e-9,1.1693093108883658e-8,2.320592290498968e-8,5.2502926552050535e-9,5.877508659294034e-9,6
47517,6.884900614280351e-10,8.838406765333667e-10,8.290089281564837e-10,2.950077850113354e-9,1.169675456540361e-8,2.320707325818052e-8,5.261870347389793e-9,5.876338836504762e-9,6
47518,6.79211075116163e-10,8.800402149614234e-10,8.32613693489727e-10,2.9483662026458462e-9,1.1721583526951608e-8,2.3248224391367728e-8,5.258423985981912e-9,5.876338836504762e-9,6
47519,6.69932088804291e-10,8.762397533894802e-10,8.362184588229704e-10,2.946654555178339e-9,1.1746412488499604e-8,2.328937552455494e-8,5.2549776245740306e-9,5.876338836504762e-9,6
47520,6.606531024924189e-10,8.72439291817537e-10,8.398232241562137e-10,2.9449429077108317e-9,1.1771241450047603e-8,2.3330526657742147e-8,5.251531263166149e-9,5.876338836504762e-9,6
47521,6.513741161805469e-10,8.686388302455937e-10,8.434279894894571e-10,2.943231260243324e-9,1.1796070411595601e-8,2.3371677790929355e-8,5.248084901758268e-9,5.876338836504762e-9,6
47522,6.420951298686748e-10,8.648383686736505e-10,8.470327548227004e-10,2.941519612775817e-9,1.1820899373143598e-8,2.3412828924116563e-8,5.244638540350387e-9,5.876338836504762e-9,6
47523,6.328161435568028e-10,8.610379071017071e-10,8.506375201559437e-10,2.9398079653083096e-9,1.1845728334691596e-8,2.3453980057303774e-8,5.241192178942505e-9,5.876338836504762e-9,6
47524,6.235371572449308e-10,8.572374455297639e-10,8.54242285489187e-10,2.938096317840802e-9,1.1870557296239594e-8,2.349513119049098e-8,5.237745817534624e-9,5.876338836504762e-9,6
47525,6.142581709330587e-10,8.534369839578207e-10,8.578470508224304e-10,2.9363846703732947e-9,1.1895386257787591e-8,2.353628232367819e-8,5.2342994561267426e-9,5.876338836504762e-9,6
47526,6.049791846211866e-10,8.496365223858775e-10,8.614518161556738e-10,2.9346730229057874e-9,1.192021521933559e-8,2.3577433456865397e-8,5.230853094718861e-9,5.876338836504762e-9,6
47527,5.957001983093146e-10,8.458360608139342e-10,8.650565814889171e-10,2.9329613754382798e-9,1.1945044180883588e-8,2.361858459005261e-8,5.22740673331098e-9,5.876338836504762e-9,6
47528,5.864212119974426e-10,8.42035599241991e-10,8.686613468221605e-10,2.9312497279707725e-9,1.1969873142431584e-8,2.3659735723239816e-8,5.223960371903099e-9,5.876338836504762e-9,6
47529,5.771422256855705e-10,8.382351376700478e-10,8.722661121554038e-10,2.929538080503265e-9,1.1994702103979583e-8,2.3700886856427024e-8,5.220514010495218e-9,5.876338836504762e-9,6
47530,5.769848523253563e-10,8.382351376700478e-10,8.757802887914411e-10,2.9194950412736914e-9,1.1914757507970214e-8,2.374088763642339e-8,5.220514010495218e-9,5.878179728966097e-9,6
47531,5.763154093296529e-10,8.345303772067298e-10,8.793850541246845e-10,2.9194232452350625e-9,1.1940011931266967e-8,2.3770354282586527e-8,5.220665291396764e-9,5.870753021850086e-9,6
47532,5.756459663339496e-10,8.285931903545587e-10,8.810853956863059e-10,2.908446857503314e-9,1.1961945267442774e-8,2.380903175631166e-8,5.220015257378011e-9,5.851873189585677e-9,6
47533,5.749765233382462e-10,8.226560035023877e-10,8.827857372479274e-10,2.897470469771566e-9,1.1983878603618582e-8,2.3847709230036797e-8,5.219365223359257e-9,5.832993357321269e-9,6
47534,5.743070803425429e-10,8.167188166502166e-10,8.844860788095488e-10,2.8864940820398175e-9,1.2005811939794388e-8,2.3886386703761934e-8,5.218715189340504e-9,5.8141135250568606e-9,6
47535,5.736376373468395e-10,8.107816297980455e-10,8.861864203711702e-10,2.875517694308069e-9,1.2027745275970197e-8,2.3925064177487067e-8,5.21806515532175e-9,5.795233692792453e-9,6
47536,5.729681943511361e-10,8.048444429458744e-10,8.878867619327916e-10,2.864541306576321e-9,1.2049678612146003e-8,2.3963741651212203e-8,5.2174151213029965e-9,5.776353860528044e-9,6
47537,5.722987513554328e-10,7.989072560937033e-10,8.895871034944131e-10,2.8535649188445724e-9,1.207161194832181e-8,2.400241912493734e-8,5.216765087284243e-9,5.757474028263636e-9,6
47538,5.716293083597294e-10,7.929700692415323e-10,8.912874450560345e-10,2.8425885311128243e-9,1.2093545284497618e-8,2.4041096598662473e-8,5.2161150532654895e-9,5.7385941959992275e-9,6
47539,5.709598653640261e-10,7.870328823893612e-10,8.929877866176559e-10,2.831612143381076e-9,1.2115478620673424e-8,2.407977407238761e-8,5.215465019246736e-9,5.71971436373482e-9,6
47540,5.70447795728537e-10,7.831385585603308e-10,8.93259552709274e-10,2.8234128862366828e-9,1.2283681401946479e-8,2.4270671777480683e-8,5.215857401874965e-9,5.728148226004031e-9,6
47541,5.699357260930479e-10,7.792442347313002e-10,8.93531318800892e-10,2.81521362909229e-9,1.2451884183219535e-8,2.4461569482573754e-8,5.216249784503193e-9,5.736582088273243e-9,6
47542,5.694236564575588e-10,7.753499109022698e-10,8.938030848925101e-10,2.807014371947897e-9,1.262008696449259e-8,2.4652467187666828e-8,5.216642167131421e-9,5.745015950542454e-9,6
47543,5.689115868220697e-10,7.714555870732393e-10,8.940748509841281e-10,2.7988151148035044e-9,1.2788289745765645e-8,2.48433648927599e-8,5.2170345497596485e-9,5.753449812811666e-9,6
47544,5.607342140316974e-10,7.737358640164053e-10,8.955482055201606e-10,2.7983125425331027e-9,1.2951176427448926e-8,2.490305831781488e-8,5.205322126337206e-9,5.771096685016131e-9,6
47545,5.610622772704079e-10,7.737358640164053e-10,8.976338066861946e-10,2.80066271604188e-9,1.3097445872546173e-8,2.504146630885745e-8,5.205714508965435e-9,5.800097152003593e-9,6
47546,5.602354609144903e-10,7.749947094480009e-10,9.00014078759435e-10,2.803012889550657e-9,1.3238314125703896e-8,2.5155415291032916e-8,5.203310564204535e-9,5.82357494160705e-9,6
47547,5.590805813198621e-10,7.749468588936882e-10,9.00014078759435e-10,2.8199666763825e-9,1.3370639600001297e-8,2.518757286403987e-8,5.205456857574909e-9,5.8243455416445145e-9,6
47548,5.57925701725234e-10,7.748990083393755e-10,9.00014078759435e-10,2.8369204632143425e-9,1.35029650742987e-8,2.5219730437046823e-8,5.207603150945283e-9,5.825116141681978e-9,6
47549,5.567708221306058e-10,7.748511577850628e-10,9.00014078759435e-10,2.853874250046185e-9,1.3635290548596103e-8,2.5251888010053776e-8,5.209749444315658e-9,5.825886741719442e-9,6
47550,5.556159425359776e-10,7.748033072307501e-10,9.00014078759435e-10,2.8708280368780277e-9,1.3767616022893504e-8,2.528404558306073e-8,5.211895737686032e-9,5.826657341756906e-9,6
47551,5.544610629413493e-10,7.747554566764374e-10,9.00014078759435e-10,2.8877818237098707e-9,1.3899941497190906e-8,2.5316203156067682e-8,5.2140420310564065e-9,5.8274279417943706e-9,6
47552,5.533061833467211e-10,7.747076061221247e-10,9.00014078759435e-10,2.9047356105417133e-9,1.4032266971488309e-8,2.534836072907463e-8,5.216188324426781e-9,5.828198541831834e-9,6
47553,5.529914366262926e-10,7.74659755567812e-10,9.00920996296643e-10,2.904308653463135e-9,1.4004932443372976e-8,2.527095346528774e-8,5.238509294548272e-9,5.823501054127386e-9,6
47554,5.529914366262926e-10,7.826876559974364e-10,9.050921986287108e-10,2.9066588269719126e-9,1.3996245567256403e-8,2.5362096646957584e-8,5.2352591244545055e-9,5.8293319715263774e-9,6
47555,5.529914366262926e-10,7.907155564270609e-10,9.092634009607787e-10,2.9090090004806897e-9,1.3987558691139831e-8,2.5453239828627427e-8,5.232008954360738e-9,5.835162888925368e-9,6
47556,5.529914366262926e-10,7.987434568566853e-10,9.134346032928466e-10,2.911359173989467e-9,1.397887181502326e-8,2.554438301029727e-8,5.228758784266971e-9,5.840993806324359e-9,6
47557,5.529914366262926e-10,8.067713572863097e-10,9.176058056249145e-10,2.9137093474982444e-9,1.3970184938906688e-8,2.5635526191967113e-8,5.2255086141732034e-9,5.84682472372335e-9,6
47558,5.529914366262926e-10,8.147992577159341e-10,9.217770079569824e-10,2.9160595210070216e-9,1.3961498062790116e-8,2.5726669373636956e-8,5.222258444079436e-9,5.852655641122341e-9,6
47559,5.671671633414309e-10,8.147992577159341e-10,9.259482102890503e-10,2.9160595210070216e-9,1.3932253614555707e-8,2.5704503069116272e-8,5.320373338352545e-9,5.8476499134029065e-9,6
47560,5.826018769382831e-10,8.147992577159341e-10,9.270363052206703e-10,2.9184096945157987e-9,1.3901597999319427e-8,2.562525363981698e-8,5.3670268407282e-9,5.841973116011408e-9,6
47561,5.980365905351352e-10,8.147992577159341e-10,9.281244001522903e-10,2.9207598680245763e-9,1.3870942384083148e-8,2.554600421051769e-8,5.413680343103854e-9,5.83629631861991e-9,6
47562,6.134713041319875e-10,8.147992577159341e-10,9.292124950839102e-10,2.9231100415333534e-9,1.3840286768846868e-8,2.54667547812184e-8,5.4603338454795095e-9,5.830619521228412e-9,6
47563,6.289060177288397e-10,8.147992577159341e-10,9.303005900155302e-10,2.9254602150421306e-9,1.380963115361059e-8,2.538750535191911e-8,5.506987347855164e-9,5.824942723836914e-9,6
47564,6.443407313256919e-10,8.147992577159341e-10,9.313886849471503e-10,2.927810388550908e-9,1.377897553837431e-8,2.530825592261982e-8,5.553640850230819e-9,5.819265926445416e-9,6
47565,6.597754449225441e-10,8.147992577159341e-10,9.324767798787703e-10,2.9301605620596853e-9,1.3748319923138031e-8,2.5229006493320527e-8,5.6002943526064735e-9,5.813589129053918e-9,6
47566,6.752101585193963e-10,8.147992577159341e-10,9.335648748103903e-10,2.9325107355684624e-9,1.3717664307901752e-8,2.5149757064021237e-8,5.646947854982129e-9,5.80791233166242e-9,6
47567,6.906448721162485e-10,8.147992577159341e-10,9.3465296974201e-10,2.93486090907724e-9,1.3687008692665472e-8,2.5070507634721947e-8,5.693601357357783e-9,5.802235534270922e-9,6
47568,7.060795857131007e-10,8.147992577159341e-10,9.357410646736301e-10,2.937211082586017e-9,1.3656353077429193e-8,2.4991258205422657e-8,5.740254859733437e-9,5.796558736879424e-9,6
47569,7.21514299309953e-10,8.147992577159341e-10,9.368291596052501e-10,2.9395612560947943e-9,1.3625697462192915e-8,2.4912008776123367e-8,5.7869083621090926e-9,5.790881939487925e-9,6
47570,7.369490129068052e-10,8.147992577159341e-10,9.379172545368701e-10,2.941911429603572e-9,1.3595041846956635e-8,2.4832759346824076e-8,5.833561864484747e-9,5.785205142096427e-9,6
47571,7.523837265036574e-10,8.147992577159341e-10,9.390053494684901e-10,2.944261603112349e-9,1.3564386231720355e-8,2.4753509917524786e-8,5.880215366860402e-9,5.779528344704929e-9,6
47572,7.678184401005096e-10,8.147992577159341e-10,9.400934444001102e-10,2.946611776621126e-9,1.3533730616484076e-8,2.4674260488225496e-8,5.9268688692360565e-9,5.773851547313431e-9,6
47573,7.832531536973618e-10,8.158206892275045e-10,9.400934444001102e-10,2.948746562014017e-9,1.3521687250302658e-8,2.461947006779331e-8,5.922481723091209e-9,5.773697427305938e-9,6
47574,7.98687867294214e-10,8.168421207390748e-10,9.400934444001102e-10,2.950881347406908e-9,1.3509643884121238e-8,2.4564679647361122e-8,5.918094576946361e-9,5.7735433072984454e-9,6
47575,8.036088158748732e-10,8.116889514784486e-10,9.292791484003801e-10,2.9198792197950568e-9,1.3501006697410518e-8,2.456116826941671e-8,5.958779591579376e-9,5.7542096626401374e-9,6
47576,8.004456072931349e-10,8.095522261982208e-10,9.176714283762366e-10,2.8888770921832056e-9,1.3544688898600678e-8,2.4594311244569383e-8,5.949560933742969e-9,5.758870757249857e-9,6
47577,7.972823987113967e-10,8.07415500917993e-10,9.06063708352093e-10,2.8578749645713545e-9,1.358837109979084e-8,2.4627454219722052e-8,5.940342275906561e-9,5.763531851859577e-9,6
47578,7.941191901296584e-10,8.052787756377651e-10,8.944559883279495e-10,2.8268728369595033e-9,1.3632053300981001e-8,2.4660597194874722e-8,5.931123618070154e-9,5.768192946469297e-9,6
47579,8.01941866644756e-10,8.013126759772656e-10,8.827576796066e-10,2.7984400901255105e-9,1.3757788775923013e-8,2.468261475449241e-8,5.934463608989056e-9,5.772854041079016e-9,6
47580,8.097645431598535e-10,7.973465763167662e-10,8.710593708852504e-10,2.7700073432915177e-9,1.3883524250865023e-8,2.47046323141101e-8,5.937803599907959e-9,5.777515135688736e-9,6
47581,8.175872196749509e-10,7.933804766562666e-10,8.59361062163901e-10,2.741574596457525e-9,1.4009259725807033e-8,2.4726649873727787e-8,5.941143590826861e-9,5.782176230298456e-9,6
47582,8.254098961900484e-10,7.894143769957671e-10,8.476627534425514e-10,2.7131418496235325e-9,1.4134995200749044e-8,2.4748667433345476e-8,5.944483581745764e-9,5.786837324908176e-9,6
47583,8.332325727051458e-10,7.854482773352676e-10,8.359644447212018e-10,2.6847091027895397e-9,1.4260730675691054e-8,2.4770684992963164e-8,5.947823572664666e-9,5.791498419517896e-9,6
47584,8.410552492202433e-10,7.814821776747681e-10,8.242661359998523e-10,2.656276355955547e-9,1.4386466150633064e-8,2.4792702552580853e-8,5.951163563583569e-9,5.796159514127616e-9,6
47585,8.488779257353408e-10,7.775160780142686e-10,8.125678272785028e-10,2.627843609121554e-9,1.4512201625575075e-8,2.481472011219854e-8,5.954503554502471e-9,5.800820608737336e-9,6
47586,8.567006022504383e-10,7.73549978353769e-10,8.008695185571533e-10,2.5994108622875613e-9,1.4637937100517085e-8,2.483673767181623e-8,5.957843545421373e-9,5.805481703347056e-9,6
47587,8.645232787655358e-10,7.695838786932696e-10,7.891712098358037e-10,2.5709781154535685e-9,1.4763672575459097e-8,2.485875523143392e-8,5.961183536340275e-9,5.810142797956776e-9,6
47588,8.836865366527438e-10,7.717923798049665e-10,7.882871971141842e-10,2.5749719595444194e-9,1.4785946281033909e-8,2.48433059888892e-8,5.965700675143862e-9,5.814803892566496e-9,6
47589,9.02849794539952e-10,7.740008809166634e-10,7.874031843925647e-10,2.57896580363527e-9,1.480821998660872e-8,2.482785674634448e-8,5.970217813947449e-9,5.819464987176216e-9,6
47590,9.211862360712424e-10,7.721715065363916e-10,7.834360642704973e-10,2.546271124321885e-9,1.477961155872777e-8,2.484694210563081e-8,5.983123934918419e-9,5.843632042999101e-9,6
47591,9.395226776025328e-10,7.7034213215612e-10,7.794689441484299e-10,2.5135764450085e-9,1.475100313084682e-8,2.4866027464917142e-8,5.9960300558893895e-9,5.867799098821986e-9,6
47592,9.578591191338235e-10,7.685127577758484e-10,7.755018240263625e-10,2.480881765695115e-9,1.472239470296587e-8,2.4885112824203474e-8,6.008936176860359e-9,5.891966154644871e-9,6
47593,9.761955606651139e-10,7.666833833955767e-10,7.71534703904295e-10,2.44818708638173e-9,1.469378627508492e-8,2.4904198183489805e-8,6.0218422978313296e-9,5.9161332104677565e-9,6
47594,9.945320021964043e-10,7.64854009015305e-10,7.675675837822277e-10,2.415492407068345e-9,1.466517784720397e-8,2.4923283542776137e-8,6.0347484188023e-9,5.940300266290641e-9,6
47595,1.012868443727695e-9,7.630246346350333e-10,7.636004636601603e-10,2.38279772775496e-9,1.4636569419323021e-8,2.494236890206247e-8,6.04765453977327e-9,5.964467322113526e-9,6
47596,1.0312048852589854e-9,7.611952602547617e-10,7.596333435380929e-10,2.3501030484415753e-9,1.460796099144207e-8,2.49614542613488e-8,6.06056066074424e-9,5.988634377936411e-9,6
47597,1.0495413267902758e-9,7.5936588587449e-10,7.556662234160254e-10,2.3174083691281902e-9,1.457935256356112e-8,2.498053962063513e-8,6.0734667817152105e-9,6.0128014337592965e-9,6
47598,1.0678777683215664e-9,7.575365114942184e-10,7.51699103293958e-10,2.284713689814805e-9,1.4550744135680171e-8,2.4999624979921463e-8,6.086372902686181e-9,6.036968489582182e-9,6
47599,1.079493146859259e-9,7.537360499222751e-10,7.478225718690967e-10,2.247314844330671e-9,1.4386436971494371e-8,2.5042956182746588e-8,6.11762651850483e-9,6.037811875809103e-9,6
47600,1.0911085253969517e-9,7.499355883503318e-10,7.439460404442352e-10,2.209915998846537e-9,1.422212980730857e-8,2.508628738557171e-8,6.14888013432348e-9,6.0386552620360235e-9,6
47601,1.1027239039346445e-9,7.461351267783885e-10,7.400695090193739e-10,2.1725171533624025e-9,1.405782264312277e-8,2.512961858839683e-8,6.18013375014213e-9,6.039498648262945e-9,6
47602,1.1143392824723372e-9,7.423346652064453e-10,7.361929775945124e-10,2.135118307878268e-9,1.389351547893697e-8,2.5172949791221953e-8,6.2113873659607795e-9,6.040342034489866e-9,6
47603,1.1259546610100298e-9,7.385342036345021e-10,7.323164461696511e-10,2.0977194623941342e-9,1.372920831475117e-8,2.5216280994047078e-8,6.2426409817794285e-9,6.041185420716787e-9,6
47604,1.1375700395477227e-9,7.347337420625588e-10,7.284399147447897e-10,2.06032061691e-9,1.356490115056537e-8,2.52596121968722e-8,6.273894597598078e-9,6.042028806943709e-9,6
47605,1.1491854180854153e-9,7.309332804906156e-10,7.245633833199283e-10,2.0229217714258655e-9,1.3400593986379571e-8,2.530294339969732e-8,6.305148213416728e-9,6.0428721931706295e-9,6
47606,1.1608007966231082e-9,7.271328189186724e-10,7.206868518950669e-10,1.985522925941731e-9,1.3236286822193771e-8,2.5346274602522443e-8,6.336401829235378e-9,6.04371557939755e-9,6
47607,1.1724161751608008e-9,7.23332357346729e-10,7.168103204702055e-10,1.9481240804575972e-9,1.307197965800797e-8,2.5389605805347568e-8,6.367655445054027e-9,6.044558965624472e-9,6
47608,1.1840315536984934e-9,7.195318957747858e-10,7.129337890453441e-10,1.910725234973463e-9,1.290767249382217e-8,2.543293700817269e-8,6.398909060872677e-9,6.045402351851393e-9,6
47609,1.1956469322361863e-9,7.157314342028426e-10,7.090572576204827e-10,1.8733263894893285e-9,1.274336532963637e-8,2.5476268210997812e-8,6.430162676691327e-9,6.046245738078315e-9,6
47610,1.207262310773879e-9,7.119309726308993e-10,7.051807261956213e-10,1.8359275440051943e-9,1.257905816545057e-8,2.5519599413822937e-8,6.461416292509977e-9,6.0470891243052355e-9,6
47611,1.2163572906889724e-9,7.119309726308993e-10,6.994674548807556e-10,1.8286578162097813e-9,1.2572002330441222e-8,2.553455400530388e-8,6.473353267995256e-9,5.997975864993423e-9,6
47612,1.2279726692266653e-9,7.11907047353743e-10,6.973818537147216e-10,1.8279474941298827e-9,1.2550324271314667e-8,2.5572817252461086e-8,6.434204684547466e-9,5.961984306736484e-9,6
47613,1.2276579225062368e-9,7.118831220765866e-10,6.991727839735491e-10,1.8270217839340975e-9,1.2595115158532245e-8,2.5596125908137348e-8,6.3789778197751934e-9,5.925149362252624e-9,6
47614,1.2276579225062368e-9,7.11621782879405e-10,6.969965941103091e-10,1.8260960737383123e-9,1.2573850760173147e-8,2.5592960436353715e-8,6.312958028074638e-9,5.9361133832025996e-9,6
47615,1.2276579225062368e-9,7.113604436822234e-10,6.948204042470691e-10,1.825170363542527e-9,1.255258636181405e-8,2.5589794964570085e-8,6.246938236374083e-9,5.947077404152574e-9,6
47616,1.2276579225062368e-9,7.110991044850416e-10,6.926442143838292e-10,1.824244653346742e-9,1.2531321963454952e-8,2.5586629492786454e-8,6.1809184446735265e-9,5.9580414251025496e-9,6
47617,1.2276579225062368e-9,7.1083776528786e-10,6.904680245205892e-10,1.8233189431509569e-9,1.2510057565095854e-8,2.558346402100282e-8,6.114898652972971e-9,5.969005446052524e-9,6
47618,1.2276579225062368e-9,7.105764260906783e-10,6.882918346573492e-10,1.8223932329551717e-9,1.2488793166736757e-8,2.558029854921919e-8,6.048878861272415e-9,5.979969467002499e-9,6
47619,1.2276579225062368e-9,7.103150868934967e-10,6.861156447941093e-10,1.8214675227593865e-9,1.2467528768377658e-8,2.5577133077435558e-8,5.9828590695718595e-9,5.990933487952474e-9,6
47620,1.226673732790105e-9,7.103150868934967e-10,6.846422902580768e-10,1.833577370496417e-9,1.2492428535813458e-8,2.5677028545798118e-8,5.986194321911797e-9,5.970675123249209e-9,6
47621,1.225689543073973e-9,7.103150868934967e-10,6.831689357220442e-10,1.8456872182334475e-9,1.2517328303249256e-8,2.577692401416068e-8,5.989529574251736e-9,5.9504167585459445e-9,6
47622,1.2247053533578412e-9,7.103150868934967e-10,6.816955811860118e-10,1.857797065970478e-9,1.2542228070685054e-8,2.5876819482523236e-8,5.992864826591675e-9,5.930158393842679e-9,6
47623,1.2237211636417094e-9,7.103150868934967e-10,6.802222266499793e-10,1.8699069137075086e-9,1.2567127838120852e-8,2.5976714950885797e-8,5.9962000789316135e-9,5.909900029139414e-9,6
47624,1.2227369739255775e-9,7.103150868934967e-10,6.787488721139468e-10,1.882016761444539e-9,1.259202760555665e-8,2.6076610419248355e-8,5.999535331271552e-9,5.88964166443615e-9,6
47625,1.2227369739255775e-9,7.10339012170653e-10,6.785676947195347e-10,1.8907789294383782e-9,1.2577393580458145e-8,2.6171618887058654e-8,6.066547890627558e-9,5.902536459294074e-9,6
47626,1.2227369739255775e-9,7.103629374478094e-10,6.783865173251228e-10,1.8995410974322173e-9,1.256275955535964e-8,2.626662735486895e-8,6.133560449983564e-9,5.915431254151999e-9,6
47627,1.2227369739255775e-9,7.103868627249657e-10,6.782053399307107e-10,1.908303265426057e-9,1.2548125530261135e-8,2.636163582267925e-8,6.20057300933957e-9,5.928326049009923e-9,6
47628,1.2227369739255775e-9,7.104107880021221e-10,6.780241625362986e-10,1.917065433419896e-9,1.2533491505162631e-8,2.6456644290489545e-8,6.267585568695576e-9,5.941220843867847e-9,6
47629,1.2227369739255775e-9,7.104347132792784e-10,6.778429851418867e-10,1.9258276014137354e-9,1.2518857480064125e-8,2.6551652758299844e-8,6.334598128051582e-9,5.954115638725772e-9,6
47630,1.2227369739255775e-9,7.104586385564348e-10,6.776618077474746e-10,1.9345897694075745e-9,1.2504223454965621e-8,2.664666122611014e-8,6.401610687407587e-9,5.9670104335836964e-9,6
47631,1.2192323855868465e-9,7.104825638335911e-10,6.78364643074682e-10,1.94762532734039e-9,1.2504223454965621e-8,2.6676067553901392e-8,6.474154441465438e-9,5.983587013364291e-9,6
47632,1.2157277972481155e-9,7.105064891107475e-10,6.790674784018895e-10,1.9606608852732056e-9,1.2504223454965621e-8,2.670547388169264e-8,6.546698195523288e-9,6.0001635931448854e-9,6
47633,1.2122232089093845e-9,7.105304143879038e-10,6.79770313729097e-10,1.9736964432060215e-9,1.2504223454965621e-8,2.6734880209483893e-8,6.619241949581139e-9,6.01674017292548e-9,6
47634,1.2087186205706535e-9,7.105543396650602e-10,6.804731490563045e-10,1.986732001138837e-9,1.2504223454965621e-8,2.6764286537275142e-08,6.691785703638988e-9,6.033316752706075e-9,6
47635,1.2052140322319225e-9,7.105782649422165e-10,6.811759843835119e-10,1.9997675590716526e-9,1.2504223454965621e-8,2.6793692865066394e-8,6.764329457696839e-9,6.04989333248667e-9,6
47636,1.2017094438931915e-9,7.106021902193729e-10,6.818788197107194e-10,2.0128031170044686e-9,1.2504223454965621e-8,2.6823099192857643e-8,6.836873211754689e-9,6.066469912267264e-9,6
47637,1.1982048555544605e-9,7.106261154965292e-10,6.825816550379268e-10,2.025838674937284e-9,1.2504223454965621e-8,2.6852505520648895e-8,6.909416965812539e-9,6.083046492047859e-9,6
47638,1.1947002672157295e-9,7.106500407736856e-10,6.832844903651344e-10,2.0388742328700996e-9,1.2504223454965621e-8,2.6881911848440144e-8,6.9819607198703895e-9,6.099623071828454e-9,6
47639,1.1911956788769985e-9,7.106739660508419e-10,6.839873256923418e-10,2.051909790802915e-9,1.2504223454965621e-8,2.6911318176231393e-8,7.05450447392824e-9,6.116199651609049e-9,6
47640,1.1876910905382675e-9,7.106978913279983e-10,6.846901610195492e-10,2.064945348735731e-9,1.2504223454965621e-8,2.6940724504022645e-8,7.1270482279860905e-9,6.132776231389643e-9,6
47641,1.1841865021995365e-9,7.107218166051547e-10,6.853929963467567e-10,2.0779809066685466e-9,1.2504223454965621e-8,2.6970130831813894e-8,7.19959198204394e-9,6.149352811170238e-9,6
47642,1.1806819138608055e-9,7.10745741882311e-10,6.860958316739641e-10,2.091016464601362e-9,1.2504223454965621e-8,2.6999537159605146e-8,7.272135736101791e-9,6.165929390950833e-9,6
47643,1.1771773255220745e-9,7.107696671594674e-10,6.867986670011717e-10,2.1040520225341777e-9,1.2504223454965621e-8,2.7028943487396395e-8,7.344679490159641e-9,6.182505970731428e-9,6
47644,1.1736727371833435e-9,7.107935924366237e-10,6.875015023283791e-10,2.1170875804669937e-9,1.2504223454965621e-8,2.7058349815187647e-8,7.417223244217491e-9,6.199082550512022e-9,6
47645,1.1701681488446125e-9,7.108175177137801e-10,6.882043376555866e-10,2.130123138399809e-9,1.2504223454965621e-8,2.7087756142978896e-8,7.489766998275341e-9,6.215659130292617e-9,6
47646,1.1666635605058815e-9,7.108414429909364e-10,6.88907172982794e-10,2.1431586963326247e-9,1.2504223454965621e-8,2.7117162470770148e-8,7.562310752333191e-9,6.232235710073212e-9,6
47647,1.1665061871456672e-9,7.111027821881181e-10,6.877055845383796e-10,2.1533415084862614e-9,1.2543745446518624e-8,2.7224446707306266e-8,7.629323311689197e-9,6.239372373721602e-9,6
47648,1.166348813785453e-9,7.113641213852997e-10,6.865039960939651e-10,2.163524320639898e-9,1.2583267438071626e-8,2.7331730943842387e-8,7.696335871045204e-9,6.246509037369993e-9,6
47649,1.1665195036639494e-9,7.113880466624561e-10,6.872068314211726e-10,2.1752751881837846e-9,1.2615199438554174e-8,2.7417609008586534e-8,7.765690915085699e-9,6.228100112756641e-9,6
47650,1.1906702927232273e-9,7.150928071257739e-10,6.8790966674838e-10,2.1735635407162773e-9,1.2623848426246195e-8,2.7403591604968117e-8,7.785265206809592e-9,6.222441511912508e-9,6
47651,1.1931507417909802e-9,7.148553932057486e-10,6.880002554455861e-10,2.173204560523133e-9,1.2623848426246195e-8,2.7519696448604104e-8,7.78283290129997e-9,6.187456007518562e-9,6
47652,1.1956311908587329e-9,7.146179792857233e-10,6.880908441427921e-10,2.172845580329989e-9,1.2623848426246195e-8,2.763580129224009e-8,7.780400595790347e-9,6.152470503124616e-9,6
47653,1.1981116399264857e-9,7.14380565365698e-10,6.881814328399981e-10,2.172486600136845e-9,1.2623848426246195e-8,2.7751906135876078e-8,7.777968290280722e-9,6.11748499873067e-9,6
47654,1.2005920889942384e-9,7.141431514456726e-10,6.882720215372042e-10,2.172127619943701e-9,1.2623848426246195e-8,2.7868010979512068e-8,7.7755359847711e-9,6.082499494336724e-9,6
47655,1.2030725380619913e-9,7.139057375256473e-10,6.883626102344102e-10,2.1717686397505566e-9,1.2623848426246195e-8,2.7984115823148055e-8,7.773103679261475e-9,6.047513989942779e-9,6
47656,1.2030725380619913e-9,7.13668323605622e-10,6.884531989316161e-10,2.1700569922830494e-9,1.266284806271939e-8,2.7962709651356078e-8,7.780254053467763e-9,6.0162102704715025e-9,6
47657,1.2030725380619913e-9,7.134309096855967e-10,6.885437876288222e-10,2.168345344815542e-9,1.2701847699192587e-8,2.79413034795641e-8,7.78740442767405e-9,5.984906551000227e-9,6
47658,1.2042274176566194e-9,7.134548349627531e-10,6.886343763260282e-10,2.1666336973480345e-9,1.2721140687045457e-8,2.7946616810772988e-8,7.783823335028467e-9,5.954219311558923e-9,6
47659,1.2053822972512477e-9,7.134787602399094e-10,6.887249650232342e-10,2.1649220498805272e-9,1.2740433674898327e-8,2.7951930141981875e-8,7.780242242382884e-9,5.923532072117619e-9,6
47660,1.2065371768458759e-9,7.135026855170658e-10,6.888155537204403e-10,2.16321040241302e-9,1.2759726662751197e-8,2.7957243473190762e-8,7.776661149737298e-9,5.892844832676314e-9,6
47661,1.2076920564405042e-9,7.135266107942221e-10,6.889061424176463e-10,2.1614987549455123e-9,1.2779019650604067e-8,2.796255680439965e-8,7.773080057091715e-9,5.86215759323501e-9,6
47662,1.2088469360351323e-9,7.135505360713785e-10,6.889967311148523e-10,2.159787107478005e-9,1.2798312638456937e-8,2.7967870135608537e-8,7.769498964446131e-9,5.8314703537937055e-9,6
47663,1.2098311257512641e-9,7.138118752685601e-10,6.890873198120583e-10,2.159787107478005e-9,1.2828918564287366e-8,2.7998559557423095e-8,7.757394158395462e-9,5.83461699250444e-9,6
47664,1.210815315467396e-9,7.140732144657418e-10,6.891779085092643e-10,2.159787107478005e-9,1.2859524490117794e-8,2.8029248979237653e-8,7.74528935234479e-9,5.837763631215175e-9,6
47665,1.2117995051835279e-9,7.143345536629234e-10,6.892684972064703e-10,2.159787107478005e-9,1.2890130415948223e-8,2.805993840105221e-8,7.73318454629412e-9,5.8409102699259094e-9,6
47666,1.2127836948996597e-9,7.145958928601052e-10,6.893590859036764e-10,2.159787107478005e-9,1.292073634177865e-8,2.809062782286677e-8,7.721079740243451e-9,5.844056908636644e-9,6
47667,1.2137678846157916e-9,7.148572320572868e-10,6.894496746008824e-10,2.159787107478005e-9,1.2951342267609079e-8,2.8121317244681328e-8,7.70897493419278e-9,5.847203547347379e-9,6
47668,1.2147520743319232e-9,7.151185712544685e-10,6.895402632980884e-10,2.159787107478005e-9,1.2981948193439507e-8,2.8152006666495886e-8,7.69687012814211e-9,5.850350186058113e-9,6
47669,1.2157362640480551e-9,7.153799104516501e-10,6.896308519952944e-10,2.159787107478005e-9,1.3012554119269936e-8,2.8182696088310445e-8,7.68476532209144e-9,5.853496824768848e-9,6
47670,1.2728556000569511e-9,7.176601873948161e-10,6.89426769785294e-10,2.1707634952097536e-9,1.3016277066177038e-8,2.822352142146084e-8,7.672010482022016e-9,5.9023018440656755e-9,6
47671,1.3299749360658471e-9,7.19940464337982e-10,6.892226875752934e-10,2.1817398829415017e-9,1.302000001308414e-8,2.826434675461123e-8,7.659255641952592e-9,5.951106863362503e-9,6
47672,1.3870942720747431e-9,7.22220741281148e-10,6.890186053652929e-10,2.19271627067325e-9,1.3023722959991243e-8,2.830517208776162e-8,7.646500801883168e-9,5.99991188265933e-9,6
47673,1.4442136080836391e-9,7.245010182243139e-10,6.888145231552924e-10,2.2036926584049982e-9,1.3027445906898345e-8,2.834599742091201e-8,7.633745961813744e-9,6.048716901956157e-9,6
47674,1.5013329440925353e-9,7.267812951674799e-10,6.886104409452919e-10,2.2146690461367467e-9,1.3031168853805447e-8,2.8386822754062403e-8,7.620991121744321e-9,6.097521921252985e-9,6
47675,1.5586229699799276e-9,7.288002329134641e-10,6.862301688720515e-10,2.2255736378298663e-9,1.303781102804734e-8,2.8378026153068332e-8,7.589888786827218e-9,6.1466351805647975e-9,6
47676,1.61591299586732e-9,7.308191706594484e-10,6.838498967988111e-10,2.236478229522986e-9,1.3044453202289234e-8,2.836922955207426e-8,7.558786451910115e-9,6.19574843987661e-9,6
47677,1.6732030217547123e-9,7.328381084054327e-10,6.814696247255706e-10,2.247382821216105e-9,1.3051095376531125e-8,2.836043295108019e-8,7.527684116993011e-9,6.244861699188423e-9,6
47678,1.7304930476421047e-9,7.34857046151417e-10,6.790893526523302e-10,2.2582874129092247e-9,1.3057737550773019e-8,2.835163635008612e-8,7.496581782075908e-9,6.293974958500236e-9,6
47679,1.7877830735294972e-9,7.368759838974013e-10,6.767090805790898e-10,2.2691920046023443e-9,1.3064379725014912e-8,2.8342839749092046e-8,7.465479447158804e-9,6.343088217812048e-9,6
47680,1.8450730994168894e-9,7.388949216433856e-10,6.743288085058493e-10,2.280096596295464e-9,1.3071021899256805e-8,2.8334043148097975e-8,7.4343771122417015e-9,6.392201477123861e-9,6
47681,1.902363125304282e-9,7.409138593893698e-10,6.719485364326088e-10,2.2910011879885835e-9,1.3077664073498698e-8,2.8325246547103904e-8,7.403274777324599e-9,6.4413147364356746e-9,6
47682,1.959653151191674e-9,7.429327971353541e-10,6.695682643593684e-10,2.3019057796817027e-9,1.3084306247740592e-8,2.8316449946109833e-8,7.3721724424074954e-9,6.490427995747487e-9,6
47683,2.016943177079067e-9,7.449517348813384e-10,6.67187992286128e-10,2.3128103713748224e-9,1.3090948421982485e-8,2.8307653345115762e-8,7.341070107490392e-9,6.5395412550593e-9,6
47684,2.071752753898706e-9,7.469706726273226e-10,6.6698391007612745e-10,2.30518548253946e-9,1.2786768025392725e-8,2.8126658279906247e-8,7.278950519902357e-9,6.524424541535597e-9,6
47685,2.126562330718346e-9,7.48989610373307e-10,6.667798278661269e-10,2.297560593704098e-9,1.2482587628802966e-8,2.7945663214696732e-8,7.216830932314322e-9,6.509307828011895e-9,6
47686,2.1268770774387744e-9,7.48989610373307e-10,6.626992142312651e-10,2.2941411179222775e-9,1.2503899231087264e-8,2.782697207689017e-8,7.2196721701160176e-9,6.61894253106061e-9,6
47687,2.127191824159203e-9,7.48989610373307e-10,6.586186005964032e-10,2.2907216421404576e-9,1.2525210833371564e-8,2.7708280939083603e-8,7.222513407917713e-9,6.728577234109325e-9,6
47688,2.1275065708796314e-9,7.48989610373307e-10,6.545379869615414e-10,2.2873021663586373e-9,1.2546522435655862e-8,2.7589589801277037e-8,7.225354645719409e-9,6.8382119371580395e-9,6
47689,2.12782131760006e-9,7.48989610373307e-10,6.504573733266795e-10,2.2838826905768174e-9,1.256783403794016e-8,2.747089866347047e-8,7.228195883521104e-9,6.947846640206754e-9,6
47690,2.1281360643204883e-9,7.48989610373307e-10,6.463767596918177e-10,2.2804632147949975e-9,1.2589145640224458e-8,2.7352207525663908e-8,7.231037121322799e-9,7.057481343255469e-9,6
47691,2.1284508110409168e-9,7.48989610373307e-10,6.422961460569557e-10,2.277043739013177e-9,1.2610457242508756e-8,2.723351638785734e-8,7.233878359124495e-9,7.167116046304184e-9,6
47692,2.1287655577613452e-9,7.48989610373307e-10,6.382155324220939e-10,2.2736242632313573e-9,1.2631768844793054e-8,2.7114825250050775e-8,7.23671959692619e-9,7.276750749352899e-9,6
47693,2.1290803044817737e-9,7.48989610373307e-10,6.34134918787232e-10,2.270204787449537e-9,1.2653080447077352e-8,2.699613411224421e-8,7.2395608347278856e-9,7.386385452401613e-9,6
47694,2.134868018973197e-9,7.451891488013637e-10,6.276740330791297e-10,2.257384617632608e-9,1.2653080447077352e-8,2.6968594158142753e-8,7.245742063448483e-9,7.455811666058785e-9,6
47695,2.134868018973197e-9,7.413886872294205e-10,6.250219949142712e-10,2.272143280492515e-9,1.2860514539910256e-8,2.689072835348658e-8,7.239017171198111e-9,7.498006620290577e-9,6
47696,2.134868018973197e-9,7.375882256574773e-10,6.223699567494127e-10,2.2869019433524224e-9,1.306794863274316e-8,2.6812862548830405e-8,7.2322922789477385e-9,7.540201574522372e-9,6
47697,2.134868018973197e-9,7.33787764085534e-10,6.197179185845542e-10,2.3016606062123293e-9,1.3275382725576065e-8,2.6734996744174232e-8,7.2255673866973665e-9,7.582396528754165e-9,6
47698,2.134868018973197e-9,7.299873025135907e-10,6.170658804196957e-10,2.3164192690722367e-9,1.348281681840897e-8,2.6657130939518056e-8,7.218842494446994e-9,7.624591482985958e-9,6
47699,2.134868018973197e-9,7.261868409416475e-10,6.144138422548372e-10,2.331177931932144e-9,1.3690250911241874e-8,2.6579265134861884e-8,7.212117602196622e-9,7.666786437217752e-9,6
47700,2.134868018973197e-9,7.223863793697042e-10,6.117618040899787e-10,2.345936594792051e-9,1.3897685004074778e-8,2.6501399330205708e-8,7.205392709946249e-9,7.708981391449545e-9,6
47701,2.134868018973197e-9,7.18585917797761e-10,6.091097659251202e-10,2.3606952576519584e-9,1.4105119096907682e-8,2.6423533525549535e-8,7.198667817695877e-9,7.751176345681338e-9,6
47702,2.134868018973197e-9,7.147854562258178e-10,6.064577277602617e-10,2.3754539205118653e-9,1.4312553189740587e-8,2.634566772089336e-8,7.191942925445504e-9,7.793371299913133e-9,6
47703,2.134868018973197e-9,7.109849946538745e-10,6.038056895954033e-10,2.3902125833717727e-9,1.4519987282573491e-8,2.6267801916237187e-8,7.185218033195132e-9,7.835566254144926e-9,6
47704,2.134868018973197e-9,7.071845330819312e-10,6.011536514305447e-10,2.4049712462316797e-9,1.4727421375406396e-8,2.618993611158101e-8,7.178493140944759e-9,7.877761208376719e-9,6
47705,2.134868018973197e-9,7.03384071509988e-10,5.985016132656862e-10,2.419729909091587e-9,1.4934855468239298e-8,2.611207030692484e-8,7.1717682486943874e-9,7.919956162608513e-9,6
47706,2.134868018973197e-9,6.995836099380447e-10,5.958495751008278e-10,2.4344885719514944e-9,1.5142289561072203e-8,2.6034204502268663e-8,7.165043356444015e-9,7.962151116840306e-9,6
47707,2.1345532722527682e-9,6.9982102385807e-10,5.993637517368651e-10,2.4626379537841663e-9,1.5355027952513583e-8,2.60322174918351e-8,7.161445714134587e-9,8.001761322749243e-9,6
47708,2.1342385255323397e-9,7.000584377780954e-10,6.028779283729024e-10,2.4907873356168386e-9,1.5567766343954962e-8,2.6030230481401537e-8,7.1578480718251595e-9,8.04137152865818e-9,6
47709,2.1339237788119113e-9,7.002958516981207e-10,6.063921050089397e-10,2.518936717449511e-9,1.578050473539634e-8,2.6028243470967975e-8,7.154250429515732e-9,8.080981734567117e-9,6
47710,2.133609032091483e-9,7.00533265618146e-10,6.099062816449771e-10,2.547086099282183e-9,1.599324312683772e-8,2.602625646053441e-8,7.1506527872063035e-9,8.120591940476056e-9,6
47711,2.1332942853710543e-9,7.007706795381713e-10,6.134204582810144e-10,2.575235481114855e-9,1.6205981518279095e-8,2.602426945010085e-8,7.147055144896876e-9,8.160202146384993e-9,6
47712,2.1332942853710543e-9,6.987995923464998e-10,6.163223882870502e-10,2.600176956128399e-9,1.6407102005287814e-8,2.6061124864437546e-8,7.140330252646504e-9,8.214312585787661e-9,6
47713,2.1332942853710543e-9,6.968285051548282e-10,6.192243182930861e-10,2.625118431141943e-9,1.660822249229653e-8,2.6097980278774243e-8,7.133605360396131e-9,8.268423025190329e-9,6
47714,2.1332942853710543e-9,6.948574179631566e-10,6.22126248299122e-10,2.6500599061554867e-9,1.6809342979305243e-8,2.613483569311094e-8,7.126880468145759e-9,8.322533464592997e-9,6
47715,2.1332942853710543e-9,6.92886330771485e-10,6.250281783051579e-10,2.6750013811690307e-9,1.701046346631396e-8,2.6171691107447637e-8,7.120155575895386e-9,8.376643903995666e-9,6
47716,2.1324541524968547e-9,6.916514106170457e-10,6.252093556995699e-10,2.698435139371369e-9,1.7031032839413097e-8,2.6278975343983758e-8,7.1218196658123974e-9,8.39237709754934e-9,6
47717,2.1317847095011513e-9,6.904164904626064e-10,6.264109441439844e-10,2.6968670839811196e-9,1.701898947323168e-8,2.6277153284595318e-8,7.120838709241828e-9,8.426519215716364e-9,6
47718,2.131115266505448e-9,6.891815703081671e-10,6.276125325883988e-10,2.6952990285908697e-9,1.700694610705026e-8,2.6275331225206882e-8,7.119857752671258e-9,8.4606613338833892e-09,6
47719,2.1304458235097445e-9,6.879466501537279e-10,6.288141210328132e-10,2.6937309732006202e-9,1.699490274086884e-8,2.6273509165818442e-8,7.1188767961006875e-9,8.494803452050414e-9,6
47720,2.130616513388241e-9,6.886828171909602e-10,6.300157094772277e-10,2.6921629178103703e-9,1.696964831757209e-8,2.627513816600253e-8,7.123819416860189e-9,8.527775747428167e-9,6
47721,2.1307872032667374e-9,6.894189842281925e-10,6.312172979216421e-10,2.6905948624201204e-9,1.6944393894275335e-8,2.6276767166186616e-8,7.128762037619692e-9,8.56074804280592e-9,6
47722,2.1309578931452337e-9,6.901551512654248e-10,6.324188863660566e-10,2.689026807029871e-9,1.691913947097858e-8,2.6278396166370704e-8,7.133704658379194e-9,8.593720338183674e-9,6
47723,2.1311285830237303e-9,6.908913183026571e-10,6.336204748104711e-10,2.687458751639621e-9,1.689388504768183e-8,2.628002516655479e-8,7.138647279138696e-9,8.626692633561429e-9,6
47724,2.1312992729022266e-9,6.916274853398893e-10,6.348220632548855e-10,2.685890696249371e-9,1.6868630624385074e-8,2.6281654166738878e-8,7.143589899898199e-9,8.659664928939182e-9,6
47725,2.131469962780723e-9,6.923636523771217e-10,6.360236516993e-10,2.6843226408591216e-9,1.684337620108832e-8,2.6283283166922965e-8,7.148532520657701e-9,8.692637224316935e-9,6
47726,2.131640652659219e-9,6.923636523771217e-10,6.372252401437144e-10,2.685962492288e-9,1.6830056449660636e-8,2.6284912167107052e-8,7.134959816004134e-9,8.672668903081292e-9,6
47727,2.1318113425377158e-9,6.923636523771217e-10,6.384268285881288e-10,2.6876023437168788e-9,1.681673669823295e-8,2.628654116729114e-8,7.1213871113505664e-9,8.652700581845647e-9,6
47728,2.131982032416212e-9,6.923636523771217e-10,6.396284170325433e-10,2.689242195145757e-9,1.680341694680526e-8,2.6288170167475227e-8,7.1078144066969984e-9,8.632732260610004e-9,6
47729,2.1323100956549225e-9,6.9367034836303e-10,6.411017715685758e-10,2.702632914118522e-9,1.6817138558019104e-8,2.628765130823406e-8,7.091036442362232e-9,8.58362754892677e-9,6
47730,2.1326381588936334e-9,6.949770443489383e-10,6.425751261046083e-10,2.716023633091287e-9,1.6830860169232946e-8,2.628713244899289e-8,7.074258478027464e-9,8.534522837243536e-9,6
47731,2.132966222132344e-9,6.962837403348467e-10,6.440484806406408e-10,2.7294143520640523e-9,1.684458178044679e-8,2.6286613589751724e-8,7.057480513692697e-9,8.485418125560302e-9,6
47732,2.1332942853710543e-9,6.97590436320755e-10,6.455218351766732e-10,2.7428050710368173e-9,1.685830339166063e-8,2.6286094730510554e-8,7.04070254935793e-9,8.436313413877067e-9,6
47733,2.1336223486097652e-9,6.988971323066633e-10,6.469951897127058e-10,2.756195790009582e-9,1.687202500287447e-8,2.6285575871269384e-8,7.023924585023163e-9,8.387208702193833e-9,6
47734,2.1339504118484757e-9,7.002038282925716e-10,6.484685442487383e-10,2.769586508982347e-9,1.6885746614088314e-8,2.6285057012028217e-8,7.007146620688396e-9,8.338103990510599e-9,6
47735,2.1342784750871862e-9,7.0151052427848e-10,6.499418987847708e-10,2.782977227955112e-9,1.6899468225302156e-8,2.6284538152787047e-8,6.990368656353628e-9,8.288999278827365e-9,6
47736,2.134606538325897e-9,7.028172202643883e-10,6.514152533208033e-10,2.7963679469278774e-9,1.6913189836516e-8,2.628401929354588e-8,6.973590692018861e-9,8.23989456714413e-9,6
47737,2.134606538325897e-9,7.028172202643883e-10,6.507124179935958e-10,2.803418467454209e-9,1.68992129482529e-8,2.639154480356954e-8,6.973590692018861e-9,8.197699612912338e-9,6
47738,2.134606538325897e-9,7.028172202643883e-10,6.500095826663884e-10,2.8104689879805407e-9,1.6885236059989806e-8,2.64990703135932e-8,6.973590692018861e-9,8.155504658680545e-9,6
47739,2.134606538325897e-9,7.028172202643883e-10,6.493067473391808e-10,2.8175195085068725e-9,1.687125917172671e-8,2.660659582361686e-8,6.973590692018861e-9,8.11330970444875e-9,6
47740,2.134606538325897e-9,7.028172202643883e-10,6.486039120119734e-10,2.8245700290332044e-9,1.6857282283463616e-8,2.671412133364052e-8,6.973590692018861e-9,8.071114750216957e-9,6
47741,2.134606538325897e-9,7.028172202643883e-10,6.479010766847659e-10,2.8316205495595362e-9,1.684330539520052e-8,2.682164684366418e-8,6.973590692018861e-9,8.028919795985164e-9,6
47742,2.134606538325897e-9,7.028172202643883e-10,6.471982413575585e-10,2.838671070085868e-9,1.6829328506937423e-8,2.6929172353687843e-8,6.973590692018861e-9,7.98672484175337e-9,6
47743,2.1321260892581442e-9,7.027693697100756e-10,6.450220514943185e-10,2.8357503474212553e-9,1.6768785593093277e-8,2.702478810727042e-8,6.984518350184847e-9,7.999483713151166e-9,6
47744,2.1296456401903913e-9,7.027215191557629e-10,6.428458616310785e-10,2.832829624756642e-9,1.6708242679249128e-8,2.7120403860852998e-8,6.995446008350833e-9,8.012242584548961e-9,6
47745,2.129317576951681e-9,7.034337609158389e-10,6.392410962978352e-10,2.8346054299563887e-9,1.6691637243644397e-8,2.7187622896967436e-8,7.0032298669120314e-9,8.020703190994117e-9,6
47746,2.12898951371297e-9,7.041460026759149e-10,6.356363309645918e-10,2.8363812351561356e-9,1.6675031808039665e-8,2.7254841933081873e-8,7.011013725473229e-9,8.02916379743927e-9,6
47747,2.1286614504742595e-9,7.048582444359907e-10,6.320315656313485e-10,2.8381570403558826e-9,1.665842637243493e-8,2.732206096919631e-8,7.018797584034426e-9,8.037624403884425e-9,6
47748,2.128333387235549e-9,7.055704861960667e-10,6.284268002981051e-10,2.839932845555629e-9,1.66418209368302e-8,2.738928000531075e-8,7.026581442595624e-9,8.04608501032958e-9,6
47749,2.128005323996838e-9,7.062827279561427e-10,6.248220349648619e-10,2.841708650755376e-9,1.6625215501225467e-8,2.7456499041425187e-8,7.034365301156822e-9,8.054545616774734e-9,6
47750,2.1276772607581276e-9,7.069949697162186e-10,6.212172696316185e-10,2.8434844559551226e-9,1.6608610065620732e-8,2.7523718077539628e-8,7.04214915971802e-9,8.063006223219889e-9,6
47751,2.127349197519417e-9,7.077072114762946e-10,6.176125042983752e-10,2.8452602611548695e-9,1.6592004630016e-8,2.7590937113654065e-8,7.049933018279217e-9,8.071466829665043e-9,6
47752,2.1278612671549063e-9,7.074458722791129e-10,6.140077389651318e-10,2.8399137497896553e-9,1.6606711946482958e-8,2.755063063974484e-8,7.053575571001213e-9,8.070850349635072e-9,6
47753,2.128373336790395e-9,7.071845330819313e-10,6.104029736318885e-10,2.8345672384244416e-9,1.6621419262949912e-8,2.7510324165835618e-8,7.057218123723208e-9,8.0702338696051e-9,6
47754,2.128885406425884e-9,7.069231938847495e-10,6.067982082986451e-10,2.8292207270592278e-9,1.663612657941687e-8,2.7470017691926397e-8,7.060860676445203e-9,8.06961738957513e-9,6
47755,2.1293974760613734e-9,7.066618546875679e-10,6.031934429654017e-10,2.823874215694014e-9,1.6650833895883827e-8,2.7429711218017174e-8,7.0645032291671986e-9,8.069000909545158e-9,6
47756,2.1299095456968625e-9,7.064005154903863e-10,5.995886776321584e-10,2.8185277043288e-9,1.666554121235078e-8,2.738940474410795e-8,7.068145781889194e-9,8.068384429515187e-9,6
47757,2.1304216153323517e-9,7.061391762932046e-10,5.95983912298915e-10,2.813181192963586e-9,1.6680248528817738e-8,2.734909827019873e-8,7.071788334611189e-9,8.067767949485215e-9,6
47758,2.130933684967841e-9,7.058778370960229e-10,5.923791469656717e-10,2.8078346815983722e-9,1.669495584528469e-8,2.7308791796289506e-8,7.0754308873331845e-9,8.067151469455245e-9,6
47759,2.13144575460333e-9,7.056164978988412e-10,5.887743816324284e-10,2.802488170233158e-9,1.670966316175165e-8,2.7268485322380285e-8,7.07907344005518e-9,8.066534989425273e-9,6
47760,2.131957824238819e-9,7.053551587016596e-10,5.851696162991851e-10,2.7971416588679443e-9,1.6724370478218606e-8,2.722817884847106e-8,7.082715992777176e-9,8.065918509395302e-9,6
47761,2.132469893874308e-9,7.050938195044779e-10,5.815648509659417e-10,2.7917951475027305e-9,1.673907779468556e-8,2.7187872374561838e-8,7.08635854549917e-9,8.06530202936533e-9,6
47762,2.132981963509797e-9,7.048324803072963e-10,5.779600856326984e-10,2.7864486361375167e-9,1.6753785111152517e-8,2.7147565900652617e-8,7.090001098221166e-9,8.06468554933536e-9,6
47763,2.1334940331452862e-9,7.045711411101145e-10,5.74355320299455e-10,2.7811021247723025e-9,1.676849242761947e-8,2.7107259426743394e-8,7.0936436509431615e-9,8.064069069305388e-9,6
47764,2.1340061027807754e-9,7.043098019129329e-10,5.707505549662116e-10,2.7757556134070887e-9,1.6783199744086428e-8,2.706695295283417e-8,7.097286203665157e-9,8.063452589275416e-9,6
47765,2.1345181724162646e-9,7.040484627157512e-10,5.671457896329683e-10,2.770409102041875e-9,1.6797907060553386e-8,2.702664647892495e-8,7.100928756387152e-9,8.062836109245446e-9,6
47766,2.1350302420517537e-9,7.037871235185696e-10,5.635410242997249e-10,2.7650625906766608e-9,1.681261437702034e-8,2.6986340005015726e-8,7.1045713091091474e-9,8.062219629215473e-9,6
47767,2.135542311687243e-9,7.035257843213879e-10,5.599362589664816e-10,2.759716079311447e-9,1.6827321693487297e-8,2.6946033531106502e-8,7.108213861831143e-9,8.061603149185503e-9,6
47768,2.1360543813227316e-9,7.032644451242062e-10,5.563314936332383e-10,2.754369567946233e-9,1.6842029009954254e-8,2.690572705719728e-8,7.111856414553138e-9,8.060986669155531e-9,6
47769,2.136566450958221e-9,7.030031059270245e-10,5.52726728299995e-10,2.7490230565810194e-9,1.6856736326421208e-8,2.6865420583288058e-8,7.115498967275133e-9,8.06037018912556e-9,6
